t,leadI,leadII,leadIII,aVR,aVL,aVF
0,911,570,-1563.29462491119,733.562780499988,805.6895784334,-1539.25235893339
0.00214018191546281,841,630,-927.908505654105,758.000708163722,316.931025158718,-1074.93173332244
0.00428036383092563,825,667,-668.866472418523,706.68106006988,148.309324278952,-854.990384348833
0.00642054574638844,876,698,-766.61818307346,506.290053227261,321.818610691464,-828.108663918725
0.00856072766185126,871,712,-673.754057951269,484.2959183299,263.167584298502,-747.463502628402
0.0107009095773141,867,719,-619.990617091054,476.964540030779,226.510692802901,-703.47523283368
0.0128410914927769,865,725,-580.88993282908,467.189368965286,202.072765139167,-669.262134104453
0.0149812734082397,864,726,-571.114761763586,467.189368965286,194.741386840047,-661.930755805333
0.0171214553237025,865,732,-546.676834099852,450.082819600672,184.966215774553,-635.049035375225
0.0192616372391653,868,743,-507.576149837878,415.869720871444,172.747251942686,-588.61697281413
0.0214018191546281,869,748,-488.02580770689,401.206964273204,165.415873643566,-566.622837916769
0.023542001070091,870,756,-453.812708977663,379.212829375843,150.753117045325,-529.965946421168
0.0256821829855538,874,765,-429.374781313928,347.443523412989,148.309324278952,-495.752847691941
0.0278223649010166,876,774,-395.161682584701,320.561802982881,136.090360447085,-456.652163429966
0.0299625468164794,878,777,-390.274097051954,308.342839151014,138.534153213458,-446.876992364472
0.0321027287319422,878,783,-360.948583855473,293.680082552774,123.871396615218,-417.551479167991
0.034242910647405,880,791,-331.623070658992,269.24215488904,114.096225549724,-383.338380438764
0.0363830925628678,880,794,-316.960314060752,261.910776589919,106.764847250604,-368.675623840523
0.0385232744783307,881,799,-297.409971929764,247.248019991679,99.4334689514837,-346.681488943163
0.0406634563937935,884,807,-272.97204426603,220.366299561571,94.5458834187369,-314.912182980308
0.0428036383092563,884,808,-268.084458733283,217.922506795198,92.1020906523635,-310.024597447562
0.0449438202247191,884,807,-272.97204426603,220.366299561571,94.5458834187369,-314.912182980308
0.0470840021401819,887,813,-258.30928766779,198.372164664211,94.5458834187369,-292.918048082948
0.0492241840556447,887,818,-233.871360004056,186.153200832344,82.3269195868699,-268.480120419214
0.0513643659711075,887,815,-248.534116602296,193.484579131464,89.6582978859901,-283.142877017454
0.0535045478865704,890,818,-248.534116602296,178.821822533223,96.9896761851103,-275.811498718334
0.0556447298020332,890,825,-214.321017873068,161.71527316861,79.8831268204965,-241.598399989106
0.057784911717496,891,828,-204.545846807575,151.940102103116,77.4393340541231,-229.379436157239
0.0599250936329588,890,828,-199.658261274828,154.383894869489,72.5517485213763,-226.935643390866
0.0620652755484216,890,831,-184.995504676587,147.052516570369,65.220370222256,-212.272886792625
0.0642054574638844,893,835,-180.107919143841,129.945967205755,70.1079557550028,-200.053922960758
0.0663456393793472,894,837,-175.220333611094,122.614588906635,70.1079557550028,-192.722544661638
0.0684858212948101,893,834,-184.995504676587,132.389759972129,72.5517485213763,-204.941508493505
0.0706260032102729,893,841,-150.78240594736,115.283210607515,55.4451991567624,-170.728409764277
0.0727661851257357,894,843,-145.894820414613,107.951832308395,55.4451991567624,-163.397031465157
0.0749063670411985,894,842,-150.78240594736,110.395625074768,57.8889919231358,-168.284616997904
0.0770465489566613,894,844,-141.007234881866,105.508039542021,53.001406390389,-158.50944593241
0.0791867308721241,896,847,-136.119649349119,93.2890757101541,55.4451991567624,-148.734274866916
0.0813269127875869,893,847,-121.456892750879,100.620454009274,40.7824425585219,-141.402896567796
0.0834670947030498,895,845,-141.007234881866,100.620454009274,55.4451991567624,-156.065653166037
0.0856072766185126,896,850,-121.456892750879,85.9576974110339,48.1138208576422,-134.071518268676
0.0877474585339754,896,850,-121.456892750879,85.9576974110339,48.1138208576422,-134.071518268676
0.0898876404494382,896,847,-136.119649349119,93.2890757101541,55.4451991567624,-148.734274866916
0.092027822364901,896,850,-121.456892750879,85.9576974110339,48.1138208576422,-134.071518268676
0.0941680042803638,895,853,-101.906550619892,81.0701118782871,35.8948570257751,-116.964968904062
0.0963081861958267,895,852,-106.794136152638,83.5139046446605,38.3386497921485,-121.852554436809
0.0984483681112895,897,852,-116.569307218132,78.6263191119136,48.1138208576422,-126.740139969556
0.100588550026752,898,858,-92.1313795543979,61.5197697472998,38.3386497921485,-99.8584195394483
0.102728731942215,896,854,-101.906550619892,76.1825263455402,38.3386497921485,-114.521176137689
0.104868913857678,895,852,-106.794136152638,83.5139046446605,38.3386497921485,-121.852554436809
0.107009095773141,896,854,-101.906550619892,76.1825263455402,38.3386497921485,-114.521176137689
0.109149277688604,899,858,-97.0189650871447,59.0759769809264,43.2262353248953,-102.302212305822
0.111289459604066,898,854,-111.681721685385,71.2949408127934,48.1138208576422,-119.408761670436
0.113429641519529,898,855,-106.794136152638,68.85114804642,45.6700280912687,-114.521176137689
0.115569823434992,898,857,-97.0189650871447,63.9635625136732,40.7824425585219,-104.746005072195
0.117710005350455,899,860,-87.2437940216511,54.1883914481796,38.3386497921485,-92.5270412403281
0.119850187265918,898,855,-106.794136152638,68.85114804642,45.6700280912687,-114.521176137689
0.12199036918138,897,861,-72.5810374234106,56.632184214553,26.1196859602815,-82.7518701748344
0.124130551096843,898,861,-77.4686229561574,54.1883914481796,31.0072714930283,-85.1956629412078
0.126270733012306,898,858,-92.1313795543979,61.5197697472998,38.3386497921485,-99.8584195394483
0.128410914927769,897,860,-77.4686229561574,59.0759769809264,28.5634787266549,-87.6394557075812
0.130551096843232,898,864,-62.805866357917,46.8570131490593,23.6758931939081,-70.5329063429674
0.132691278758694,899,864,-67.6934518906638,44.4132203826859,28.5634787266549,-72.9766991093408
0.134831460674157,899,860,-87.2437940216511,54.1883914481796,38.3386497921485,-92.5270412403281
0.13697164258962,900,862,-82.3562084889042,46.8570131490593,38.3386497921485,-85.1956629412078
0.139111824505083,899,862,-77.4686229561574,49.3008059154327,33.4510642594017,-82.7518701748344
0.141252006420546,897,856,-97.0189650871447,68.85114804642,38.3386497921485,-107.189797838569
0.143392188336009,898,855,-106.794136152638,68.85114804642,45.6700280912687,-114.521176137689
0.145532370251471,900,863,-77.4686229561574,44.4132203826859,35.8948570257751,-80.308077408461
0.147672552166934,899,863,-72.5810374234106,46.8570131490593,31.0072714930283,-77.8642846420876
0.149812734082397,898,859,-87.243794021651,59.0759769809264,35.8948570257751,-94.9708340067015
0.15195291599786,898,863,-67.6934518906638,49.3008059154327,26.1196859602815,-75.4204918757142
0.154093097913323,900,864,-72.5810374234106,41.9694276163125,33.4510642594017,-75.4204918757142
0.156233279828785,897,860,-77.4686229561574,59.0759769809264,28.5634787266549,-87.6394557075812
0.158373461744248,898,860,-82.3562084889042,56.632184214553,33.4510642594017,-90.0832484739547
0.160513643659711,899,863,-72.5810374234106,46.8570131490593,31.0072714930283,-77.8642846420876
0.162653825575174,899,864,-67.6934518906638,44.4132203826859,28.5634787266549,-72.9766991093408
0.164794007490637,897,860,-77.4686229561574,59.0759769809264,28.5634787266549,-87.6394557075812
0.1669341894061,900,864,-72.5810374234106,41.9694276163125,33.4510642594017,-75.4204918757142
0.169074371321562,899,864,-67.6934518906638,44.4132203826859,28.5634787266549,-72.9766991093408
0.171214553237025,899,862,-77.4686229561574,49.3008059154327,33.4510642594017,-82.7518701748344
0.173354735152488,899,862,-77.4686229561574,49.3008059154327,33.4510642594017,-82.7518701748344
0.175494917067951,900,866,-62.805866357917,37.0818420835657,28.5634787266549,-65.6453208102206
0.177635098983414,898,864,-62.805866357917,46.8570131490593,23.6758931939081,-70.5329063429674
0.179775280898876,898,860,-82.3562084889042,56.632184214553,33.4510642594017,-90.0832484739547
0.181915462814339,899,864,-67.6934518906638,44.4132203826859,28.5634787266549,-72.9766991093408
0.184055644729802,900,866,-62.805866357917,37.0818420835657,28.5634787266549,-65.6453208102206
0.186195826645265,899,864,-67.6934518906638,44.4132203826859,28.5634787266549,-72.9766991093408
0.188336008560728,900,864,-72.5810374234106,41.9694276163125,33.4510642594017,-75.4204918757142
0.19047619047619,899,864,-67.6934518906638,44.4132203826859,28.5634787266549,-72.9766991093408
0.192616372391653,900,862,-82.3562084889042,46.8570131490593,38.3386497921485,-85.1956629412078
0.194756554307116,898,861,-77.4686229561574,54.1883914481796,31.0072714930283,-85.1956629412078
0.196896736222579,900,863,-77.4686229561574,44.4132203826859,35.8948570257751,-80.308077408461
0.199036918138042,899,866,-57.9182808251701,39.5256348499391,23.6758931939081,-63.2015280438472
0.201177100053505,898,862,-72.5810374234106,51.7445986818061,28.5634787266549,-80.308077408461
0.203317281968967,898,862,-72.5810374234106,51.7445986818061,28.5634787266549,-80.308077408461
0.20545746388443,900,864,-72.5810374234106,41.9694276163125,33.4510642594017,-75.4204918757142
0.207597645799893,899,863,-72.5810374234106,46.8570131490593,31.0072714930283,-77.8642846420876
0.209737827715356,900,862,-82.3562084889042,46.8570131490593,38.3386497921485,-85.1956629412078
0.211878009630819,900,863,-77.4686229561574,44.4132203826859,35.8948570257751,-80.308077408461
0.214018191546281,901,864,-77.4686229561574,39.5256348499391,38.3386497921485,-77.8642846420876
0.216158373461744,899,864,-67.6934518906638,44.4132203826859,28.5634787266549,-72.9766991093408
0.218298555377207,900,864,-72.5810374234106,41.9694276163125,33.4510642594017,-75.4204918757142
0.22043873729267,901,865,-72.5810374234106,37.0818420835657,35.8948570257751,-72.9766991093408
0.222578919208133,901,865,-72.5810374234106,37.0818420835657,35.8948570257751,-72.9766991093408
0.224719101123595,900,868,-53.0306952924233,32.1942565508189,23.6758931939081,-55.8701497447269
0.226859283039058,900,867,-57.9182808251701,34.6380493171923,26.1196859602815,-60.7577352774737
0.228999464954521,901,867,-62.805866357917,32.1942565508189,31.0072714930283,-63.2015280438472
0.231139646869984,899,864,-67.6934518906638,44.4132203826859,28.5634787266549,-72.9766991093408
0.233279828785447,900,867,-57.9182808251701,34.6380493171923,26.1196859602815,-60.7577352774737
0.23542001070091,900,869,-48.1431097596765,29.7504637844455,21.2321004275347,-50.9825642119801
0.237560192616372,900,866,-62.805866357917,37.0818420835657,28.5634787266549,-65.6453208102206
0.239700374531835,899,867,-53.0306952924233,37.0818420835657,21.2321004275347,-58.3139425111003
0.241840556447298,901,870,-48.1431097596765,24.8628782516986,23.6758931939081,-48.5387714456067
0.243980738362761,902,869,-57.9182808251701,24.8628782516986,31.0072714930283,-55.8701497447269
0.246120920278224,900,867,-57.9182808251701,34.6380493171923,26.1196859602815,-60.7577352774737
0.248261102193686,898,865,-57.9182808251702,44.4132203826859,21.2321004275347,-65.6453208102206
0.250401284109149,900,870,-43.2555242269297,27.306671018072,18.7883076611612,-46.0949786792333
0.252541466024612,899,867,-53.0306952924233,37.0818420835657,21.2321004275347,-58.3139425111003
0.254681647940075,900,865,-67.6934518906638,39.5256348499391,31.0072714930283,-70.5329063429674
0.256821829855538,901,867,-62.805866357917,32.1942565508189,31.0072714930283,-63.2015280438472
0.258962011771001,901,871,-43.2555242269297,22.4190854853252,21.2321004275347,-43.6511859128599
0.261102193686463,899,866,-57.9182808251701,39.5256348499391,23.6758931939081,-63.2015280438472
0.263242375601926,899,863,-72.5810374234106,46.8570131490593,31.0072714930283,-77.8642846420876
0.265382557517389,900,865,-67.6934518906638,39.5256348499391,31.0072714930283,-70.5329063429674
0.267522739432852,900,867,-57.9182808251701,34.6380493171923,26.1196859602815,-60.7577352774737
0.269662921348315,899,864,-67.6934518906638,44.4132203826859,28.5634787266549,-72.9766991093408
0.271803103263777,899,868,-48.1431097596765,34.6380493171923,18.7883076611612,-53.4263569783535
0.27394328517924,900,870,-43.2555242269297,27.306671018072,18.7883076611612,-46.0949786792333
0.276083467094703,903,869,-62.805866357917,22.4190854853252,35.8948570257751,-58.3139425111003
0.278223649010166,901,867,-62.805866357917,32.1942565508189,31.0072714930283,-63.2015280438472
0.280363830925629,902,868,-62.805866357917,27.306671018072,33.4510642594017,-60.7577352774737
0.282504012841092,900,865,-67.6934518906638,39.5256348499391,31.0072714930283,-70.5329063429674
0.284644194756554,900,865,-67.6934518906638,39.5256348499391,31.0072714930283,-70.5329063429674
0.286784376672017,899,868,-48.1431097596765,34.6380493171923,18.7883076611612,-53.4263569783535
0.28892455858748,902,865,-77.4686229561574,34.6380493171923,40.7824425585219,-75.4204918757142
0.291064740502943,899,864,-67.6934518906638,44.4132203826859,28.5634787266549,-72.9766991093408
0.293204922418406,899,865,-62.805866357917,41.9694276163125,26.1196859602815,-68.089113576594
0.295345104333868,901,867,-62.805866357917,32.1942565508189,31.0072714930283,-63.2015280438472
0.297485286249331,899,864,-67.6934518906638,44.4132203826859,28.5634787266549,-72.9766991093408
0.299625468164794,899,862,-77.4686229561574,49.3008059154327,33.4510642594017,-82.7518701748344
0.301765650080257,901,864,-77.4686229561574,39.5256348499391,38.3386497921485,-77.8642846420876
0.30390583199572,899,867,-53.0306952924233,37.0818420835657,21.2321004275347,-58.3139425111003
0.306046013911182,898,862,-72.5810374234106,51.7445986818061,28.5634787266549,-80.308077408461
0.308186195826645,900,865,-67.6934518906638,39.5256348499391,31.0072714930283,-70.5329063429674
0.310326377742108,900,867,-57.9182808251701,34.6380493171923,26.1196859602815,-60.7577352774737
0.312466559657571,901,866,-67.6934518906638,34.6380493171923,33.4510642594017,-68.089113576594
0.314606741573034,900,864,-72.5810374234106,41.9694276163125,33.4510642594017,-75.4204918757142
0.316746923488497,900,868,-53.0306952924233,32.1942565508189,23.6758931939081,-55.8701497447269
0.318887105403959,899,869,-43.2555242269297,32.1942565508189,16.3445148947878,-48.5387714456067
0.321027287319422,900,864,-72.5810374234106,41.9694276163125,33.4510642594017,-75.4204918757142
0.323167469234885,900,863,-77.4686229561574,44.4132203826859,35.8948570257751,-80.308077408461
0.325307651150348,899,866,-57.9182808251701,39.5256348499391,23.6758931939081,-63.2015280438472
0.327447833065811,901,862,-87.2437940216511,44.4132203826859,43.2262353248953,-87.6394557075812
0.329588014981273,901,863,-82.3562084889042,41.9694276163125,40.7824425585219,-82.7518701748344
0.331728196896736,900,866,-62.805866357917,37.0818420835657,28.5634787266549,-65.6453208102206
0.333868378812199,898,866,-53.0306952924233,41.9694276163125,18.7883076611612,-60.7577352774737
0.336008560727662,897,863,-62.805866357917,51.7445986818061,21.2321004275346,-72.9766991093408
0.338148742643125,902,867,-67.6934518906638,29.7504637844455,35.8948570257751,-65.6453208102206
0.340288924558588,900,865,-67.6934518906638,39.5256348499391,31.0072714930283,-70.5329063429674
0.34242910647405,899,862,-77.4686229561574,49.3008059154327,33.4510642594017,-82.7518701748344
0.344569288389513,900,864,-72.5810374234106,41.9694276163125,33.4510642594017,-75.4204918757142
0.346709470304976,902,869,-57.9182808251701,24.8628782516986,31.0072714930283,-55.8701497447269
0.348849652220439,903,866,-77.4686229561574,29.7504637844455,43.2262353248953,-72.9766991093408
0.350989834135902,899,864,-67.6934518906638,44.4132203826859,28.5634787266549,-72.9766991093408
0.353130016051364,900,866,-62.805866357917,37.0818420835657,28.5634787266549,-65.6453208102206
0.355270197966827,902,867,-67.6934518906638,29.7504637844455,35.8948570257751,-65.6453208102206
0.35741037988229,900,863,-77.4686229561574,44.4132203826859,35.8948570257751,-80.308077408461
0.359550561797753,899,864,-67.6934518906638,44.4132203826859,28.5634787266549,-72.9766991093408
0.361690743713216,900,869,-48.1431097596765,29.7504637844455,21.2321004275347,-50.9825642119801
0.363830925628678,901,868,-57.9182808251701,29.7504637844455,28.5634787266549,-58.3139425111003
0.365971107544141,901,865,-72.5810374234106,37.0818420835657,35.8948570257751,-72.9766991093408
0.368111289459604,903,867,-72.5810374234106,27.306671018072,40.7824425585219,-68.089113576594
0.370251471375067,900,868,-53.0306952924233,32.1942565508189,23.6758931939081,-55.8701497447269
0.37239165329053,900,866,-62.805866357917,37.0818420835657,28.5634787266549,-65.6453208102206
0.374531835205993,899,863,-72.5810374234106,46.8570131490593,31.0072714930283,-77.8642846420876
0.376672017121455,901,866,-67.6934518906638,34.6380493171923,33.4510642594017,-68.089113576594
0.378812199036918,899,867,-53.0306952924233,37.0818420835657,21.2321004275347,-58.3139425111003
0.380952380952381,902,866,-72.5810374234106,32.1942565508189,38.3386497921485,-70.5329063429674
0.383092562867844,902,869,-57.9182808251701,24.8628782516986,31.0072714930283,-55.8701497447269
0.385232744783307,901,868,-57.9182808251701,29.7504637844455,28.5634787266549,-58.3139425111003
0.387372926698769,899,866,-57.9182808251701,39.5256348499391,23.6758931939081,-63.2015280438472
0.389513108614232,901,865,-72.5810374234106,37.0818420835657,35.8948570257751,-72.9766991093408
0.391653290529695,901,866,-67.6934518906638,34.6380493171923,33.4510642594017,-68.089113576594
0.393793472445158,901,864,-77.4686229561574,39.5256348499391,38.3386497921485,-77.8642846420876
0.395933654360621,900,865,-67.6934518906638,39.5256348499391,31.0072714930283,-70.5329063429674
0.398073836276083,902,869,-57.9182808251701,24.8628782516986,31.0072714930283,-55.8701497447269
0.400214018191546,899,872,-28.5927676286892,24.8628782516986,9.0131365956676,-33.8760148473662
0.402354200107009,901,866,-67.6934518906638,34.6380493171923,33.4510642594017,-68.089113576594
0.404494382022472,901,864,-77.4686229561574,39.5256348499391,38.3386497921485,-77.8642846420876
0.406634563937935,901,869,-53.0306952924233,27.306671018072,26.1196859602815,-53.4263569783535
0.408774745853398,899,863,-72.5810374234106,46.8570131490593,31.0072714930283,-77.8642846420876
0.41091492776886,900,864,-72.5810374234106,41.9694276163125,33.4510642594017,-75.4204918757142
0.413055109684323,899,866,-57.9182808251701,39.5256348499391,23.6758931939081,-63.2015280438472
0.415195291599786,902,867,-67.6934518906638,29.7504637844455,35.8948570257751,-65.6453208102206
0.417335473515249,900,866,-62.805866357917,37.0818420835657,28.5634787266549,-65.6453208102206
0.419475655430712,900,863,-77.4686229561574,44.4132203826859,35.8948570257751,-80.308077408461
0.421615837346174,902,867,-67.6934518906638,29.7504637844455,35.8948570257751,-65.6453208102206
0.423756019261637,901,864,-77.4686229561574,39.5256348499391,38.3386497921485,-77.8642846420876
0.4258962011771,902,864,-82.3562084889042,37.0818420835657,43.2262353248953,-80.308077408461
0.428036383092563,901,865,-72.5810374234106,37.0818420835657,35.8948570257751,-72.9766991093408
0.430176565008026,900,868,-53.0306952924233,32.1942565508189,23.6758931939081,-55.8701497447269
0.432316746923488,901,866,-67.6934518906638,34.6380493171923,33.4510642594017,-68.089113576594
0.434456928838951,903,869,-62.805866357917,22.4190854853252,35.8948570257751,-58.3139425111003
0.436597110754414,902,869,-57.9182808251701,24.8628782516986,31.0072714930283,-55.8701497447269
0.438737292669877,901,866,-67.6934518906638,34.6380493171923,33.4510642594017,-68.089113576594
0.44087747458534,901,867,-62.805866357917,32.1942565508189,31.0072714930283,-63.2015280438472
0.443017656500803,901,871,-43.2555242269297,22.4190854853252,21.2321004275347,-43.6511859128599
0.445157838416265,901,866,-67.6934518906638,34.6380493171923,33.4510642594017,-68.089113576594
0.447298020331728,900,865,-67.6934518906638,39.5256348499391,31.0072714930283,-70.5329063429674
0.449438202247191,900,866,-62.805866357917,37.0818420835657,28.5634787266549,-65.6453208102206
0.451578384162654,902,872,-43.2555242269297,17.5314999525784,23.6758931939081,-41.2073931464865
0.453718566078117,901,865,-72.5810374234106,37.0818420835657,35.8948570257751,-72.9766991093408
0.455858747993579,900,865,-67.6934518906638,39.5256348499391,31.0072714930283,-70.5329063429674
0.457998929909042,900,865,-67.6934518906638,39.5256348499391,31.0072714930283,-70.5329063429674
0.460139111824505,899,869,-43.2555242269297,32.1942565508189,16.3445148947878,-48.5387714456067
0.462279293739968,899,864,-67.6934518906638,44.4132203826859,28.5634787266549,-72.9766991093408
0.464419475655431,900,863,-77.4686229561574,44.4132203826859,35.8948570257751,-80.308077408461
0.466559657570894,899,866,-57.9182808251701,39.5256348499391,23.6758931939081,-63.2015280438472
0.468699839486356,901,865,-72.5810374234106,37.0818420835657,35.8948570257751,-72.9766991093408
0.470840021401819,902,863,-87.243794021651,39.5256348499391,45.6700280912687,-85.1956629412078
0.472980203317282,902,867,-67.6934518906638,29.7504637844455,35.8948570257751,-65.6453208102206
0.475120385232745,902,867,-67.6934518906638,29.7504637844455,35.8948570257751,-65.6453208102206
0.477260567148208,900,864,-72.5810374234106,41.9694276163125,33.4510642594017,-75.4204918757142
0.47940074906367,900,866,-62.805866357917,37.0818420835657,28.5634787266549,-65.6453208102206
0.481540930979133,901,868,-57.9182808251701,29.7504637844455,28.5634787266549,-58.3139425111003
0.483681112894596,900,867,-57.9182808251701,34.6380493171923,26.1196859602815,-60.7577352774737
0.485821294810059,900,866,-62.805866357917,37.0818420835657,28.5634787266549,-65.6453208102206
0.487961476725522,903,872,-48.1431097596765,15.087707186205,28.5634787266549,-43.6511859128599
0.490101658640984,902,870,-53.0306952924233,22.4190854853252,28.5634787266549,-50.9825642119801
0.492241840556447,900,866,-62.805866357917,37.0818420835657,28.5634787266549,-65.6453208102206
0.49438202247191,901,869,-53.0306952924233,27.306671018072,26.1196859602815,-53.4263569783535
0.496522204387373,901,871,-43.2555242269297,22.4190854853252,21.2321004275347,-43.6511859128599
0.498662386302836,902,864,-82.3562084889042,37.0818420835657,43.2262353248953,-80.308077408461
0.500802568218299,900,863,-77.4686229561574,44.4132203826859,35.8948570257751,-80.308077408461
0.502942750133761,902,868,-62.805866357917,27.306671018072,33.4510642594017,-60.7577352774737
0.505082932049224,902,869,-57.9182808251701,24.8628782516986,31.0072714930283,-55.8701497447269
0.507223113964687,901,868,-57.9182808251701,29.7504637844455,28.5634787266549,-58.3139425111003
0.50936329588015,901,870,-48.1431097596765,24.8628782516986,23.6758931939081,-48.5387714456067
0.511503477795613,903,871,-53.0306952924233,17.5314999525784,31.0072714930283,-48.5387714456067
0.513643659711075,900,866,-62.805866357917,37.0818420835657,28.5634787266549,-65.6453208102206
0.515783841626538,901,866,-67.6934518906638,34.6380493171923,33.4510642594017,-68.089113576594
0.517924023542001,901,868,-57.9182808251701,29.7504637844455,28.5634787266549,-58.3139425111003
0.520064205457464,900,869,-48.1431097596765,29.7504637844455,21.2321004275347,-50.9825642119801
0.522204387372927,899,866,-57.9182808251701,39.5256348499391,23.6758931939081,-63.2015280438472
0.524344569288389,901,869,-53.0306952924233,27.306671018072,26.1196859602815,-53.4263569783535
0.526484751203852,901,870,-48.1431097596765,24.8628782516986,23.6758931939081,-48.5387714456067
0.528624933119315,901,868,-57.9182808251701,29.7504637844455,28.5634787266549,-58.3139425111003
0.530765115034778,900,865,-67.6934518906638,39.5256348499391,31.0072714930283,-70.5329063429674
0.532905296950241,900,868,-53.0306952924233,32.1942565508189,23.6758931939081,-55.8701497447269
0.535045478865704,901,869,-53.0306952924233,27.306671018072,26.1196859602815,-53.4263569783535
0.537185660781166,899,869,-43.2555242269297,32.1942565508189,16.3445148947878,-48.5387714456067
0.539325842696629,901,869,-53.0306952924233,27.306671018072,26.1196859602815,-53.4263569783535
0.541466024612092,902,870,-53.0306952924233,22.4190854853252,28.5634787266549,-50.9825642119801
0.543606206527555,900,866,-62.805866357917,37.0818420835657,28.5634787266549,-65.6453208102206
0.545746388443018,901,869,-53.0306952924233,27.306671018072,26.1196859602815,-53.4263569783535
0.54788657035848,901,870,-48.1431097596765,24.8628782516986,23.6758931939081,-48.5387714456067
0.550026752273943,899,869,-43.2555242269297,32.1942565508189,16.3445148947878,-48.5387714456067
0.552166934189406,900,865,-67.6934518906638,39.5256348499391,31.0072714930283,-70.5329063429674
0.554307116104869,903,869,-62.805866357917,22.4190854853252,35.8948570257751,-58.3139425111003
0.556447298020332,901,869,-53.0306952924233,27.306671018072,26.1196859602815,-53.4263569783535
0.558587479935794,900,865,-67.6934518906638,39.5256348499391,31.0072714930283,-70.5329063429674
0.560727661851257,902,866,-72.5810374234106,32.1942565508189,38.3386497921485,-70.5329063429674
0.56286784376672,902,867,-67.6934518906638,29.7504637844455,35.8948570257751,-65.6453208102206
0.565008025682183,900,868,-53.0306952924233,32.1942565508189,23.6758931939081,-55.8701497447269
0.567148207597646,898,865,-57.9182808251702,44.4132203826859,21.2321004275347,-65.6453208102206
0.569288389513109,900,867,-57.9182808251701,34.6380493171923,26.1196859602815,-60.7577352774737
0.571428571428571,902,867,-67.6934518906638,29.7504637844455,35.8948570257751,-65.6453208102206
0.573568753344034,901,865,-72.5810374234106,37.0818420835657,35.8948570257751,-72.9766991093408
0.575708935259497,900,866,-62.805866357917,37.0818420835657,28.5634787266549,-65.6453208102206
0.57784911717496,902,869,-57.9182808251701,24.8628782516986,31.0072714930283,-55.8701497447269
0.579989299090423,902,869,-57.9182808251701,24.8628782516986,31.0072714930283,-55.8701497447269
0.582129481005885,900,869,-48.1431097596765,29.7504637844455,21.2321004275347,-50.9825642119801
0.584269662921348,902,869,-57.9182808251701,24.8628782516986,31.0072714930283,-55.8701497447269
0.586409844836811,902,869,-57.9182808251701,24.8628782516986,31.0072714930283,-55.8701497447269
0.588550026752274,901,865,-72.5810374234106,37.0818420835657,35.8948570257751,-72.9766991093408
0.590690208667737,900,867,-57.9182808251701,34.6380493171923,26.1196859602815,-60.7577352774737
0.5928303905832,901,870,-48.1431097596765,24.8628782516986,23.6758931939081,-48.5387714456067
0.594970572498662,902,869,-57.9182808251701,24.8628782516986,31.0072714930283,-55.8701497447269
0.597110754414125,901,867,-62.805866357917,32.1942565508189,31.0072714930283,-63.2015280438472
0.599250936329588,902,872,-43.2555242269297,17.5314999525784,23.6758931939081,-41.2073931464865
0.601391118245051,902,869,-57.9182808251701,24.8628782516986,31.0072714930283,-55.8701497447269
0.603531300160514,902,866,-72.5810374234106,32.1942565508189,38.3386497921485,-70.5329063429674
0.605671482075976,901,867,-62.805866357917,32.1942565508189,31.0072714930283,-63.2015280438472
0.607811663991439,901,870,-48.1431097596765,24.8628782516986,23.6758931939081,-48.5387714456067
0.609951845906902,901,868,-57.9182808251701,29.7504637844455,28.5634787266549,-58.3139425111003
0.612092027822365,902,867,-67.6934518906638,29.7504637844455,35.8948570257751,-65.6453208102206
0.614232209737828,902,871,-48.1431097596765,19.9752927189518,26.1196859602815,-46.0949786792333
0.61637239165329,901,874,-28.5927676286892,15.087707186205,13.9007221284144,-28.9884293146194
0.618512573568753,899,869,-43.2555242269297,32.1942565508189,16.3445148947878,-48.5387714456067
0.620652755484216,902,868,-62.805866357917,27.306671018072,33.4510642594017,-60.7577352774737
0.622792937399679,901,870,-48.1431097596765,24.8628782516986,23.6758931939081,-48.5387714456067
0.624933119315142,899,867,-53.0306952924233,37.0818420835657,21.2321004275347,-58.3139425111003
0.627073301230605,900,867,-57.9182808251701,34.6380493171923,26.1196859602815,-60.7577352774737
0.629213483146067,900,869,-48.1431097596765,29.7504637844455,21.2321004275347,-50.9825642119801
0.63135366506153,901,870,-48.1431097596765,24.8628782516986,23.6758931939081,-48.5387714456067
0.633493846976993,901,869,-53.0306952924233,27.306671018072,26.1196859602815,-53.4263569783535
0.635634028892456,901,867,-62.805866357917,32.1942565508189,31.0072714930283,-63.2015280438472
0.637774210807919,901,872,-38.3679386941829,19.9752927189518,18.7883076611612,-38.7636003801131
0.639914392723381,900,867,-57.9182808251701,34.6380493171923,26.1196859602815,-60.7577352774737
0.642054574638844,900,870,-43.2555242269297,27.306671018072,18.7883076611612,-46.0949786792333
0.644194756554307,901,869,-53.0306952924233,27.306671018072,26.1196859602815,-53.4263569783535
0.64633493846977,900,870,-43.2555242269297,27.306671018072,18.7883076611612,-46.0949786792333
0.648475120385233,901,866,-67.6934518906638,34.6380493171923,33.4510642594017,-68.089113576594
0.650615302300696,902,868,-62.805866357917,27.306671018072,33.4510642594017,-60.7577352774737
0.652755484216158,902,869,-57.9182808251701,24.8628782516986,31.0072714930283,-55.8701497447269
0.654895666131621,900,866,-62.805866357917,37.0818420835657,28.5634787266549,-65.6453208102206
0.657035848047084,902,865,-77.4686229561574,34.6380493171923,40.7824425585219,-75.4204918757142
0.659176029962547,902,867,-67.6934518906638,29.7504637844455,35.8948570257751,-65.6453208102206
0.66131621187801,901,870,-48.1431097596765,24.8628782516986,23.6758931939081,-48.5387714456067
0.663456393793472,900,866,-62.805866357917,37.0818420835657,28.5634787266549,-65.6453208102206
0.665596575708935,901,868,-57.9182808251701,29.7504637844455,28.5634787266549,-58.3139425111003
0.667736757624398,900,871,-38.3679386941829,24.8628782516986,16.3445148947878,-41.2073931464865
0.669876939539861,900,868,-53.0306952924233,32.1942565508189,23.6758931939081,-55.8701497447269
0.672017121455324,900,867,-57.9182808251701,34.6380493171923,26.1196859602815,-60.7577352774737
0.674157303370786,900,869,-48.1431097596765,29.7504637844455,21.2321004275347,-50.9825642119801
0.676297485286249,901,867,-62.805866357917,32.1942565508189,31.0072714930283,-63.2015280438472
0.678437667201712,900,866,-62.805866357917,37.0818420835657,28.5634787266549,-65.6453208102206
0.680577849117175,900,869,-48.1431097596765,29.7504637844455,21.2321004275347,-50.9825642119801
0.682718031032638,901,869,-53.0306952924233,27.306671018072,26.1196859602815,-53.4263569783535
0.684858212948101,900,869,-48.1431097596765,29.7504637844455,21.2321004275347,-50.9825642119801
0.686998394863563,899,868,-48.1431097596765,34.6380493171923,18.7883076611612,-53.4263569783535
0.689138576779026,901,869,-53.0306952924233,27.306671018072,26.1196859602815,-53.4263569783535
0.691278758694489,901,869,-53.0306952924233,27.306671018072,26.1196859602815,-53.4263569783535
0.693418940609952,900,865,-67.6934518906638,39.5256348499391,31.0072714930283,-70.5329063429674
0.695559122525415,900,868,-53.0306952924233,32.1942565508189,23.6758931939081,-55.8701497447269
0.697699304440877,899,870,-38.3679386941829,29.7504637844455,13.9007221284144,-43.6511859128599
0.69983948635634,899,866,-57.9182808251701,39.5256348499391,23.6758931939081,-63.2015280438472
0.701979668271803,898,866,-53.0306952924233,41.9694276163125,18.7883076611612,-60.7577352774737
0.704119850187266,902,871,-48.1431097596765,19.9752927189518,26.1196859602815,-46.0949786792333
0.706260032102729,902,870,-53.0306952924233,22.4190854853252,28.5634787266549,-50.9825642119801
0.708400214018192,899,868,-48.1431097596765,34.6380493171923,18.7883076611612,-53.4263569783535
0.710540395933654,900,869,-48.1431097596765,29.7504637844455,21.2321004275347,-50.9825642119801
0.712680577849117,902,869,-57.9182808251701,24.8628782516986,31.0072714930283,-55.8701497447269
0.71482075976458,901,866,-67.6934518906638,34.6380493171923,33.4510642594017,-68.089113576594
0.716960941680043,900,865,-67.6934518906638,39.5256348499391,31.0072714930283,-70.5329063429674
0.719101123595506,900,870,-43.2555242269297,27.306671018072,18.7883076611612,-46.0949786792333
0.721241305510968,901,873,-33.480353161436,17.5314999525784,16.3445148947878,-33.8760148473662
0.723381487426431,902,868,-62.805866357917,27.306671018072,33.4510642594017,-60.7577352774737
0.725521669341894,901,871,-43.2555242269297,22.4190854853252,21.2321004275347,-43.6511859128599
0.727661851257357,902,869,-57.9182808251701,24.8628782516986,31.0072714930283,-55.8701497447269
0.72980203317282,902,869,-57.9182808251701,24.8628782516986,31.0072714930283,-55.8701497447269
0.731942215088282,899,864,-67.6934518906638,44.4132203826859,28.5634787266549,-72.9766991093408
0.734082397003745,901,869,-53.0306952924233,27.306671018072,26.1196859602815,-53.4263569783535
0.736222578919208,901,870,-48.1431097596765,24.8628782516986,23.6758931939081,-48.5387714456067
0.738362760834671,899,869,-43.2555242269297,32.1942565508189,16.3445148947878,-48.5387714456067
0.740502942750134,901,871,-43.2555242269297,22.4190854853252,21.2321004275347,-43.6511859128599
0.742643124665597,904,872,-53.0306952924233,12.6439144198316,33.4510642594017,-46.0949786792333
0.744783306581059,899,868,-48.1431097596765,34.6380493171923,18.7883076611612,-53.4263569783535
0.746923488496522,899,867,-53.0306952924233,37.0818420835657,21.2321004275347,-58.3139425111003
0.749063670411985,901,872,-38.3679386941829,19.9752927189518,18.7883076611612,-38.7636003801131
0.751203852327448,900,868,-53.0306952924233,32.1942565508189,23.6758931939081,-55.8701497447269
0.753344034242911,899,867,-53.0306952924233,37.0818420835657,21.2321004275347,-58.3139425111003
0.755484216158373,903,869,-62.805866357917,22.4190854853252,35.8948570257751,-58.3139425111003
0.757624398073836,901,873,-33.480353161436,17.5314999525784,16.3445148947878,-33.8760148473662
0.759764579989299,901,868,-57.9182808251701,29.7504637844455,28.5634787266549,-58.3139425111003
0.761904761904762,901,867,-62.805866357917,32.1942565508189,31.0072714930283,-63.2015280438472
0.764044943820225,903,870,-57.9182808251701,19.9752927189518,33.4510642594017,-53.4263569783535
0.766185125735688,899,871,-33.480353161436,27.306671018072,11.456929362041,-38.7636003801131
0.76832530765115,901,867,-62.805866357917,32.1942565508189,31.0072714930283,-63.2015280438472
0.770465489566613,902,871,-48.1431097596765,19.9752927189518,26.1196859602815,-46.0949786792333
0.772605671482076,902,871,-48.1431097596765,19.9752927189518,26.1196859602815,-46.0949786792333
0.774745853397539,901,871,-43.2555242269297,22.4190854853252,21.2321004275347,-43.6511859128599
0.776886035313002,902,867,-67.6934518906638,29.7504637844455,35.8948570257751,-65.6453208102206
0.779026217228464,901,869,-53.0306952924233,27.306671018072,26.1196859602815,-53.4263569783535
0.781166399143927,901,869,-53.0306952924233,27.306671018072,26.1196859602815,-53.4263569783535
0.78330658105939,900,868,-53.0306952924233,32.1942565508189,23.6758931939081,-55.8701497447269
0.785446762974853,900,869,-48.1431097596765,29.7504637844455,21.2321004275347,-50.9825642119801
0.787586944890316,901,869,-53.0306952924233,27.306671018072,26.1196859602815,-53.4263569783535
0.789727126805779,899,866,-57.9182808251701,39.5256348499391,23.6758931939081,-63.2015280438472
0.791867308721241,901,867,-62.805866357917,32.1942565508189,31.0072714930283,-63.2015280438472
0.794007490636704,901,869,-53.0306952924233,27.306671018072,26.1196859602815,-53.4263569783535
0.796147672552167,901,867,-62.805866357917,32.1942565508189,31.0072714930283,-63.2015280438472
0.79828785446763,900,866,-62.805866357917,37.0818420835657,28.5634787266549,-65.6453208102206
0.800428036383093,901,870,-48.1431097596765,24.8628782516986,23.6758931939081,-48.5387714456067
0.802568218298555,899,868,-48.1431097596765,34.6380493171923,18.7883076611612,-53.4263569783535
0.804708400214018,899,865,-62.805866357917,41.9694276163125,26.1196859602815,-68.089113576594
0.806848582129481,903,868,-67.6934518906638,24.8628782516986,38.3386497921485,-63.2015280438472
0.808988764044944,903,870,-57.9182808251701,19.9752927189518,33.4510642594017,-53.4263569783535
0.811128945960407,900,869,-48.1431097596765,29.7504637844455,21.2321004275347,-50.9825642119801
0.813269127875869,900,866,-62.805866357917,37.0818420835657,28.5634787266549,-65.6453208102206
0.815409309791332,902,869,-57.9182808251701,24.8628782516986,31.0072714930283,-55.8701497447269
0.817549491706795,902,872,-43.2555242269297,17.5314999525784,23.6758931939081,-41.2073931464865
0.819689673622258,899,866,-57.9182808251701,39.5256348499391,23.6758931939081,-63.2015280438472
0.821829855537721,901,867,-62.805866357917,32.1942565508189,31.0072714930283,-63.2015280438472
0.823970037453184,902,870,-53.0306952924233,22.4190854853252,28.5634787266549,-50.9825642119801
0.826110219368646,899,870,-38.3679386941829,29.7504637844455,13.9007221284144,-43.6511859128599
0.828250401284109,900,868,-53.0306952924233,32.1942565508189,23.6758931939081,-55.8701497447269
0.830390583199572,901,871,-43.2555242269297,22.4190854853252,21.2321004275347,-43.6511859128599
0.832530765115035,901,871,-43.2555242269297,22.4190854853252,21.2321004275347,-43.6511859128599
0.834670947030498,900,869,-48.1431097596765,29.7504637844455,21.2321004275347,-50.9825642119801
0.83681112894596,901,869,-53.0306952924233,27.306671018072,26.1196859602815,-53.4263569783535
0.838951310861423,902,867,-67.6934518906638,29.7504637844455,35.8948570257751,-65.6453208102206
0.841091492776886,901,867,-62.805866357917,32.1942565508189,31.0072714930283,-63.2015280438472
0.843231674692349,900,866,-62.805866357917,37.0818420835657,28.5634787266549,-65.6453208102206
0.845371856607812,902,871,-48.1431097596765,19.9752927189518,26.1196859602815,-46.0949786792333
0.847512038523275,902,870,-53.0306952924233,22.4190854853252,28.5634787266549,-50.9825642119801
0.849652220438737,900,868,-53.0306952924233,32.1942565508189,23.6758931939081,-55.8701497447269
0.8517924023542,900,868,-53.0306952924233,32.1942565508189,23.6758931939081,-55.8701497447269
0.853932584269663,901,871,-43.2555242269297,22.4190854853252,21.2321004275347,-43.6511859128599
0.856072766185126,899,867,-53.0306952924233,37.0818420835657,21.2321004275347,-58.3139425111003
0.858212948100589,902,866,-72.5810374234106,32.1942565508189,38.3386497921485,-70.5329063429674
0.860353130016051,901,869,-53.0306952924233,27.306671018072,26.1196859602815,-53.4263569783535
0.862493311931514,902,874,-33.480353161436,12.6439144198316,18.7883076611612,-31.4322220809928
0.864633493846977,901,867,-62.805866357917,32.1942565508189,31.0072714930283,-63.2015280438472
0.86677367576244,902,868,-62.805866357917,27.306671018072,33.4510642594017,-60.7577352774737
0.868913857677903,901,868,-57.9182808251701,29.7504637844455,28.5634787266549,-58.3139425111003
0.871054039593365,901,869,-53.0306952924233,27.306671018072,26.1196859602815,-53.4263569783535
0.873194221508828,899,865,-62.805866357917,41.9694276163125,26.1196859602815,-68.089113576594
0.875334403424291,901,870,-48.1431097596765,24.8628782516986,23.6758931939081,-48.5387714456067
0.877474585339754,901,872,-38.3679386941829,19.9752927189518,18.7883076611612,-38.7636003801131
0.879614767255217,899,871,-33.480353161436,27.306671018072,11.456929362041,-38.7636003801131
0.88175494917068,901,871,-43.2555242269297,22.4190854853252,21.2321004275347,-43.6511859128599
0.883895131086142,904,874,-43.2555242269297,7.75632888708477,28.5634787266549,-36.3198076137397
0.886035313001605,900,870,-43.2555242269297,27.306671018072,18.7883076611612,-46.0949786792333
0.888175494917068,901,870,-48.1431097596765,24.8628782516986,23.6758931939081,-48.5387714456067
0.890315676832531,901,870,-48.1431097596765,24.8628782516986,23.6758931939081,-48.5387714456067
0.892455858747994,902,870,-53.0306952924233,22.4190854853252,28.5634787266549,-50.9825642119801
0.894596040663456,901,867,-62.805866357917,32.1942565508189,31.0072714930283,-63.2015280438472
0.896736222578919,902,875,-28.5927676286892,10.2001216534582,16.3445148947878,-26.544636548246
0.898876404494382,903,872,-48.1431097596765,15.087707186205,28.5634787266549,-43.6511859128599
0.901016586409845,901,868,-57.9182808251701,29.7504637844455,28.5634787266549,-58.3139425111003
0.903156768325308,898,868,-43.2555242269297,37.0818420835657,13.9007221284144,-50.9825642119801
0.905296950240771,902,870,-53.0306952924233,22.4190854853252,28.5634787266549,-50.9825642119801
0.907437132156233,900,867,-57.9182808251701,34.6380493171923,26.1196859602815,-60.7577352774737
0.909577314071696,900,866,-62.805866357917,37.0818420835657,28.5634787266549,-65.6453208102206
0.911717495987159,901,870,-48.1431097596765,24.8628782516986,23.6758931939081,-48.5387714456067
0.913857677902622,902,872,-43.2555242269297,17.5314999525784,23.6758931939081,-41.2073931464865
0.915997859818085,900,869,-48.1431097596765,29.7504637844455,21.2321004275347,-50.9825642119801
0.918138041733547,900,866,-62.805866357917,37.0818420835657,28.5634787266549,-65.6453208102206
0.92027822364901,900,869,-48.1431097596765,29.7504637844455,21.2321004275347,-50.9825642119801
0.922418405564473,901,868,-57.9182808251701,29.7504637844455,28.5634787266549,-58.3139425111003
0.924558587479936,899,864,-67.6934518906638,44.4132203826859,28.5634787266549,-72.9766991093408
0.926698769395399,900,866,-62.805866357917,37.0818420835657,28.5634787266549,-65.6453208102206
0.928838951310861,901,867,-62.805866357917,32.1942565508189,31.0072714930283,-63.2015280438472
0.930979133226324,901,867,-62.805866357917,32.1942565508189,31.0072714930283,-63.2015280438472
0.933119315141787,900,866,-62.805866357917,37.0818420835657,28.5634787266549,-65.6453208102206
0.93525949705725,901,870,-48.1431097596765,24.8628782516986,23.6758931939081,-48.5387714456067
0.937399678972713,901,869,-53.0306952924233,27.306671018072,26.1196859602815,-53.4263569783535
0.939539860888176,902,867,-67.6934518906638,29.7504637844455,35.8948570257751,-65.6453208102206
0.941680042803638,903,870,-57.9182808251701,19.9752927189518,33.4510642594017,-53.4263569783535
0.943820224719101,901,869,-53.0306952924233,27.306671018072,26.1196859602815,-53.4263569783535
0.945960406634564,899,865,-62.805866357917,41.9694276163125,26.1196859602815,-68.089113576594
0.948100588550027,900,868,-53.0306952924233,32.1942565508189,23.6758931939081,-55.8701497447269
0.95024077046549,904,872,-53.0306952924233,12.6439144198316,33.4510642594017,-46.0949786792333
0.952380952380952,903,869,-62.805866357917,22.4190854853252,35.8948570257751,-58.3139425111003
0.954521134296415,902,869,-57.9182808251701,24.8628782516986,31.0072714930283,-55.8701497447269
0.956661316211878,901,872,-38.3679386941829,19.9752927189518,18.7883076611612,-38.7636003801131
0.958801498127341,902,873,-38.3679386941829,15.087707186205,21.2321004275347,-36.3198076137397
0.960941680042804,900,867,-57.9182808251701,34.6380493171923,26.1196859602815,-60.7577352774737
0.963081861958267,902,865,-77.4686229561574,34.6380493171923,40.7824425585219,-75.4204918757142
0.965222043873729,901,871,-43.2555242269297,22.4190854853252,21.2321004275347,-43.6511859128599
0.967362225789192,901,869,-53.0306952924233,27.306671018072,26.1196859602815,-53.4263569783535
0.969502407704655,901,866,-67.6934518906638,34.6380493171923,33.4510642594017,-68.089113576594
0.971642589620118,902,871,-48.1431097596765,19.9752927189518,26.1196859602815,-46.0949786792333
0.973782771535581,902,871,-48.1431097596765,19.9752927189518,26.1196859602815,-46.0949786792333
0.975922953451043,901,868,-57.9182808251701,29.7504637844455,28.5634787266549,-58.3139425111003
0.978063135366506,900,867,-57.9182808251701,34.6380493171923,26.1196859602815,-60.7577352774737
0.980203317281969,902,870,-53.0306952924233,22.4190854853252,28.5634787266549,-50.9825642119801
0.982343499197432,902,867,-67.6934518906638,29.7504637844455,35.8948570257751,-65.6453208102206
0.984483681112895,901,867,-62.805866357917,32.1942565508189,31.0072714930283,-63.2015280438472
0.986623863028357,901,869,-53.0306952924233,27.306671018072,26.1196859602815,-53.4263569783535
0.98876404494382,902,869,-57.9182808251701,24.8628782516986,31.0072714930283,-55.8701497447269
0.990904226859283,900,868,-53.0306952924233,32.1942565508189,23.6758931939081,-55.8701497447269
0.993044408774746,899,870,-38.3679386941829,29.7504637844455,13.9007221284144,-43.6511859128599
0.995184590690209,901,870,-48.1431097596765,24.8628782516986,23.6758931939081,-48.5387714456067
0.997324772605671,901,868,-57.9182808251701,29.7504637844455,28.5634787266549,-58.3139425111003
0.999464954521134,899,866,-57.9182808251701,39.5256348499391,23.6758931939081,-63.2015280438472
1.0016051364366,904,872,-53.0306952924233,12.6439144198316,33.4510642594017,-46.0949786792333
1.00374531835206,901,872,-38.3679386941829,19.9752927189518,18.7883076611612,-38.7636003801131
1.00588550026752,902,868,-62.805866357917,27.306671018072,33.4510642594017,-60.7577352774737
1.00802568218299,901,870,-48.1431097596765,24.8628782516986,23.6758931939081,-48.5387714456067
1.01016586409845,902,873,-38.3679386941829,15.087707186205,21.2321004275347,-36.3198076137397
1.01230604601391,902,868,-62.805866357917,27.306671018072,33.4510642594017,-60.7577352774737
1.01444622792937,901,868,-57.9182808251701,29.7504637844455,28.5634787266549,-58.3139425111003
1.01658640984484,902,870,-53.0306952924233,22.4190854853252,28.5634787266549,-50.9825642119801
1.0187265917603,902,873,-38.3679386941829,15.087707186205,21.2321004275347,-36.3198076137397
1.02086677367576,902,870,-53.0306952924233,22.4190854853252,28.5634787266549,-50.9825642119801
1.02300695559123,902,871,-48.1431097596765,19.9752927189518,26.1196859602815,-46.0949786792333
1.02514713750669,903,873,-43.2555242269297,12.6439144198316,26.1196859602815,-38.7636003801131
1.02728731942215,902,867,-67.6934518906638,29.7504637844455,35.8948570257751,-65.6453208102206
1.02942750133761,899,867,-53.0306952924233,37.0818420835657,21.2321004275347,-58.3139425111003
1.03156768325308,901,869,-53.0306952924233,27.306671018072,26.1196859602815,-53.4263569783535
1.03370786516854,901,871,-43.2555242269297,22.4190854853252,21.2321004275347,-43.6511859128599
1.035848047084,899,868,-48.1431097596765,34.6380493171923,18.7883076611612,-53.4263569783535
1.03798822899946,899,873,-23.7051820959424,22.4190854853252,6.56934382929419,-28.9884293146194
1.04012841091493,903,872,-48.1431097596765,15.087707186205,28.5634787266549,-43.6511859128599
1.04226859283039,902,869,-57.9182808251701,24.8628782516986,31.0072714930283,-55.8701497447269
1.04440877474585,902,869,-57.9182808251701,24.8628782516986,31.0072714930283,-55.8701497447269
1.04654895666132,903,875,-33.480353161436,7.75632888708477,21.2321004275347,-28.9884293146194
1.04868913857678,901,871,-43.2555242269297,22.4190854853252,21.2321004275347,-43.6511859128599
1.05082932049224,902,867,-67.6934518906638,29.7504637844455,35.8948570257751,-65.6453208102206
1.0529695024077,901,871,-43.2555242269297,22.4190854853252,21.2321004275347,-43.6511859128599
1.05510968432317,901,874,-28.5927676286892,15.087707186205,13.9007221284144,-28.9884293146194
1.05724986623863,901,870,-48.1431097596765,24.8628782516986,23.6758931939081,-48.5387714456067
1.05939004815409,901,870,-48.1431097596765,24.8628782516986,23.6758931939081,-48.5387714456067
1.06153023006956,901,873,-33.480353161436,17.5314999525784,16.3445148947878,-33.8760148473662
1.06367041198502,904,872,-53.0306952924233,12.6439144198316,33.4510642594017,-46.0949786792333
1.06581059390048,902,868,-62.805866357917,27.306671018072,33.4510642594017,-60.7577352774737
1.06795077581594,901,871,-43.2555242269297,22.4190854853252,21.2321004275347,-43.6511859128599
1.07009095773141,902,872,-43.2555242269297,17.5314999525784,23.6758931939081,-41.2073931464865
1.07223113964687,900,868,-53.0306952924233,32.1942565508189,23.6758931939081,-55.8701497447269
1.07437132156233,899,866,-57.9182808251701,39.5256348499391,23.6758931939081,-63.2015280438472
1.0765115034778,903,873,-43.2555242269297,12.6439144198316,26.1196859602815,-38.7636003801131
1.07865168539326,901,871,-43.2555242269297,22.4190854853252,21.2321004275347,-43.6511859128599
1.08079186730872,901,871,-43.2555242269297,22.4190854853252,21.2321004275347,-43.6511859128599
1.08293204922418,901,869,-53.0306952924233,27.306671018072,26.1196859602815,-53.4263569783535
1.08507223113965,901,870,-48.1431097596765,24.8628782516986,23.6758931939081,-48.5387714456067
1.08721241305511,899,868,-48.1431097596765,34.6380493171923,18.7883076611612,-53.4263569783535
1.08935259497057,901,867,-62.805866357917,32.1942565508189,31.0072714930283,-63.2015280438472
1.09149277688604,904,871,-57.9182808251701,15.087707186205,35.8948570257751,-50.9825642119801
1.0936329588015,903,870,-57.9182808251701,19.9752927189518,33.4510642594017,-53.4263569783535
1.09577314071696,901,869,-53.0306952924233,27.306671018072,26.1196859602815,-53.4263569783535
1.09791332263242,903,871,-53.0306952924233,17.5314999525784,31.0072714930283,-48.5387714456067
1.10005350454789,901,872,-38.3679386941829,19.9752927189518,18.7883076611612,-38.7636003801131
1.10219368646335,902,868,-62.805866357917,27.306671018072,33.4510642594017,-60.7577352774737
1.10433386837881,900,866,-62.805866357917,37.0818420835657,28.5634787266549,-65.6453208102206
1.10647405029427,901,872,-38.3679386941829,19.9752927189518,18.7883076611612,-38.7636003801131
1.10861423220974,901,868,-57.9182808251701,29.7504637844455,28.5634787266549,-58.3139425111003
1.1107544141252,900,869,-48.1431097596765,29.7504637844455,21.2321004275347,-50.9825642119801
1.11289459604066,903,871,-53.0306952924233,17.5314999525784,31.0072714930283,-48.5387714456067
1.11503477795613,902,874,-33.480353161436,12.6439144198316,18.7883076611612,-31.4322220809928
1.11717495987159,899,868,-48.1431097596765,34.6380493171923,18.7883076611612,-53.4263569783535
1.11931514178705,901,867,-62.805866357917,32.1942565508189,31.0072714930283,-63.2015280438472
1.12145532370251,903,870,-57.9182808251701,19.9752927189518,33.4510642594017,-53.4263569783535
1.12359550561798,901,866,-67.6934518906638,34.6380493171923,33.4510642594017,-68.089113576594
1.12573568753344,899,866,-57.9182808251701,39.5256348499391,23.6758931939081,-63.2015280438472
1.1278758694489,902,870,-53.0306952924233,22.4190854853252,28.5634787266549,-50.9825642119801
1.13001605136437,902,871,-48.1431097596765,19.9752927189518,26.1196859602815,-46.0949786792333
1.13215623327983,901,868,-57.9182808251701,29.7504637844455,28.5634787266549,-58.3139425111003
1.13429641519529,902,867,-67.6934518906638,29.7504637844455,35.8948570257751,-65.6453208102206
1.13643659711075,903,871,-53.0306952924233,17.5314999525784,31.0072714930283,-48.5387714456067
1.13857677902622,902,870,-53.0306952924233,22.4190854853252,28.5634787266549,-50.9825642119801
1.14071696094168,902,866,-72.5810374234106,32.1942565508189,38.3386497921485,-70.5329063429674
1.14285714285714,902,868,-62.805866357917,27.306671018072,33.4510642594017,-60.7577352774737
1.14499732477261,899,872,-28.5927676286892,24.8628782516986,9.0131365956676,-33.8760148473662
1.14713750668807,901,868,-57.9182808251701,29.7504637844455,28.5634787266549,-58.3139425111003
1.14927768860353,901,870,-48.1431097596765,24.8628782516986,23.6758931939081,-48.5387714456067
1.15141787051899,904,875,-38.3679386941829,5.31253612071136,26.1196859602815,-31.4322220809928
1.15355805243446,902,868,-62.805866357917,27.306671018072,33.4510642594017,-60.7577352774737
1.15569823434992,900,867,-57.9182808251701,34.6380493171923,26.1196859602815,-60.7577352774737
1.15783841626538,902,868,-62.805866357917,27.306671018072,33.4510642594017,-60.7577352774737
1.15997859818085,902,870,-53.0306952924233,22.4190854853252,28.5634787266549,-50.9825642119801
1.16211878009631,900,865,-67.6934518906638,39.5256348499391,31.0072714930283,-70.5329063429674
1.16425896201177,899,870,-38.3679386941829,29.7504637844455,13.9007221284144,-43.6511859128599
1.16639914392723,902,872,-43.2555242269297,17.5314999525784,23.6758931939081,-41.2073931464865
1.1685393258427,902,871,-48.1431097596765,19.9752927189518,26.1196859602815,-46.0949786792333
1.17067950775816,899,869,-43.2555242269297,32.1942565508189,16.3445148947878,-48.5387714456067
1.17281968967362,902,872,-43.2555242269297,17.5314999525784,23.6758931939081,-41.2073931464865
1.17495987158908,904,872,-53.0306952924233,12.6439144198316,33.4510642594017,-46.0949786792333
1.17710005350455,902,869,-57.9182808251701,24.8628782516986,31.0072714930283,-55.8701497447269
1.17924023542001,900,870,-43.2555242269297,27.306671018072,18.7883076611612,-46.0949786792333
1.18138041733547,902,875,-28.5927676286892,10.2001216534582,16.3445148947878,-26.544636548246
1.18352059925094,900,871,-38.3679386941829,24.8628782516986,16.3445148947878,-41.2073931464865
1.1856607811664,902,871,-48.1431097596765,19.9752927189518,26.1196859602815,-46.0949786792333
1.18780096308186,904,873,-48.1431097596765,10.2001216534582,31.0072714930283,-41.2073931464865
1.18994114499732,902,870,-53.0306952924233,22.4190854853252,28.5634787266549,-50.9825642119801
1.19208132691279,901,870,-48.1431097596765,24.8628782516986,23.6758931939081,-48.5387714456067
1.19422150882825,901,872,-38.3679386941829,19.9752927189518,18.7883076611612,-38.7636003801131
1.19636169074371,901,872,-38.3679386941829,19.9752927189518,18.7883076611612,-38.7636003801131
1.19850187265918,899,870,-38.3679386941829,29.7504637844455,13.9007221284144,-43.6511859128599
1.20064205457464,899,870,-38.3679386941829,29.7504637844455,13.9007221284144,-43.6511859128599
1.2027822364901,904,876,-33.480353161436,2.86874335433795,23.6758931939081,-26.544636548246
1.20492241840556,902,871,-48.1431097596765,19.9752927189518,26.1196859602815,-46.0949786792333
1.20706260032103,899,869,-43.2555242269297,32.1942565508189,16.3445148947878,-48.5387714456067
1.20920278223649,901,872,-38.3679386941829,19.9752927189518,18.7883076611612,-38.7636003801131
1.21134296415195,902,873,-38.3679386941829,15.087707186205,21.2321004275347,-36.3198076137397
1.21348314606742,902,867,-67.6934518906638,29.7504637844455,35.8948570257751,-65.6453208102206
1.21562332798288,899,868,-48.1431097596765,34.6380493171923,18.7883076611612,-53.4263569783535
1.21776350989834,902,871,-48.1431097596765,19.9752927189518,26.1196859602815,-46.0949786792333
1.2199036918138,902,874,-33.480353161436,12.6439144198316,18.7883076611612,-31.4322220809928
1.22204387372927,900,868,-53.0306952924233,32.1942565508189,23.6758931939081,-55.8701497447269
1.22418405564473,902,872,-43.2555242269297,17.5314999525784,23.6758931939081,-41.2073931464865
1.22632423756019,902,872,-43.2555242269297,17.5314999525784,23.6758931939081,-41.2073931464865
1.22846441947566,902,867,-67.6934518906638,29.7504637844455,35.8948570257751,-65.6453208102206
1.23060460139112,901,870,-48.1431097596765,24.8628782516986,23.6758931939081,-48.5387714456067
1.23274478330658,902,872,-43.2555242269297,17.5314999525784,23.6758931939081,-41.2073931464865
1.23488496522204,901,871,-43.2555242269297,22.4190854853252,21.2321004275347,-43.6511859128599
1.23702514713751,901,867,-62.805866357917,32.1942565508189,31.0072714930283,-63.2015280438472
1.23916532905297,902,873,-38.3679386941829,15.087707186205,21.2321004275347,-36.3198076137397
1.24130551096843,903,872,-48.1431097596765,15.087707186205,28.5634787266549,-43.6511859128599
1.2434456928839,900,870,-43.2555242269297,27.306671018072,18.7883076611612,-46.0949786792333
1.24558587479936,902,868,-62.805866357917,27.306671018072,33.4510642594017,-60.7577352774737
1.24772605671482,903,870,-57.9182808251701,19.9752927189518,33.4510642594017,-53.4263569783535
1.24986623863028,901,871,-43.2555242269297,22.4190854853252,21.2321004275347,-43.6511859128599
1.25200642054575,901,870,-48.1431097596765,24.8628782516986,23.6758931939081,-48.5387714456067
1.25414660246121,901,873,-33.480353161436,17.5314999525784,16.3445148947878,-33.8760148473662
1.25628678437667,903,875,-33.480353161436,7.75632888708477,21.2321004275347,-28.9884293146194
1.25842696629213,901,869,-53.0306952924233,27.306671018072,26.1196859602815,-53.4263569783535
1.2605671482076,900,868,-53.0306952924233,32.1942565508189,23.6758931939081,-55.8701497447269
1.26270733012306,901,871,-43.2555242269297,22.4190854853252,21.2321004275347,-43.6511859128599
1.26484751203852,903,871,-53.0306952924233,17.5314999525784,31.0072714930283,-48.5387714456067
1.26698769395399,901,867,-62.805866357917,32.1942565508189,31.0072714930283,-63.2015280438472
1.26912787586945,902,871,-48.1431097596765,19.9752927189518,26.1196859602815,-46.0949786792333
1.27126805778491,902,873,-38.3679386941829,15.087707186205,21.2321004275347,-36.3198076137397
1.27340823970037,902,871,-48.1431097596765,19.9752927189518,26.1196859602815,-46.0949786792333
1.27554842161584,901,869,-53.0306952924233,27.306671018072,26.1196859602815,-53.4263569783535
1.2776886035313,902,870,-53.0306952924233,22.4190854853252,28.5634787266549,-50.9825642119801
1.27982878544676,900,868,-53.0306952924233,32.1942565508189,23.6758931939081,-55.8701497447269
1.28196896736223,901,867,-62.805866357917,32.1942565508189,31.0072714930283,-63.2015280438472
1.28410914927769,902,866,-72.5810374234106,32.1942565508189,38.3386497921485,-70.5329063429674
1.28624933119315,900,868,-53.0306952924233,32.1942565508189,23.6758931939081,-55.8701497447269
1.28838951310861,902,867,-67.6934518906638,29.7504637844455,35.8948570257751,-65.6453208102206
1.29052969502408,900,867,-57.9182808251701,34.6380493171923,26.1196859602815,-60.7577352774737
1.29266987693954,901,869,-53.0306952924233,27.306671018072,26.1196859602815,-53.4263569783535
1.294810058855,900,866,-62.805866357917,37.0818420835657,28.5634787266549,-65.6453208102206
1.29695024077047,900,865,-67.6934518906638,39.5256348499391,31.0072714930283,-70.5329063429674
1.29909042268593,902,869,-57.9182808251701,24.8628782516986,31.0072714930283,-55.8701497447269
1.30123060460139,903,866,-77.4686229561574,29.7504637844455,43.2262353248953,-72.9766991093408
1.30337078651685,898,864,-62.805866357917,46.8570131490593,23.6758931939081,-70.5329063429674
1.30551096843232,900,865,-67.6934518906638,39.5256348499391,31.0072714930283,-70.5329063429674
1.30765115034778,900,868,-53.0306952924233,32.1942565508189,23.6758931939081,-55.8701497447269
1.30979133226324,900,866,-62.805866357917,37.0818420835657,28.5634787266549,-65.6453208102206
1.31193151417871,901,865,-72.5810374234106,37.0818420835657,35.8948570257751,-72.9766991093408
1.31407169609417,901,865,-72.5810374234106,37.0818420835657,35.8948570257751,-72.9766991093408
1.31621187800963,902,868,-62.805866357917,27.306671018072,33.4510642594017,-60.7577352774737
1.31835205992509,900,864,-72.5810374234106,41.9694276163125,33.4510642594017,-75.4204918757142
1.32049224184056,901,865,-72.5810374234106,37.0818420835657,35.8948570257751,-72.9766991093408
1.32263242375602,901,868,-57.9182808251701,29.7504637844455,28.5634787266549,-58.3139425111003
1.32477260567148,902,869,-57.9182808251701,24.8628782516986,31.0072714930283,-55.8701497447269
1.32691278758694,899,866,-57.9182808251701,39.5256348499391,23.6758931939081,-63.2015280438472
1.32905296950241,901,871,-43.2555242269297,22.4190854853252,21.2321004275347,-43.6511859128599
1.33119315141787,901,869,-53.0306952924233,27.306671018072,26.1196859602815,-53.4263569783535
1.33333333333333,902,870,-53.0306952924233,22.4190854853252,28.5634787266549,-50.9825642119801
1.3354735152488,901,870,-48.1431097596765,24.8628782516986,23.6758931939081,-48.5387714456067
1.33761369716426,902,869,-57.9182808251701,24.8628782516986,31.0072714930283,-55.8701497447269
1.33975387907972,900,868,-53.0306952924233,32.1942565508189,23.6758931939081,-55.8701497447269
1.34189406099518,901,869,-53.0306952924233,27.306671018072,26.1196859602815,-53.4263569783535
1.34403424291065,903,873,-43.2555242269297,12.6439144198316,26.1196859602815,-38.7636003801131
1.34617442482611,901,872,-38.3679386941829,19.9752927189518,18.7883076611612,-38.7636003801131
1.34831460674157,900,869,-48.1431097596765,29.7504637844455,21.2321004275347,-50.9825642119801
1.35045478865704,904,872,-53.0306952924233,12.6439144198316,33.4510642594017,-46.0949786792333
1.3525949705725,904,871,-57.9182808251701,15.087707186205,35.8948570257751,-50.9825642119801
1.35473515248796,899,868,-48.1431097596765,34.6380493171923,18.7883076611612,-53.4263569783535
1.35687533440342,899,866,-57.9182808251701,39.5256348499391,23.6758931939081,-63.2015280438472
1.35901551631889,903,870,-57.9182808251701,19.9752927189518,33.4510642594017,-53.4263569783535
1.36115569823435,903,872,-48.1431097596765,15.087707186205,28.5634787266549,-43.6511859128599
1.36329588014981,901,868,-57.9182808251701,29.7504637844455,28.5634787266549,-58.3139425111003
1.36543606206528,902,870,-53.0306952924233,22.4190854853252,28.5634787266549,-50.9825642119801
1.36757624398074,901,872,-38.3679386941829,19.9752927189518,18.7883076611612,-38.7636003801131
1.3697164258962,902,870,-53.0306952924233,22.4190854853252,28.5634787266549,-50.9825642119801
1.37185660781166,901,865,-72.5810374234106,37.0818420835657,35.8948570257751,-72.9766991093408
1.37399678972713,901,871,-43.2555242269297,22.4190854853252,21.2321004275347,-43.6511859128599
1.37613697164259,901,871,-43.2555242269297,22.4190854853252,21.2321004275347,-43.6511859128599
1.37827715355805,902,870,-53.0306952924233,22.4190854853252,28.5634787266549,-50.9825642119801
1.38041733547352,901,871,-43.2555242269297,22.4190854853252,21.2321004275347,-43.6511859128599
1.38255751738898,902,872,-43.2555242269297,17.5314999525784,23.6758931939081,-41.2073931464865
1.38469769930444,902,869,-57.9182808251701,24.8628782516986,31.0072714930283,-55.8701497447269
1.3868378812199,900,872,-33.480353161436,22.4190854853252,13.9007221284144,-36.3198076137397
1.38897806313537,904,870,-62.805866357917,17.5314999525784,38.3386497921485,-55.8701497447269
1.39111824505083,902,869,-57.9182808251701,24.8628782516986,31.0072714930283,-55.8701497447269
1.39325842696629,901,869,-53.0306952924233,27.306671018072,26.1196859602815,-53.4263569783535
1.39539860888175,902,874,-33.480353161436,12.6439144198316,18.7883076611612,-31.4322220809928
1.39753879079722,904,874,-43.2555242269297,7.75632888708477,28.5634787266549,-36.3198076137397
1.39967897271268,901,869,-53.0306952924233,27.306671018072,26.1196859602815,-53.4263569783535
1.40181915462814,900,870,-43.2555242269297,27.306671018072,18.7883076611612,-46.0949786792333
1.40395933654361,903,875,-33.480353161436,7.75632888708477,21.2321004275347,-28.9884293146194
1.40609951845907,902,871,-48.1431097596765,19.9752927189518,26.1196859602815,-46.0949786792333
1.40823970037453,899,869,-43.2555242269297,32.1942565508189,16.3445148947878,-48.5387714456067
1.41037988228999,901,872,-38.3679386941829,19.9752927189518,18.7883076611612,-38.7636003801131
1.41252006420546,902,875,-28.5927676286892,10.2001216534582,16.3445148947878,-26.544636548246
1.41466024612092,902,870,-53.0306952924233,22.4190854853252,28.5634787266549,-50.9825642119801
1.41680042803638,903,870,-57.9182808251701,19.9752927189518,33.4510642594017,-53.4263569783535
1.41894060995185,903,874,-38.3679386941829,10.2001216534582,23.6758931939081,-33.8760148473662
1.42108079186731,902,873,-38.3679386941829,15.087707186205,21.2321004275347,-36.3198076137397
1.42322097378277,901,872,-38.3679386941829,19.9752927189518,18.7883076611612,-38.7636003801131
1.42536115569823,903,873,-43.2555242269297,12.6439144198316,26.1196859602815,-38.7636003801131
1.4275013376137,903,873,-43.2555242269297,12.6439144198316,26.1196859602815,-38.7636003801131
1.42964151952916,902,869,-57.9182808251701,24.8628782516986,31.0072714930283,-55.8701497447269
1.43178170144462,902,871,-48.1431097596765,19.9752927189518,26.1196859602815,-46.0949786792333
1.43392188336009,901,874,-28.5927676286892,15.087707186205,13.9007221284144,-28.9884293146194
1.43606206527555,901,872,-38.3679386941829,19.9752927189518,18.7883076611612,-38.7636003801131
1.43820224719101,900,871,-38.3679386941829,24.8628782516986,16.3445148947878,-41.2073931464865
1.44034242910647,904,873,-48.1431097596765,10.2001216534582,31.0072714930283,-41.2073931464865
1.44248261102194,901,871,-43.2555242269297,22.4190854853252,21.2321004275347,-43.6511859128599
1.4446227929374,901,868,-57.9182808251701,29.7504637844455,28.5634787266549,-58.3139425111003
1.44676297485286,901,869,-53.0306952924233,27.306671018072,26.1196859602815,-53.4263569783535
1.44890315676833,904,874,-43.2555242269297,7.75632888708477,28.5634787266549,-36.3198076137397
1.45104333868379,902,871,-48.1431097596765,19.9752927189518,26.1196859602815,-46.0949786792333
1.45318352059925,903,869,-62.805866357917,22.4190854853252,35.8948570257751,-58.3139425111003
1.45532370251471,903,873,-43.2555242269297,12.6439144198316,26.1196859602815,-38.7636003801131
1.45746388443018,903,876,-28.5927676286892,5.31253612071136,18.7883076611612,-24.1008437818726
1.45960406634564,903,869,-62.805866357917,22.4190854853252,35.8948570257751,-58.3139425111003
1.4617442482611,901,868,-57.9182808251701,29.7504637844455,28.5634787266549,-58.3139425111003
1.46388443017656,902,872,-43.2555242269297,17.5314999525784,23.6758931939081,-41.2073931464865
1.46602461209203,902,871,-48.1431097596765,19.9752927189518,26.1196859602815,-46.0949786792333
1.46816479400749,899,867,-53.0306952924233,37.0818420835657,21.2321004275347,-58.3139425111003
1.47030497592295,902,873,-38.3679386941829,15.087707186205,21.2321004275347,-36.3198076137397
1.47244515783842,903,872,-48.1431097596765,15.087707186205,28.5634787266549,-43.6511859128599
1.47458533975388,900,868,-53.0306952924233,32.1942565508189,23.6758931939081,-55.8701497447269
1.47672552166934,900,867,-57.9182808251701,34.6380493171923,26.1196859602815,-60.7577352774737
1.4788657035848,901,871,-43.2555242269297,22.4190854853252,21.2321004275347,-43.6511859128599
1.48100588550027,900,868,-53.0306952924233,32.1942565508189,23.6758931939081,-55.8701497447269
1.48314606741573,901,869,-53.0306952924233,27.306671018072,26.1196859602815,-53.4263569783535
1.48528624933119,902,871,-48.1431097596765,19.9752927189518,26.1196859602815,-46.0949786792333
1.48742643124666,901,872,-38.3679386941829,19.9752927189518,18.7883076611612,-38.7636003801131
1.48956661316212,901,869,-53.0306952924233,27.306671018072,26.1196859602815,-53.4263569783535
1.49170679507758,902,869,-57.9182808251701,24.8628782516986,31.0072714930283,-55.8701497447269
1.49384697699304,902,871,-48.1431097596765,19.9752927189518,26.1196859602815,-46.0949786792333
1.49598715890851,901,867,-62.805866357917,32.1942565508189,31.0072714930283,-63.2015280438472
1.49812734082397,899,867,-53.0306952924233,37.0818420835657,21.2321004275347,-58.3139425111003
1.50026752273943,903,871,-53.0306952924233,17.5314999525784,31.0072714930283,-48.5387714456067
1.5024077046549,903,874,-38.3679386941829,10.2001216534582,23.6758931939081,-33.8760148473662
1.50454788657036,901,870,-48.1431097596765,24.8628782516986,23.6758931939081,-48.5387714456067
1.50668806848582,903,871,-53.0306952924233,17.5314999525784,31.0072714930283,-48.5387714456067
1.50882825040128,902,873,-38.3679386941829,15.087707186205,21.2321004275347,-36.3198076137397
1.51096843231675,902,871,-48.1431097596765,19.9752927189518,26.1196859602815,-46.0949786792333
1.51310861423221,901,866,-67.6934518906638,34.6380493171923,33.4510642594017,-68.089113576594
1.51524879614767,901,869,-53.0306952924233,27.306671018072,26.1196859602815,-53.4263569783535
1.51738897806314,901,869,-53.0306952924233,27.306671018072,26.1196859602815,-53.4263569783535
1.5195291599786,902,868,-62.805866357917,27.306671018072,33.4510642594017,-60.7577352774737
1.52166934189406,902,870,-53.0306952924233,22.4190854853252,28.5634787266549,-50.9825642119801
1.52380952380952,902,871,-48.1431097596765,19.9752927189518,26.1196859602815,-46.0949786792333
1.52594970572499,903,869,-62.805866357917,22.4190854853252,35.8948570257751,-58.3139425111003
1.52808988764045,901,869,-53.0306952924233,27.306671018072,26.1196859602815,-53.4263569783535
1.53023006955591,901,870,-48.1431097596765,24.8628782516986,23.6758931939081,-48.5387714456067
1.53237025147138,902,870,-53.0306952924233,22.4190854853252,28.5634787266549,-50.9825642119801
1.53451043338684,898,865,-57.9182808251702,44.4132203826859,21.2321004275347,-65.6453208102206
1.5366506153023,901,869,-53.0306952924233,27.306671018072,26.1196859602815,-53.4263569783535
1.53879079721776,904,870,-62.805866357917,17.5314999525784,38.3386497921485,-55.8701497447269
1.54093097913323,902,869,-57.9182808251701,24.8628782516986,31.0072714930283,-55.8701497447269
1.54307116104869,899,870,-38.3679386941829,29.7504637844455,13.9007221284144,-43.6511859128599
1.54521134296415,905,875,-43.2555242269297,2.86874335433795,31.0072714930283,-33.8760148473662
1.54735152487961,901,873,-33.480353161436,17.5314999525784,16.3445148947878,-33.8760148473662
1.54949170679508,900,870,-43.2555242269297,27.306671018072,18.7883076611612,-46.0949786792333
1.55163188871054,903,870,-57.9182808251701,19.9752927189518,33.4510642594017,-53.4263569783535
1.553772070626,901,875,-23.7051820959424,12.6439144198316,11.456929362041,-24.1008437818726
1.55591225254147,901,872,-38.3679386941829,19.9752927189518,18.7883076611612,-38.7636003801131
1.55805243445693,901,869,-53.0306952924233,27.306671018072,26.1196859602815,-53.4263569783535
1.56019261637239,902,874,-33.480353161436,12.6439144198316,18.7883076611612,-31.4322220809928
1.56233279828785,902,876,-23.7051820959424,7.75632888708477,13.9007221284144,-21.6570510154992
1.56447298020332,903,869,-62.805866357917,22.4190854853252,35.8948570257751,-58.3139425111003
1.56661316211878,902,871,-48.1431097596765,19.9752927189518,26.1196859602815,-46.0949786792333
1.56875334403424,902,870,-53.0306952924233,22.4190854853252,28.5634787266549,-50.9825642119801
1.57089352594971,901,866,-67.6934518906638,34.6380493171923,33.4510642594017,-68.089113576594
1.57303370786517,900,867,-57.9182808251701,34.6380493171923,26.1196859602815,-60.7577352774737
1.57517388978063,901,872,-38.3679386941829,19.9752927189518,18.7883076611612,-38.7636003801131
1.57731407169609,902,871,-48.1431097596765,19.9752927189518,26.1196859602815,-46.0949786792333
1.57945425361156,901,870,-48.1431097596765,24.8628782516986,23.6758931939081,-48.5387714456067
1.58159443552702,905,871,-62.805866357917,12.6439144198316,40.7824425585219,-53.4263569783535
1.58373461744248,903,870,-57.9182808251701,19.9752927189518,33.4510642594017,-53.4263569783535
1.58587479935795,902,867,-67.6934518906638,29.7504637844455,35.8948570257751,-65.6453208102206
1.58801498127341,900,869,-48.1431097596765,29.7504637844455,21.2321004275347,-50.9825642119801
1.59015516318887,902,869,-57.9182808251701,24.8628782516986,31.0072714930283,-55.8701497447269
1.59229534510433,903,869,-62.805866357917,22.4190854853252,35.8948570257751,-58.3139425111003
1.5944355270198,901,870,-48.1431097596765,24.8628782516986,23.6758931939081,-48.5387714456067
1.59657570893526,901,874,-28.5927676286892,15.087707186205,13.9007221284144,-28.9884293146194
1.59871589085072,902,872,-43.2555242269297,17.5314999525784,23.6758931939081,-41.2073931464865
1.60085607276619,899,870,-38.3679386941829,29.7504637844455,13.9007221284144,-43.6511859128599
1.60299625468165,904,868,-72.5810374234106,22.4190854853252,43.2262353248953,-65.6453208102206
1.60513643659711,900,871,-38.3679386941829,24.8628782516986,16.3445148947878,-41.2073931464865
1.60727661851257,902,869,-57.9182808251701,24.8628782516986,31.0072714930283,-55.8701497447269
1.60941680042804,902,869,-57.9182808251701,24.8628782516986,31.0072714930283,-55.8701497447269
1.6115569823435,902,873,-38.3679386941829,15.087707186205,21.2321004275347,-36.3198076137397
1.61369716425896,903,876,-28.5927676286892,5.31253612071136,18.7883076611612,-24.1008437818726
1.61583734617442,901,870,-48.1431097596765,24.8628782516986,23.6758931939081,-48.5387714456067
1.61797752808989,903,869,-62.805866357917,22.4190854853252,35.8948570257751,-58.3139425111003
1.62011771000535,903,871,-53.0306952924233,17.5314999525784,31.0072714930283,-48.5387714456067
1.62225789192081,902,871,-48.1431097596765,19.9752927189518,26.1196859602815,-46.0949786792333
1.62439807383628,900,868,-53.0306952924233,32.1942565508189,23.6758931939081,-55.8701497447269
1.62653825575174,901,872,-38.3679386941829,19.9752927189518,18.7883076611612,-38.7636003801131
1.6286784376672,904,872,-53.0306952924233,12.6439144198316,33.4510642594017,-46.0949786792333
1.63081861958266,902,872,-43.2555242269297,17.5314999525784,23.6758931939081,-41.2073931464865
1.63295880149813,901,870,-48.1431097596765,24.8628782516986,23.6758931939081,-48.5387714456067
1.63509898341359,901,872,-38.3679386941829,19.9752927189518,18.7883076611612,-38.7636003801131
1.63723916532905,901,869,-53.0306952924233,27.306671018072,26.1196859602815,-53.4263569783535
1.63937934724452,900,869,-48.1431097596765,29.7504637844455,21.2321004275347,-50.9825642119801
1.64151952915998,902,871,-48.1431097596765,19.9752927189518,26.1196859602815,-46.0949786792333
1.64365971107544,900,870,-43.2555242269297,27.306671018072,18.7883076611612,-46.0949786792333
1.6457998929909,902,870,-53.0306952924233,22.4190854853252,28.5634787266549,-50.9825642119801
1.64794007490637,903,870,-57.9182808251701,19.9752927189518,33.4510642594017,-53.4263569783535
1.65008025682183,904,874,-43.2555242269297,7.75632888708477,28.5634787266549,-36.3198076137397
1.65222043873729,900,872,-33.480353161436,22.4190854853252,13.9007221284144,-36.3198076137397
1.65436062065276,901,869,-53.0306952924233,27.306671018072,26.1196859602815,-53.4263569783535
1.65650080256822,904,870,-62.805866357917,17.5314999525784,38.3386497921485,-55.8701497447269
1.65864098448368,901,873,-33.480353161436,17.5314999525784,16.3445148947878,-33.8760148473662
1.66078116639914,901,869,-53.0306952924233,27.306671018072,26.1196859602815,-53.4263569783535
1.66292134831461,901,871,-43.2555242269297,22.4190854853252,21.2321004275347,-43.6511859128599
1.66506153023007,902,873,-38.3679386941829,15.087707186205,21.2321004275347,-36.3198076137397
1.66720171214553,901,873,-33.480353161436,17.5314999525784,16.3445148947878,-33.8760148473662
1.669341894061,903,870,-57.9182808251701,19.9752927189518,33.4510642594017,-53.4263569783535
1.67148207597646,902,874,-33.480353161436,12.6439144198316,18.7883076611612,-31.4322220809928
1.67362225789192,902,872,-43.2555242269297,17.5314999525784,23.6758931939081,-41.2073931464865
1.67576243980738,900,871,-38.3679386941829,24.8628782516986,16.3445148947878,-41.2073931464865
1.67790262172285,903,870,-57.9182808251701,19.9752927189518,33.4510642594017,-53.4263569783535
1.68004280363831,901,872,-38.3679386941829,19.9752927189518,18.7883076611612,-38.7636003801131
1.68218298555377,902,869,-57.9182808251701,24.8628782516986,31.0072714930283,-55.8701497447269
1.68432316746923,904,870,-62.805866357917,17.5314999525784,38.3386497921485,-55.8701497447269
1.6864633493847,902,872,-43.2555242269297,17.5314999525784,23.6758931939081,-41.2073931464865
1.68860353130016,901,873,-33.480353161436,17.5314999525784,16.3445148947878,-33.8760148473662
1.69074371321562,902,868,-62.805866357917,27.306671018072,33.4510642594017,-60.7577352774737
1.69288389513109,901,872,-38.3679386941829,19.9752927189518,18.7883076611612,-38.7636003801131
1.69502407704655,902,870,-53.0306952924233,22.4190854853252,28.5634787266549,-50.9825642119801
1.69716425896201,899,869,-43.2555242269297,32.1942565508189,16.3445148947878,-48.5387714456067
1.69930444087747,902,869,-57.9182808251701,24.8628782516986,31.0072714930283,-55.8701497447269
1.70144462279294,901,876,-18.8175965631956,10.2001216534582,9.0131365956676,-19.2132582491258
1.7035848047084,901,875,-23.7051820959424,12.6439144198316,11.456929362041,-24.1008437818726
1.70572498662386,900,871,-38.3679386941829,24.8628782516986,16.3445148947878,-41.2073931464865
1.70786516853933,903,874,-38.3679386941829,10.2001216534582,23.6758931939081,-33.8760148473662
1.71000535045479,904,874,-43.2555242269297,7.75632888708477,28.5634787266549,-36.3198076137397
1.71214553237025,902,869,-57.9182808251701,24.8628782516986,31.0072714930283,-55.8701497447269
1.71428571428571,901,868,-57.9182808251701,29.7504637844455,28.5634787266549,-58.3139425111003
1.71642589620118,903,873,-43.2555242269297,12.6439144198316,26.1196859602815,-38.7636003801131
1.71856607811664,902,875,-28.5927676286892,10.2001216534582,16.3445148947878,-26.544636548246
1.7207062600321,902,870,-53.0306952924233,22.4190854853252,28.5634787266549,-50.9825642119801
1.72284644194757,904,872,-53.0306952924233,12.6439144198316,33.4510642594017,-46.0949786792333
1.72498662386303,901,872,-38.3679386941829,19.9752927189518,18.7883076611612,-38.7636003801131
1.72712680577849,901,872,-38.3679386941829,19.9752927189518,18.7883076611612,-38.7636003801131
1.72926698769395,900,866,-62.805866357917,37.0818420835657,28.5634787266549,-65.6453208102206
1.73140716960942,902,871,-48.1431097596765,19.9752927189518,26.1196859602815,-46.0949786792333
1.73354735152488,901,872,-38.3679386941829,19.9752927189518,18.7883076611612,-38.7636003801131
1.73568753344034,901,869,-53.0306952924233,27.306671018072,26.1196859602815,-53.4263569783535
1.73782771535581,902,871,-48.1431097596765,19.9752927189518,26.1196859602815,-46.0949786792333
1.73996789727127,901,873,-33.480353161436,17.5314999525784,16.3445148947878,-33.8760148473662
1.74210807918673,901,870,-48.1431097596765,24.8628782516986,23.6758931939081,-48.5387714456067
1.74424826110219,903,869,-62.805866357917,22.4190854853252,35.8948570257751,-58.3139425111003
1.74638844301766,903,871,-53.0306952924233,17.5314999525784,31.0072714930283,-48.5387714456067
1.74852862493312,901,867,-62.805866357917,32.1942565508189,31.0072714930283,-63.2015280438472
1.75066880684858,899,868,-48.1431097596765,34.6380493171923,18.7883076611612,-53.4263569783535
1.75280898876405,902,871,-48.1431097596765,19.9752927189518,26.1196859602815,-46.0949786792333
1.75494917067951,902,873,-38.3679386941829,15.087707186205,21.2321004275347,-36.3198076137397
1.75708935259497,903,870,-57.9182808251701,19.9752927189518,33.4510642594017,-53.4263569783535
1.75922953451043,901,866,-67.6934518906638,34.6380493171923,33.4510642594017,-68.089113576594
1.7613697164259,901,870,-48.1431097596765,24.8628782516986,23.6758931939081,-48.5387714456067
1.76350989834136,901,868,-57.9182808251701,29.7504637844455,28.5634787266549,-58.3139425111003
1.76565008025682,899,869,-43.2555242269297,32.1942565508189,16.3445148947878,-48.5387714456067
1.76779026217228,902,870,-53.0306952924233,22.4190854853252,28.5634787266549,-50.9825642119801
1.76993044408775,903,871,-53.0306952924233,17.5314999525784,31.0072714930283,-48.5387714456067
1.77207062600321,903,872,-48.1431097596765,15.087707186205,28.5634787266549,-43.6511859128599
1.77421080791867,901,869,-53.0306952924233,27.306671018072,26.1196859602815,-53.4263569783535
1.77635098983414,902,871,-48.1431097596765,19.9752927189518,26.1196859602815,-46.0949786792333
1.7784911717496,902,868,-62.805866357917,27.306671018072,33.4510642594017,-60.7577352774737
1.78063135366506,901,868,-57.9182808251701,29.7504637844455,28.5634787266549,-58.3139425111003
1.78277153558052,901,868,-57.9182808251701,29.7504637844455,28.5634787266549,-58.3139425111003
1.78491171749599,899,870,-38.3679386941829,29.7504637844455,13.9007221284144,-43.6511859128599
1.78705189941145,901,868,-57.9182808251701,29.7504637844455,28.5634787266549,-58.3139425111003
1.78919208132691,902,869,-57.9182808251701,24.8628782516986,31.0072714930283,-55.8701497447269
1.79133226324238,904,872,-53.0306952924233,12.6439144198316,33.4510642594017,-46.0949786792333
1.79347244515784,901,868,-57.9182808251701,29.7504637844455,28.5634787266549,-58.3139425111003
1.7956126270733,902,868,-62.805866357917,27.306671018072,33.4510642594017,-60.7577352774737
1.79775280898876,902,874,-33.480353161436,12.6439144198316,18.7883076611612,-31.4322220809928
1.79989299090423,901,870,-48.1431097596765,24.8628782516986,23.6758931939081,-48.5387714456067
1.80203317281969,900,867,-57.9182808251701,34.6380493171923,26.1196859602815,-60.7577352774737
1.80417335473515,901,867,-62.805866357917,32.1942565508189,31.0072714930283,-63.2015280438472
1.80631353665062,902,874,-33.480353161436,12.6439144198316,18.7883076611612,-31.4322220809928
1.80845371856608,902,869,-57.9182808251701,24.8628782516986,31.0072714930283,-55.8701497447269
1.81059390048154,901,868,-57.9182808251701,29.7504637844455,28.5634787266549,-58.3139425111003
1.812734082397,902,871,-48.1431097596765,19.9752927189518,26.1196859602815,-46.0949786792333
1.81487426431247,901,872,-38.3679386941829,19.9752927189518,18.7883076611612,-38.7636003801131
1.81701444622793,901,869,-53.0306952924233,27.306671018072,26.1196859602815,-53.4263569783535
1.81915462814339,900,869,-48.1431097596765,29.7504637844455,21.2321004275347,-50.9825642119801
1.82129481005886,902,870,-53.0306952924233,22.4190854853252,28.5634787266549,-50.9825642119801
1.82343499197432,901,870,-48.1431097596765,24.8628782516986,23.6758931939081,-48.5387714456067
1.82557517388978,903,869,-62.805866357917,22.4190854853252,35.8948570257751,-58.3139425111003
1.82771535580524,902,871,-48.1431097596765,19.9752927189518,26.1196859602815,-46.0949786792333
1.82985553772071,902,872,-43.2555242269297,17.5314999525784,23.6758931939081,-41.2073931464865
1.83199571963617,902,868,-62.805866357917,27.306671018072,33.4510642594017,-60.7577352774737
1.83413590155163,902,870,-53.0306952924233,22.4190854853252,28.5634787266549,-50.9825642119801
1.83627608346709,901,869,-53.0306952924233,27.306671018072,26.1196859602815,-53.4263569783535
1.83841626538256,899,867,-53.0306952924233,37.0818420835657,21.2321004275347,-58.3139425111003
1.84055644729802,902,867,-67.6934518906638,29.7504637844455,35.8948570257751,-65.6453208102206
1.84269662921348,902,874,-33.480353161436,12.6439144198316,18.7883076611612,-31.4322220809928
1.84483681112895,902,872,-43.2555242269297,17.5314999525784,23.6758931939081,-41.2073931464865
1.84697699304441,901,869,-53.0306952924233,27.306671018072,26.1196859602815,-53.4263569783535
1.84911717495987,901,872,-38.3679386941829,19.9752927189518,18.7883076611612,-38.7636003801131
1.85125735687533,901,876,-18.8175965631956,10.2001216534582,9.0131365956676,-19.2132582491258
1.8533975387908,900,868,-53.0306952924233,32.1942565508189,23.6758931939081,-55.8701497447269
1.85553772070626,902,866,-72.5810374234106,32.1942565508189,38.3386497921485,-70.5329063429674
1.85767790262172,903,872,-48.1431097596765,15.087707186205,28.5634787266549,-43.6511859128599
1.85981808453719,904,877,-28.5927676286892,0.424950587964545,21.2321004275347,-21.6570510154992
1.86195826645265,901,870,-48.1431097596765,24.8628782516986,23.6758931939081,-48.5387714456067
1.86409844836811,902,871,-48.1431097596765,19.9752927189518,26.1196859602815,-46.0949786792333
1.86623863028357,902,874,-33.480353161436,12.6439144198316,18.7883076611612,-31.4322220809928
1.86837881219904,903,873,-43.2555242269297,12.6439144198316,26.1196859602815,-38.7636003801131
1.8705189941145,901,869,-53.0306952924233,27.306671018072,26.1196859602815,-53.4263569783535
1.87265917602996,901,873,-33.480353161436,17.5314999525784,16.3445148947878,-33.8760148473662
1.87479935794543,904,875,-38.3679386941829,5.31253612071136,26.1196859602815,-31.4322220809928
1.87693953986089,903,874,-38.3679386941829,10.2001216534582,23.6758931939081,-33.8760148473662
1.87907972177635,903,875,-33.480353161436,7.75632888708477,21.2321004275347,-28.9884293146194
1.88121990369181,903,875,-33.480353161436,7.75632888708477,21.2321004275347,-28.9884293146194
1.88336008560728,901,873,-33.480353161436,17.5314999525784,16.3445148947878,-33.8760148473662
1.88550026752274,903,871,-53.0306952924233,17.5314999525784,31.0072714930283,-48.5387714456067
1.8876404494382,901,876,-18.8175965631956,10.2001216534582,9.0131365956676,-19.2132582491258
1.88978063135367,903,874,-38.3679386941829,10.2001216534582,23.6758931939081,-33.8760148473662
1.89192081326913,902,873,-38.3679386941829,15.087707186205,21.2321004275347,-36.3198076137397
1.89406099518459,903,877,-23.7051820959424,2.86874335433795,16.3445148947878,-19.2132582491258
1.89620117710005,904,878,-23.7051820959424,-2.01884217840886,18.7883076611612,-16.7694654827524
1.89834135901552,902,875,-28.5927676286892,10.2001216534582,16.3445148947878,-26.544636548246
1.90048154093098,903,875,-33.480353161436,7.75632888708477,21.2321004275347,-28.9884293146194
1.90262172284644,905,878,-28.5927676286892,-4.46263494478227,23.6758931939081,-19.2132582491258
1.9047619047619,904,877,-28.5927676286892,0.424950587964545,21.2321004275347,-21.6570510154992
1.90690208667737,901,874,-28.5927676286892,15.087707186205,13.9007221284144,-28.9884293146194
1.90904226859283,902,874,-33.480353161436,12.6439144198316,18.7883076611612,-31.4322220809928
1.91118245050829,902,878,-13.9300110304488,2.86874335433795,9.0131365956676,-11.8818799500056
1.91332263242376,903,877,-23.7051820959424,2.86874335433795,16.3445148947878,-19.2132582491258
1.91546281433922,902,876,-23.7051820959424,7.75632888708477,13.9007221284144,-21.6570510154992
1.91760299625468,902,879,-9.04242549770196,0.424950587964545,6.56934382929419,-6.99429441725874
1.91974317817014,904,876,-33.480353161436,2.86874335433795,23.6758931939081,-26.544636548246
1.92188336008561,903,873,-43.2555242269297,12.6439144198316,26.1196859602815,-38.7636003801131
1.92402354200107,903,873,-43.2555242269297,12.6439144198316,26.1196859602815,-38.7636003801131
1.92616372391653,900,875,-18.8175965631956,15.087707186205,6.56934382929419,-21.6570510154992
1.928303905832,902,869,-57.9182808251701,24.8628782516986,31.0072714930283,-55.8701497447269
1.93044408774746,901,874,-28.5927676286892,15.087707186205,13.9007221284144,-28.9884293146194
1.93258426966292,904,876,-33.480353161436,2.86874335433795,23.6758931939081,-26.544636548246
1.93472445157838,903,873,-43.2555242269297,12.6439144198316,26.1196859602815,-38.7636003801131
1.93686463349385,902,872,-43.2555242269297,17.5314999525784,23.6758931939081,-41.2073931464865
1.93900481540931,904,876,-33.480353161436,2.86874335433795,23.6758931939081,-26.544636548246
1.94114499732477,903,875,-33.480353161436,7.75632888708477,21.2321004275347,-28.9884293146194
1.94328517924024,901,870,-48.1431097596765,24.8628782516986,23.6758931939081,-48.5387714456067
1.9454253611557,902,872,-43.2555242269297,17.5314999525784,23.6758931939081,-41.2073931464865
1.94756554307116,904,875,-38.3679386941829,5.31253612071136,26.1196859602815,-31.4322220809928
1.94970572498662,902,873,-38.3679386941829,15.087707186205,21.2321004275347,-36.3198076137397
1.95184590690209,902,872,-43.2555242269297,17.5314999525784,23.6758931939081,-41.2073931464865
1.95398608881755,903,876,-28.5927676286892,5.31253612071136,18.7883076611612,-24.1008437818726
1.95612627073301,903,877,-23.7051820959424,2.86874335433795,16.3445148947878,-19.2132582491258
1.95826645264848,901,869,-53.0306952924233,27.306671018072,26.1196859602815,-53.4263569783535
1.96040663456394,901,870,-48.1431097596765,24.8628782516986,23.6758931939081,-48.5387714456067
1.9625468164794,902,873,-38.3679386941829,15.087707186205,21.2321004275347,-36.3198076137397
1.96468699839486,901,871,-43.2555242269297,22.4190854853252,21.2321004275347,-43.6511859128599
1.96682718031033,904,873,-48.1431097596765,10.2001216534582,31.0072714930283,-41.2073931464865
1.96896736222579,904,877,-28.5927676286892,0.424950587964545,21.2321004275347,-21.6570510154992
1.97110754414125,902,877,-18.8175965631956,5.31253612071136,11.456929362041,-16.7694654827524
1.97324772605671,903,875,-33.480353161436,7.75632888708477,21.2321004275347,-28.9884293146194
1.97538790797218,904,877,-28.5927676286892,0.424950587964545,21.2321004275347,-21.6570510154992
1.97752808988764,905,879,-23.7051820959424,-6.90642771115568,21.2321004275347,-14.325672716379
1.9796682718031,904,877,-28.5927676286892,0.424950587964545,21.2321004275347,-21.6570510154992
1.98180845371857,904,877,-28.5927676286892,0.424950587964545,21.2321004275347,-21.6570510154992
1.98394863563403,904,885,10.5079166332853,-19.1253915430227,1.68175829654738,17.4436332464754
1.98608881754949,907,881,-23.7051820959424,-16.6815987766493,26.1196859602815,-9.43808718363215
1.98822899946495,904,882,-4.15483996495514,-11.7940132439025,9.0131365956676,2.7808766482349
1.99036918138042,906,883,-9.04242549770196,-19.1253915430227,16.3445148947878,2.7808766482349
1.99250936329588,906,882,-13.9300110304488,-16.6815987766493,18.7883076611612,-2.10670888451192
1.99464954521134,903,877,-23.7051820959424,2.86874335433795,16.3445148947878,-19.2132582491258
1.99678972712681,904,876,-33.480353161436,2.86874335433795,23.6758931939081,-26.544636548246
1.99892990904227,904,879,-18.8175965631956,-4.46263494478227,16.3445148947878,-11.8818799500056
2.00107009095773,903,880,-9.04242549770196,-4.46263494478227,9.0131365956676,-4.55050165088533
2.00321027287319,901,876,-18.8175965631956,10.2001216534582,9.0131365956676,-19.2132582491258
2.00535045478866,903,878,-18.8175965631956,0.424950587964545,13.9007221284144,-14.325672716379
2.00749063670412,905,880,-18.8175965631956,-9.35022047752909,18.7883076611612,-9.43808718363215
2.00963081861958,905,878,-28.5927676286892,-4.46263494478227,23.6758931939081,-19.2132582491258
2.01177100053505,903,874,-38.3679386941829,10.2001216534582,23.6758931939081,-33.8760148473662
2.01391118245051,903,876,-28.5927676286892,5.31253612071136,18.7883076611612,-24.1008437818726
2.01605136436597,905,875,-43.2555242269297,2.86874335433795,31.0072714930283,-33.8760148473662
2.01819154628143,902,874,-33.480353161436,12.6439144198316,18.7883076611612,-31.4322220809928
2.0203317281969,903,874,-38.3679386941829,10.2001216534582,23.6758931939081,-33.8760148473662
2.02247191011236,903,876,-28.5927676286892,5.31253612071136,18.7883076611612,-24.1008437818726
2.02461209202782,904,873,-48.1431097596765,10.2001216534582,31.0072714930283,-41.2073931464865
2.02675227394329,904,874,-43.2555242269297,7.75632888708477,28.5634787266549,-36.3198076137397
2.02889245585875,904,877,-28.5927676286892,0.424950587964545,21.2321004275347,-21.6570510154992
2.03103263777421,903,877,-23.7051820959424,2.86874335433795,16.3445148947878,-19.2132582491258
2.03317281968967,902,876,-23.7051820959424,7.75632888708477,13.9007221284144,-21.6570510154992
2.03531300160514,905,881,-13.9300110304488,-11.7940132439025,16.3445148947878,-4.55050165088533
2.0374531835206,904,882,-4.15483996495514,-11.7940132439025,9.0131365956676,2.7808766482349
2.03959336543606,905,881,-13.9300110304488,-11.7940132439025,16.3445148947878,-4.55050165088533
2.04173354735152,906,882,-13.9300110304488,-16.6815987766493,18.7883076611612,-2.10670888451192
2.04387372926699,906,883,-9.04242549770196,-19.1253915430227,16.3445148947878,2.7808766482349
2.04601391118245,906,883,-9.04242549770196,-19.1253915430227,16.3445148947878,2.7808766482349
2.04815409309791,905,879,-23.7051820959424,-6.90642771115568,21.2321004275347,-14.325672716379
2.05029427501338,905,882,-9.04242549770196,-14.2378060102759,13.9007221284144,0.337083881861489
2.05243445692884,905,882,-9.04242549770196,-14.2378060102759,13.9007221284144,0.337083881861489
2.0545746388443,903,879,-13.9300110304488,-2.01884217840886,11.456929362041,-9.43808718363215
2.05671482075976,906,880,-23.7051820959424,-11.7940132439025,23.6758931939081,-11.8818799500056
2.05885500267523,904,883,0.732745567791682,-14.2378060102759,6.56934382929419,7.66846218098172
2.06099518459069,904,880,-13.9300110304488,-6.90642771115568,13.9007221284144,-6.99429441725874
2.06313536650615,904,880,-13.9300110304488,-6.90642771115568,13.9007221284144,-6.99429441725874
2.06527554842162,904,880,-13.9300110304488,-6.90642771115568,13.9007221284144,-6.99429441725874
2.06741573033708,905,878,-28.5927676286892,-4.46263494478227,23.6758931939081,-19.2132582491258
2.06955591225254,902,873,-38.3679386941829,15.087707186205,21.2321004275347,-36.3198076137397
2.071696094168,902,873,-38.3679386941829,15.087707186205,21.2321004275347,-36.3198076137397
2.07383627608347,903,876,-28.5927676286892,5.31253612071136,18.7883076611612,-24.1008437818726
2.07597645799893,902,875,-28.5927676286892,10.2001216534582,16.3445148947878,-26.544636548246
2.07811663991439,902,874,-33.480353161436,12.6439144198316,18.7883076611612,-31.4322220809928
2.08025682182986,904,876,-33.480353161436,2.86874335433795,23.6758931939081,-26.544636548246
2.08239700374532,901,876,-18.8175965631956,10.2001216534582,9.0131365956676,-19.2132582491258
2.08453718566078,900,871,-38.3679386941829,24.8628782516986,16.3445148947878,-41.2073931464865
2.08667736757624,902,869,-57.9182808251701,24.8628782516986,31.0072714930283,-55.8701497447269
2.08881754949171,904,874,-43.2555242269297,7.75632888708477,28.5634787266549,-36.3198076137397
2.09095773140717,902,871,-48.1431097596765,19.9752927189518,26.1196859602815,-46.0949786792333
2.09309791332263,904,875,-38.3679386941829,5.31253612071136,26.1196859602815,-31.4322220809928
2.0952380952381,905,877,-33.480353161436,-2.01884217840886,26.1196859602815,-24.1008437818726
2.09737827715356,905,881,-13.9300110304488,-11.7940132439025,16.3445148947878,-4.55050165088533
2.09951845906902,902,875,-28.5927676286892,10.2001216534582,16.3445148947878,-26.544636548246
2.10165864098448,903,875,-33.480353161436,7.75632888708477,21.2321004275347,-28.9884293146194
2.10379882289995,904,876,-33.480353161436,2.86874335433795,23.6758931939081,-26.544636548246
2.10593900481541,903,875,-33.480353161436,7.75632888708477,21.2321004275347,-28.9884293146194
2.10807918673087,901,871,-43.2555242269297,22.4190854853252,21.2321004275347,-43.6511859128599
2.11021936864634,903,876,-28.5927676286892,5.31253612071136,18.7883076611612,-24.1008437818726
2.1123595505618,903,876,-28.5927676286892,5.31253612071136,18.7883076611612,-24.1008437818726
2.11449973247726,902,876,-23.7051820959424,7.75632888708477,13.9007221284144,-21.6570510154992
2.11663991439272,903,874,-38.3679386941829,10.2001216534582,23.6758931939081,-33.8760148473662
2.11878009630819,904,876,-33.480353161436,2.86874335433795,23.6758931939081,-26.544636548246
2.12092027822365,904,874,-43.2555242269297,7.75632888708477,28.5634787266549,-36.3198076137397
2.12306046013911,902,876,-23.7051820959424,7.75632888708477,13.9007221284144,-21.6570510154992
2.12520064205457,902,877,-18.8175965631956,5.31253612071136,11.456929362041,-16.7694654827524
2.12734082397004,904,878,-23.7051820959424,-2.01884217840886,18.7883076611612,-16.7694654827524
2.1294810058855,903,875,-33.480353161436,7.75632888708477,21.2321004275347,-28.9884293146194
2.13162118780096,904,878,-23.7051820959424,-2.01884217840886,18.7883076611612,-16.7694654827524
2.13376136971643,903,878,-18.8175965631956,0.424950587964545,13.9007221284144,-14.325672716379
2.13590155163189,904,875,-38.3679386941829,5.31253612071136,26.1196859602815,-31.4322220809928
2.13804173354735,903,875,-33.480353161436,7.75632888708477,21.2321004275347,-28.9884293146194
2.14018191546281,904,878,-23.7051820959424,-2.01884217840886,18.7883076611612,-16.7694654827524
2.14232209737828,902,878,-13.9300110304488,2.86874335433795,9.0131365956676,-11.8818799500056
2.14446227929374,902,875,-28.5927676286892,10.2001216534582,16.3445148947878,-26.544636548246
2.1466024612092,903,878,-18.8175965631956,0.424950587964545,13.9007221284144,-14.325672716379
2.14874264312467,904,878,-23.7051820959424,-2.01884217840886,18.7883076611612,-16.7694654827524
2.15088282504013,903,875,-33.480353161436,7.75632888708477,21.2321004275347,-28.9884293146194
2.15302300695559,903,874,-38.3679386941829,10.2001216534582,23.6758931939081,-33.8760148473662
2.15516318887105,903,876,-28.5927676286892,5.31253612071136,18.7883076611612,-24.1008437818726
2.15730337078652,904,875,-38.3679386941829,5.31253612071136,26.1196859602815,-31.4322220809928
2.15944355270198,902,873,-38.3679386941829,15.087707186205,21.2321004275347,-36.3198076137397
2.16158373461744,904,875,-38.3679386941829,5.31253612071136,26.1196859602815,-31.4322220809928
2.16372391653291,904,877,-28.5927676286892,0.424950587964545,21.2321004275347,-21.6570510154992
2.16586409844837,902,874,-33.480353161436,12.6439144198316,18.7883076611612,-31.4322220809928
2.16800428036383,902,876,-23.7051820959424,7.75632888708477,13.9007221284144,-21.6570510154992
2.17014446227929,903,876,-28.5927676286892,5.31253612071136,18.7883076611612,-24.1008437818726
2.17228464419476,905,873,-53.0306952924233,7.75632888708477,35.8948570257751,-43.6511859128599
2.17442482611022,901,870,-48.1431097596765,24.8628782516986,23.6758931939081,-48.5387714456067
2.17656500802568,902,875,-28.5927676286892,10.2001216534582,16.3445148947878,-26.544636548246
2.17870518994114,902,873,-38.3679386941829,15.087707186205,21.2321004275347,-36.3198076137397
2.18084537185661,902,872,-43.2555242269297,17.5314999525784,23.6758931939081,-41.2073931464865
2.18298555377207,902,872,-43.2555242269297,17.5314999525784,23.6758931939081,-41.2073931464865
2.18512573568753,905,879,-23.7051820959424,-6.90642771115568,21.2321004275347,-14.325672716379
2.187265917603,902,875,-28.5927676286892,10.2001216534582,16.3445148947878,-26.544636548246
2.18940609951846,902,874,-33.480353161436,12.6439144198316,18.7883076611612,-31.4322220809928
2.19154628143392,904,876,-33.480353161436,2.86874335433795,23.6758931939081,-26.544636548246
2.19368646334938,902,878,-13.9300110304488,2.86874335433795,9.0131365956676,-11.8818799500056
2.19582664526485,902,875,-28.5927676286892,10.2001216534582,16.3445148947878,-26.544636548246
2.19796682718031,903,874,-38.3679386941829,10.2001216534582,23.6758931939081,-33.8760148473662
2.20010700909577,904,878,-23.7051820959424,-2.01884217840886,18.7883076611612,-16.7694654827524
2.20224719101124,904,881,-9.04242549770196,-9.35022047752909,11.456929362041,-2.10670888451192
2.2043873729267,903,875,-33.480353161436,7.75632888708477,21.2321004275347,-28.9884293146194
2.20652755484216,904,878,-23.7051820959424,-2.01884217840886,18.7883076611612,-16.7694654827524
2.20866773675762,905,878,-28.5927676286892,-4.46263494478227,23.6758931939081,-19.2132582491258
2.21080791867309,904,873,-48.1431097596765,10.2001216534582,31.0072714930283,-41.2073931464865
2.21294810058855,901,872,-38.3679386941829,19.9752927189518,18.7883076611612,-38.7636003801131
2.21508828250401,902,877,-18.8175965631956,5.31253612071136,11.456929362041,-16.7694654827524
2.21722846441948,903,876,-28.5927676286892,5.31253612071136,18.7883076611612,-24.1008437818726
2.21936864633494,903,875,-33.480353161436,7.75632888708477,21.2321004275347,-28.9884293146194
2.2215088282504,904,881,-9.04242549770196,-9.35022047752909,11.456929362041,-2.10670888451192
2.22364901016586,904,878,-23.7051820959424,-2.01884217840886,18.7883076611612,-16.7694654827524
2.22578919208133,902,874,-33.480353161436,12.6439144198316,18.7883076611612,-31.4322220809928
2.22792937399679,904,873,-48.1431097596765,10.2001216534582,31.0072714930283,-41.2073931464865
2.23006955591225,905,878,-28.5927676286892,-4.46263494478227,23.6758931939081,-19.2132582491258
2.23220973782772,903,873,-43.2555242269297,12.6439144198316,26.1196859602815,-38.7636003801131
2.23434991974318,901,872,-38.3679386941829,19.9752927189518,18.7883076611612,-38.7636003801131
2.23649010165864,903,875,-33.480353161436,7.75632888708477,21.2321004275347,-28.9884293146194
2.2386302835741,902,878,-13.9300110304488,2.86874335433795,9.0131365956676,-11.8818799500056
2.24077046548957,901,873,-33.480353161436,17.5314999525784,16.3445148947878,-33.8760148473662
2.24291064740503,903,871,-53.0306952924233,17.5314999525784,31.0072714930283,-48.5387714456067
2.24505082932049,901,873,-33.480353161436,17.5314999525784,16.3445148947878,-33.8760148473662
2.24719101123596,901,873,-33.480353161436,17.5314999525784,16.3445148947878,-33.8760148473662
2.24933119315142,903,868,-67.6934518906638,24.8628782516986,38.3386497921485,-63.2015280438472
2.25147137506688,902,872,-43.2555242269297,17.5314999525784,23.6758931939081,-41.2073931464865
2.25361155698234,902,874,-33.480353161436,12.6439144198316,18.7883076611612,-31.4322220809928
2.25575173889781,902,871,-48.1431097596765,19.9752927189518,26.1196859602815,-46.0949786792333
2.25789192081327,901,869,-53.0306952924233,27.306671018072,26.1196859602815,-53.4263569783535
2.26003210272873,901,872,-38.3679386941829,19.9752927189518,18.7883076611612,-38.7636003801131
2.26217228464419,899,868,-48.1431097596765,34.6380493171923,18.7883076611612,-53.4263569783535
2.26431246655966,899,869,-43.2555242269297,32.1942565508189,16.3445148947878,-48.5387714456067
2.26645264847512,900,870,-43.2555242269297,27.306671018072,18.7883076611612,-46.0949786792333
2.26859283039058,900,871,-38.3679386941829,24.8628782516986,16.3445148947878,-41.2073931464865
2.27073301230605,901,869,-53.0306952924233,27.306671018072,26.1196859602815,-53.4263569783535
2.27287319422151,902,874,-33.480353161436,12.6439144198316,18.7883076611612,-31.4322220809928
2.27501337613697,902,873,-38.3679386941829,15.087707186205,21.2321004275347,-36.3198076137397
2.27715355805243,901,868,-57.9182808251701,29.7504637844455,28.5634787266549,-58.3139425111003
2.2792937399679,902,867,-67.6934518906638,29.7504637844455,35.8948570257751,-65.6453208102206
2.28143392188336,903,874,-38.3679386941829,10.2001216534582,23.6758931939081,-33.8760148473662
2.28357410379882,901,872,-38.3679386941829,19.9752927189518,18.7883076611612,-38.7636003801131
2.28571428571429,899,868,-48.1431097596765,34.6380493171923,18.7883076611612,-53.4263569783535
2.28785446762975,903,870,-57.9182808251701,19.9752927189518,33.4510642594017,-53.4263569783535
2.28999464954521,902,876,-23.7051820959424,7.75632888708477,13.9007221284144,-21.6570510154992
2.29213483146067,901,873,-33.480353161436,17.5314999525784,16.3445148947878,-33.8760148473662
2.29427501337614,903,872,-48.1431097596765,15.087707186205,28.5634787266549,-43.6511859128599
2.2964151952916,904,876,-33.480353161436,2.86874335433795,23.6758931939081,-26.544636548246
2.29855537720706,903,877,-23.7051820959424,2.86874335433795,16.3445148947878,-19.2132582491258
2.30069555912253,902,871,-48.1431097596765,19.9752927189518,26.1196859602815,-46.0949786792333
2.30283574103799,903,873,-43.2555242269297,12.6439144198316,26.1196859602815,-38.7636003801131
2.30497592295345,902,876,-23.7051820959424,7.75632888708477,13.9007221284144,-21.6570510154992
2.30711610486891,901,874,-28.5927676286892,15.087707186205,13.9007221284144,-28.9884293146194
2.30925628678438,902,874,-33.480353161436,12.6439144198316,18.7883076611612,-31.4322220809928
2.31139646869984,901,872,-38.3679386941829,19.9752927189518,18.7883076611612,-38.7636003801131
2.3135366506153,902,873,-38.3679386941829,15.087707186205,21.2321004275347,-36.3198076137397
2.31567683253077,903,869,-62.805866357917,22.4190854853252,35.8948570257751,-58.3139425111003
2.31781701444623,902,870,-53.0306952924233,22.4190854853252,28.5634787266549,-50.9825642119801
2.31995719636169,902,868,-62.805866357917,27.306671018072,33.4510642594017,-60.7577352774737
2.32209737827715,901,868,-57.9182808251701,29.7504637844455,28.5634787266549,-58.3139425111003
2.32423756019262,902,869,-57.9182808251701,24.8628782516986,31.0072714930283,-55.8701497447269
2.32637774210808,902,874,-33.480353161436,12.6439144198316,18.7883076611612,-31.4322220809928
2.32851792402354,901,871,-43.2555242269297,22.4190854853252,21.2321004275347,-43.6511859128599
2.330658105939,902,868,-62.805866357917,27.306671018072,33.4510642594017,-60.7577352774737
2.33279828785447,902,872,-43.2555242269297,17.5314999525784,23.6758931939081,-41.2073931464865
2.33493846976993,902,871,-48.1431097596765,19.9752927189518,26.1196859602815,-46.0949786792333
2.33707865168539,901,868,-57.9182808251701,29.7504637844455,28.5634787266549,-58.3139425111003
2.33921883360086,901,868,-57.9182808251701,29.7504637844455,28.5634787266549,-58.3139425111003
2.34135901551632,903,873,-43.2555242269297,12.6439144198316,26.1196859602815,-38.7636003801131
2.34349919743178,903,874,-38.3679386941829,10.2001216534582,23.6758931939081,-33.8760148473662
2.34563937934724,901,871,-43.2555242269297,22.4190854853252,21.2321004275347,-43.6511859128599
2.34777956126271,901,874,-28.5927676286892,15.087707186205,13.9007221284144,-28.9884293146194
2.34991974317817,902,875,-28.5927676286892,10.2001216534582,16.3445148947878,-26.544636548246
2.35205992509363,900,871,-38.3679386941829,24.8628782516986,16.3445148947878,-41.2073931464865
2.3542001070091,900,869,-48.1431097596765,29.7504637844455,21.2321004275347,-50.9825642119801
2.35634028892456,902,874,-33.480353161436,12.6439144198316,18.7883076611612,-31.4322220809928
2.35848047084002,901,873,-33.480353161436,17.5314999525784,16.3445148947878,-33.8760148473662
2.36062065275548,902,874,-33.480353161436,12.6439144198316,18.7883076611612,-31.4322220809928
2.36276083467095,903,874,-38.3679386941829,10.2001216534582,23.6758931939081,-33.8760148473662
2.36490101658641,903,875,-33.480353161436,7.75632888708477,21.2321004275347,-28.9884293146194
2.36704119850187,902,872,-43.2555242269297,17.5314999525784,23.6758931939081,-41.2073931464865
2.36918138041734,904,870,-62.805866357917,17.5314999525784,38.3386497921485,-55.8701497447269
2.3713215623328,905,874,-48.1431097596765,5.31253612071136,33.4510642594017,-38.7636003801131
2.37346174424826,901,870,-48.1431097596765,24.8628782516986,23.6758931939081,-48.5387714456067
2.37560192616372,901,869,-53.0306952924233,27.306671018072,26.1196859602815,-53.4263569783535
2.37774210807919,902,871,-48.1431097596765,19.9752927189518,26.1196859602815,-46.0949786792333
2.37988228999465,902,872,-43.2555242269297,17.5314999525784,23.6758931939081,-41.2073931464865
2.38202247191011,901,867,-62.805866357917,32.1942565508189,31.0072714930283,-63.2015280438472
2.38416265382558,899,868,-48.1431097596765,34.6380493171923,18.7883076611612,-53.4263569783535
2.38630283574104,901,871,-43.2555242269297,22.4190854853252,21.2321004275347,-43.6511859128599
2.3884430176565,902,869,-57.9182808251701,24.8628782516986,31.0072714930283,-55.8701497447269
2.39058319957196,900,868,-53.0306952924233,32.1942565508189,23.6758931939081,-55.8701497447269
2.39272338148743,902,873,-38.3679386941829,15.087707186205,21.2321004275347,-36.3198076137397
2.39486356340289,903,872,-48.1431097596765,15.087707186205,28.5634787266549,-43.6511859128599
2.39700374531835,901,870,-48.1431097596765,24.8628782516986,23.6758931939081,-48.5387714456067
2.39914392723382,900,870,-43.2555242269297,27.306671018072,18.7883076611612,-46.0949786792333
2.40128410914928,901,873,-33.480353161436,17.5314999525784,16.3445148947878,-33.8760148473662
2.40342429106474,902,870,-53.0306952924233,22.4190854853252,28.5634787266549,-50.9825642119801
2.4055644729802,902,871,-48.1431097596765,19.9752927189518,26.1196859602815,-46.0949786792333
2.40770465489567,901,872,-38.3679386941829,19.9752927189518,18.7883076611612,-38.7636003801131
2.40984483681113,903,871,-53.0306952924233,17.5314999525784,31.0072714930283,-48.5387714456067
2.41198501872659,900,869,-48.1431097596765,29.7504637844455,21.2321004275347,-50.9825642119801
2.41412520064205,903,874,-38.3679386941829,10.2001216534582,23.6758931939081,-33.8760148473662
2.41626538255752,903,874,-38.3679386941829,10.2001216534582,23.6758931939081,-33.8760148473662
2.41840556447298,903,872,-48.1431097596765,15.087707186205,28.5634787266549,-43.6511859128599
2.42054574638844,903,870,-57.9182808251701,19.9752927189518,33.4510642594017,-53.4263569783535
2.42268592830391,904,873,-48.1431097596765,10.2001216534582,31.0072714930283,-41.2073931464865
2.42482611021937,901,871,-43.2555242269297,22.4190854853252,21.2321004275347,-43.6511859128599
2.42696629213483,900,869,-48.1431097596765,29.7504637844455,21.2321004275347,-50.9825642119801
2.42910647405029,904,873,-48.1431097596765,10.2001216534582,31.0072714930283,-41.2073931464865
2.43124665596576,904,874,-43.2555242269297,7.75632888708477,28.5634787266549,-36.3198076137397
2.43338683788122,902,871,-48.1431097596765,19.9752927189518,26.1196859602815,-46.0949786792333
2.43552701979668,901,872,-38.3679386941829,19.9752927189518,18.7883076611612,-38.7636003801131
2.43766720171215,902,874,-33.480353161436,12.6439144198316,18.7883076611612,-31.4322220809928
2.43980738362761,902,878,-13.9300110304488,2.86874335433795,9.0131365956676,-11.8818799500056
2.44194756554307,901,870,-48.1431097596765,24.8628782516986,23.6758931939081,-48.5387714456067
2.44408774745853,901,871,-43.2555242269297,22.4190854853252,21.2321004275347,-43.6511859128599
2.446227929374,902,874,-33.480353161436,12.6439144198316,18.7883076611612,-31.4322220809928
2.44836811128946,901,872,-38.3679386941829,19.9752927189518,18.7883076611612,-38.7636003801131
2.45050829320492,902,871,-48.1431097596765,19.9752927189518,26.1196859602815,-46.0949786792333
2.45264847512039,903,873,-43.2555242269297,12.6439144198316,26.1196859602815,-38.7636003801131
2.45478865703585,902,874,-33.480353161436,12.6439144198316,18.7883076611612,-31.4322220809928
2.45692883895131,901,872,-38.3679386941829,19.9752927189518,18.7883076611612,-38.7636003801131
2.45906902086677,901,872,-38.3679386941829,19.9752927189518,18.7883076611612,-38.7636003801131
2.46120920278224,901,870,-48.1431097596765,24.8628782516986,23.6758931939081,-48.5387714456067
2.4633493846977,902,869,-57.9182808251701,24.8628782516986,31.0072714930283,-55.8701497447269
2.46548956661316,901,868,-57.9182808251701,29.7504637844455,28.5634787266549,-58.3139425111003
2.46762974852862,903,873,-43.2555242269297,12.6439144198316,26.1196859602815,-38.7636003801131
2.46976993044409,901,872,-38.3679386941829,19.9752927189518,18.7883076611612,-38.7636003801131
2.47191011235955,903,870,-57.9182808251701,19.9752927189518,33.4510642594017,-53.4263569783535
2.47405029427501,903,873,-43.2555242269297,12.6439144198316,26.1196859602815,-38.7636003801131
2.47619047619048,903,876,-28.5927676286892,5.31253612071136,18.7883076611612,-24.1008437818726
2.47833065810594,902,870,-53.0306952924233,22.4190854853252,28.5634787266549,-50.9825642119801
2.4804708400214,902,871,-48.1431097596765,19.9752927189518,26.1196859602815,-46.0949786792333
2.48261102193686,901,874,-28.5927676286892,15.087707186205,13.9007221284144,-28.9884293146194
2.48475120385233,903,877,-23.7051820959424,2.86874335433795,16.3445148947878,-19.2132582491258
2.48689138576779,901,874,-28.5927676286892,15.087707186205,13.9007221284144,-28.9884293146194
2.48903156768325,903,875,-33.480353161436,7.75632888708477,21.2321004275347,-28.9884293146194
2.49117174959872,902,876,-23.7051820959424,7.75632888708477,13.9007221284144,-21.6570510154992
2.49331193151418,901,875,-23.7051820959424,12.6439144198316,11.456929362041,-24.1008437818726
2.49545211342964,903,870,-57.9182808251701,19.9752927189518,33.4510642594017,-53.4263569783535
2.4975922953451,901,874,-28.5927676286892,15.087707186205,13.9007221284144,-28.9884293146194
2.49973247726057,901,875,-23.7051820959424,12.6439144198316,11.456929362041,-24.1008437818726
2.50187265917603,903,875,-33.480353161436,7.75632888708477,21.2321004275347,-28.9884293146194
2.50401284109149,904,877,-28.5927676286892,0.424950587964545,21.2321004275347,-21.6570510154992
2.50615302300696,904,877,-28.5927676286892,0.424950587964545,21.2321004275347,-21.6570510154992
2.50829320492242,904,872,-53.0306952924233,12.6439144198316,33.4510642594017,-46.0949786792333
2.51043338683788,903,874,-38.3679386941829,10.2001216534582,23.6758931939081,-33.8760148473662
2.51257356875334,902,876,-23.7051820959424,7.75632888708477,13.9007221284144,-21.6570510154992
2.51471375066881,902,872,-43.2555242269297,17.5314999525784,23.6758931939081,-41.2073931464865
2.51685393258427,903,872,-48.1431097596765,15.087707186205,28.5634787266549,-43.6511859128599
2.51899411449973,903,878,-18.8175965631956,0.424950587964545,13.9007221284144,-14.325672716379
2.5211342964152,903,875,-33.480353161436,7.75632888708477,21.2321004275347,-28.9884293146194
2.52327447833066,902,873,-38.3679386941829,15.087707186205,21.2321004275347,-36.3198076137397
2.52541466024612,904,873,-48.1431097596765,10.2001216534582,31.0072714930283,-41.2073931464865
2.52755484216158,903,880,-9.04242549770196,-4.46263494478227,9.0131365956676,-4.55050165088533
2.52969502407705,905,874,-48.1431097596765,5.31253612071136,33.4510642594017,-38.7636003801131
2.53183520599251,901,873,-33.480353161436,17.5314999525784,16.3445148947878,-33.8760148473662
2.53397538790797,904,877,-28.5927676286892,0.424950587964545,21.2321004275347,-21.6570510154992
2.53611556982343,904,882,-4.15483996495514,-11.7940132439025,9.0131365956676,2.7808766482349
2.5382557517389,903,876,-28.5927676286892,5.31253612071136,18.7883076611612,-24.1008437818726
2.54039593365436,906,878,-33.480353161436,-6.90642771115568,28.5634787266549,-21.6570510154992
2.54253611556982,905,881,-13.9300110304488,-11.7940132439025,16.3445148947878,-4.55050165088533
2.54467629748529,904,878,-23.7051820959424,-2.01884217840886,18.7883076611612,-16.7694654827524
2.54681647940075,904,878,-23.7051820959424,-2.01884217840886,18.7883076611612,-16.7694654827524
2.54895666131621,903,879,-13.9300110304488,-2.01884217840886,11.456929362041,-9.43808718363215
2.55109684323167,903,880,-9.04242549770196,-4.46263494478227,9.0131365956676,-4.55050165088533
2.55323702514714,904,877,-28.5927676286892,0.424950587964545,21.2321004275347,-21.6570510154992
2.5553772070626,904,878,-23.7051820959424,-2.01884217840886,18.7883076611612,-16.7694654827524
2.55751738897806,904,878,-23.7051820959424,-2.01884217840886,18.7883076611612,-16.7694654827524
2.55965757089353,904,877,-28.5927676286892,0.424950587964545,21.2321004275347,-21.6570510154992
2.56179775280899,903,876,-28.5927676286892,5.31253612071136,18.7883076611612,-24.1008437818726
2.56393793472445,903,878,-18.8175965631956,0.424950587964545,13.9007221284144,-14.325672716379
2.56607811663991,902,876,-23.7051820959424,7.75632888708477,13.9007221284144,-21.6570510154992
2.56821829855538,902,870,-53.0306952924233,22.4190854853252,28.5634787266549,-50.9825642119801
2.57035848047084,901,871,-43.2555242269297,22.4190854853252,21.2321004275347,-43.6511859128599
2.5724986623863,901,875,-23.7051820959424,12.6439144198316,11.456929362041,-24.1008437818726
2.57463884430177,901,869,-53.0306952924233,27.306671018072,26.1196859602815,-53.4263569783535
2.57677902621723,901,869,-53.0306952924233,27.306671018072,26.1196859602815,-53.4263569783535
2.57891920813269,903,872,-48.1431097596765,15.087707186205,28.5634787266549,-43.6511859128599
2.58105939004815,902,874,-33.480353161436,12.6439144198316,18.7883076611612,-31.4322220809928
2.58319957196362,900,867,-57.9182808251701,34.6380493171923,26.1196859602815,-60.7577352774737
2.58533975387908,902,869,-57.9182808251701,24.8628782516986,31.0072714930283,-55.8701497447269
2.58747993579454,901,871,-43.2555242269297,22.4190854853252,21.2321004275347,-43.6511859128599
2.58962011771001,901,870,-48.1431097596765,24.8628782516986,23.6758931939081,-48.5387714456067
2.59176029962547,901,867,-62.805866357917,32.1942565508189,31.0072714930283,-63.2015280438472
2.59390048154093,902,872,-43.2555242269297,17.5314999525784,23.6758931939081,-41.2073931464865
2.59604066345639,902,873,-38.3679386941829,15.087707186205,21.2321004275347,-36.3198076137397
2.59818084537186,902,872,-43.2555242269297,17.5314999525784,23.6758931939081,-41.2073931464865
2.60032102728732,902,874,-33.480353161436,12.6439144198316,18.7883076611612,-31.4322220809928
2.60246120920278,903,874,-38.3679386941829,10.2001216534582,23.6758931939081,-33.8760148473662
2.60460139111825,900,868,-53.0306952924233,32.1942565508189,23.6758931939081,-55.8701497447269
2.60674157303371,901,870,-48.1431097596765,24.8628782516986,23.6758931939081,-48.5387714456067
2.60888175494917,903,873,-43.2555242269297,12.6439144198316,26.1196859602815,-38.7636003801131
2.61102193686463,902,873,-38.3679386941829,15.087707186205,21.2321004275347,-36.3198076137397
2.6131621187801,901,871,-43.2555242269297,22.4190854853252,21.2321004275347,-43.6511859128599
2.61530230069556,904,874,-43.2555242269297,7.75632888708477,28.5634787266549,-36.3198076137397
2.61744248261102,903,873,-43.2555242269297,12.6439144198316,26.1196859602815,-38.7636003801131
2.61958266452648,902,871,-48.1431097596765,19.9752927189518,26.1196859602815,-46.0949786792333
2.62172284644195,902,870,-53.0306952924233,22.4190854853252,28.5634787266549,-50.9825642119801
2.62386302835741,903,879,-13.9300110304488,-2.01884217840886,11.456929362041,-9.43808718363215
2.62600321027287,904,876,-33.480353161436,2.86874335433795,23.6758931939081,-26.544636548246
2.62814339218834,901,875,-23.7051820959424,12.6439144198316,11.456929362041,-24.1008437818726
2.6302835741038,904,878,-23.7051820959424,-2.01884217840886,18.7883076611612,-16.7694654827524
2.63242375601926,905,880,-18.8175965631956,-9.35022047752909,18.7883076611612,-9.43808718363215
2.63456393793472,901,876,-18.8175965631956,10.2001216534582,9.0131365956676,-19.2132582491258
2.63670411985019,904,874,-43.2555242269297,7.75632888708477,28.5634787266549,-36.3198076137397
2.63884430176565,903,875,-33.480353161436,7.75632888708477,21.2321004275347,-28.9884293146194
2.64098448368111,903,874,-38.3679386941829,10.2001216534582,23.6758931939081,-33.8760148473662
2.64312466559658,902,875,-28.5927676286892,10.2001216534582,16.3445148947878,-26.544636548246
2.64526484751204,904,879,-18.8175965631956,-4.46263494478227,16.3445148947878,-11.8818799500056
2.6474050294275,903,880,-9.04242549770196,-4.46263494478227,9.0131365956676,-4.55050165088533
2.64954521134296,903,877,-23.7051820959424,2.86874335433795,16.3445148947878,-19.2132582491258
2.65168539325843,905,880,-18.8175965631956,-9.35022047752909,18.7883076611612,-9.43808718363215
2.65382557517389,903,880,-9.04242549770196,-4.46263494478227,9.0131365956676,-4.55050165088533
2.65596575708935,903,881,-4.15483996495514,-6.90642771115568,6.56934382929419,0.337083881861489
2.65810593900482,902,876,-23.7051820959424,7.75632888708477,13.9007221284144,-21.6570510154992
2.66024612092028,905,878,-28.5927676286892,-4.46263494478227,23.6758931939081,-19.2132582491258
2.66238630283574,902,881,0.732745567791682,-4.46263494478227,1.68175829654738,2.7808766482349
2.6645264847512,902,877,-18.8175965631956,5.31253612071136,11.456929362041,-16.7694654827524
2.66666666666667,902,879,-9.04242549770196,0.424950587964545,6.56934382929419,-6.99429441725874
2.66880684858213,905,880,-18.8175965631956,-9.35022047752909,18.7883076611612,-9.43808718363215
2.67094703049759,905,876,-38.3679386941829,0.424950587964545,28.5634787266549,-28.9884293146194
2.67308721241305,902,875,-28.5927676286892,10.2001216534582,16.3445148947878,-26.544636548246
2.67522739432852,902,880,-4.15483996495514,-2.01884217840886,4.12555106292078,-2.10670888451192
2.67736757624398,905,878,-28.5927676286892,-4.46263494478227,23.6758931939081,-19.2132582491258
2.67950775815944,903,873,-43.2555242269297,12.6439144198316,26.1196859602815,-38.7636003801131
2.68164794007491,902,875,-28.5927676286892,10.2001216534582,16.3445148947878,-26.544636548246
2.68378812199037,904,881,-9.04242549770196,-9.35022047752909,11.456929362041,-2.10670888451192
2.68592830390583,904,874,-43.2555242269297,7.75632888708477,28.5634787266549,-36.3198076137397
2.68806848582129,902,874,-33.480353161436,12.6439144198316,18.7883076611612,-31.4322220809928
2.69020866773676,905,876,-38.3679386941829,0.424950587964545,28.5634787266549,-28.9884293146194
2.69234884965222,902,879,-9.04242549770196,0.424950587964545,6.56934382929419,-6.99429441725874
2.69448903156768,902,874,-33.480353161436,12.6439144198316,18.7883076611612,-31.4322220809928
2.69662921348315,904,876,-33.480353161436,2.86874335433795,23.6758931939081,-26.544636548246
2.69876939539861,903,878,-18.8175965631956,0.424950587964545,13.9007221284144,-14.325672716379
2.70090957731407,904,875,-38.3679386941829,5.31253612071136,26.1196859602815,-31.4322220809928
