t,leadI,leadII,leadIII,aVR,aVL,aVF
0,454.045045045045,429.477477477477,-24.5675675675676,-441.761261261261,239.306306306306,202.454954954955
0.00216192844016863,475.125952487674,453.858359480054,-21.2675930076199,-464.492155983864,248.196772747647,216.295383236217
0.00432385688033726,481.469944896646,463.686610164751,-17.7833347318956,-472.578277530698,249.626639814271,222.951637716428
0.00648578532050589,484.220679173197,469.269755207317,-14.9509239658802,-476.745217190257,249.585801569539,227.159415620718
0.00864771376067452,486.234138969791,473.05064074817,-13.1834982216206,-479.642389858981,249.708818595706,229.933571263275
0.0108096422008432,487.872684244612,476.162235143249,-11.7104491013627,-482.01745969393,249.791566672987,232.225893020943
0.0129715706410118,489.295775187839,478.892715327648,-10.4030598601915,-484.094245257743,249.849417524015,234.244827733728
0.0151334990811804,491.133228860485,481.662859208862,-9.47036965162317,-486.398044034673,250.301799256054,236.096244778619
0.017295427521349,491.91367047808,483.660301539932,-8.25336893814807,-487.786986009006,250.083519708114,237.703466300892
0.0194573559615177,493.022140445221,485.380027104407,-7.64211334081386,-489.201083774814,250.332126893017,238.868956881797
0.0216192844016863,493.828381882284,486.901608273782,-6.92677360850138,-490.364995078033,250.377577745392,239.98741733264
0.0237812128418549,497.12043773462,489.63291887357,-7.48751886105066,-493.376678304095,252.303978297836,241.07270000626
0.0259431412820236,503.845961749705,494.59796785173,-9.24799389797425,-499.221964800718,256.546977823839,242.674986976878
0.0281050697221922,514.427151672098,502.273480002523,-12.1536716695745,-508.350315837311,263.290411670836,245.059904166474
0.0302669981623608,528.362320798136,513.54813579638,-14.8141850017565,-520.955228297258,271.588252899946,249.366975397312
0.0324289266025295,545.556041349678,527.719656612904,-17.8363847367748,-536.637848981291,281.696213043227,254.941635938064
0.0345908550426981,564.587861438837,543.195067292191,-21.3927941466465,-553.891464365514,292.990327792742,260.901136572772
0.0367527834828667,583.61064230761,560.162659766901,-23.4479825407085,-571.886651037256,303.529312424159,268.357338613096
0.0389147119230353,601.546392940906,576.86863724278,-24.6777556981256,-589.207515091843,313.112074319516,276.095440772327
0.041076640363204,616.257483793107,591.762829384119,-24.4946544089878,-604.010156588613,320.376069101047,283.634087487566
0.0432385688033726,625.643427966184,603.443666407719,-22.1997615584658,-614.543547186952,323.921594762325,290.621952424626
0.0454004972435412,628.711482994202,610.347883414577,-18.3635995796243,-619.52968320439,323.537541286913,295.992141917477
0.0475624256837099,625.547549516418,611.874839556153,-13.6727099602647,-618.711194536285,319.610129738341,299.101064797944
0.0497243541238785,616.484465133546,608.396619567052,-8.08784556649346,-612.440542350299,312.28615535002,300.154387000279
0.0518862825640471,603.386081473598,600.725093920428,-2.66098755316921,-602.055587697013,303.023534513383,299.03205318363
0.0540482110042158,588.153028683186,589.993111186758,1.84008250357283,-589.073069934972,293.156473089806,295.916596845166
0.0562101394443844,571.632156597679,577.297629122598,5.66547252491989,-574.464892860138,282.983342036379,291.481550823759
0.058372067884553,555.522158280154,563.979567735331,8.45740945517741,-559.750863007743,273.532374412488,286.218488595254
0.0605339963247217,541.062814372518,551.017589132123,9.95477475960536,-546.040201752321,265.554019806456,280.486181945864
0.0626959247648903,529.158971192578,539.125963831979,9.96699263940036,-534.142467512278,259.595989276589,274.54647823569
0.0648578532050589,519.930712865765,529.096154007148,9.16544114138298,-524.513433436456,255.382635862191,269.130797574265
0.0670197816452275,514.005994531052,521.505803442624,7.49980891157213,-517.755898986838,253.25309280974,264.502806177098
0.0691817100853962,510.222188097138,515.695877039162,5.47368894202486,-512.95903256815,252.374249577556,260.584782990594
0.0713436385255648,508.54122532939,511.72569456371,3.18446923431952,-510.13345994655,252.678378047535,257.455081899015
0.0735055669657334,507.854697520483,509.098237760999,1.2435402405161,-508.476467640741,253.305578639983,255.170889000757
0.0756674954059021,507.893951887937,507.180604735917,-0.713347152019878,-507.537278311927,254.303649519978,253.233628791949
0.0778294238460707,507.922601444173,506.051188396939,-1.87141304723389,-506.986894920556,254.897007245703,252.089887674853
0.0799913522862393,507.673354932925,504.956734685945,-2.71662024697997,-506.315044809435,255.194987589953,251.120057219483
0.082153280726408,506.680975279339,503.617642019874,-3.06333325946514,-505.149308649606,254.872154269402,250.277154380204
0.0843152091665766,505.686536941854,502.370157343974,-3.3163795978806,-504.028347142914,254.501458269867,249.526888873047
0.0864771376067452,503.880127451079,500.919375978751,-2.96075147232727,-502.399751714915,253.420439461703,248.979312253212
0.0886390660469139,502.021418281688,499.320219787676,-2.70119849401135,-500.670819034682,252.36130838785,248.309510646833
0.0908009944870825,500.664850940479,497.882929363508,-2.78192157697111,-499.273890151993,251.723386258725,247.550503893268
0.0929629229272511,499.404612481451,496.563775663823,-2.84083681762763,-497.984194072637,251.122724649539,246.861469423098
0.0951248513674197,498.214679058698,495.330843318651,-2.88383574004683,-496.772761188675,250.549257399372,246.223503789302
0.0972867798075884,497.076057329945,493.620526669731,-3.45553066021427,-495.348291999838,250.26579399508,245.082498004758
0.099448708247757,495.974885122315,492.102106475912,-3.87277864640282,-494.038495799113,249.923831884359,244.114663914755
0.101610636687926,494.901045215045,490.993896929685,-3.90714828535982,-492.947471072365,249.404096750203,243.543374322163
0.103772565128094,494.927778464895,490.455233288299,-4.4725451765961,-492.691505876597,249.700161820746,242.991344055851
0.105934493568263,494.406977137491,489.791936763871,-4.61504037362033,-492.099456950681,249.511008755556,242.588448195125
0.108096422008432,494.026873523837,489.30783391583,-4.7190396080066,-491.667353719833,249.372956565922,242.294397153912
0.1102583504486,492.938988626951,488.414202035629,-4.52478659132186,-490.67659533129,248.731887609136,241.944707722153
0.112420278888769,492.415158804631,488.032146570862,-4.38301223376931,-490.223652687747,248.3990855192,241.824567168546
0.114582207328937,491.762688650904,487.48314955131,-4.27953909959371,-489.622919101107,248.021113875249,241.601805225858
0.116744135769106,492.367112209753,487.622779910632,-4.74433229912074,-489.994946060193,248.555722254437,241.439223805756
0.118906064209275,493.888871837064,488.265000684761,-5.62387115230314,-491.076936260913,249.756371494684,241.320564766229
0.121067992649443,495.809987283697,489.003877739238,-6.8061095444591,-492.406932511467,251.308048414078,241.098884097389
0.123229921089612,497.212101458699,490.353611203253,-6.8584902554461,-493.782856330976,252.035295857072,241.747560473903
0.125391849529781,499.045894415186,492.149174423208,-6.8967199919777,-495.597534419197,252.971307203582,242.626227215615
0.127553777969949,500.11412060132,493.459655085484,-6.65446551583545,-496.786887843402,253.384293058578,243.402594784824
0.129715706410118,501.163915059457,494.145945044437,-7.01797001502001,-497.654930051947,254.090942537239,243.563987514709
0.131877634850286,501.659944811669,494.646829507834,-7.01311530383492,-498.153387159751,254.336530057752,243.816857101999
0.134039563290455,501.211500409432,494.472084498271,-6.7394159111617,-497.841792453852,253.975458160297,243.866334293555
0.136201491730624,500.614049836268,494.344547938535,-6.26950189773299,-497.479298887401,253.441775867,244.037523020401
0.138363420170792,500.448160458601,494.251466172652,-6.19669428594926,-497.349813315627,253.322427372275,244.027385943351
0.140525348610961,501.13755576241,494.723843447778,-6.41371231463205,-497.930699605094,253.775634038521,244.155065566573
0.14268727705113,501.640706642459,495.338761279553,-6.30194536290645,-498.489733961006,253.971326002683,244.518407958323
0.144849205491298,502.548240610498,496.057711451155,-6.49052915934305,-499.302976030827,254.519384884921,244.783591145906
0.147011133931467,504.021067275202,497.392901403488,-6.62816587171403,-500.706984339345,255.324616573458,245.382367765887
0.149173062371635,505.366156879297,499.177850131784,-6.18830674751308,-502.27200350554,255.777231813405,246.494771692135
0.151334990811804,507.428487018808,500.75074008513,-6.67774693367835,-504.089613551969,257.053116976243,247.036496575726
0.153496919251973,508.663509648329,502.439016470733,-6.22449317759657,-505.551263059531,257.444001412963,248.107261646568
0.155658847692141,509.564883242683,503.671194503408,-5.89368873927441,-506.618038873046,257.729285990979,248.888752882067
0.15782077613231,509.682432737562,504.570491986425,-5.11194075113644,-507.126462361993,257.397186744349,249.729275617644
0.159982704572479,510.038381718068,505.226838668084,-4.8115430499837,-507.632610193076,257.424962384026,250.20764780905
0.162144633012647,510.298168870381,505.43571300468,-4.86245586570101,-507.866940937531,257.580312368041,250.28662856949
0.164306561452816,509.947460485989,505.318002429873,-4.62945805611673,-507.632731457931,257.288459271053,250.344272186878
0.166468489892985,509.691498150196,505.232092098052,-4.45940605214417,-507.461795124124,257.07545210117,250.386343022954
0.168630418333153,510.044998053166,505.439547187909,-4.60545086525764,-507.742272620538,257.325224459212,250.417048161326
0.170792346773322,509.76268533771,505.590956996556,-4.1717283411536,-507.676821167133,256.967206839432,250.709614327701
0.17295427521349,510.907422215382,505.971618716731,-4.93580349865147,-508.439520466057,257.921612857017,250.51790760904
0.175116203653659,511.472745102721,506.51959852045,-4.95314658227124,-508.996171811586,258.212945842496,250.783225969089
0.177278132093828,512.425654924076,506.919538176214,-5.50611674786137,-509.672596550145,258.965885835969,250.706710714177
0.179440060533996,512.850974025966,507.2114316496,-5.63954237636597,-510.031202837783,259.245258201166,250.785944636617
0.181601988974165,513.431546742325,507.424468287946,-6.00707845437881,-510.428007515136,259.719312598352,250.708694916784
0.183763917414334,513.585117921045,507.850107966958,-5.73500995408631,-510.717612944001,259.660063937565,251.057549006436
0.185925845854502,513.427044679997,507.890602230795,-5.53644244920235,-510.658823455396,259.4817435646,251.177079890796
0.188087774294671,513.041519695077,507.92015671771,-5.12136297736703,-510.480838206394,259.081441336222,251.399396870172
0.190249702734839,512.760146679666,507.941726876397,-4.81841980326851,-510.350936778031,258.789283241467,251.561653536564
0.192411631175008,513.635413179707,508.497782146467,-5.13763103324004,-511.066597663087,259.386522106473,251.680075556613
0.194573559615177,514.814533421462,509.173771843055,-5.64076157840725,-511.994152632259,260.227647499935,251.766505132324
0.196735488055345,516.485575640979,510.477607359563,-6.00796828141512,-513.481591500271,261.246771961197,252.234819539074
0.198897416495514,518.515644060208,511.969516035772,-6.5461280244362,-515.24258004799,262.530886042322,252.711694005668
0.201059344935683,520.537589309201,513.328532527429,-7.20905678177246,-516.933060918315,263.873323045487,253.059737872828
0.203221273375851,521.472981065371,514.5905584837,-6.88242258167111,-518.031769774536,264.177701823521,253.854067951014
0.20538320181602,521.345202292463,514.971327864598,-6.37387442786519,-518.158265078531,263.859538360164,254.298726718367
0.207545130256189,521.792256172545,515.249230031956,-6.54302614058906,-518.520743102251,264.167641156567,254.353101945684
0.209707058696357,522.658848093625,515.722211414382,-6.93663667924352,-519.190529754003,264.797742386434,254.392787367569
0.211868987136526,523.561481035939,516.607726361989,-6.9537546739507,-520.084603698964,265.257617854945,254.826985844019
0.214030915576694,525.030730717462,518.064482581409,-6.96624813605297,-521.547606649435,265.998489426757,255.549117222678
0.216192844016863,526.913522106346,519.667999482714,-7.24552262363216,-523.29076079453,267.079522364989,256.211238429541
0.218354772457032,528.557821917736,521.378628756033,-7.17919316170287,-524.968225336885,267.868507539719,257.099717797165
0.2205167008972,530.568372556515,523.167433328699,-7.40093922781557,-526.867902942607,268.984655892165,257.883247050442
0.222678629337369,532.305916662816,524.472981234235,-7.83293542858144,-528.389448948526,270.069426045699,258.320022902827
0.224840557777538,533.303896223528,525.966139686937,-7.33775653659063,-529.635017955233,270.320826380059,259.314191575173
0.227002486217706,533.491952982849,526.51559968459,-6.97635329825869,-530.00377633372,270.234153140554,259.769623193166
0.229164414657875,533.899361252327,527.186775862574,-6.71258538975269,-530.543068557451,270.30597332104,260.237095236411
0.231326343098043,534.737018070781,527.946785838687,-6.79023223209367,-531.341901954734,270.763625151437,260.578276803297
0.233488271538212,535.888689120056,529.311943034283,-6.57674608577236,-532.60031607717,271.232717602914,261.367598474256
0.235650199978381,538.080010140695,531.118763168923,-6.96124697177163,-534.599386654809,272.520628556233,262.078758098576
0.237812128418549,540.219644599146,533.24792825607,-6.97171634307631,-536.733786427608,273.595680471111,263.138105956497
0.239974056858718,541.511087305641,534.801886168824,-6.70920113681711,-538.156486737233,274.110144221229,264.046342516004
0.242135985298887,542.723794954572,536.206188910332,-6.51760604423953,-539.464991932452,274.620700499406,264.844291433046
0.244297913739055,542.528257251473,536.69079811913,-5.83745913234259,-539.609527685302,274.182858191908,265.426669493394
0.246459842179224,542.655701485393,537.044487139841,-5.6112143455515,-539.850094312617,274.133457915472,265.716636397145
0.248621770619393,543.018872079724,537.032468662665,-5.98640341705902,-540.025670371194,274.502637748391,265.523032622803
0.250783699059561,543.82424230577,537.293853263626,-6.53038904214407,-540.559047784698,275.177315673957,265.381732110741
0.25294562749973,544.682192974266,538.024935614694,-6.65725735957187,-541.35356429448,275.669725166919,265.683839127561
0.255107555939898,546.118831575802,539.639136374717,-6.47969520108518,-542.87898397526,276.299263388444,266.579720586816
0.257269484380067,547.16735333492,541.087406984084,-6.07994635083537,-544.127380159502,276.623649842877,267.503730316624
0.259431412820236,548.472922851272,542.414574503731,-6.0583483475408,-545.443748677501,277.265635599406,268.178113078095
0.261593341260404,548.615316017136,543.113043261879,-5.50227275525697,-545.864179639508,277.058794386197,268.805385253311
0.263755269700573,549.259553208458,543.892972558087,-5.36658065037034,-546.576262883273,277.313066929414,269.263195953859
0.265917198140742,549.459589508753,544.462199110104,-4.99739039864915,-546.960894309429,277.228489953701,269.732404355728
0.26807912658091,549.875740971796,544.877645573131,-4.99809539866453,-547.376693272464,277.43691818523,269.939775087233
0.270241055021079,550.44962274389,545.451012805343,-4.99860993854645,-547.950317774616,277.724116341218,270.226201433398
0.272402983461247,550.598310578501,545.599325106218,-4.99898547228304,-548.098817842359,277.798648025392,270.300169816967
0.274564911901416,551.517298106577,546.247882341457,-5.26941576511945,-548.882590224017,278.393356935848,270.489233288169
0.276726840341585,551.917859233439,546.721227810843,-5.19663142259628,-549.319543522141,278.557245328018,270.762298194123
0.278888768781753,552.480362495517,547.336852273184,-5.14351022233279,-549.90860738435,278.811936358925,271.096671025426
0.281050697221922,553.161058219018,548.056318174715,-5.1047400443025,-550.608688196866,279.13289913166,271.475789065206
0.283212625662091,553.117547340677,548.311259681846,-4.8062876588308,-550.714403511262,278.961917499754,271.752486011508
0.285374554102259,553.626103620147,548.767483369034,-4.85862025111385,-551.196793494591,279.242361935631,271.95443155896
0.287536482542428,553.456957837889,548.830299181253,-4.62665865663666,-551.143628509571,279.041808247263,272.101820262308
0.289698410982596,553.063351627548,548.335832487854,-4.72751913969478,-550.699592057701,278.895435383622,271.804156674079
0.291860339422765,553.046236791834,547.704792831368,-5.34144396046565,-550.375514811601,279.19384037615,271.181674435451
0.294022267862934,552.49343321156,546.974076246148,-5.51935696541148,-549.733754728854,279.006395088486,270.727359640368
0.296184196303102,551.81981674057,546.440767285543,-5.3790494550268,-549.130292013057,278.599433097798,270.530858915258
0.298346124743271,551.058025731765,545.78137884162,-5.27664689014478,-548.419702286693,278.167336310955,270.252365975738
0.30050805318344,549.961724872394,544.759815858117,-5.20190901427725,-547.360770365255,277.581816943336,269.77895342192
0.302669981623608,548.621284076519,543.473922036681,-5.14736203983739,-546.0476030566,276.884323058178,269.163279998422
0.304831910063777,546.022034417065,541.724951783299,-4.29708263376631,-543.873493100182,275.159558525416,268.713934574766
0.306993838503946,543.314519563704,539.638008072632,-3.67651149107189,-541.476263818168,273.495515527388,267.98074829078
0.309155766944114,540.257831819226,537.304396533613,-2.95343528561295,-538.78111417642,271.605633552419,267.175480624
0.311317695384283,537.756771044799,535.060912224212,-2.69585882058698,-536.408841634506,270.226314932693,266.182526701813
0.313479623824451,535.931387374852,533.153362925361,-2.77802444949134,-534.542375150107,269.354705912172,265.187669237935
0.31564155226462,534.328986230519,531.490993707174,-2.83799252334484,-532.909989968846,268.583489376932,264.326500591915
0.317803480704789,532.349015073622,529.737411435961,-2.61160363766123,-531.043213254792,267.480309355642,263.56290389915
0.319965409144957,530.093476788473,527.917257884601,-2.17621890387215,-529.005367336537,266.134847846173,262.870519490365
0.322127337585126,527.636817546557,525.238049062343,-2.39876848421352,-526.43743330445,265.017793015385,261.419640289065
0.324289266025295,524.493058999937,522.472176510705,-2.02088248923292,-523.482617755321,263.256970744585,260.225647010736
0.326451194465463,520.847825293954,519.102740550778,-1.74508474317577,-519.975282922366,261.296455018565,258.678827903801
0.328613122905632,517.376905481751,515.833110010315,-1.54379547143606,-516.605007746033,259.460350476593,257.144657269439
0.3307750513458,514.303363793979,512.636321835268,-1.66704195871159,-513.469842814623,257.985202876345,255.484639938278
0.332936979785969,511.249689849991,509.222540996261,-2.0271488537299,-510.236115423126,256.63841935186,253.597696071265
0.335098908226138,507.940360043515,505.920545621265,-2.01981442224957,-506.93045283239,254.980087232882,251.950365599508
0.337260836666306,504.984753817647,503.240448596524,-1.74430522112254,-504.112601207086,253.364529519385,250.748071687701
0.339422765106475,502.557466761672,500.744084007693,-1.8133827539794,-501.650775384682,252.185424757826,249.465350626857
0.341584693546644,500.785926381865,498.651971607759,-2.13395477410586,-499.718948994812,251.459940577985,248.259008416826
0.343746621986812,499.763134852115,497.395212580472,-2.36792227164295,-498.579173716294,251.065528561879,247.513645154415
0.345908550426981,499.016656807577,496.477974811233,-2.53868199634434,-497.747315809405,250.777669401961,246.969646407444
0.348070478867149,498.471844443797,495.268222099374,-3.20362234442342,-496.870033271585,250.83773339411,246.032299877475
0.350232407307318,497.263747888781,494.385291597452,-2.87845629132988,-495.824519743117,250.071102090056,245.753417653061
0.352394335747487,495.031245063286,492.93042161966,-2.1008234436261,-493.980833341473,248.566034253456,245.414799088017
0.354556264187655,493.401866744119,491.328281380091,-2.07358536402819,-492.365074062105,247.737726054074,244.627348008031
0.356718192627824,491.132050251878,489.348500642916,-1.78354960896149,-490.240275447397,246.45779993042,243.782475516977
0.358880121067993,489.745594996695,487.633413758161,-2.11218123853422,-488.689504377428,245.928888117615,242.760616259813
0.361042049508161,489.003855453054,486.111512037351,-2.89234341570369,-487.557683745203,245.948099434379,241.609584310824
0.36320397794833,488.462501454719,485.270917732147,-3.19158372257186,-486.866709593433,245.827042588645,241.039667004788
0.365365906388499,488.87786623747,484.92757141203,-3.95029482544049,-486.90271882475,246.414080531455,240.488638293295
0.367527834828667,488.910861432097,484.947138444987,-3.96372298710986,-486.928999938542,246.437292209603,240.491707728939
0.369689763268836,488.934942769933,484.961419322443,-3.97352344749027,-486.948181046188,246.454233108712,240.493947937476
0.371851691709004,488.682362172891,484.971842132143,-3.71052004074807,-486.827102152517,246.19644110682,240.630661045698
0.374013620149173,488.498017793138,484.709292943186,-3.7887248499523,-486.603655368162,246.143371321545,240.460284046617
0.376175548589342,488.633631404571,484.787829260419,-3.84580214415183,-486.710730332495,246.239716774361,240.471013558134
0.37833747702951,489.002764368333,484.574992291823,-4.42777207650977,-486.788878330078,246.715268222421,240.073610107657
0.380499405469679,488.461705133312,484.419654552409,-4.04205058090378,-486.440679842861,246.251877857108,240.188801985752
0.382661333909848,488.336972623495,484.306282268235,-4.03069035525982,-486.321627445865,246.183831489377,240.137795956488
0.384823262350016,487.165312528541,483.683225787142,-3.48208674139858,-485.424269157841,245.32369963497,240.100569522872
0.386985190790185,486.040027474569,482.68817946102,-3.35184801354882,-484.364103467794,244.695937744059,239.668165723735
0.389147119230353,485.218745168053,481.961951081,-3.25679408705389,-483.590348124526,244.237769627554,239.352578496973
0.391309047670522,484.619337378344,480.891605385336,-3.72773199300769,-482.75547138184,244.173534685676,238.581936696164
0.393470976110691,484.722175750211,480.380576440078,-4.34159931013386,-482.551376095145,244.531887530173,238.019488564972
0.395632904550859,483.986763061485,479.737448926955,-4.24931413453015,-481.86210599422,244.118038598008,237.744067396213
0.397794832991028,483.990339102651,479.268066306529,-4.7222727961227,-481.62920270459,244.356305949387,237.272896755203
0.399956761431197,483.722792842211,478.925490316755,-4.79730252545585,-481.324141579483,244.260047683833,237.064093895649
0.402118689871365,484.067838289734,478.945619570528,-5.12221871920627,-481.506728930131,244.59502850447,236.911700425661
0.404280618311534,485.67044862559,480.040935628841,-5.62951299674899,-482.855692127215,245.649980811169,237.205711316046
0.406442546751702,487.650572459619,481.110501461909,-6.5400709977099,-484.380536960764,247.095321728664,237.2852152321
0.408604475191871,489.09575353961,482.431429864912,-6.66432367469849,-485.763591702261,247.880038607154,237.883553095107
0.41076640363204,490.690822397306,483.665657466277,-7.0251649310286,-487.178239931791,248.857993664167,238.320246267624
0.412928332072208,491.044504859117,484.296294602399,-6.74821025671827,-487.670399730758,248.896357557918,238.77404217284
0.415090260512377,490.762325383096,485.026717410631,-5.73560797246483,-487.894521396864,248.248966677781,239.645554719083
0.417252188952546,491.366847081,485.289655748056,-6.07719133294444,-488.328251414528,248.722019206972,239.606232207556
0.419414117392714,491.267741063261,485.211403448414,-6.05633761484688,-488.239572255838,248.662039339054,239.577532916784
0.421576045832883,490.925252939976,485.154291493614,-5.77096144636232,-488.039772216795,248.348107193169,239.691665023626
0.423737974273052,490.134977686946,484.572296264432,-5.562681422514,-487.353636975689,247.84882955473,239.504807420959
0.42589990271322,488.747731566995,483.60721823795,-5.14051332904546,-486.177474902473,246.94412244802,239.233352454452
0.428061831153389,488.545727239359,483.443174459006,-5.10255278035305,-485.994450849182,246.824140009856,239.170310839326
0.430223759593557,488.128139423787,483.593604337834,-4.53453508595271,-485.860871880811,246.33133725487,239.529534625941
0.432385688033726,488.633834186209,483.433238438574,-5.20059574763417,-486.033536312391,246.917214966921,239.11632134547
0.434547616473895,489.273068579123,483.856508806915,-5.41655977220739,-486.564788693019,247.344814175665,239.219974517354
0.436709544914063,490.279922253692,484.435586267819,-5.84433598587304,-487.357754260756,248.062129119783,239.295625140973
0.438871473354232,490.744611941759,484.858222355505,-5.88638958625432,-487.801417148632,248.315500764007,239.485916384625
0.441033401794401,491.624075247746,485.166680678742,-6.45739456900435,-488.395377963244,249.040734908375,239.354643054869
0.443195330234569,491.18532123102,485.391807069852,-5.79351416116822,-488.288564150436,248.489417696094,239.799146454342
0.445357258674738,491.40541176114,485.285957956076,-6.11945380506376,-488.345684858608,248.762432783102,239.583252075506
0.447519187114906,491.566043467374,485.749017061652,-5.81702640572246,-488.657530264513,248.691534936548,239.965995327965
0.449681115555075,491.683279520345,486.086977873392,-5.59630164695335,-488.885128696868,248.639790583649,240.245338113219
0.451843043995244,492.309155949094,486.873948896215,-5.4352070528796,-489.591552422654,248.872181500987,240.719370921667
0.454004972435412,493.306260396496,487.988627232402,-5.31763316409388,-490.647443814449,249.311946780295,241.335497034154
0.456166900875581,494.57430330729,488.80216829183,-5.77213501546078,-491.68823579956,250.173219161376,241.515016638184
0.45832882931575,495.499776548814,489.666082392312,-5.83369415650208,-492.582929470563,250.666735352658,241.916194117905
0.460490757755918,496.985696080834,491.10707336764,-5.87862271319358,-494.046384724237,251.432159397014,242.614225327223
0.462652686196087,499.691122492167,492.699084103476,-6.99203838869107,-496.195103297822,253.341580440429,242.853522857393
0.464814614636256,500.855192517102,494.131159461531,-6.72403305557106,-497.493175989317,253.789612786337,243.70356320298
0.466976543076424,500.894313158133,494.906194553868,-5.98811860426486,-497.900253856,253.441215881199,244.459037974801
0.469138471516593,499.84224026749,494.661380465976,-5.18085980151346,-497.251810366733,252.511550034502,244.740260332231
0.471300399956761,498.263922767981,493.672235789067,-4.59168697891346,-495.968079278524,251.427804873447,244.540274405077
0.47346232839693,495.761216485912,491.869689843578,-3.89152664233313,-493.815453164745,249.826371564122,243.989081600623
0.475624256837099,494.204788064305,490.554112882447,-3.65067518185776,-492.379450473376,248.927731623081,243.451718850295
0.477786185277267,493.609150872873,489.32379099769,-4.28535987518313,-491.466470935281,248.947255374028,242.519215561253
0.479948113717436,492.904272556856,488.696004424572,-4.20826813228348,-490.800138490714,248.55627034457,242.243868146144
0.482110042157605,494.010758767754,489.048286929527,-4.96247183822709,-491.529522848641,249.486615302991,242.04290754565
0.484271970597773,495.898945702915,490.11586676305,-5.78307893986511,-493.007406232982,250.84101232139,242.166393911592
0.486433899037942,497.81733963211,491.435345696621,-6.38199393548962,-494.626342664365,252.0996667838,242.526675880566
0.48859582747811,499.487623736388,492.938671623597,-6.54895211279148,-496.213147679993,253.01828792459,243.194859755403
0.490757755918279,501.246982638048,494.576177136676,-6.6708055013724,-497.911579887362,253.95889406971,243.952685817652
0.492919684358448,503.071352227257,496.311612787166,-6.75973944009064,-499.691482507211,254.915545833674,244.775936673538
0.495081612798616,503.862544615447,497.308053504501,-6.55449111094629,-500.585299059974,255.208517863197,245.376781196777
0.497243541238785,504.980303888926,498.305455784158,-6.67484810476822,-501.642879836542,255.827575996847,245.815303839695
0.499405469678954,505.796093551297,499.303559854102,-6.49253369719531,-502.5498267027,256.144313624246,246.405513078453
0.501567398119122,505.851180145055,499.761863697585,-6.08931644747025,-502.80652192132,255.970248296263,246.836273625057
0.503729326559291,505.351072329575,499.826197698954,-5.52487463062056,-502.588635014265,255.437973480098,247.150661534167
0.50589125499946,504.175603111438,499.332839046476,-4.84276406496133,-501.754221078957,254.509183588199,247.245037490757
0.508053183439628,503.047537992572,498.702608086774,-4.34492990579821,-500.875073039673,253.696233949185,247.178839090488
0.510215111879797,501.954070461092,497.972481723877,-3.98158873721485,-499.963276092485,252.967829599154,246.995446493331
0.512377040319965,501.966478611337,497.70975974524,-4.25671886609626,-499.838119178288,253.111598738716,246.726520439572
0.514538968760134,502.78600325833,498.05832616487,-4.72767709345902,-500.4221647116,253.756840175894,246.665324535706
0.516700897200303,503.654284443027,498.312725200988,-5.3415592420393,-500.983504822007,254.497921842533,246.485582979474
0.518862825640471,504.558150283899,498.498396757204,-6.05975352669515,-501.528273520551,255.308951905297,246.219321615254
0.52102475408064,504.137206305674,498.63390798914,-5.50329831653391,-501.385557147407,254.820252311104,246.565304836303
0.523186682520809,503.559826746145,498.192497596247,-5.36732914989778,-500.876162171196,254.463577948021,246.412584223175
0.525348610960977,502.598117437487,497.870336962979,-4.72778047450811,-500.234227200233,253.662948955998,246.571278244235
0.527510539401146,501.355907448835,497.094897602265,-4.26100984656921,-499.22540252555,252.808458647702,246.416943877848
0.529672467841314,501.259756840681,496.528948001778,-4.73080883890213,-498.894352421229,252.995282839791,245.899069581438
0.531834396281483,501.459738128466,496.386049413341,-5.07368871512529,-498.922893770904,253.266713421796,245.656180349108
0.533996324721652,501.605693229098,496.281755766237,-5.32393746286101,-498.943724497668,253.46481534598,245.478909151688
0.53615825316182,503.062998711999,496.475793907629,-6.58720480436938,-499.769396309814,254.825101758184,244.94429455163
0.538320181601989,504.126604066099,497.157723863528,-6.96888020257137,-500.642163964813,255.547742134335,245.094421830478
0.540482110042158,505.443182250552,498.195738629522,-7.24744362103053,-501.819460440037,256.345312935791,245.474147504246
0.542644038482326,506.133922448189,498.953327258468,-7.18059518972109,-502.543624853329,256.657258818955,245.886366034374
0.544805966922495,506.367898678773,499.506248613261,-6.86165006551215,-502.937073646017,256.614774372143,246.322299273875
0.546967895362663,506.538664777235,500.179951041252,-6.3587137359828,-503.359307909244,256.448689256609,246.910618652635
0.549129823802832,506.66329735342,500.671648573368,-5.99164878005178,-503.667472963394,256.327473066736,247.339999896658
0.551291752243001,506.484103453076,501.030510962822,-5.45359249025421,-503.757307207949,255.968847971665,247.788459236284
0.553453680683169,506.353319898039,501.292424448557,-5.06089544948208,-503.822872173298,255.70710767376,248.115764499537
0.555615609123338,505.987712120934,501.213424167276,-4.77428795365813,-503.600568144105,255.381000037296,248.219568106809
0.557777537563507,505.450719344051,500.885610090851,-4.56510925319998,-503.168164717451,255.007914298626,248.160250418826
0.559939466003675,505.058798501573,500.37620081164,-4.68259768993346,-502.717499656607,254.870698095753,247.846801560853
0.562101394443844,504.23244508551,500.004411613593,-4.22803347191706,-502.118428349551,254.230239278713,247.888189070838
0.564263322884012,504.16964860174,500.003219788776,-4.166428812964,-502.086434195258,254.168038707352,247.918395487906
0.566425251324181,504.93428561376,500.002349942837,-4.93193567092226,-502.468317778299,254.933110642341,247.535207135958
0.56858717976435,505.492351187155,500.542027514926,-4.95032367222944,-503.01718935104,255.221337429692,247.795851921348
0.570749108204518,506.169808091138,500.935907838506,-5.23390025263126,-503.552857964822,255.701854171884,247.851003792938
0.572911036644687,506.934402016106,501.223378945938,-5.71102307016787,-504.078890481022,256.322712543137,247.756177937885
0.575072965084856,506.681967507069,501.433187947963,-5.24877955910637,-504.057577727516,255.965373533088,248.092204194428
0.577234893525024,506.49772974874,501.586315744784,-4.91141400395549,-504.042022746762,255.704571876348,248.337450870415
0.579396821965193,507.173733600899,501.968231327956,-5.20550227294336,-504.570982464428,256.189617936921,248.381364527506
0.581558750405362,507.937267025021,502.517126255795,-5.42014076922561,-505.227196640408,256.678703897123,248.548492743285
0.58372067884553,508.224370939772,502.917733809213,-5.30663713055878,-505.571052374493,256.765504035165,248.805548339327
0.585882607285699,508.433911948501,502.939958531681,-5.49395341681952,-505.686935240091,256.96393268266,248.723002557431
0.588044535725867,508.58684415208,503.226335319189,-5.3605088328905,-505.906589735634,256.973676492485,248.932913243149
0.590206464166036,508.158148347123,503.165189426744,-4.9929589203789,-505.661668886934,256.575553633751,249.086115253183
0.592368392606205,508.115423588751,503.120562476974,-4.9948611117768,-505.617993032862,256.555142350264,249.062850682598
0.594530321046373,507.54392876551,502.547679351157,-4.99624941435241,-505.045804058334,256.270089089931,248.775714968402
0.596692249486542,507.12682681882,502.399720372328,-4.72710644649163,-504.763273595574,255.926966632656,248.836306962918
0.598854177926711,507.092563765884,502.291733430732,-4.80083033515166,-504.692148598308,255.946697050518,248.74545154779
0.601016106366879,506.797400877664,501.942763620338,-4.85463725732683,-504.370082249001,255.826019067496,248.544063181505
0.603178034807048,506.852134289083,501.688070171977,-5.16406411710631,-504.27010223053,256.008099203095,248.262003027435
0.605339963247217,507.162237341282,501.772339952685,-5.38989738859647,-504.467288646984,256.276067364939,248.191221282044
0.607501891687385,507.65872033948,501.833843728662,-5.82487661081791,-504.746282034071,256.741798475149,248.004483558922
0.609663820127554,508.56138779537,501.878731877506,-6.68265591786439,-505.220059836438,257.622021856617,247.598037979821
0.611825748567722,508.679881607054,502.181649425971,-6.49823218108241,-505.430765516512,257.589056894068,247.841708622444
0.613987677007891,509.036519791314,502.132575705162,-6.90394408615191,-505.584547748238,257.970231938733,247.614315809505
0.61614960544806,508.486341319091,502.366915766741,-6.11942555235004,-505.426628542916,257.302883435721,248.123745107195
0.618311533888228,508.895265614392,502.808103616866,-6.08716199752649,-505.851684615629,257.491213805959,248.36047080967
0.620473462328397,510.274341318619,503.400258040548,-6.87408327807049,-506.837299679584,258.574212298345,248.263087381239
0.622635390768566,512.091319790322,504.913063115772,-7.17825667454991,-508.502191453047,259.634788232436,248.867403220611
0.624797319208734,513.957742664801,506.557486926317,-7.4002557384843,-510.257614795559,260.678999201643,249.578615593916
0.626959247648903,515.860252229504,508.297971853237,-7.56228037626715,-512.07911204137,261.711266302886,250.367845738485
0.629121176089071,517.518943229029,510.108566389223,-7.41037683980505,-513.813754809126,262.464660034417,251.349094774709
0.63128310452924,519.269840975199,511.430017564132,-7.83982341106679,-515.349929269666,263.554832193133,251.795097076533
0.633445032969409,519.737254183275,512.394470495455,-7.34278368782032,-516.065862339365,263.540018935548,252.525843403817
0.635606961409577,519.808236597807,513.098370476322,-6.70986612148408,-516.453303537064,263.259051359645,253.194252177419
0.637768889849746,519.319730248375,513.071795081079,-6.2479351672963,-516.195762664727,262.783832707836,253.411929956891
0.639930818289915,519.503509347525,513.322555405815,-6.18095394170984,-516.41303237667,262.842231644618,253.570800732053
0.642092746730083,519.367483169556,513.505571271133,-5.86191189842259,-516.436527220344,262.614697533989,253.821829686355
0.644254675170252,520.6189863679,513.909300475436,-6.70968589246422,-517.264143421668,263.664336130182,253.599807291486
0.646416603610421,522.072700626778,515.014428362897,-7.05827226388067,-518.543564494838,264.565486445329,253.978078049508
0.648578532050589,523.133684948334,516.09115529852,-7.04252964981356,-519.612420123427,265.088107299074,254.524312824353
0.650740460490758,524.178193976594,517.147153975866,-7.03104000072778,-520.66267397623,265.604616988661,255.058056987569
0.652902388930926,525.210678614386,517.917868050799,-7.29281056358627,-521.564273332593,266.251744588986,255.312528743607
0.655064317371095,525.423918689872,518.750525142684,-6.67339354718854,-522.087221916278,266.048656118531,256.038565797748
0.657226245811264,525.579550634347,519.088078536965,-6.49147209738123,-522.333814585656,266.035511365864,256.298303219792
0.659388174251432,525.152825218512,519.334439784943,-5.81838543356878,-522.243632501728,265.48560532604,256.758027175687
0.661550102691601,525.381694748272,519.514245011415,-5.86744973685654,-522.447969879844,265.624572242564,256.823397637279
0.66371203113177,525.008421329116,519.915630950901,-5.092790378215,-522.462026140008,265.050605853665,257.411420286343
0.665873959571938,525.006146254743,519.668267561733,-5.33787869301,-522.337206908238,265.172012473877,257.165194434362
0.668035888012107,525.544798229588,520.298199564353,-5.24659866523427,-522.921498896971,265.395698447411,257.52580044956
0.670197816452275,526.208086239263,521.028107735281,-5.17997850398206,-523.618096987272,265.694032371622,257.924064615649
0.672359744892444,526.962339084736,521.290670467865,-5.67166861687122,-524.1265047763,266.317003850804,257.809500925497
0.674521673332613,526.702357203068,521.212144035363,-5.49021316770427,-523.957250619216,266.096285185386,257.86096543383
0.676683601772781,527.052923465449,521.42498821827,-5.62793524717938,-524.23895584186,266.340429356314,257.898526485545
0.67884553021295,527.849094498119,521.580331223004,-6.2687632751157,-524.714712860562,267.058928886618,257.655783973944
0.681007458653119,527.889862556858,521.96386356191,-5.9259989949486,-524.926863059384,266.907930775903,258.01893228348
0.683169387093287,528.459929295026,522.513938468878,-5.94599082614798,-525.486933881952,267.202960060587,258.283973821365
0.685331315533456,529.146145174568,523.185563434606,-5.96058173996209,-526.165854304587,267.553363457265,258.612490847322
0.687493243973624,530.457444207181,524.486213379409,-5.9712308277725,-527.471828793295,268.214337517477,259.257491275818
0.689655172413793,531.684643872385,525.435484662153,-6.24915921023182,-528.560064267269,268.966901541308,259.593162725961
0.691817100853962,532.850464136698,526.668616834856,-6.18184730184259,-529.759540485777,269.516155719271,260.243384766507
0.69397902929413,532.890862179067,527.028298267301,-5.86256391176607,-529.959580223184,269.376713045417,260.582867177767
0.696140957734299,533.190502651214,527.290809526476,-5.89969312473784,-530.240656088845,269.545097887976,260.695558200869
0.698302886174468,532.598724752867,527.212245526427,-5.38647922644009,-529.905485139647,268.992601989654,260.912883149993
0.700464814614636,531.896663117936,526.884749867149,-5.01191325078639,-529.390706492542,268.454288184361,260.936418308181
0.702626743054805,531.114111582926,526.375572982715,-4.7385386002112,-528.74484228282,267.926325091568,260.818517191252
0.704788671494973,531.083283629952,526.274109608423,-4.80917402152875,-528.678696619187,267.94622882574,260.732467793447
0.706950599935142,530.52047161623,526.200057194974,-4.32041442125592,-528.360264405602,267.420443018743,260.939821386859
0.709112528375311,530.920175399746,526.416166712894,-4.5040086868521,-528.66817105632,267.712092043299,260.956079013021
0.711274456815479,531.211896723236,526.303736690231,-4.90816003300506,-528.757816706734,268.060028378121,260.697788328613
0.713436385255648,530.614339083435,526.221680336592,-4.39265874684349,-528.418009710014,267.503498915139,260.914510794874
0.715598313695817,529.637902928235,525.621479592869,-4.01642333536631,-527.629691260552,266.827163131801,260.802528128751
0.717760242135985,528.925257065858,524.91327059656,-4.01198646929743,-526.919263831209,266.468621767578,260.450642063632
0.719922170576154,527.054355850708,523.585920024293,-3.46843582641498,-525.320137937501,265.261395838562,260.058742098939
0.722084099016323,525.418734008758,522.076849030712,-3.34188497804575,-523.747791519735,264.380309493402,259.367482026333
0.724246027456491,523.954829355812,520.435150516459,-3.51967883935276,-522.194989936136,263.737254097582,258.457735838553
0.72640795589666,521.805782790961,518.696654630109,-3.10912816085181,-520.251218710535,262.457455475906,257.793763234628
0.728569884336828,520.777626928948,517.427824206769,-3.34980272217911,-519.102725567859,262.063714825564,257.039010742295
0.730731812776997,519.486921336088,515.961463780363,-3.52545755572442,-517.724192558225,261.506189445906,256.218003112319
0.732893741217166,518.815064088707,515.161405943865,-3.65365814484221,-516.988235016286,261.234361116775,255.753873899512
0.735055669657334,518.324713250198,514.577488701754,-3.74722454844425,-516.451100975976,261.035968899321,255.415132076655
0.737217598097503,517.696677524837,513.881164117946,-3.81551340689066,-515.788920821391,260.756095465864,255.032825355528
0.739379526537672,516.157684704472,512.83264352219,-3.32504118228292,-514.495164113331,259.741362943378,254.753801169953
0.74154145497784,514.494147930812,511.527074854909,-2.96707307590344,-513.01061139286,258.730610503358,254.280000889503
0.743703383418009,513.820338373976,510.304057461247,-3.5162809127292,-512.062197917612,258.668309643353,253.393888274259
0.745865311858178,513.058406442667,509.41144581371,-3.64696062895626,-511.234926128189,258.352683535811,252.882242592377
0.748027240298346,513.042627579367,508.489822535673,-4.55280504369392,-510.76622505752,258.797716311531,251.96850874599
0.750189168738515,512.490799050261,507.817181511203,-4.6736175390576,-510.153990280732,258.582208294659,251.571781986073
0.752351097178683,511.817894214309,507.326258637853,-4.49163557645551,-509.572076426081,258.154764895382,251.417311530699
0.754513025618852,511.326778799788,506.697805416417,-4.62897338337064,-509.012292108102,257.977876091579,251.034416016523
0.756674954059021,510.428028841502,505.968976524751,-4.45905231675118,-508.198502683127,257.443540579127,250.754962104
0.758836882499189,510.042237979239,505.707201497432,-4.33503648180675,-507.874719738335,257.188637230523,250.686082507813
0.760998810939358,509.760670914899,505.516146619856,-4.24452429504305,-507.638408767377,257.002597604971,250.635811162406
0.763160739379527,510.095483365792,505.646862616137,-4.44862074965528,-507.871172990964,257.272052057724,250.599120933241
0.765322667819695,510.610000365136,505.742264874031,-4.86773549110467,-508.176132619584,257.73886792812,250.437264691463
0.767484596259864,510.445204977251,505.811893619329,-4.63331135792129,-508.12854929829,257.539258167586,250.589291130704
0.769646524700032,510.054773875219,505.592555514689,-4.46221836052996,-507.823664694954,257.258496117874,250.565168577079
0.771808453140201,508.689195313222,504.622004325902,-4.06719098732003,-506.655599819562,256.378193150271,250.277406669291
0.77397038158037,507.962692494419,504.183809781577,-3.77888271284212,-506.073251137998,255.87078760363,250.202463534367
0.776132310020538,507.432458925058,503.593840003538,-3.83861892152004,-505.513149464298,255.635538923289,249.877610541009
0.778294238460707,507.315627460074,502.893098013981,-4.42252944609322,-505.104362737027,255.869078453084,249.235284283944
0.780456166900876,507.770671164841,503.192134461437,-4.5785367034041,-505.481402813139,256.174603934123,249.306798879016
0.782618095341044,508.643094409835,503.680540566908,-4.96255384292704,-506.161817488372,256.802824126381,249.358993361991
0.784780023781213,510.090295731428,504.577313152814,-5.5129825786143,-507.333804442121,257.801639155021,249.5321652871
0.786941952221381,511.146526626164,505.231817054001,-5.91470957216302,-508.189171840083,258.530618099164,249.658553740919
0.78910388066155,510.83678533603,505.439346448717,-5.39743888731306,-508.138065892373,258.117112111671,250.020953780702
0.791265809101719,510.340566367626,505.320654276432,-5.01991209119444,-507.830610322029,257.68023922941,250.150371092619
0.793427737541887,508.897779188499,504.423558896176,-4.47422029232359,-506.660669042338,256.685999740411,249.974669301926
0.795589665982056,506.764145080736,502.958350769922,-3.8057943108135,-504.861247925329,255.284969695775,249.576278229554
0.797751594422225,505.206925481046,501.618821508789,-3.58810397225636,-503.412873494917,254.397514726651,249.015358768266
0.799913522862393,503.530086005717,500.100861974792,-3.4292240309249,-501.815473990254,253.479655018321,248.335818971933
0.802075451302562,502.30625513096,498.992988638274,-3.3132664926859,-500.649621884617,252.809760811823,247.839861072794
0.80423737974273,501.953362193042,498.184414165583,-3.7689480274588,-500.068888179312,252.86115511025,247.207733069062
0.806399308182899,503.046586533786,498.674905956937,-4.37168057684926,-500.860746245361,253.709133555318,247.151612690044
0.808561236623068,504.925094375396,499.843356979599,-5.08173739579632,-502.384225677498,255.003415885596,247.380809791901
0.810723165063236,507.917048925775,501.506612335837,-6.41043658993794,-504.711830630806,257.163742757856,247.548087872949
0.812885093503405,513.882895334934,505.962403468118,-7.92049186681669,-509.922649401526,260.901693600875,249.02095580065
0.815047021943574,523.099843091277,512.186153277798,-10.9136898134785,-517.642998184537,267.006766452378,250.63623173216
0.817208950383742,535.500055606051,521.86148644082,-13.6385691652315,-528.680771023436,274.569312385641,254.111458637794
0.819370878823911,551.034022766351,534.596248697228,-16.4377740691226,-542.815135731789,283.735898417737,259.079237314053
0.82153280726408,569.395453711948,549.02360384892,-20.3718498630275,-559.209528780434,294.883651787488,264.325876992946
0.823694735704248,587.929398054301,565.496756046681,-22.4326420076201,-576.71307705049,305.18102003096,271.53205701953
0.825856664144417,607.129562651388,582.382395662798,-24.7471669885897,-594.755979157093,315.938364819989,278.817614337104
0.828018592584585,623.574089420459,598.218305599528,-25.3557838209317,-610.896197509993,324.464936620695,286.431260889298
0.830180521024754,635.576025131576,611.937295791183,-23.6387293403938,-623.756660461379,329.607377235985,294.149283225394
0.832342449464923,641.093688813391,620.869390714469,-20.224298098922,-630.98153976393,330.658993456157,300.322546307774
0.834504377905091,640.257909562856,624.416706378615,-15.841203184241,-632.337307970735,328.049556373548,304.287751597187
0.83666630634526,633.164172183687,622.953349502547,-10.2108226811392,-628.058760843117,321.687497432413,306.371263410704
0.838828234785429,621.773259149838,617.022515763045,-4.75074338679326,-619.397887456442,313.262001268316,306.135886188126
0.840990163225597,608.326704005412,607.831121786157,-0.495582219254857,-608.078912895785,304.411143112334,303.667769783451
0.843152091665766,592.029070176608,596.260028174196,4.23095799758789,-594.144549175402,293.89905608951,300.245493085892
0.845314020105934,576.08200018739,582.952125565965,6.87012537857458,-579.517062876678,284.605937404408,294.91112547227
0.847475948546103,559.850474615094,569.187092336256,9.33661772116193,-564.518783475675,275.256928446966,289.261855028709
0.849637876986272,545.032278173718,555.62873758584,10.5964594121222,-550.330507879779,267.217909380798,283.112598498981
0.85179980542644,532.596372278485,543.031694475293,10.4353221968081,-537.814033376889,261.080525040838,276.733508336051
0.853961733866609,522.709634975485,532.216883541045,9.50724856555985,-527.463259258265,256.601193204963,270.862066053302
0.856123662306778,515.223704958162,523.513292325286,8.28958736712434,-519.368498641724,253.467058795519,265.901439846205
0.858285590746946,510.57061407227,517.161030342056,6.59041626978626,-513.865822207163,251.990098901242,261.875723305921
0.860447519187115,507.98505322922,512.524871393032,4.53981816381184,-510.254962311126,251.722617532704,258.532344778422
0.862609447627284,506.368153920964,509.141199583311,2.7730456623471,-507.754676752137,251.797554129308,255.957122622829
0.864771376067452,505.728382428547,506.671647731921,0.943265303373721,-506.200015080234,252.392558562587,253.807456517647
0.866933304507621,504.450980543371,504.32894822998,-0.122032313390605,-504.389964386675,252.286506428381,252.103457958295
0.869095232947789,502.708208076916,501.808674915422,-0.899533161493991,-502.258441496169,251.803870619205,250.454570876964
0.871257161387958,501.166100206281,499.969269092406,-1.19683111387513,-500.567684649344,251.181465660078,249.386218989265
0.873419089828127,499.500289932531,498.086477754888,-1.41381217764376,-498.793383843709,250.457051055088,248.336332788622
0.875581018268295,498.824821075778,496.712334192858,-2.11248688292011,-497.768577634318,250.468653979349,247.299923654969
0.877742946708464,498.331834326602,495.439267838242,-2.8925664883601,-496.885551082422,250.612200407481,246.273350674941
0.879904875148633,497.701874798215,494.239972055579,-3.46190274263608,-495.970923426897,250.581888770426,245.389034656471
0.882066803588801,496.431634114035,493.094517266602,-3.33711684743241,-494.763075690318,249.884375480733,244.878700209585
0.88422873202897,494.964244417514,491.988357992414,-2.97588642510033,-493.476301204964,248.970065421307,244.506235783657
0.886390660469139,493.893279162745,491.181034517467,-2.71224464527825,-492.537156840106,248.302761904012,244.234394936094
0.888552588909307,493.651954247994,490.051502070523,-3.60045217747057,-491.851728159259,248.626203212732,243.225524946526
0.890714517349476,492.935512334299,489.497276042504,-3.43823629179502,-491.216394188402,248.186874313047,243.029519875355
0.892876445789644,492.952934077777,488.552465194992,-4.40046888278556,-490.752699636384,248.676701480281,242.075998156103
0.895038374229813,493.235805440905,488.673369502593,-4.56243593831141,-490.954587471749,248.899120689608,242.055466782141
0.897200302669982,494.252725983738,489.031766972326,-5.22095901141165,-491.642246478032,249.736842497575,241.905403980457
0.89936223111015,494.994919124945,489.563497351163,-5.43142177378138,-492.279208238054,250.213170449363,242.066037788691
0.901524159550319,495.806760390517,490.221733676988,-5.58502671352926,-493.014247033753,250.695893552023,242.318353481729
0.903686087990487,496.12912148327,490.43198715864,-5.6971343246301,-493.280554320955,250.91312790395,242.367426417005
0.905848016430656,495.824082300607,490.585439356157,-5.2386429444507,-493.204760828382,250.531362622529,242.673398205853
0.908009944870825,495.601451348005,490.697435489288,-4.90401585871638,-493.149443418647,250.252733603361,242.896709815286
0.910171873310993,495.168809318331,490.238862747606,-4.92994657072535,-492.703836032968,250.049377944528,242.65445808844
0.912333801751162,494.042579584876,489.634020068812,-4.40855951606352,-491.838299826844,249.22556955047,242.612730276374
0.914495730191331,493.220607809908,488.652266973156,-4.56834083675136,-490.936437391532,248.894474323329,242.041963068202
0.916657658631499,492.350540604059,487.665584362944,-4.68495624111432,-490.008062483502,248.517748422587,241.490314060915
0.918819587071668,491.715527458616,486.945460189027,-4.77006726958865,-489.330493823821,248.242797364102,241.087696459719
0.920981515511836,491.522223270906,486.690038245884,-4.83218502502189,-489.106130758395,248.177204147964,240.928926610431
0.923143443952005,492.731922469645,487.043932551073,-5.68798991857221,-489.887927510359,249.209956194109,240.67797131625
0.925305372392174,494.425282550963,487.842532535112,-6.58275001585145,-491.133907543038,250.504016283407,240.62989125963
0.927467300832342,496.201483311122,489.235854408277,-6.96562890284412,-492.7186688597,251.583556106983,241.135112752717
0.929629229272511,498.308301038007,490.793074146014,-7.51522689199294,-494.55068759201,252.911763965,241.63892362701
0.93179115771268,499.575792656821,492.199757510223,-7.37603514659776,-495.887775083522,253.475913901709,242.411861181813
0.933953086152848,500.230707329446,493.226416625455,-7.00429070399065,-496.72856197745,253.617499016718,243.111062960732
0.936115014593017,501.249005158758,494.516029826976,-6.73297533178265,-497.882517492867,253.99099024527,243.891527247596
0.938276943033186,501.992203503946,495.727402223065,-6.26480128088127,-498.859802863506,254.128502392414,244.731300471092
0.940438871473354,502.264465987658,496.34135862959,-5.92310735806802,-499.302912308624,254.093786672863,245.209125635761
0.942600799913523,503.003487493878,496.519294687202,-6.48419280667645,-499.76139109054,254.743840150277,245.017550940263
0.944762728353691,502.462232902,496.379004001662,-6.08322890033759,-499.420618451831,254.272730901169,245.147887550662
0.94692465679386,502.067201600321,496.006457504417,-6.06074409590411,-499.036829552369,254.063972848113,244.972856704257
0.949086585234029,500.96842182306,495.734556757614,-5.23386506544614,-498.351489290337,253.101143444253,245.250345846084
0.951248513674197,500.436640439977,494.995799262829,-5.44084117714772,-497.716219851403,252.938740808562,244.777479042841
0.953410442114366,500.048523100891,494.726777906199,-5.32174519469248,-497.387650503545,252.685134147792,244.702516355753
0.955572370554535,499.495101860023,494.260278128316,-5.23482373170646,-496.87768999417,252.364962795865,244.512727198305
0.957734298994703,499.091190805157,493.919806163266,-5.17138464189111,-496.505498484211,252.131287723524,244.374210760687
0.959896227434872,498.796398830806,493.671314814542,-5.12508401626479,-496.233856822674,251.960741423536,244.273115399138
0.962058155875041,499.932027798895,494.300423582887,-5.63160421600833,-497.116225690891,252.781816007452,244.334409683439
0.964220084315209,501.84148439436,495.029730921392,-6.81175347296755,-498.435607657876,254.326618933664,244.108988724212
0.966382012755378,503.775401853003,496.372479987652,-7.40292186535191,-500.073940920328,255.589161859178,244.48477906115
0.968543941195546,505.727171920691,497.622633264548,-8.10453865614306,-501.674902592619,256.915855288417,244.759047304202
0.970705869635715,507.151659180447,499.075362291642,-8.0762968888053,-503.113510736045,257.613978034626,245.499532701418
0.972867798075884,508.191312358249,500.405783759772,-7.78552859847645,-504.298548059011,257.988420478363,246.310127580648
0.975029726516052,508.409784348132,501.106627392008,-7.30315695612359,-504.75820587007,257.856470652128,246.901735217942
0.977191654956221,507.758766137213,501.347977551573,-6.41078858563981,-504.553371844393,257.084777361426,247.468594482967
0.97935358339639,507.013468328144,501.253969254424,-5.75949907371995,-504.133718791284,256.386483700932,247.747235090352
0.981515511836558,505.659048716274,500.645045458973,-5.01400325730049,-503.152047087624,255.336525986787,247.815521100836
0.983677440276727,505.210846399775,500.470782421292,-4.74006397848268,-502.840814410534,254.975455189129,247.865359221405
0.985839368716895,505.694197358868,501.154066261355,-4.54013109751315,-503.424131810112,255.117164228191,248.306967581921
0.988001297157064,507.127592901335,501.922912939425,-5.20467996190985,-504.52525292038,256.166136431622,248.359116488758
0.990163225597233,509.794685005165,503.834831970796,-5.95985303436913,-506.81475848798,257.877269019767,248.937489468213
0.992325154037401,512.281558033255,505.770546622989,-6.51101141026533,-509.026052328122,259.39628472176,249.629767606362
0.99448708247757,514.907055500285,507.993784573097,-6.91327092718814,-511.450420036691,260.910163213737,250.540256822954
0.996649010917739,516.823258517344,509.886557192386,-6.93670132495816,-513.354907854865,261.879979921151,251.474927933714
0.998810939357907,518.221787386137,511.538141742785,-6.68364564335235,-514.879964564461,262.452716514745,252.427248049716
1.00097286779808,518.702182569801,512.743540467462,-5.95864210233844,-515.722861518631,262.33041233607,253.392449182562
1.00313479623824,518.512483586701,513.082980815143,-5.4295027715583,-515.797732200922,261.97099317913,253.826739021792
1.00529672467841,517.833720538528,512.790406820594,-5.0433137179341,-515.312063679561,261.438517128231,253.87354655133
1.00745865311858,516.527860908593,512.576873508105,-3.95098740048832,-514.552367208349,260.239424154541,254.312943053808
1.00962058155875,516.115099793261,512.421027546426,-3.69407224683471,-514.268063669844,259.904586020048,254.363477649796
1.01178250999892,516.62431729287,512.30728433939,-4.3170329534795,-514.46580081613,260.470675123175,253.995125692955
1.01394443843909,517.266122733637,512.764581990036,-4.50154074360069,-515.015352361837,260.883831738619,254.131520623218
1.01610636687926,517.464384235896,513.098337839686,-4.36604639621021,-515.281361037791,260.915215316053,254.366145721738
1.01826829531942,518.149396585489,513.341927473305,-4.80746911218409,-515.745662029396,261.478432848836,254.26722918056
1.02043022375959,519.189661017373,514.060022277997,-5.12963873937645,-516.624841647685,262.159649878375,254.46519176931
1.02259215219976,520.219047762866,514.85427552236,-5.36477224050634,-517.536661642613,262.791910001686,254.744751640927
1.02475408063993,521.240495496518,515.704112530831,-5.53638296568681,-518.472304013675,263.388439231102,255.083864782572
1.0269160090801,522.526305203565,516.594517004257,-5.93178819930768,-519.560411103911,264.229046701436,255.331364402475
1.02907793752027,523.73490164284,517.51452938998,-6.22037225285931,-520.62471551641,264.977636947849,255.64707856856
1.03123986596044,523.806519610783,517.645682290958,-6.16083731982519,-520.726100950871,264.983678465304,255.742422485567
1.03340179440061,523.318477116062,517.741403421032,-5.57707369503032,-520.529940268547,264.447775405546,256.082164863001
1.03556372284077,523.502594756691,517.541108681337,-5.96148607535338,-520.521851719014,264.732040416022,255.789811302992
1.03772565128094,523.366815661117,517.394924809776,-5.97189085134028,-520.380870235447,264.669353256228,255.711516979218
1.03988757972111,523.808030555398,518.098702054808,-5.70932850058955,-520.953366305103,264.758679527994,256.194686777109
1.04204950816128,525.480829564576,519.152661929064,-6.32816763551261,-522.31674574682,265.904498600044,256.412247146776
1.04421143660145,527.782336377699,520.732356631841,-7.04997974585854,-524.25734650477,267.416158061779,256.841188442991
1.04637336504162,530.002389252335,522.965911845288,-7.03647740704707,-526.484150548812,268.519433329691,257.964717219121
1.04853529348179,532.43314968782,525.136370667008,-7.29677902081198,-528.784760177414,269.864964354316,258.919795823098
1.05069722192195,535.017693727702,527.260778979172,-7.75691474852965,-531.139236353437,271.387304238116,259.751932115321
1.05285915036212,536.36369471661,528.541108977381,-7.82258573922877,-532.452401846996,272.093140227919,260.359261619076
1.05502107880229,537.616221389051,529.475549873329,-8.14067151572237,-533.54588563119,272.878446452387,260.667439178803
1.05718300724246,537.449745352911,530.157545756609,-7.29219959630166,-533.80364555476,272.370972474606,261.432673080154
1.05934493568263,537.328243852062,530.65529621555,-6.67294763651114,-533.991770033806,272.000595744286,261.99117428952
1.0615068641228,536.969410524547,530.748420084175,-6.22099044037168,-533.858915304361,271.595200482459,262.263714821902
1.06366879256297,536.437362037615,530.816385961217,-5.62097607639771,-533.626873999416,271.029169057006,262.59770494241
1.06583072100313,536.589362178188,531.136146646253,-5.45321553193526,-533.862754412221,271.021288855062,262.841465557159
1.0679926494433,537.240610960323,531.369521995914,-5.87108896440952,-534.305066478119,271.555849962366,262.749216515752
1.07015457788347,537.715920838491,532.080161968909,-5.63575886958154,-534.8980414037,271.675839854036,263.222201549664
1.07231650632364,538.332979012379,532.598818138796,-5.73416087358328,-535.465898575588,272.033569942981,263.432328632606
1.07447843476381,538.783335087505,533.247512334434,-5.53582275307167,-536.01542371097,272.159578920289,263.855844790681
1.07664036320398,539.652337095125,533.991113975386,-5.66122311973891,-536.821725535256,272.656780107432,264.164945427824
1.07880229164415,539.746260388515,534.533827013878,-5.2124333746367,-537.140043701196,272.479346881576,264.660696819621
1.08096422008432,539.00434108514,534.119454118142,-4.88488696699812,-536.561897601641,271.944614026069,264.617283575572
1.08312614852448,538.46285589028,533.276714210478,-5.18614167980263,-535.869785050379,271.824498785041,264.045286265337
1.08528807696465,536.987031436961,532.121333300117,-4.86569813684412,-534.554182368539,270.926364786903,263.627817581637
1.08745000540482,535.099441491724,530.467617084154,-4.63182440756998,-532.783529287939,269.865632949647,262.917896338292
1.08961193384499,532.911327060044,528.720350152863,-4.19097690718115,-530.815838606453,268.551151983612,262.264686622841
1.09177386228516,529.693408063138,525.824180965628,-3.86922709751047,-527.758794514383,266.781317580324,260.977476934059
1.09393579072533,526.26420502506,523.170117451212,-3.09408757384756,-524.717161238136,264.679146299454,260.038014938682
1.0960977191655,522.410641430129,520.152440834431,-2.25820059569776,-521.28154113228,262.334421012913,258.947120119367
1.09825964760566,519.598141978211,517.40969587735,-2.18844610086103,-518.503918927781,260.893294039536,257.610624888245
1.10042157604583,517.005144300372,514.867608084261,-2.13753621611045,-515.936376192316,259.571340258241,256.365035934075
1.102583504486,514.302192416954,512.471968675855,-1.8302237410993,-513.387080546404,258.066208079027,255.320872467378
1.10474543292617,511.518991139617,509.913057499419,-1.60593364019803,-510.716024319518,256.562462389908,254.15356192961
1.10690736136634,509.21753276437,507.505139649182,-1.71239311518815,-508.361336206776,255.464962939779,252.896373266997
1.10906928980651,506.997515241817,505.477579551991,-1.5199356898255,-506.237547396904,254.258725465821,251.978821931083
1.11123121824668,505.377249243445,503.727621198128,-1.64962804531706,-504.552435220787,253.513438644381,251.038996576405
1.11339314668684,503.924551957546,501.910112540334,-2.01443941721192,-502.91733224894,252.969495687379,249.947836561561
1.11555507512701,501.783685019916,499.773146500959,-2.01053851895631,-500.778415760437,251.897111769436,248.881303991001
1.11771700356718,499.410717948661,497.132870264194,-2.27784768446799,-498.271794106427,250.844282816565,247.427511289863
1.11987893200735,496.328041612915,494.395412418232,-1.93262919468316,-495.361727015574,249.130335403799,246.231391611775
1.12204086044752,493.537857014717,491.316870966607,-2.22098604810998,-492.427363990662,247.879421531414,244.547942459249
1.12420278888769,490.420833270505,488.799860399772,-1.62097287073283,-489.610346835138,246.020903070619,243.58944376452
1.12636471732786,487.605580429599,486.152367237299,-1.45321319230061,-486.878973833449,244.52939681095,242.349577022499
1.12852664576802,485.280729419782,483.949954586684,-1.33077483309842,-484.615342003233,243.30575212644,241.309589876793
1.13068857420819,484.124263775686,482.072381182865,-2.05188259282102,-483.098322479276,243.088073184254,240.010249295022
1.13285050264836,483.010068297287,480.702045897333,-2.30802239995404,-481.85605709731,242.659045348621,239.19701174869
1.13501243108853,482.196879648617,479.431758989663,-2.76512065895417,-480.81431931914,242.481000153786,238.333319165354
1.1371743595287,482.143691388552,478.504647980959,-3.63904340759291,-480.324169684756,242.891367398073,237.432802286683
1.13933628796887,482.645184691086,478.368314194095,-4.27687049699097,-480.50674944259,243.461027594038,237.045721848552
1.14149821640904,482.200727827113,477.998655614768,-4.20207221234489,-480.09969172094,243.201400019729,236.898291701211
1.14366014484921,481.336031322108,477.728862596918,-3.60716872518998,-479.532446959513,242.471600023649,237.060846935864
1.14582207328937,480.16462552557,476.721487203145,-3.44313832242574,-478.443056364358,241.803881923998,236.639174440359
1.14798400172954,479.039526069718,475.716104317814,-3.32342175190405,-477.377815193766,241.181473910811,236.196341282955
1.15014593016971,477.407910585223,474.17186322865,-3.23604735657278,-475.789886906937,240.321978970898,235.467907936039
1.15230785860988,476.757398582994,473.044808462352,-3.71259012064201,-474.901103522673,240.234994351818,234.666109170855
1.15446978705005,475.74231401532,471.952078330416,-3.79023568490385,-473.847196172868,239.766274850112,234.080921322756
1.15663171549022,474.190992213564,470.884399819651,-3.30659239391281,-472.537696016607,238.748792303738,233.788903712869
1.15879364393039,472.518457209421,469.835005078979,-2.68345213044142,-471.1767311442,237.600954669931,233.575776474269
1.16095557237055,472.108236561834,468.798954634334,-3.30928192750071,-470.453595598084,237.708759244668,232.744836353417
1.16311750081072,472.349151994175,468.312955864993,-4.03619612918169,-470.331053929584,238.192674061678,232.138379867906
1.16527942925089,473.065295049676,468.228408894024,-4.83688615565245,-470.64685197185,238.951090602664,231.695761369186
1.16744135769106,473.858123822017,468.436859024328,-5.42126479768848,-471.147491423172,239.639694309853,231.50779711332
1.16960328613123,473.626296340944,468.588995057065,-5.03730128387843,-471.107645699004,239.331798812411,231.775846886593
1.1717652145714,473.727254705837,468.700030595509,-5.02722411032784,-471.213642650673,239.377239408082,231.836403242591
1.17392714301157,473.800938541314,468.781069193504,-5.01986934781007,-471.291003867409,239.410403944562,231.880599922847
1.17608907145173,473.854716230922,468.840214710849,-5.01450152007334,-471.347465470885,239.434608875498,231.912856595388
1.1782509998919,473.893965543623,468.883381699279,-5.01058384434396,-471.388673621451,239.452274693983,231.936398927467
1.18041292833207,473.922611410685,468.914886857636,-5.00772455304894,-471.418749134161,239.465167981867,231.953581152294
1.18257485677224,473.673362206945,468.937880701758,-4.73548150518724,-471.305621454351,239.204421856066,232.101199598285
1.18473678521241,474.572074071386,469.494975039798,-5.07709903158752,-472.033524555592,239.824586551487,232.208938004105
1.18689871365258,476.308618190452,470.441879305562,-5.8667388848898,-473.375248748007,241.087678537671,232.287570210336
1.18906064209275,478.116336552306,471.673283925625,-6.44305262668104,-474.894810238966,242.279694589494,232.615115649472
1.19122257053292,479.705844781263,473.112329361994,-6.59351541926873,-476.409087071628,243.149680100266,233.259406971363
1.19338449897308,480.325625064602,473.892451522691,-6.43317354191169,-477.109038293647,243.379399303257,233.72963899039
1.19554642741325,480.507811642531,474.461818835656,-6.04599280687415,-477.484815239093,243.276902224702,234.207913014391
1.19770835585342,480.37062317284,474.877368032188,-5.49325514065237,-477.623995602514,242.931939156746,234.692056445768
1.19987028429359,479.730184596691,474.640341608195,-5.08984298849589,-477.185263102443,242.410013792593,234.775249309849
1.20203221273376,478.722452056467,474.197193133149,-4.52525892331732,-476.459822594808,241.623855489892,234.835967104916
1.20419414117393,477.986964721889,473.873763971419,-4.11320075047047,-475.930364346654,241.05008273618,234.880281610474
1.2063560696141,476.639705223886,472.827242571216,-3.81246265267072,-474.733473897551,240.226083938279,234.507389959272
1.20851799805426,476.196728672015,472.333601640005,-3.86312703200969,-474.26516515601,240.029927852012,234.235237303998
1.21067992649443,475.06295635173,471.433008449052,-3.62994790267794,-473.247982400391,239.346452127204,233.901530273187
1.2128418549346,474.50563587849,470.775716103005,-3.72991977548566,-472.640675990748,239.117777826988,233.52289816376
1.21500378337477,475.719816264329,470.836307791001,-4.88350847332845,-473.278062027665,240.301662368829,232.976399658836
1.21716571181494,476.876134488473,471.42084268184,-5.45529180663249,-474.148488585156,241.165713147553,232.982775437604
1.21932764025511,478.260378585207,472.387774264607,-5.87260432059975,-475.324076424907,242.066491452903,233.257584972004
1.22148956869528,479.810972964205,473.633795697578,-6.17717726662698,-476.722384330891,242.994075115416,233.728309215475
1.22365149713544,481.482977063366,475.083509124049,-6.39946793931688,-478.283243093708,243.941222501342,234.342020592366
1.22581342557561,482.433122656993,475.871417251054,-6.56170540593848,-479.152269954024,244.497414031466,234.654855922558
1.22797535401578,483.126580516319,476.716623315036,-6.40995720128234,-479.921601915678,244.768268858801,235.153333056877
1.23013728245595,483.632696427277,477.333491710522,-6.29920471675439,-480.483094068899,244.965950572016,235.517143496884
1.23229921089612,483.73192576909,477.513553065189,-6.21837270390188,-480.62273941714,244.975149236496,235.647590180643
1.23446113933629,484.614816323428,477.644969726374,-6.96984659705453,-481.129893024901,245.792331460241,235.33756156466
1.23662306777646,485.259188510109,478.011039572068,-7.24814893804097,-481.635114041089,246.253668724075,235.381445317014
1.23878499621663,485.999635759672,478.548369586841,-7.45126617283148,-482.274002673257,246.725450966252,235.548551707005
1.24094692465679,486.540046585203,479.480848984041,-7.05919760116188,-483.010447784622,246.799622093182,236.210825691439
1.24310885309696,486.934462069253,480.431569491517,-6.50289257773682,-483.683015780385,246.718677323495,236.96433845689
1.24527078153713,487.762636183973,481.395603160016,-6.36703302395705,-484.579119671994,247.064834603965,237.514285068029
1.2474327099773,488.096917705218,482.099197144516,-5.9977205607014,-485.098057424867,247.04731913296,238.050738291907
1.24959463841747,488.881203420728,482.612710843469,-6.26849257725911,-485.746957132098,247.574847998993,238.172109133105
1.25175656685764,489.723765690182,482.717339414896,-7.00642627528606,-486.220552552539,248.365095982734,237.855456569805
1.25391849529781,489.798392104912,483.334014351557,-6.46437775335505,-486.566203228234,248.131384929133,238.434818299101
1.25608042373797,490.123013942004,483.243778299629,-6.87923564237445,-486.683396120816,248.501124792189,238.182271328627
1.25824235217814,489.819624749553,483.448076289537,-6.37154846001641,-486.633850519545,248.095586604785,238.53826391476
1.26040428061831,490.138510455801,483.867338120269,-6.27117233553167,-487.002924288035,248.204841395666,238.798082892369
1.26256620905848,489.830934783885,483.903177551157,-5.92775723272842,-486.867056167521,247.879346008307,238.987710159214
1.26472813749865,490.146765014102,484.199490949032,-5.94727406506962,-487.173127981567,248.047019539586,239.126108441981
1.26689006593882,490.107115533857,484.415753441811,-5.69136209204618,-487.261434487834,247.899238812951,239.362195674882
1.26905199437899,490.618490030741,485.113903702513,-5.50458632822733,-487.866196866627,248.061538179484,239.804658687143
1.27121392281915,490.991713530699,485.623444333467,-5.3682691972312,-488.307578932083,248.179991363965,240.127587568118
1.27337585125932,490.453639748112,485.455016974025,-4.99862277408658,-487.954328361068,247.726131261099,240.228197099969
1.27553777969949,489.790773728464,485.332091311985,-4.45868241647895,-487.561432520225,247.124728072472,240.436704447753
1.27769970813966,488.76667265792,484.972218569272,-3.79445408864757,-486.869445613596,246.280563373284,240.588882240312
1.27986163657983,487.749082641296,484.169255259743,-3.5798273815526,-485.959168950519,245.664455011424,240.294713939095
1.28202356502,487.276557100673,483.583217476188,-3.69333962448451,-485.42988728843,245.484948362579,239.944938925852
1.28418549346017,487.742155905732,483.425657652124,-4.31649825360824,-485.583906778928,246.02932707967,239.554579699258
1.28634742190034,487.811814089493,483.580819805144,-4.23099428434949,-485.696316947318,246.021404186921,239.674912760397
1.2885093503405,487.592497470332,483.694063938678,-3.89843353165395,-485.643280704505,245.745465500993,239.897815203512
1.29067127878067,487.432430598203,483.506558254208,-3.92587234399548,-485.469494426205,245.679151471099,239.790342955106
1.29283320722084,487.045450574024,483.369708395159,-3.67574217886494,-485.207579484591,245.360596376444,239.846983108147
1.29499513566101,487.30332803099,483.269829375625,-4.03349865536416,-485.286578703308,245.668413343177,239.618165360131
1.29715706410118,487.221382079183,483.196933293655,-4.02444878552819,-485.209157686419,245.622915432356,239.586242254063
1.29931899254135,487.701886759038,483.413886752921,-4.2880000061167,-485.55788675598,245.994943382577,239.562943373402
1.30148092098152,488.322736326668,484.112541311223,-4.21019501544521,-486.217638818946,246.266465671057,239.951173147889
1.30364284942168,489.046015738837,484.622450000647,-4.42356573818989,-486.834232869742,246.734790738514,240.099442131229
1.30580477786185,489.57389672489,484.994603690136,-4.5792930347535,-487.284250207513,247.076594879822,240.207655327691
1.30796670630202,489.959167383431,485.266217748639,-4.69294963479251,-487.612692566035,247.326058509112,240.286634056923
1.31012863474219,489.970198568444,485.194297370133,-4.77590119831081,-487.582247969289,247.373049883378,240.209198085911
1.31229056318236,489.167780974687,484.601494304898,-4.5662866697885,-486.884637639793,246.867033822238,240.017603817555
1.31445249162253,488.582141478398,484.438996882025,-4.14314459637336,-486.510569180211,246.362643037386,240.147926142826
1.3166144200627,488.154716129949,484.050242935482,-4.10447319446723,-486.102479532715,246.129594662208,239.972884870507
1.31877634850286,488.383074818238,484.036669494359,-4.34640532387948,-486.209872156298,246.364740071059,239.84513208524
1.32093827694303,488.009428564608,484.026763002671,-3.98266556193641,-486.01809578364,245.996047063272,240.022048720368
1.3231002053832,487.736725167438,483.479220387508,-4.25750477993023,-485.607972777473,245.997114973684,239.610857803789
1.32526213382337,487.807850498884,483.349756022967,-4.45809447591705,-485.578803260926,246.132972487401,239.445830773525
1.32742406226354,487.859760880219,482.71495483698,-5.14480604323893,-485.287357858599,246.502283461729,238.78507439687
1.32958599070371,487.08717871396,481.981492922819,-5.10568579114135,-484.534335818389,246.096432252551,238.437903565839
1.33174791914388,486.523314419098,481.44618030094,-5.07713411815797,-483.984747360019,245.800224268628,238.184523091391
1.33390984758404,486.92225020176,481.325641921026,-5.59660828073362,-484.123946061393,246.259429241247,237.864516820146
1.33607177602421,487.753723428341,481.777980156958,-5.97574327138267,-484.76585179265,246.864733349862,237.901118442788
1.33823370446438,489.171037633371,482.108116408586,-7.06292122478487,-485.639577020979,248.116979429078,237.522597591901
1.34039563290455,489.935299389867,482.619220512945,-7.31607887692229,-486.277259951406,248.625689133395,237.651570818011
1.34255756134472,491.033403509093,483.262402880469,-7.77100062862365,-487.147903194781,249.402202068858,237.745701125923
1.34471948978489,491.834847979228,484.272137959784,-7.56271001944407,-488.053492969506,249.698778999336,238.35471397017
1.34688141822506,492.419777247286,485.279243046949,-7.14053420033719,-488.849510147117,249.780155723812,239.069354423306
1.34904334666523,492.846684240073,486.28442865068,-6.56225558939235,-489.565556445377,249.704469914732,239.861086530644
1.35120527510539,493.69857208061,487.288213331351,-6.41035874925848,-490.493392705981,250.054465414934,240.438927291046
1.35336720354556,494.050160917336,487.750663133286,-6.29949778405046,-490.900412025311,250.174829350693,240.725582674618
1.35552913198573,494.306765845796,488.358335460421,-5.94843038537579,-491.332550653108,250.127598115586,241.204952537522
1.3576910604259,494.223891146964,488.801841333597,-5.4220498133671,-491.512866240281,249.822970480166,241.689895760115
1.35985298886607,494.703717986572,489.125531340134,-5.57818664643833,-491.914624663353,250.140952316505,241.773672346848
1.36201491730624,495.324072836709,489.631930692555,-5.69214214415342,-492.478001764632,250.508107490431,241.969894274201
1.36417684574641,496.046991182388,490.001523114232,-6.04546806815551,-493.02425714831,251.046229625272,241.978027523038
1.36633877418657,497.385077281921,490.541424059204,-6.84365322271645,-493.963250670563,252.114365252319,241.848885418244
1.36850070262674,498.631827321518,491.47577983384,-7.15604748767737,-495.053803577679,252.893937404597,242.159866173081
1.37066263106691,499.541760093266,492.427869803732,-7.11389028953437,-495.984814948499,253.3278251914,242.656989757099
1.37282455950708,499.665556450598,492.852590542125,-6.81296590847313,-496.259073496361,253.239261179535,243.019812316826
1.37498648794725,499.485752241117,492.892414122858,-6.59333811825923,-496.189083181988,253.039545179688,243.149538002299
1.37714841638742,499.354523255749,493.191635327749,-6.16288792799958,-496.273079291749,252.758705591874,243.514373699875
1.37931034482759,498.718434172212,492.869707641672,-5.84872653053992,-495.794070906942,252.283580351376,243.510490555566
1.38147227326775,498.79450092964,493.175063143505,-5.61943778613431,-495.984782036573,252.206969357887,243.777812678686
1.38363420170792,499.390330203775,493.397924959689,-5.99240524408538,-496.394127581732,252.69136772393,243.702759857802
1.38579613014809,500.095348710159,494.100891695585,-5.99445701457336,-497.098120202872,253.044902862366,244.053217340506
1.38795805858826,501.420370723174,495.424416236655,-5.99595448651866,-498.422393479914,253.708162604846,244.714230875068
1.39011998702843,502.657586020378,496.660538613262,-5.99704740711587,-499.65906231682,254.327316713747,245.331745603073
1.3922819154686,503.830716131491,498.103027274938,-5.72768885655302,-500.966871703214,254.779202494022,246.187669209192
1.39444384390877,505.227230279496,499.155818664108,-6.07141161538874,-502.191524471802,255.649320947443,246.542203524359
1.39660577234894,505.706155031708,499.924191919688,-5.78196311202004,-502.815173475698,255.744059071864,247.071114403834
1.3987677007891,505.78553907522,500.75514057911,-5.03039849611008,-503.270339827165,255.407968785665,247.8623710415
1.40092962922927,506.383789449996,501.09144708457,-5.29234236542607,-503.737618267283,255.838065907711,247.899552359572
1.40309155766944,506.820418769772,501.336898298487,-5.48352047128463,-504.07865853413,256.151969620528,247.926688913601
1.40525348610961,506.598777542782,501.516039342254,-5.08273820052835,-504.057408442518,255.840757871655,248.216650570863
1.40741541454978,506.707170281942,501.916940532117,-4.79022974982485,-504.312055407029,255.748700015883,248.563355391146
1.40957734298995,506.786280049296,501.93937956332,-4.84690048597554,-504.362829806308,255.816590267636,248.546239538672
1.41173927143012,506.844017821579,502.225912762727,-4.61810505885211,-504.534965292153,255.731061440216,248.803903851938
1.41390119987028,507.696626011636,502.435037238407,-5.26158877322888,-505.065831625022,256.479107392432,248.586724232589
1.41606312831045,508.318896802856,502.587665437928,-5.73123136492853,-505.453281120392,257.025064083892,248.4282170365
1.41822505675062,508.50290106249,502.969216393112,-5.53368466937769,-505.736058727801,257.018292865934,248.717765861867
1.42038698519079,509.71782027586,503.247688987609,-6.4701312882512,-506.482754631734,258.093975782056,248.388778849679
1.42254891363096,510.064209093072,503.991242904609,-6.07296618846328,-507.02772599884,258.068587640768,248.959138358073
1.42471084207113,510.04686260772,504.263764900198,-5.78309770752173,-507.155313753959,257.914980157621,249.240333596338
1.4268727705113,510.574514806883,504.732819597679,-5.84169520920392,-507.653667202281,258.208105008044,249.445562194238
1.42903469895146,511.229774698606,505.3453124668,-5.88446223180654,-508.287543582703,258.557118465206,249.730425117497
1.43119662739163,512.248324483934,505.522180370729,-6.72614411320467,-508.885252427331,259.487234298569,249.398018128762
1.4333585558318,512.721550505782,505.921422523602,-6.80012798218007,-509.321486514692,259.760839243981,249.560647270711
1.43552048427197,513.066931578209,506.482963140708,-6.58396843750177,-509.774947359459,259.825450007856,249.949497351603
1.43768241271214,513.319005808457,506.892800071884,-6.42620573657371,-510.105902940171,259.872605772516,250.233297167655
1.43984434115231,513.232824407679,507.191917010248,-6.04090739743128,-510.212370708964,259.636865902555,250.575504806408
1.44200626959248,513.710237871413,507.680381861509,-6.02985600990371,-510.695309866461,259.870046940658,250.825262925803
1.44416819803265,514.328831334159,508.036884898921,-6.29194643523817,-511.18285811654,260.310388884699,250.872469231841
1.44633012647281,513.699683082835,507.756764002482,-5.94291908035314,-510.728223542658,259.821301081594,250.906922461064
1.44849205491298,513.780815563537,507.822475718162,-5.95833984537501,-510.801645640849,259.869577704456,250.932067936393
1.45065398335315,513.29971717685,507.330122581915,-5.96959459493445,-510.314919879383,259.634655885892,250.68026399349
1.45281591179332,512.138121872233,506.700625491988,-5.43749638024406,-509.419373682111,258.787809126238,250.631564555872
1.45497784023349,510.750026331095,505.700878527517,-5.04914780357814,-508.225452429306,257.899587067337,250.32586536197
1.45713976867366,509.466777211196,504.701063203926,-4.76571400727005,-507.083920207561,257.116245609233,249.967674598328
1.45930169711383,507.989893388673,503.431041776984,-4.55885161168891,-505.710467582829,256.274372500181,249.436095082648
1.46146362555399,506.371686481274,501.963812103998,-4.4078743772767,-504.167749292636,255.389780429275,248.77796886336
1.46362555399416,504.650335798259,500.622807429539,-4.02752836872048,-502.636571613899,254.33893208349,248.297639530409
1.46578748243433,502.583550059456,499.103771074291,-3.47977898516467,-500.843660566873,253.03166452231,247.811996044563
1.4679494108745,500.804963114726,497.7249556146,-3.08000750012536,-499.264959364663,251.942485307426,247.322474057238
1.47011133931467,500.317341117083,496.988791928242,-3.32854918884181,-498.653066522663,251.822945152963,246.8301213697
1.47227326775484,500.501765654893,496.451507434707,-4.05025822018575,-498.4766365448,252.276011937539,246.200624607261
1.47443519619501,500.36621054632,496.059373684643,-4.30683686167663,-498.212792115481,252.336523703998,245.876268411483
1.47659712463517,499.997120280507,495.503021091172,-4.49409918933509,-497.750070685839,252.245609734921,245.504460950918
1.47875905307534,499.457585830873,494.826814394946,-4.6307714359271,-497.142200112909,252.0441786334,245.098021479509
1.48092098151551,498.523497540583,494.063132926343,-4.46036461424023,-496.293315233463,251.491931077412,244.801384156051
1.48308290995568,497.301446580609,493.235608538503,-4.06583804210567,-495.268527559556,250.683642311357,244.584885248199
1.48524483839585,496.679696490566,492.361488792641,-4.318207697925,-494.520592641604,250.498952094246,244.021640547358
1.48740676683602,496.496072261453,492.263830349787,-4.2322419116652,-494.37995130562,250.364157086559,244.015794219061
1.48956869527619,496.632211470356,492.192554941912,-4.43965652844349,-494.412383206134,250.5359339994,243.876449206734
1.49173062371636,497.001728038166,492.4106912401,-4.59103679806617,-494.706209639133,250.796382418116,243.909827221017
1.49389255215652,497.271417409793,492.569896662297,-4.70152074749547,-494.920657036045,250.986469078644,243.934187957401
1.49605448059669,497.468248522399,492.415935538853,-5.05231298354596,-494.942092030626,251.260280752972,243.681811277653
1.49821640903686,497.611904487245,492.303567969293,-5.30833651795115,-494.957736228269,251.460120502598,243.497615725671
1.50037833747703,497.716750900815,491.951400984792,-5.76534991602307,-494.834075942803,251.741050408419,243.093025534384
1.5025402659172,497.252959980724,491.964530310641,-5.28842967008234,-494.608745145682,251.270694825403,243.338050320279
1.50470219435737,497.184621270576,491.974112667555,-5.21050860302154,-494.579366969065,251.197564936799,243.381802032267
1.50686412279754,496.324276051871,491.710950079352,-4.61332597251959,-494.017613065612,250.468801012196,243.548812053416
1.5090260512377,495.156046014611,491.248726287213,-3.90731972739792,-493.202386150912,249.531682871004,243.670703279907
1.51118797967787,494.573576790682,490.641218911923,-3.93235787875932,-492.607397851303,249.252967334721,243.354430516582
1.51334990811804,494.148465245823,490.197833427826,-3.95063181799668,-492.173149336824,249.04954853191,243.123600804915
1.51551183655821,493.838200225545,489.874231286511,-3.96396893903369,-491.856215756028,248.901084582289,242.955131173739
1.51767376499838,493.881911439693,489.908208485719,-3.97370295397405,-491.895059962706,248.927807196834,242.967252765873
1.51983569343855,494.724282433426,490.203162745371,-4.52111968805514,-492.463722589399,249.622701060741,242.841021528658
1.52199762187872,495.06892545863,490.148277067688,-4.92064839094172,-492.608601263159,249.994786924786,242.613814338373
1.52415955031888,495.320461029697,489.838062884902,-5.4823981447941,-492.579261957299,250.401429587245,242.177832370054
1.52632147875905,493.612949220631,489.071342566864,-4.5416066537677,-491.342145893748,249.0772779372,242.264867956548
1.52848340719922,491.826419909886,487.431131658025,-4.3952882518613,-489.628775783955,248.110854080874,241.517921703082
1.53064533563939,489.441907742643,485.693721491245,-3.74818625139778,-487.567814616944,246.59504699702,240.972767619924
1.53280726407956,487.701586349664,484.155527261718,-3.54605908794576,-485.928556805691,245.623822718805,240.304734086886
1.53496919251973,487.241892227266,483.303041970235,-3.9388502570315,-485.27246709875,245.590371242149,239.682095856602
1.5371311209599,487.987012175082,483.221173299518,-4.7658388755637,-485.6040927373,246.376425525323,239.227667211977
1.53929304940006,489.071145764149,483.701734382496,-5.3694113816523,-486.386440073322,247.2202785729,239.166161500422
1.54145497784023,490.132550141502,484.592781327468,-5.53976881403452,-487.362665734485,247.836159477768,239.526506256717
1.5436169062804,491.447521956749,485.783418828929,-5.66410312782017,-488.615470392839,248.555812542285,240.059657850554
1.54577883472057,493.487870815157,487.462866848898,-6.02500396625942,-490.475368832028,249.756437390708,240.718931441319
1.54794076316074,497.678568873798,490.579695036858,-7.09887383693962,-494.129131955328,252.388721355369,241.740410599959
1.55010269160091,503.438685938535,495.28589863535,-8.15278730318539,-499.362292286942,255.79573662086,243.566555666082
1.55226462004108,513.045795834558,502.232722851707,-10.8130729828512,-507.639259343133,261.929434408705,245.709824934428
1.55442654848125,525.46060955147,511.35516253131,-14.1054470201602,-518.40788604139,269.783028285815,248.624857755575
1.55658847692141,539.65445224909,522.875930277733,-16.778521971357,-531.265191263411,278.216487110224,253.048704153188
1.55875040536158,555.687020620923,536.417259077491,-19.2697615434328,-546.052139849207,287.478391082178,258.573748767029
1.56091233380175,573.061571504154,551.433281810559,-21.6282896935951,-562.247426657356,297.344930598874,264.902496058482
1.56307426224192,590.605091351489,567.525600750244,-23.0794906012453,-579.065346050867,306.842290976367,272.223055074499
1.56523619068209,606.650994876433,583.052666731156,-23.5983281452767,-594.851830803795,315.124661510855,279.72716929294
1.56739811912226,619.442622736507,596.546249080158,-22.8963736563493,-607.994435908332,321.169498196428,286.824937711904
1.56956004756243,626.347106963387,605.854143913431,-20.4929630499553,-616.100625438409,323.420035006671,292.680590431738
1.57172197600259,626.793646284787,610.486203443075,-16.307442841712,-618.639924863931,321.55054456325,297.089380300682
1.57388390444276,621.17611357349,610.084696350823,-11.0914172226669,-615.630404962157,316.133765398079,299.496639564078
1.57604583288293,610.322286922751,604.658690868093,-5.66359605465857,-607.490488895422,307.992941488705,299.497547406717
1.5782077613231,595.916939879368,595.56558644661,-0.351353432757833,-595.741263162989,298.134146656063,297.607116506926
1.58036968976327,579.189693950874,583.525916432356,4.33622248148208,-581.357805191615,287.426735734696,293.931069456919
1.58253161820344,561.848449391906,569.876026247647,8.02757685574181,-565.862237819777,276.910436268082,288.951801551695
1.58469354664361,545.139706594053,555.591239297757,10.4515327037041,-550.365472945905,267.344086945175,283.021386000731
1.58685547508377,530.783684760633,542.193857947055,11.4101731864217,-536.488771353844,259.686755787106,276.802015566738
1.58901740352394,519.765718979533,529.984456484214,10.2187375046801,-524.875087731873,254.773490737427,270.101596994447
1.59117933196411,511.454168884515,519.992875822307,8.53870693779163,-515.723522353411,251.457730973362,264.265791380049
1.59334126040428,505.117879466077,512.160270318887,7.04239085281063,-508.639074892482,249.037744306633,259.601330585849
1.59550318884445,501.844159053604,506.173535635485,4.32937658188087,-504.008847344545,248.757391235862,255.251456108683
1.59766511728462,500.265323182107,502.614623151246,2.34929996913922,-501.439973166677,248.958011606484,252.481961560193
1.59982704572479,500.193644476307,500.557485405876,0.363840929568141,-500.375564941092,249.91490177337,250.460663167722
1.60198897416496,502.03242370124,499.596408624836,-2.43601507640426,-500.814416163038,252.234219388822,248.580196774216
1.60415090260512,502.563976660681,499.165128918151,-3.39884774253051,-500.864552789416,252.981412201606,247.88314058781
1.60631283104529,502.951927286191,499.120518315153,-3.83140897103823,-501.036222800672,253.391668128615,247.644554672057
1.60847475948546,502.694758216576,498.817803331798,-3.87695488477812,-500.756280774187,253.285856550677,247.47042422351
1.61063668792563,501.426440121133,497.786400046009,-3.64004007512415,-499.606420083571,252.533240098128,247.073179985442
1.6127986163658,499.690297402188,496.493324341077,-3.1969730611109,-498.091810871632,251.443635231649,246.648175639983
1.61496054480597,498.15302821159,494.739112434638,-3.41391577695202,-496.446070323114,250.783471994271,245.662598328843
1.61712247324614,495.410124570921,492.648343136047,-2.76178143487351,-494.029233853484,249.085953002897,244.943280850587
1.6192844016863,493.408233387344,490.311939515447,-3.09629387189722,-491.860086451395,248.25226362962,243.607822821775
1.62144633012647,491.136696906886,488.606729846391,-2.52996706049572,-489.871713376638,246.833331983691,243.038381392947
1.62360825856664,489.208673905246,486.82188073823,-2.38679316701541,-488.015277321738,245.797733536131,242.217543785607
1.62577018700681,488.071674506002,485.249063492022,-2.82261101397995,-486.660368999012,245.447142759991,241.213226239021
1.62793211544698,486.701530133614,483.830996383143,-2.87053375047088,-485.266263258379,244.786031942043,240.480231316336
1.63009404388715,486.512007410203,483.336341336323,-3.17566607388056,-484.924174373263,244.843836742042,240.080337631221
1.63225597232732,486.373685427812,482.975320423134,-3.39836500467823,-484.674502925473,244.886025216245,239.788477709228
1.63441790076748,486.272731988203,482.981987764131,-3.29074422407211,-484.627359876167,244.781738106138,239.845621770029
1.63657982920765,486.739364171157,482.716697669669,-4.02266650148817,-484.728030920413,245.381015336323,239.34701558409
1.63874175764782,487.079932771227,482.793233554046,-4.28669921718136,-484.936583162636,245.683315994204,239.253267168432
1.64090368608799,487.598650860291,483.119249005698,-4.47940185459271,-485.358949932995,246.039026357442,239.319923575553
1.64306561452816,488.517546459128,483.627345569793,-4.89020088933501,-486.07244601446,246.703873674231,239.368572340229
1.64522754296833,488.647884280134,483.998176690866,-4.64970758926751,-486.3230304855,246.648795934701,239.674234550799
1.6473894714085,489.013166741025,483.998669269155,-5.01449747187002,-486.50591800509,247.013832106448,239.492085898643
1.64955139984867,488.739453452275,483.728872562487,-5.01058088978789,-486.234163007381,246.875017171032,239.35914583635
1.65171332828883,488.539685508753,483.531963112069,-5.00772239668453,-486.035824310411,246.773703952719,239.262120357692
1.653875256729,488.123729904235,483.388249972857,-4.73547993137799,-485.755989938546,246.429604917806,239.326385020739
1.65603718516917,487.549991078268,483.283361830931,-4.26662924733768,-485.416676454599,245.908310162803,239.508366291796
1.65819911360934,486.861095148257,483.206809872097,-3.65428527615944,-485.033952510177,245.257690212208,239.776262297969
1.66036104204951,487.438933580558,483.150938900474,-4.28799468008373,-485.294936240516,245.863464130321,239.431472110195
1.66252297048968,488.130821582786,483.110161818898,-5.02065976388803,-485.620491700842,246.575740673337,239.044751027505
1.66468489892985,488.635791743293,483.080400919211,-5.5553908240812,-485.858096331252,247.095591283687,238.762505047565
1.66684682737001,489.004341078129,483.328836323318,-5.67550475481079,-486.166588700723,247.33992291647,238.826665784254
1.66900875581018,490.083793156393,484.320623995371,-5.76316916102149,-487.202208575882,247.923481158707,239.278727417175
1.67117068425035,491.141780762167,485.314630278833,-5.82715048333432,-488.2282055205,248.484465622751,239.743739897749
1.67333261269052,492.184102656031,486.31025580205,-5.87384685398058,-489.24717922904,249.028974755006,240.218204474035
1.67549454113069,493.48514723924,487.307063117344,-6.17808412189652,-490.396105178292,249.831615680568,240.564489497724
1.67765646957086,494.434706546374,488.304732956243,-6.12997359013048,-491.369719751308,250.282340068252,241.087379683056
1.67981839801103,494.587424084401,488.762719878895,-5.82470420550584,-491.675071981648,250.206064144953,241.469007836695
1.68198032645119,494.96904024274,489.367135001309,-5.60190524143178,-492.168087622025,250.285472742086,241.882614879938
1.68414225489136,494.977404213482,489.538107411981,-5.43929680150086,-492.257755812732,250.208350507492,242.04940530524
1.68630418333153,494.443196181829,489.39273435198,-5.05046182984842,-491.917965266905,249.746829005839,242.171136261066
1.6884661117717,494.593620192102,489.556790939049,-5.03682925305242,-492.075205565575,249.815224722577,242.259980842998
1.69062804021187,495.243718645328,490.216839043766,-5.02687960156169,-492.730278844547,250.135299123445,242.594979721102
1.69278996865204,496.798813810573,491.238883476603,-5.55993033397044,-494.018848643588,251.179372072272,242.839476571316
1.69495189709221,499.284571416235,493.065441104587,-6.21913031164786,-496.175006260411,252.751850863941,243.423155396469
1.69711382553237,501.639098587262,494.938855266772,-6.70024332049007,-498.288976927017,254.169670953876,244.119305973141
1.69927575397254,503.087379405145,496.846467379379,-6.24091202576642,-499.966923392262,254.664145715456,245.302777676806
1.70143768241271,504.414554375414,498.508882441794,-5.90567193361943,-501.461718408604,255.160113154517,246.301605254087
1.70359961085288,505.923497206967,499.992341960261,-5.93115524670594,-502.957919583614,255.927326226836,247.030593356778
1.70576153929305,506.754633547345,501.075035674754,-5.67959787259144,-503.91483461105,256.217115709968,247.697718901081
1.70792346773322,507.091077030586,501.324920532979,-5.76615649760777,-504.207998781783,256.428616764097,247.779382017685
1.71008539617339,506.526159581271,501.507297444501,-5.01886213676994,-504.016728512886,255.772510859021,248.244217653866
1.71224732461356,506.113858090084,501.370247888603,-4.74361020148069,-503.742052989343,255.428734145782,248.313318843561
1.71440925305372,506.083098619776,501.270223121564,-4.81287549821121,-503.67666087067,255.447987058993,248.228673811677
1.71657118149389,506.600961435189,501.197220666682,-5.40374076850611,-503.899091050935,256.002351101847,247.896739949088
1.71873310993406,506.168451758505,501.143940278469,-5.02451148003672,-503.656196018487,255.596481619271,248.059714399216
1.72089503837423,505.852787257673,501.105053918102,-4.74773333957103,-503.478920587887,255.300260298622,248.178660289265
1.7230569668144,505.892557694479,501.076672949545,-4.81588474493401,-503.484615322012,255.354221219707,248.130394102306
1.72521889525457,505.921583900733,501.055959275943,-4.86562462479037,-503.488771588338,255.393604262762,248.095167325576
1.72738082369474,506.483080920804,501.581153953678,-4.9019269671258,-504.032117437241,255.692503943965,248.339613493276
1.7295427521349,507.163042244827,501.964464026782,-5.1985782180455,-504.563753135805,256.180810231436,248.382942904368
1.73170468057507,508.469776428948,502.784532926307,-5.68524350264136,-505.627154677627,257.077509965795,248.549644711833
1.73386660901524,509.693644467835,503.923367542205,-5.77027692562979,-506.80850600502,257.731960696732,249.076545308288
1.73602853745541,510.857033165377,505.024695124196,-5.83233804118117,-507.940864144787,258.344685603279,249.596178541507
1.73819046589558,512.516593815072,506.36880464235,-6.1477891727223,-509.442699228711,259.332191493897,250.110507734814
1.74035239433575,513.727813846274,507.61995083661,-6.10786300966402,-510.673882341442,259.917838427969,250.756043913473
1.74251432277592,515.152127685847,508.803248326403,-6.3488793594438,-511.977688006125,260.750503522645,251.22718448348
1.74467625121608,517.002122929619,509.937026860708,-7.0650960689112,-513.469574895164,262.033609499265,251.435965395898
1.74683817965625,517.541861830739,510.764508081084,-6.77735374965482,-514.153184955911,262.159607790197,251.993577165714
1.74900010809642,517.395474491188,511.368440109568,-6.02703438162052,-514.381957300378,261.711254436404,252.670702863974
1.75116203653659,518.369259448244,511.809216149009,-6.56004329923491,-515.089237798626,262.464651373739,252.624586424887
1.75332396497676,518.53965792638,512.671226227094,-5.86843169928625,-515.605442076737,262.204044812833,253.401397263904
1.75548589341693,518.934178409026,513.030202716016,-5.90397569300944,-515.982190562521,262.419077051018,253.563113511504
1.7576478218571,520.843054003804,513.832511900284,-7.01054210352027,-517.337782952044,263.926798053662,253.410984898382
1.75980975029727,523.31685984645,515.498697122067,-7.818162724383,-519.407778484258,265.567511285416,253.840267198842
1.76197167873743,525.392507885612,517.255064479799,-8.13744340581241,-521.323786182706,266.764975645712,254.558810536994
1.7641336071776,527.988031560822,519.077250709255,-8.9107808515663,-523.532641135038,268.449406206194,255.083234928844
1.76629553561777,530.152514603985,520.94747443338,-9.20504017060523,-525.549994518683,269.678777387295,255.871217131387
1.76845746405794,531.462092895676,522.852758024586,-8.6093348710898,-527.157425460131,270.035713883383,257.121711576748
1.77061939249811,533.49850532442,524.513473630122,-8.98503169429819,-529.005989477271,271.241768509359,257.764220967912
1.77278132093828,535.254924497479,526.536005234286,-8.71891926319302,-530.895464865882,271.986921880336,258.908542985546
1.77494324937845,537.3473047559,528.552449785621,-8.79485497027883,-532.94987727076,273.071079863089,259.878797407671
1.77710517781861,538.874415489911,530.564451739261,-8.30996375064933,-534.719433614586,273.59218962028,261.127243994306
1.77926710625878,540.799436408528,532.3030550787,-8.49638132982807,-536.551245743614,274.647908869178,261.903336874436
1.78142903469895,541.664088544254,533.84212013788,-7.82196840637459,-537.753104341067,274.743028475314,263.010075865752
1.78359096313912,542.024993322534,535.235553422719,-6.78943989981531,-538.630273372627,274.407216611175,264.223056761452
1.78575289157929,542.55855364494,536.25254204983,-6.30601159510934,-539.405547847385,274.432282620025,264.973265227361
1.78791482001946,542.677813119967,536.994784881925,-5.68302823804254,-539.836299000946,274.180420679005,265.655878321941
1.79007674845963,541.954385271377,536.996193778469,-4.95819149290833,-539.475289524923,273.456288382143,266.01900114278
1.79223867689979,540.345771102437,536.186753417244,-4.15901768519336,-538.266262259841,272.252394393815,266.013867866025
1.79440060533996,538.631421619998,535.055675974001,-3.57574564599759,-536.843548797,271.103583632998,265.739965164002
1.79656253378013,538.460839147046,534.770478551901,-3.69036059514485,-536.615658849473,271.075599871095,265.540058978378
1.7987244622203,538.876653012541,534.562328984991,-4.31432402755001,-536.719490998766,271.595488520045,265.12400247872
1.80088639066047,539.720444603034,534.680568528452,-5.0398760745818,-537.200506565743,272.380160338808,264.820346226935
1.80304831910064,540.33628065383,535.03702113663,-5.29925951720008,-537.68665089523,272.817770085515,264.868880809715
1.80521024754081,541.05590098188,535.29717585847,-5.75872512341004,-538.176538420175,273.407313052645,264.76922536753
1.80737217598097,541.85126761999,535.757204378029,-6.09406324196107,-538.80423599901,273.972665430976,264.831570568034
1.80953410442114,542.4317610201,536.092953335392,-6.33880768470806,-539.262357177746,274.385284352404,264.877072825342
1.81169603286131,543.665899157834,536.878310050036,-6.78758910779766,-540.272104603935,275.226744132816,265.045360471119
1.81385796130148,544.566627211352,537.721653981556,-6.8449732297953,-541.144140596454,275.705800220573,265.438340375881
1.81601988974165,545.224017986004,538.06700709936,-7.15701088664412,-541.645512542682,276.190514436324,265.454998106358
1.81818181818182,544.893341923643,538.3190609271,-6.57428099654248,-541.606201425371,275.733811460093,265.872389965279
1.82034374662199,543.571375206159,537.962708423807,-5.60866678235175,-540.767041814983,274.590020994255,266.177020820728
1.82250567506216,541.796077373676,536.892158127279,-4.90391924639619,-539.344117750478,273.349998310036,265.994119440442
1.82466760350232,539.419762431074,535.300355007865,-4.1194074232086,-537.360058719469,271.769584927141,265.590473792328
1.82682953194249,536.064486460349,533.05796254175,-3.00652391859853,-534.56122450105,269.535505189474,265.025719311576
1.82899146038266,532.805190500044,530.610897694196,-2.19429280584848,-531.70804409712,267.499741652946,264.208302444174
1.83115338882283,529.886101166001,528.014453980446,-1.87164718555493,-528.950277573224,265.878874175778,263.071403397446
1.833315317263,526.674997101071,525.308987029126,-1.3660100719452,-525.991992065098,264.020503586508,261.97148847859
1.83547724570317,524.061236534376,522.794106356975,-1.26713017740155,-523.427671445676,262.664183355889,260.763488089787
1.83763917414334,520.802818561761,519.607855261163,-1.19496330059815,-520.205336911462,260.99889093118,259.206445980283
1.8398011025835,517.614213809708,516.742077267725,-0.872136541982854,-517.178145538716,259.243175175845,257.934970362871
1.84196303102367,513.395936955523,513.029569729829,-0.366367225694262,-513.212753342676,256.881152090609,256.331601252067
1.84412495946384,508.696316525661,508.969238105558,0.27292157989649,-508.832777315609,254.211697472882,254.621079842727
1.84628688790401,504.45585911275,504.925205444355,0.469346331605266,-504.690532278553,251.993256390572,252.69727588798
1.84844881634418,500.550518975499,500.893068480102,0.342549504602914,-500.721793727801,250.103984735448,250.617808992353
1.85061074478435,497.97038694767,497.139769728245,-0.830617219425676,-497.555078337957,249.400502083548,248.154576254409
1.85277267322452,495.817137402737,494.400447949211,-1.41668945352524,-495.108792675974,248.616913428131,246.491879247843
1.85493460166468,495.056070233691,492.941483388842,-2.11458684484887,-493.998776811267,248.58532853927,245.413448271997
1.85709653010485,495.040922511758,491.606510955486,-3.43441155627238,-493.323716733622,249.237667034015,244.086049699607
1.85925845854502,493.679085981643,490.362033405807,-3.31705257583656,-492.020559693725,248.49806927874,243.522490414985
1.86142038698519,491.874689414078,488.373134349222,-3.50155506485606,-490.12391188165,247.688122239467,242.435789642183
1.86358231542536,489.747293152305,486.651392515687,-3.0959006366179,-488.199342833996,246.421596894461,241.777745939534
1.86574424386553,487.654313782019,484.854477509977,-2.79983627204143,-486.254395645998,245.22707502703,241.027320618968
1.8679061723057,485.31629715432,482.732541619651,-2.58375553466919,-484.024419386986,243.950026344495,240.074393042491
1.87006810074587,483.880066453925,480.643547467546,-3.23651898637877,-482.261806960736,243.558292720152,238.703514240584
1.87223002918603,481.751217551436,478.308439426581,-3.44277812485456,-480.029828489009,242.596997838145,237.432830650863
1.8743919576262,479.387021768475,476.063862904531,-3.32315886394423,-477.725442336503,241.35509031621,236.370352020293
1.87655388606637,477.391371950491,474.155516461062,-3.23585548942827,-475.773444205777,240.313613719959,235.459830485817
1.87871581450654,476.205015539427,472.7627216637,-3.44229387572688,-474.483868601563,239.823654707577,234.660213893986
1.88087774294671,475.609316894177,472.016355244579,-3.59296164959812,-473.812836069378,239.601139271888,234.21169679749
1.88303967138688,475.174549938345,471.201468138044,-3.97308180030086,-473.188009038195,239.573815869323,233.614193168872
1.88520159982705,474.587081764476,470.876884057186,-3.71019770729032,-472.731982910831,239.148639735883,233.583343174948
1.88736352826721,473.618009343311,470.099675958303,-3.51833338500887,-471.858842650807,238.56817136416,233.290671286647
1.88952545670738,473.721206492093,469.53243545525,-4.18877103684321,-471.626820973671,238.954988764468,232.671832209203
1.89168738514755,473.25621186634,468.84828228585,-4.40792958049025,-471.052247076095,238.832070723415,232.22017635268
1.89384931358772,472.64668221535,468.078801133164,-4.56788108218626,-470.362741674257,238.607281648768,231.755460025489
1.89601124202789,473.012289421509,467.787356305665,-5.22493311584418,-470.399822863587,239.118611268677,231.281211594911
1.89817317046806,473.008969357948,467.844803320605,-5.16416603734325,-470.426886339277,239.086567697646,231.340318641631
1.90033509890823,472.466233806439,467.886730667605,-4.57950313883333,-470.176482237022,238.522868472636,231.653613764386
1.90249702734839,472.610434059316,468.187487293238,-4.42294676607838,-470.398960676277,238.516690412697,231.88227026358
1.90465895578856,473.255990141869,468.136836436323,-5.11915370554618,-470.696413289096,239.187571923708,231.508841365388
1.90682088422873,473.727145238609,468.370025434911,-5.357119803697,-471.04858533676,239.542132521153,231.506452815607
1.9089828126689,473.800858647337,468.810373188863,-4.99048545847427,-471.3056159181,239.395672052906,231.909943865194
1.91114474110907,474.665126556414,469.401914473572,-5.26321208284219,-472.033520514993,239.964169319628,232.069351195365
1.91330666954924,475.025750909262,469.833647205639,-5.19210370362271,-472.42969905745,240.108927306442,232.320771751008
1.91546859798941,474.748637929292,469.878588446398,-4.87004948289382,-472.313613187845,239.809343706093,232.504269481752
1.91763052642958,475.086701165994,469.911388531796,-5.17531263419767,-472.499044848895,240.131006900096,232.368037948799
1.91979245486974,474.522965883681,469.665171258503,-4.85779462517797,-472.094068571092,239.690380254429,232.403688316663
1.92195438330991,474.381683401608,468.945158687317,-5.43652471429101,-471.663421044462,239.909104057949,231.754316986513
1.92411631175008,473.738256835952,468.689818196734,-5.04843863921815,-471.214037516343,239.393347737585,231.820689778758
1.92627824019025,472.188031106404,467.692990890209,-4.49504021619549,-469.940510998307,238.3415356613,231.598975337007
1.92844016863042,471.056608487498,466.695306460834,-4.36130202666402,-468.875957474166,237.708955257081,231.167002217085
1.93060209707059,469.420378081726,465.69699646567,-3.72338161605569,-467.558687273698,236.571879848891,230.986807424807
1.93276402551076,468.496341695998,464.968386117073,-3.52795557892449,-466.732363906536,236.012148637461,230.720215269074
1.93492595395092,469.172720539228,465.247083015799,-3.92563752342903,-467.209901777514,236.549179031329,230.660722746185
1.93708788239109,470.746996283868,465.990800639848,-4.75619564401978,-468.368898461858,237.751595963944,230.617302497914
1.93924981083126,472.706440292509,467.344066963496,-5.36237332901248,-470.025253628003,239.034406810761,230.990846817242
1.94141173927143,474.676840754144,468.872052407238,-5.80478834690643,-471.774446580691,240.240814550525,231.533632030166
1.9435736677116,475.574612867451,470.257399303575,-5.31721356387612,-472.916006085513,240.445913215664,232.470092869849
1.94573559615177,477.040314903118,471.268486130269,-5.77182877284832,-474.154400516693,241.406071837983,232.74832867871
1.94789752459194,478.110048429096,472.276577781862,-5.83347064723375,-475.193313105479,241.971759538165,233.221553567314
1.9500594530321,479.160943009855,473.552639635385,-5.60830337447084,-476.35679132262,242.384623192163,233.972168130457
1.95222138147227,479.387619467857,473.943653028702,-5.44396643915508,-476.66563624828,242.415792953506,234.249843294774
1.95438330991244,479.823214084517,473.958875513018,-5.86433857149808,-476.891044798768,242.843776328007,234.04726847076
1.95654523835261,479.060505262141,473.699829336765,-5.36067592537597,-476.380167299453,242.210590593758,234.169576705694
1.95870716679278,477.963534542236,473.240609882316,-4.72292465991984,-475.602072212276,241.343229601078,234.258842611198
1.96086909523295,476.892761064683,472.365138992356,-4.52762207232729,-474.62895002852,240.710191568505,233.918758460014
1.96303102367312,477.462044752957,471.996338213503,-5.46570653945406,-474.72919148323,241.463875646205,233.265315837024
1.96519295211328,478.147689128398,472.537639891615,-5.61004923678297,-475.342664510006,241.87886918259,233.463795327416
1.96735488055345,478.91825862855,473.20286177076,-5.71539685779015,-476.060560199655,242.31682774317,233.743732456485
1.96951680899362,480.561278839044,474.228682250724,-6.33259658831963,-477.394980544884,243.446937713682,233.948042831202
1.97167873743379,482.030583145314,475.787839591376,-6.24274355393777,-478.909211368345,244.136663349626,234.772548018719
1.97384066587396,484.183570613602,477.466093314909,-6.71747729869293,-480.824831964256,245.450523956147,235.374308008108
1.97600259431413,485.484758931379,478.961112581804,-6.52364634957416,-482.222935756591,246.004202640476,236.218733116115
1.9781645227543,486.164266930421,480.322399318752,-5.8418676116695,-483.243333124587,246.003067271045,237.240265853541
1.98032645119447,486.119889198763,481.045769775703,-5.07411942306015,-483.582829487233,245.597004310912,237.985825176321
1.98248837963463,486.357656598852,481.033404786481,-5.32425181237176,-483.695530692667,245.840954205612,237.854576487054
1.9846503080748,485.990877235084,481.024380275907,-4.96649695917728,-483.507628755495,245.478687097131,238.028941658365
1.98681223651497,486.533654230439,481.017793792923,-5.51586043751541,-483.775724011681,246.024757333977,237.750966677704
1.98897416495514,486.659640436966,481.012986689232,-5.64665374773347,-483.836313563099,246.15314709235,237.683166470749
1.99113609339531,487.021746899061,481.009478254465,-6.01226864459647,-484.015612576763,246.517007771829,237.498604804934
1.99329802183548,487.826340474806,481.817386280758,-6.00895419404753,-484.821863377782,246.917647334427,237.904216043355
1.99545995027565,488.413568098031,482.136876723256,-6.27669137477494,-485.275222410643,247.345129736403,237.930092674241
1.99762187871581,488.301840107316,482.640211049951,-5.66162905736491,-485.471025578633,246.98173458234,238.489290996293
1.99978380715598,488.760608551076,483.277722693513,-5.48288585756296,-486.019165622294,247.121747204319,238.897418417975
2.00194573559615,488.014813002457,483.202694182683,-4.81211881977413,-485.60875359257,246.413465911115,239.195287681454
2.00410766403632,487.740654965955,482.877778878249,-4.86287608770596,-485.309216922102,246.30176552683,239.007451395272
2.00626959247649,488.080874849792,482.64064146164,-5.44023338815163,-485.360758155716,246.760554118972,238.600204036744
2.00843152091666,488.59933843048,482.737724403067,-5.86161402741243,-485.668531416774,247.230476228946,238.438055187827
2.01059344935683,489.247892066087,482.808579784801,-6.43931228128616,-486.028235925444,247.843602173687,238.184633751757
2.01275537779699,489.721234908303,483.130449356886,-6.59078555141684,-486.425842132595,248.15601022986,238.269831902735
2.01491730623716,489.796545029478,483.635520076532,-6.16102495294592,-486.716032553005,247.978784991212,238.737247561793
2.01707923467733,490.391822077344,484.274299015703,-6.11752306164124,-487.333060546523,248.254672569493,239.078387977031
2.0192411631175,491.096437544816,485.280820280187,-5.815617264629,-488.188628912501,248.456027404723,239.732601507779
2.02140309155767,491.61069676677,485.745267360818,-5.86542940595137,-488.677982063794,248.73806308636,239.939918977433
2.02356501999784,492.256181877272,486.354397389403,-5.90178448786889,-489.305289633337,249.07898318257,240.226306450767
2.02572694843801,492.186972751758,486.528810945056,-5.65816180670163,-489.357891848407,248.92256727923,240.435324569177
2.02788887687818,491.866304689548,486.385949383344,-5.4803553062045,-489.126127036446,248.673329997876,240.45279703857
2.03005080531834,492.172579520036,486.281682759965,-5.89089676007114,-489.227131140001,249.031738140054,240.195392999947
2.03221273375851,491.585643666913,486.205584412584,-5.38005925432998,-488.895614039748,248.482851460622,240.412762579127
2.03437466219868,491.427428392354,485.879888294588,-5.54754009776508,-488.653658343471,248.487484245059,240.166174098412
2.03653659063885,491.311955957029,485.912337217924,-5.39961873910505,-488.612146587476,248.355787348067,240.256359239409
2.03869851907902,492.308303964894,486.206176074923,-6.1021278899704,-489.257240019909,249.205215927432,240.052024092476
2.04086044751919,493.30563858112,486.960944963158,-6.34469361796124,-490.133291772139,249.82516609954,240.308125672599
2.04302237595936,493.493224631714,487.511808347709,-5.98141628400487,-490.502516489712,249.73732045786,240.765196031852
2.04518430439952,493.63013314548,487.64369635516,-5.98643679032057,-490.63691475032,249.8082849679,240.828629782419
2.04734623283969,493.459898761922,487.739953998126,-5.71994476379672,-490.599926380024,249.58992176286,241.010004617164
2.04950816127986,493.065498042685,487.269894617161,-5.79560342552423,-490.167696329923,249.430550734105,240.737145595818
2.05167008972003,492.507490915845,486.926824697913,-5.5806662179325,-489.717157806879,249.044078566889,240.67307923999
2.0538320181602,492.10023288059,486.676437248456,-5.42379563213399,-489.388335064523,248.762014256362,240.626320808161
2.05599394660037,491.532841921521,486.763849735716,-4.76899218580564,-489.148345828618,248.150917053663,240.997428774955
2.05815587504054,491.118735154605,486.557490984675,-4.56124416992947,-488.83811306964,247.839989662267,240.998123407373
2.0603178034807,491.897126750636,486.677037543975,-5.22008920666121,-489.287082147305,248.558607978649,240.728474168657
2.06247973192087,492.735387233602,487.034444069543,-5.70094316405908,-489.884915651572,249.21816519883,240.666750452742
2.06464166036104,492.806874016185,487.565451213937,-5.24142280224794,-490.186162615061,249.024148409216,241.162014205845
2.06680358880121,493.39936062413,487.682847267853,-5.71651335627649,-490.541103945991,249.557936990203,240.983166955788
2.06896551724138,493.021314658872,487.768528048555,-5.25278661031774,-490.394921353714,249.137050634595,241.257870719118
2.07112744568155,493.015556371374,488.101217845983,-4.91433852539075,-490.558387108679,248.964947448382,241.593439660296
2.07328937412172,493.281509932885,488.614185639882,-4.66732429300288,-490.947847786383,248.974417112944,241.97343067344
2.07545130256189,493.745770699556,488.988571997769,-4.75719870178693,-491.367171348662,249.251484700671,242.115686647991
2.07761323100205,494.084608536182,489.261815555432,-4.82279298074968,-491.673212045807,249.453700758466,242.219511287341
2.07977515944222,494.602063438298,489.731396880511,-4.87066655778739,-492.166730159405,249.736364998043,242.430365161362
2.08193708788239,495.520037107988,490.344274105512,-5.17576300247549,-492.93215560675,250.347900055232,242.584255551518
2.08409901632256,496.730326912219,491.061734952937,-5.66859195928282,-493.896030932578,251.199459435751,242.696571496827
2.08626094476273,497.343493195801,491.585369295654,-5.75812390014676,-494.464431245728,251.550808547974,242.913622697754
2.0884228732029,497.520852587091,491.967540567938,-5.55331201915374,-494.744196577515,251.537082303123,243.207114274392
2.09058480164307,497.380141025219,491.976309685143,-5.40383134007612,-494.678225355181,251.391986182648,243.286239172534
2.09274673008323,496.737131142126,491.712553558991,-5.02457758313443,-494.224842350559,250.88085436263,243.343987987928
2.0949086585234,496.808146796988,491.520052788739,-5.28809400824952,-494.164099792863,251.048120402619,243.115979390245
2.09707058696357,496.859977131549,491.649713509231,-5.21026362231788,-494.25484532039,251.035120376934,243.219724943457
2.09923251540374,496.08733654365,491.474189368776,-4.61314717487477,-493.780762956213,250.350241859263,243.43052109695
2.10139444384391,496.333898245731,491.346084165197,-4.98781408053412,-493.839991205464,250.660856163133,243.179135042332
2.10355637228408,497.054162196129,491.522743590011,-5.53141860611845,-494.28845289307,251.292790401124,242.995662491946
2.10571830072425,497.039529942396,491.921833585696,-5.11769635669975,-494.480681764046,251.078613149548,243.402068614498
2.10788022916441,497.299006894775,492.213106939952,-5.08589995482265,-494.756056917363,251.192453424799,243.563603492565
2.11004215760458,497.48838453663,492.695847200074,-4.79253733655617,-495.092115868352,251.140460936593,243.951654931759
2.11220408604475,496.816131996534,492.778015968332,-4.03811602820201,-494.797073982433,250.427124012368,244.369949970065
2.11436601448492,496.595648867963,492.567830121552,-4.02781874641136,-494.581739494758,250.311733807187,244.27000568757
2.11652794292509,495.894418202445,492.144271075055,-3.75014712739016,-494.01934463875,249.822282664918,244.197061973833
2.11868987136526,495.652785569044,492.105295347936,-3.54749022110803,-493.87904045849,249.600137895076,244.278902563414
2.12085179980543,496.557056340033,492.07684915561,-4.48020718442331,-494.316952747821,250.518631762228,243.798320985593
2.1230137282456,497.487188956897,492.326244090716,-5.1609448661809,-494.906716523807,251.324066911539,243.582649612268
2.12517565668576,498.436196681323,492.778419646766,-5.65777703455655,-495.607308164044,252.04698685794,243.560321306105
2.12733758512593,499.669136497624,493.378593379364,-6.29054311825951,-496.523864938494,252.979839807942,243.544025130552
2.1294995135661,500.028677539944,494.08678266177,-5.94189487817351,-497.057730100857,252.985286209059,244.072443891798
2.13166144200627,500.291086336259,494.873806422225,-5.4172799140332,-497.582446379242,252.854183125146,244.728263254096
2.13382337044644,500.482603766199,495.178054613031,-5.3045491531679,-497.830329189615,252.893576459683,244.936752729932
2.13598529888661,500.352225360888,495.129952053268,-5.22227330761933,-497.741088707078,252.787249334254,244.953839372825
2.13814722732678,500.257069491665,494.824688486961,-5.43238100470438,-497.540878989313,252.844725248185,244.696153741128
2.14030915576694,499.647308147866,494.872049981221,-4.7752581666449,-497.259679064543,252.211283157255,245.048395907288
2.14247108420711,499.742590042596,494.906616473603,-4.83597356899315,-497.3246032581,252.289281805795,245.035321452305
2.14463301264728,499.812130941587,494.661688401474,-5.15044254011246,-497.23690967153,252.48128674085,244.755622930681
