t,leadI,leadII,leadIII,aVR,aVL,aVF
0,499,472,-27,-485.5,263,222.5
0.00216192844016863,496,478,-18,-487,257,230
0.00432385688033726,492,480,-12,-486,252,234
0.00648578532050589,490,481,-9,-485.5,249.5,236
0.00864771376067452,491,482,-9,-486.5,250,236.5
0.0108096422008432,492,484,-8,-488,250,238
0.0129715706410118,493,486,-7,-489.5,250,239.5
0.0151334990811804,496,489,-7,-492.5,251.5,241
0.017295427521349,494,489,-5,-491.5,249.5,242
0.0194573559615177,496,490,-6,-493,251,242
0.0216192844016863,496,491,-5,-493.5,250.5,243
0.0237812128418549,506,497,-9,-501.5,257.5,244
0.0259431412820236,522,508,-14,-515,268,247
0.0281050697221922,543,523,-20,-533,281.5,251.5
0.0302669981623608,566,544,-22,-555,294,261
0.0324289266025295,592,566,-26,-579,309,270
0.0345908550426981,616,585,-31,-600.5,323.5,277
0.0367527834828667,635,606,-29,-620.5,332,288.5
0.0389147119230353,650,622,-28,-636,339,297
0.041076640363204,656,632,-24,-644,340,304
0.0432385688033726,651,635,-16,-643,333.5,309.5
0.0454004972435412,637,629,-8,-633,322.5,310.5
0.0475624256837099,617,616,-1,-616.5,309,307.5
0.0497243541238785,592,599,7,-595.5,292.5,303
0.0518862825640471,568,580,12,-574,278,296
0.0540482110042158,547,561,14,-554,266.5,287.5
0.0562101394443844,527,543,16,-535,255.5,279.5
0.058372067884553,512,528,16,-520,248,272
0.0605339963247217,502,516,14,-509,244,265
0.0626959247648903,497,507,10,-502,243.5,258.5
0.0648578532050589,495,502,7,-498.5,244,254.5
0.0670197816452275,498,501,3,-499.5,247.5,252
0.0691817100853962,500,500,0,-500,250,250
0.0713436385255648,504,501,-3,-502.5,253.5,249
0.0735055669657334,506,502,-4,-504,255,249
0.0756674954059021,508,502,-6,-505,257,248
0.0778294238460707,508,503,-5,-505.5,256.5,249
0.0799913522862393,507,502,-5,-504.5,256,248.5
0.082153280726408,504,500,-4,-502,254,248
0.0843152091665766,503,499,-4,-501,253.5,247.5
0.0864771376067452,499,497,-2,-498,250.5,247.5
0.0886390660469139,497,495,-2,-496,249.5,246.5
0.0908009944870825,497,494,-3,-495.5,250,245.5
0.0929629229272511,496,493,-3,-494.5,249.5,245
0.0951248513674197,495,492,-3,-493.5,249,244.5
0.0972867798075884,494,489,-5,-491.5,249.5,242
0.099448708247757,493,488,-5,-490.5,249,241.5
0.101610636687926,492,488,-4,-490,248,242
0.103772565128094,495,489,-6,-492,250.5,241.5
0.105934493568263,493,488,-5,-490.5,249,241.5
0.108096422008432,493,488,-5,-490.5,249,241.5
0.1102583504486,490,486,-4,-488,247,241
0.112420278888769,491,487,-4,-489,247.5,241.5
0.114582207328937,490,486,-4,-488,247,241
0.116744135769106,494,488,-6,-491,250,241
0.118906064209275,498,490,-8,-494,253,241
0.121067992649443,501,491,-10,-496,255.5,240.5
0.123229921089612,501,494,-7,-497.5,254,243.5
0.125391849529781,504,497,-7,-500.5,255.5,245
0.127553777969949,503,497,-6,-500,254.5,245.5
0.129715706410118,504,496,-8,-500,256,244
0.131877634850286,503,496,-7,-499.5,255,244.5
0.134039563290455,500,494,-6,-497,253,244
0.136201491730624,499,494,-5,-496.5,252,244.5
0.138363420170792,500,494,-6,-497,253,244
0.140525348610961,503,496,-7,-499.5,255,244.5
0.14268727705113,503,497,-6,-500,254.5,245.5
0.144849205491298,505,498,-7,-501.5,256,245.5
0.147011133931467,508,501,-7,-504.5,257.5,247
0.149173062371635,509,504,-5,-506.5,257,249.5
0.151334990811804,513,505,-8,-509,260.5,248.5
0.153496919251973,512,507,-5,-509.5,258.5,251
0.155658847692141,512,507,-5,-509.5,258.5,251
0.15782077613231,510,507,-3,-508.5,256.5,252
0.159982704572479,511,507,-4,-509,257.5,251.5
0.162144633012647,511,506,-5,-508.5,258,250.5
0.164306561452816,509,505,-4,-507,256.5,250.5
0.166468489892985,509,505,-4,-507,256.5,250.5
0.168630418333153,511,506,-5,-508.5,258,250.5
0.170792346773322,509,506,-3,-507.5,256,251.5
0.17295427521349,514,507,-7,-510.5,260.5,250
0.175116203653659,513,508,-5,-510.5,259,251.5
0.177278132093828,515,508,-7,-511.5,261,250.5
0.179440060533996,514,508,-6,-511,260,251
0.181601988974165,515,508,-7,-511.5,261,250.5
0.183763917414334,514,509,-5,-511.5,259.5,252
0.185925845854502,513,508,-5,-510.5,259,251.5
0.188087774294671,512,508,-4,-510,258,252
0.190249702734839,512,508,-4,-510,258,252
0.192411631175008,516,510,-6,-513,261,252
0.194573559615177,518,511,-7,-514.5,262.5,252
0.196735488055345,521,514,-7,-517.5,264,253.5
0.198897416495514,524,516,-8,-520,266,254
0.201059344935683,526,517,-9,-521.5,267.5,254
0.203221273375851,524,518,-6,-521,265,256
0.20538320181602,521,516,-5,-518.5,263,255.5
0.207545130256189,523,516,-7,-519.5,265,254.5
0.209707058696357,525,517,-8,-521,266.5,254.5
0.211868987136526,526,519,-7,-522.5,266.5,256
0.214030915576694,529,522,-7,-525.5,268,257.5
0.216192844016863,532,524,-8,-528,270,258
0.218354772457032,533,526,-7,-529.5,270,259.5
0.2205167008972,536,528,-8,-532,272,260
0.222678629337369,537,528,-9,-532.5,273,259.5
0.224840557777538,536,530,-6,-533,271,262
0.227002486217706,534,528,-6,-531,270,261
0.229164414657875,535,529,-6,-532,270.5,261.5
0.231326343098043,537,530,-7,-533.5,272,261.5
0.233488271538212,539,533,-6,-536,272.5,263.5
0.235650199978381,544,536,-8,-540,276,264
0.237812128418549,546,539,-7,-542.5,276.5,266
0.239974056858718,545,539,-6,-542,275.5,266.5
0.242135985298887,546,540,-6,-543,276,267
0.244297913739055,542,538,-4,-540,273,267
0.246459842179224,543,538,-5,-540.5,274,266.5
0.248621770619393,544,537,-7,-540.5,275.5,265
0.250783699059561,546,538,-8,-542,277,265
0.25294562749973,547,540,-7,-543.5,277,266.5
0.255107555939898,550,544,-6,-547,278,269
0.257269484380067,550,545,-5,-547.5,277.5,270
0.259431412820236,552,546,-6,-549,279,270
0.261593341260404,549,545,-4,-547,276.5,270.5
0.263755269700573,551,546,-5,-548.5,278,270.5
0.265917198140742,550,546,-4,-548,277,271
0.26807912658091,551,546,-5,-548.5,278,270.5
0.270241055021079,552,547,-5,-549.5,278.5,271
0.272402983461247,551,546,-5,-548.5,278,270.5
0.274564911901416,554,548,-6,-551,280,271
0.276726840341585,553,548,-5,-550.5,279,271.5
0.278888768781753,554,549,-5,-551.5,279.5,272
0.281050697221922,555,550,-5,-552.5,280,272.5
0.283212625662091,553,549,-4,-551,278.5,272.5
0.285374554102259,555,550,-5,-552.5,280,272.5
0.287536482542428,553,549,-4,-551,278.5,272.5
0.289698410982596,552,547,-5,-549.5,278.5,271
0.291860339422765,553,546,-7,-549.5,280,269.5
0.294022267862934,551,545,-6,-548,278.5,269.5
0.296184196303102,550,545,-5,-547.5,277.5,270
0.298346124743271,549,544,-5,-546.5,277,269.5
0.30050805318344,547,542,-5,-544.5,276,268.5
0.302669981623608,545,540,-5,-542.5,275,267.5
0.304831910063777,539,537,-2,-538,270.5,267.5
0.306993838503946,536,534,-2,-535,269,266
0.309155766944114,532,531,-1,-531.5,266.5,265
0.311317695384283,531,529,-2,-530,266.5,263.5
0.313479623824451,531,528,-3,-529.5,267,262.5
0.31564155226462,530,527,-3,-528.5,266.5,262
0.317803480704789,527,525,-2,-526,264.5,261.5
0.319965409144957,524,523,-1,-523.5,262.5,261
0.322127337585126,521,518,-3,-519.5,262,257.5
0.324289266025295,516,515,-1,-515.5,258.5,257
0.326451194465463,511,510,-1,-510.5,256,254.5
0.328613122905632,508,507,-1,-507.5,254.5,253
0.3307750513458,506,504,-2,-505,254,251
0.332936979785969,503,500,-3,-501.5,253,248.5
0.335098908226138,499,497,-2,-498,250.5,247.5
0.337260836666306,497,496,-1,-496.5,249,247.5
0.339422765106475,496,494,-2,-495,249,246
0.341584693546644,496,493,-3,-494.5,249.5,245
0.343746621986812,497,494,-3,-495.5,250,245.5
0.345908550426981,497,494,-3,-495.5,250,245.5
0.348070478867149,497,492,-5,-494.5,251,243.5
0.350232407307318,494,492,-2,-493,248,245
0.352394335747487,489,489,0,-489,244.5,244.5
0.354556264187655,489,487,-2,-488,245.5,242.5
0.356718192627824,485,484,-1,-484.5,243,241.5
0.358880121067993,486,483,-3,-484.5,244.5,240
0.361042049508161,487,482,-5,-484.5,246,238.5
0.36320397794833,487,483,-4,-485,245.5,239.5
0.365365906388499,490,484,-6,-487,248,239
0.367527834828667,489,485,-4,-487,246.5,240.5
0.369689763268836,489,485,-4,-487,246.5,240.5
0.371851691709004,488,485,-3,-486.5,245.5,241
0.374013620149173,488,484,-4,-486,246,240
0.376175548589342,489,485,-4,-487,246.5,240.5
0.37833747702951,490,484,-6,-487,248,239
0.380499405469679,487,484,-3,-485.5,245,240.5
0.382661333909848,488,484,-4,-486,246,240
0.384823262350016,484,482,-2,-483,243,240
0.386985190790185,483,480,-3,-481.5,243,238.5
0.389147119230353,483,480,-3,-481.5,243,238.5
0.391309047670522,483,478,-5,-480.5,244,236.5
0.393470976110691,485,479,-6,-482,245.5,236.5
0.395632904550859,482,478,-4,-480,243,237
0.397794832991028,484,478,-6,-481,245,236
0.399956761431197,483,478,-5,-480.5,244,236.5
0.402118689871365,485,479,-6,-482,245.5,236.5
0.404280618311534,490,483,-7,-486.5,248.5,238
0.406442546751702,493,484,-9,-488.5,251,237.5
0.408604475191871,493,486,-7,-489.5,250,239.5
0.41076640363204,495,487,-8,-491,251.5,239.5
0.412928332072208,492,486,-6,-489,249,240
0.415090260512377,490,487,-3,-488.5,246.5,242
0.417252188952546,493,486,-7,-489.5,250,239.5
0.419414117392714,491,485,-6,-488,248.5,239.5
0.421576045832883,490,485,-5,-487.5,247.5,240
0.423737974273052,488,483,-5,-485.5,246.5,239
0.42589990271322,485,481,-4,-483,244.5,238.5
0.428061831153389,488,483,-5,-485.5,246.5,239
0.430223759593557,487,484,-3,-485.5,245,240.5
0.432385688033726,490,483,-7,-486.5,248.5,238
0.434547616473895,491,485,-6,-488,248.5,239.5
0.436709544914063,493,486,-7,-489.5,250,239.5
0.438871473354232,492,486,-6,-489,249,240
0.441033401794401,494,486,-8,-490,251,239
0.443195330234569,490,486,-4,-488,247,241
0.445357258674738,492,485,-7,-488.5,249.5,239
0.447519187114906,492,487,-5,-489.5,248.5,241
0.449681115555075,492,487,-5,-489.5,248.5,241
0.451843043995244,494,489,-5,-491.5,249.5,242
0.454004972435412,496,491,-5,-493.5,250.5,243
0.456166900875581,498,491,-7,-494.5,252.5,242
0.45832882931575,498,492,-6,-495,252,243
0.460490757755918,501,495,-6,-498,253.5,244.5
0.462652686196087,507,497,-10,-502,258.5,243.5
0.464814614636256,504,498,-6,-501,255,246
0.466976543076424,501,497,-4,-499,252.5,246.5
0.469138471516593,497,494,-3,-495.5,250,245.5
0.471300399956761,494,491,-3,-492.5,248.5,244
0.47346232839693,489,487,-2,-488,245.5,242.5
0.475624256837099,490,487,-3,-488.5,246.5,242
0.477786185277267,492,486,-6,-489,249,240
0.479948113717436,491,487,-4,-489,247.5,241.5
0.482110042157605,497,490,-7,-493.5,252,241.5
0.484271970597773,501,493,-8,-497,254.5,242.5
0.486433899037942,503,495,-8,-499,255.5,243.5
0.48859582747811,504,497,-7,-500.5,255.5,245
0.490757755918279,506,499,-7,-502.5,256.5,246
0.492919684358448,508,501,-7,-504.5,257.5,247
0.495081612798616,506,500,-6,-503,256,247
0.497243541238785,508,501,-7,-504.5,257.5,247
0.499405469678954,508,502,-6,-505,257,248
0.501567398119122,506,501,-5,-503.5,255.5,248
0.503729326559291,504,500,-4,-502,254,248
0.50589125499946,501,498,-3,-499.5,252,247.5
0.508053183439628,500,497,-3,-498.5,251.5,247
0.510215111879797,499,496,-3,-497.5,251,246.5
0.512377040319965,502,497,-5,-499.5,253.5,246
0.514538968760134,505,499,-6,-502,255.5,246.5
0.516700897200303,506,499,-7,-502.5,256.5,246
0.518862825640471,507,499,-8,-503,257.5,245.5
0.52102475408064,503,499,-4,-501,253.5,247.5
0.523186682520809,502,497,-5,-499.5,253.5,246
0.525348610960977,500,497,-3,-498.5,251.5,247
0.527510539401146,498,495,-3,-496.5,250.5,246
0.529672467841314,501,495,-6,-498,253.5,244.5
0.531834396281483,502,496,-6,-499,254,245
0.533996324721652,502,496,-6,-499,254,245
0.53615825316182,507,497,-10,-502,258.5,243.5
0.538320181601989,507,499,-8,-503,257.5,245.5
0.540482110042158,509,501,-8,-505,258.5,246.5
0.542644038482326,508,501,-7,-504.5,257.5,247
0.544805966922495,507,501,-6,-504,256.5,247.5
0.546967895362663,507,502,-5,-504.5,256,248.5
0.549129823802832,507,502,-5,-504.5,256,248.5
0.551291752243001,506,502,-4,-504,255,249
0.553453680683169,506,502,-4,-504,255,249
0.555615609123338,505,501,-4,-503,254.5,248.5
0.557777537563507,504,500,-4,-502,254,248
0.559939466003675,504,499,-5,-501.5,254.5,247
0.562101394443844,502,499,-3,-500.5,252.5,248
0.564263322884012,504,500,-4,-502,254,248
0.566425251324181,507,500,-7,-503.5,257,246.5
0.56858717976435,507,502,-5,-504.5,256,248.5
0.570749108204518,508,502,-6,-505,257,248
0.572911036644687,509,502,-7,-505.5,258,247.5
0.575072965084856,506,502,-4,-504,255,249
0.577234893525024,506,502,-4,-504,255,249
0.579396821965193,509,503,-6,-506,257.5,248.5
0.581558750405362,510,504,-6,-507,258,249
0.58372067884553,509,504,-5,-506.5,257,249.5
0.585882607285699,509,503,-6,-506,257.5,248.5
0.588044535725867,509,504,-5,-506.5,257,249.5
0.590206464166036,507,503,-4,-505,255.5,249.5
0.592368392606205,508,503,-5,-505.5,256.5,249
0.594530321046373,506,501,-5,-503.5,255.5,248
0.596692249486542,506,502,-4,-504,255,249
0.598854177926711,507,502,-5,-504.5,256,248.5
0.601016106366879,506,501,-5,-503.5,255.5,248
0.603178034807048,507,501,-6,-504,256.5,247.5
0.605339963247217,508,502,-6,-505,257,248
0.607501891687385,509,502,-7,-505.5,258,247.5
0.609663820127554,511,502,-9,-506.5,260,246.5
0.611825748567722,509,503,-6,-506,257.5,248.5
0.613987677007891,510,502,-8,-506,259,247
0.61614960544806,507,503,-4,-505,255.5,249.5
0.618311533888228,510,504,-6,-507,258,249
0.620473462328397,514,505,-9,-509.5,261.5,248
0.622635390768566,517,509,-8,-513,262.5,250.5
0.624797319208734,519,511,-8,-515,263.5,251.5
0.626959247648903,521,513,-8,-517,264.5,252.5
0.629121176089071,522,515,-7,-518.5,264.5,254
0.63128310452924,524,515,-9,-519.5,266.5,253
0.633445032969409,521,515,-6,-518,263.5,254.5
0.635606961409577,520,515,-5,-517.5,262.5,255
0.637768889849746,518,513,-5,-515.5,261.5,254
0.639930818289915,520,514,-6,-517,263,254
0.642092746730083,519,514,-5,-516.5,262,254.5
0.644254675170252,524,515,-9,-519.5,266.5,253
0.646416603610421,526,518,-8,-522,267,255
0.648578532050589,526,519,-7,-522.5,266.5,256
0.650740460490758,527,520,-7,-523.5,267,256.5
0.652902388930926,528,520,-8,-524,268,256
0.655064317371095,526,521,-5,-523.5,265.5,258
0.657226245811264,526,520,-6,-523,266,257
0.659388174251432,524,520,-4,-522,264,258
0.661550102691601,526,520,-6,-523,266,257
0.66371203113177,524,521,-3,-522.5,263.5,259
0.665873959571938,525,519,-6,-522,265.5,256.5
0.668035888012107,527,522,-5,-524.5,266,258.5
0.670197816452275,528,523,-5,-525.5,266.5,259
0.672359744892444,529,522,-7,-525.5,268,257.5
0.674521673332613,526,521,-5,-523.5,265.5,258
0.676683601772781,528,522,-6,-525,267,258
0.67884553021295,530,522,-8,-526,269,257
0.681007458653119,528,523,-5,-525.5,266.5,259
0.683169387093287,530,524,-6,-527,268,259
0.685331315533456,531,525,-6,-528,268.5,259.5
0.687493243973624,534,528,-6,-531,270,261
0.689655172413793,535,528,-7,-531.5,271,260.5
0.691817100853962,536,530,-6,-533,271,262
0.69397902929413,533,528,-5,-530.5,269,261.5
0.696140957734299,534,528,-6,-531,270,261
0.698302886174468,531,527,-4,-529,267.5,261.5
0.700464814614636,530,526,-4,-528,267,261
0.702626743054805,529,525,-4,-527,266.5,260.5
0.704788671494973,531,526,-5,-528.5,268,260.5
0.706950599935142,529,526,-3,-527.5,266,261.5
0.709112528375311,532,527,-5,-529.5,268.5,261
0.711274456815479,532,526,-6,-529,269,260
0.713436385255648,529,526,-3,-527.5,266,261.5
0.715598313695817,527,524,-3,-525.5,265,260.5
0.717760242135985,527,523,-4,-525,265.5,259.5
0.719922170576154,522,520,-2,-521,262,259
0.722084099016323,521,518,-3,-519.5,262,257.5
0.724246027456491,520,516,-4,-518,262,256
0.72640795589666,516,514,-2,-515,259,256
0.728569884336828,518,514,-4,-516,261,255
0.730731812776997,516,512,-4,-514,260,254
0.732893741217166,517,513,-4,-515,260.5,254.5
0.735055669657334,517,513,-4,-515,260.5,254.5
0.737217598097503,516,512,-4,-514,260,254
0.739379526537672,512,510,-2,-511,257,254
0.74154145497784,510,508,-2,-509,256,253
0.743703383418009,512,507,-5,-509.5,258.5,251
0.745865311858178,511,507,-4,-509,257.5,251.5
0.748027240298346,513,506,-7,-509.5,260,249.5
0.750189168738515,511,506,-5,-508.5,258,250.5
0.752351097178683,510,506,-4,-508,257,251
0.754513025618852,510,505,-5,-507.5,257.5,250
0.756674954059021,508,504,-4,-506,256,250
0.758836882499189,509,505,-4,-507,256.5,250.5
0.760998810939358,509,505,-4,-507,256.5,250.5
0.763160739379527,511,506,-5,-508.5,258,250.5
0.765322667819695,512,506,-6,-509,259,250
0.767484596259864,510,506,-4,-508,257,251
0.769646524700032,509,505,-4,-507,256.5,250.5
0.771808453140201,505,502,-3,-503.5,254,249.5
0.77397038158037,506,503,-3,-504.5,254.5,250
0.776132310020538,506,502,-4,-504,255,249
0.778294238460707,507,501,-6,-504,256.5,247.5
0.780456166900876,509,504,-5,-506.5,257,249.5
0.782618095341044,511,505,-6,-508,258.5,249.5
0.784780023781213,514,507,-7,-510.5,260.5,250
0.786941952221381,514,507,-7,-510.5,260.5,250
0.78910388066155,510,506,-4,-508,257,251
0.791265809101719,509,505,-4,-507,256.5,250.5
0.793427737541887,505,502,-3,-503.5,254,249.5
0.795589665982056,501,499,-2,-500,251.5,248.5
0.797751594422225,501,498,-3,-499.5,252,247.5
0.799913522862393,499,496,-3,-497.5,251,246.5
0.802075451302562,499,496,-3,-497.5,251,246.5
0.80423737974273,501,496,-5,-498.5,253,245.5
0.806399308182899,506,500,-6,-503,256,247
0.808561236623068,510,503,-7,-506.5,258.5,248
0.810723165063236,516,506,-10,-511,263,248
0.812885093503405,530,518,-12,-524,271,253
0.815047021943574,548,529,-19,-538.5,283.5,255
0.817208950383742,569,548,-21,-558.5,295,263.5
0.819370878823911,593,569,-24,-581,308.5,272.5
0.82153280726408,619,588,-31,-603.5,325,278.5
0.823694735704248,638,610,-28,-624,333,291
0.825856664144417,659,628,-31,-643.5,345,298.5
0.828018592584585,668,641,-27,-654.5,347.5,307
0.830180521024754,668,649,-19,-658.5,343.5,315
0.832342449464923,656,645,-11,-650.5,333.5,317
0.834504377905091,638,634,-4,-636,321,315
0.83666630634526,614,619,5,-616.5,304.5,312
0.838828234785429,591,601,10,-596,290.5,305.5
0.840990163225597,572,583,11,-577.5,280.5,297
0.843152091665766,548,565,17,-556.5,265.5,291
0.845314020105934,533,547,14,-540,259.5,280.5
0.847475948546103,516,532,16,-524,250,274
0.849637876986272,505,519,14,-512,245.5,266.5
0.85179980542644,499,509,10,-504,244.5,259.5
0.853961733866609,496,503,7,-499.5,244.5,255
0.856123662306778,495,500,5,-497.5,245,252.5
0.858285590746946,498,500,2,-499,248,251
0.860447519187115,501,500,-1,-500.5,251,249.5
0.862609447627284,502,500,-2,-501,252,249
0.864771376067452,504,500,-4,-502,254,248
0.866933304507621,501,498,-3,-499.5,252,247.5
0.869095232947789,498,495,-3,-496.5,250.5,246
0.871257161387958,497,495,-2,-496,249.5,246.5
0.873419089828127,495,493,-2,-494,248.5,245.5
0.875581018268295,497,493,-4,-495,250.5,244.5
0.877742946708464,497,492,-5,-494.5,251,243.5
0.879904875148633,496,491,-5,-493.5,250.5,243
0.882066803588801,493,490,-3,-491.5,248,243.5
0.88422873202897,491,489,-2,-490,246.5,243.5
0.886390660469139,491,489,-2,-490,246.5,243.5
0.888552588909307,493,487,-6,-490,249.5,240.5
0.890714517349476,491,488,-3,-489.5,247,242.5
0.892876445789644,493,486,-7,-489.5,250,239.5
0.895038374229813,494,489,-5,-491.5,249.5,242
0.897200302669982,497,490,-7,-493.5,252,241.5
0.89936223111015,497,491,-6,-494,251.5,242.5
0.901524159550319,498,492,-6,-495,252,243
0.903686087990487,497,491,-6,-494,251.5,242.5
0.905848016430656,495,491,-4,-493,249.5,243.5
0.908009944870825,495,491,-4,-493,249.5,243.5
0.910171873310993,494,489,-5,-491.5,249.5,242
0.912333801751162,491,488,-3,-489.5,247,242.5
0.914495730191331,491,486,-5,-488.5,248,240.5
0.916657658631499,490,485,-5,-487.5,247.5,240
0.918819587071668,490,485,-5,-487.5,247.5,240
0.920981515511836,491,486,-5,-488.5,248,240.5
0.923143443952005,496,488,-8,-492,252,240
0.925305372392174,499,490,-9,-494.5,254,240.5
0.927467300832342,501,493,-8,-497,254.5,242.5
0.929629229272511,504,495,-9,-499.5,256.5,243
0.93179115771268,503,496,-7,-499.5,255,244.5
0.933953086152848,502,496,-6,-499,254,245
0.936115014593017,504,498,-6,-501,255,246
0.938276943033186,504,499,-5,-501.5,254.5,247
0.940438871473354,503,498,-5,-500.5,254,246.5
0.942600799913523,505,497,-8,-501,256.5,244.5
0.944762728353691,501,496,-5,-498.5,253,245.5
0.94692465679386,501,495,-6,-498,253.5,244.5
0.949086585234029,498,495,-3,-496.5,250.5,246
0.951248513674197,499,493,-6,-496,252.5,243.5
0.953410442114366,499,494,-5,-496.5,252,244.5
0.955572370554535,498,493,-5,-495.5,251.5,244
0.957734298994703,498,493,-5,-495.5,251.5,244
0.959896227434872,498,493,-5,-495.5,251.5,244
0.962058155875041,503,496,-7,-499.5,255,244.5
0.964220084315209,507,497,-10,-502,258.5,243.5
0.966382012755378,509,500,-9,-504.5,259,245.5
0.968543941195546,511,501,-10,-506,260.5,245.5
0.970705869635715,511,503,-8,-507,259.5,247.5
0.972867798075884,511,504,-7,-507.5,259,248.5
0.975029726516052,509,503,-6,-506,257.5,248.5
0.977191654956221,506,502,-4,-504,255,249
0.97935358339639,505,501,-4,-503,254.5,248.5
0.981515511836558,502,499,-3,-500.5,252.5,248
0.983677440276727,504,500,-4,-502,254,248
0.985839368716895,507,503,-4,-505,255.5,249.5
0.988001297157064,511,504,-7,-507.5,259,248.5
0.990163225597233,517,509,-8,-513,262.5,250.5
0.992325154037401,519,511,-8,-515,263.5,251.5
0.99448708247757,522,514,-8,-518,265,253
0.996649010917739,522,515,-7,-518.5,264.5,254
0.998810939357907,522,516,-6,-519,264,255
1.00097286779808,520,516,-4,-518,262,256
1.00313479623824,518,514,-4,-516,261,255
1.00529672467841,516,512,-4,-514,260,254
1.00745865311858,513,512,-1,-512.5,257,255.5
1.00962058155875,515,512,-3,-513.5,259,254.5
1.01178250999892,518,512,-6,-515,262,253
1.01394443843909,519,514,-5,-516.5,262,254.5
1.01610636687926,518,514,-4,-516,261,255
1.01826829531942,520,514,-6,-517,263,254
1.02043022375959,522,516,-6,-519,264,255
1.02259215219976,523,517,-6,-520,264.5,255.5
1.02475408063993,524,518,-6,-521,265,256
1.0269160090801,526,519,-7,-522.5,266.5,256
1.02907793752027,527,520,-7,-523.5,267,256.5
1.03123986596044,524,518,-6,-521,265,256
1.03340179440061,522,518,-4,-520,263,257
1.03556372284077,524,517,-7,-520.5,265.5,255
1.03772565128094,523,517,-6,-520,264.5,255.5
1.03988757972111,525,520,-5,-522.5,265,257.5
1.04204950816128,530,522,-8,-526,269,257
1.04421143660145,534,525,-9,-529.5,271.5,258
1.04637336504162,536,529,-7,-532.5,271.5,261
1.04853529348179,539,531,-8,-535,273.5,261.5
1.05069722192195,542,533,-9,-537.5,275.5,262
1.05285915036212,540,532,-8,-536,274,262
1.05502107880229,541,532,-9,-536.5,275,261.5
1.05718300724246,537,532,-5,-534.5,271,263.5
1.05934493568263,537,532,-5,-534.5,271,263.5
1.0615068641228,536,531,-5,-533.5,270.5,263
1.06366879256297,535,531,-4,-533,269.5,263.5
1.06583072100313,537,532,-5,-534.5,271,263.5
1.0679926494433,539,532,-7,-535.5,273,262.5
1.07015457788347,539,534,-5,-536.5,272,264.5
1.07231650632364,540,534,-6,-537,273,264
1.07447843476381,540,535,-5,-537.5,272.5,265
1.07664036320398,542,536,-6,-539,274,265
1.07880229164415,540,536,-4,-538,272,266
1.08096422008432,537,533,-4,-535,270.5,264.5
1.08312614852448,537,531,-6,-534,271.5,262.5
1.08528807696465,533,529,-4,-531,268.5,262.5
1.08745000540482,530,526,-4,-528,267,261
1.08961193384499,527,524,-3,-525.5,265,260.5
1.09177386228516,521,518,-3,-519.5,262,257.5
1.09393579072533,517,516,-1,-516.5,259,257.5
1.0960977191655,512,512,0,-512,256,256
1.09825964760566,512,510,-2,-511,257,254
1.10042157604583,510,508,-2,-509,256,253
1.102583504486,507,506,-1,-506.5,254,252.5
1.10474543292617,504,503,-1,-503.5,252.5,251
1.10690736136634,503,501,-2,-502,252.5,249.5
1.10906928980651,501,500,-1,-500.5,251,249.5
1.11123121824668,501,499,-2,-500,251.5,248.5
1.11339314668684,500,497,-3,-498.5,251.5,247
1.11555507512701,496,494,-2,-495,249,246
1.11771700356718,493,490,-3,-491.5,248,243.5
1.11987893200735,488,487,-1,-487.5,244.5,243
1.12204086044752,486,483,-3,-484.5,244.5,240
1.12420278888769,482,482,0,-482,241,241
1.12636471732786,480,479,-1,-479.5,240.5,239
1.12852664576802,479,478,-1,-478.5,240,238.5
1.13068857420819,481,477,-4,-479,242.5,236.5
1.13285050264836,480,477,-3,-478.5,241.5,237
1.13501243108853,480,476,-4,-478,242,236
1.1371743595287,482,476,-6,-479,244,235
1.13933628796887,484,478,-6,-481,245,236
1.14149821640904,481,477,-4,-479,242.5,236.5
1.14366014484921,479,477,-2,-478,240.5,237.5
1.14582207328937,477,474,-3,-475.5,240,235.5
1.14798400172954,476,473,-3,-474.5,239.5,235
1.15014593016971,473,470,-3,-471.5,238,233.5
1.15230785860988,475,470,-5,-472.5,240,232.5
1.15446978705005,473,469,-4,-471,238.5,232.5
1.15663171549022,470,468,-2,-469,236,233
1.15879364393039,468,467,-1,-467.5,234.5,233
1.16095557237055,471,466,-5,-468.5,238,230.5
1.16311750081072,473,467,-6,-470,239.5,230.5
1.16527942925089,475,468,-7,-471.5,241,230.5
1.16744135769106,476,469,-7,-472.5,241.5,231
1.16960328613123,473,469,-4,-471,238.5,232.5
1.1717652145714,474,469,-5,-471.5,239.5,232
1.17392714301157,474,469,-5,-471.5,239.5,232
1.17608907145173,474,469,-5,-471.5,239.5,232
1.1782509998919,474,469,-5,-471.5,239.5,232
1.18041292833207,474,469,-5,-471.5,239.5,232
1.18257485677224,473,469,-4,-471,238.5,232.5
1.18473678521241,477,471,-6,-474,241.5,232.5
1.18689871365258,481,473,-8,-477,244.5,232.5
1.18906064209275,483,475,-8,-479,245.5,233.5
1.19122257053292,484,477,-7,-480.5,245.5,235
1.19338449897308,482,476,-6,-479,244,235
1.19554642741325,481,476,-5,-478.5,243,235.5
1.19770835585342,480,476,-4,-478,242,236
1.19987028429359,478,474,-4,-476,241,235
1.20203221273376,476,473,-3,-474.5,239.5,235
1.20419414117393,476,473,-3,-474.5,239.5,235
1.2063560696141,473,470,-3,-471.5,238,233.5
1.20851799805426,475,471,-4,-473,239.5,233.5
1.21067992649443,472,469,-3,-470.5,237.5,233
1.2128418549346,473,469,-4,-471,238.5,232.5
1.21500378337477,479,471,-8,-475,243.5,231.5
1.21716571181494,480,473,-7,-476.5,243.5,233
1.21932764025511,482,475,-7,-478.5,244.5,234
1.22148956869528,484,477,-7,-480.5,245.5,235
1.22365149713544,486,479,-7,-482.5,246.5,236
1.22581342557561,485,478,-7,-481.5,246,235.5
1.22797535401578,485,479,-6,-482,245.5,236.5
1.23013728245595,485,479,-6,-482,245.5,236.5
1.23229921089612,484,478,-6,-481,245,236
1.23446113933629,487,478,-9,-482.5,248,234.5
1.23662306777646,487,479,-8,-483,247.5,235.5
1.23878499621663,488,480,-8,-484,248,236
1.24094692465679,488,482,-6,-485,247,238
1.24310885309696,488,483,-5,-485.5,246.5,239
1.24527078153713,490,484,-6,-487,248,239
1.2474327099773,489,484,-5,-486.5,247,239.5
1.24959463841747,491,484,-7,-487.5,249,238.5
1.25175656685764,492,483,-9,-487.5,250.5,237
1.25391849529781,490,485,-5,-487.5,247.5,240
1.25608042373797,491,483,-8,-487,249.5,237.5
1.25824235217814,489,484,-5,-486.5,247,239.5
1.26040428061831,491,485,-6,-488,248.5,239.5
1.26256620905848,489,484,-5,-486.5,247,239.5
1.26472813749865,491,485,-6,-488,248.5,239.5
1.26689006593882,490,485,-5,-487.5,247.5,240
1.26905199437899,492,487,-5,-489.5,248.5,241
1.27121392281915,492,487,-5,-489.5,248.5,241
1.27337585125932,489,485,-4,-487,246.5,240.5
1.27553777969949,488,485,-3,-486.5,245.5,241
1.27769970813966,486,484,-2,-485,244,241
1.27986163657983,485,482,-3,-483.5,244,239.5
1.28202356502,486,482,-4,-484,245,239
1.28418549346017,489,483,-6,-486,247.5,238.5
1.28634742190034,488,484,-4,-486,246,240
1.2885093503405,487,484,-3,-485.5,245,240.5
1.29067127878067,487,483,-4,-485,245.5,239.5
1.29283320722084,486,483,-3,-484.5,244.5,240
1.29499513566101,488,483,-5,-485.5,246.5,239
1.29715706410118,487,483,-4,-485,245.5,239.5
1.29931899254135,489,484,-5,-486.5,247,239.5
1.30148092098152,490,486,-4,-488,247,241
1.30364284942168,491,486,-5,-488.5,248,240.5
1.30580477786185,491,486,-5,-488.5,248,240.5
1.30796670630202,491,486,-5,-488.5,248,240.5
1.31012863474219,490,485,-5,-487.5,247.5,240
1.31229056318236,487,483,-4,-485,245.5,239.5
1.31445249162253,487,484,-3,-485.5,245,240.5
1.3166144200627,487,483,-4,-485,245.5,239.5
1.31877634850286,489,484,-5,-486.5,247,239.5
1.32093827694303,487,484,-3,-485.5,245,240.5
1.3231002053832,487,482,-5,-484.5,246,238.5
1.32526213382337,488,483,-5,-485.5,246.5,239
1.32742406226354,488,481,-7,-484.5,247.5,237
1.32958599070371,485,480,-5,-482.5,245,237.5
1.33174791914388,485,480,-5,-482.5,245,237.5
1.33390984758404,488,481,-7,-484.5,247.5,237
1.33607177602421,490,483,-7,-486.5,248.5,238
1.33823370446438,493,483,-10,-488,251.5,236.5
1.34039563290455,492,484,-8,-488,250,238
1.34255756134472,494,485,-9,-489.5,251.5,238
1.34471948978489,494,487,-7,-490.5,250.5,240
1.34688141822506,494,488,-6,-491,250,241
1.34904334666523,494,489,-5,-491.5,249.5,242
1.35120527510539,496,490,-6,-493,251,242
1.35336720354556,495,489,-6,-492,250.5,241.5
1.35552913198573,495,490,-5,-492.5,250,242.5
1.3576910604259,494,490,-4,-492,249,243
1.35985298886607,496,490,-6,-493,251,242
1.36201491730624,497,491,-6,-494,251.5,242.5
1.36417684574641,498,491,-7,-494.5,252.5,242
1.36633877418657,501,492,-9,-496.5,255,241.5
1.36850070262674,502,494,-8,-498,255,243
1.37066263106691,502,495,-7,-498.5,254.5,244
1.37282455950708,500,494,-6,-497,253,244
1.37498648794725,499,493,-6,-496,252.5,243.5
1.37714841638742,499,494,-5,-496.5,252,244.5
1.37931034482759,497,492,-5,-494.5,251,243.5
1.38147227326775,499,494,-5,-496.5,252,244.5
1.38363420170792,501,494,-7,-497.5,254,243.5
1.38579613014809,502,496,-6,-499,254,245
1.38795805858826,505,499,-6,-502,255.5,246.5
1.39011998702843,506,500,-6,-503,256,247
1.3922819154686,507,502,-5,-504.5,256,248.5
1.39444384390877,509,502,-7,-505.5,258,247.5
1.39660577234894,507,502,-5,-504.5,256,248.5
1.3987677007891,506,503,-3,-504.5,254.5,250
1.40092962922927,508,502,-6,-505,257,248
1.40309155766944,508,502,-6,-505,257,248
1.40525348610961,506,502,-4,-504,255,249
1.40741541454978,507,503,-4,-505,255.5,249.5
1.40957734298995,507,502,-5,-504.5,256,248.5
1.41173927143012,507,503,-4,-505,255.5,249.5
1.41390119987028,510,503,-7,-506.5,258.5,248
1.41606312831045,510,503,-7,-506.5,258.5,248
1.41822505675062,509,504,-5,-506.5,257,249.5
1.42038698519079,513,504,-9,-508.5,261,247.5
1.42254891363096,511,506,-5,-508.5,258,250.5
1.42471084207113,510,505,-5,-507.5,257.5,250
1.4268727705113,512,506,-6,-509,259,250
1.42903469895146,513,507,-6,-510,259.5,250.5
1.43119662739163,515,506,-9,-510.5,262,248.5
1.4333585558318,514,507,-7,-510.5,260.5,250
1.43552048427197,514,508,-6,-511,260,251
1.43768241271214,514,508,-6,-511,260,251
1.43984434115231,513,508,-5,-510.5,259,251.5
1.44200626959248,515,509,-6,-512,260.5,251.5
1.44416819803265,516,509,-7,-512.5,261.5,251
1.44633012647281,512,507,-5,-509.5,258.5,251
1.44849205491298,514,508,-6,-511,260,251
1.45065398335315,512,506,-6,-509,259,250
1.45281591179332,509,505,-4,-507,256.5,250.5
1.45497784023349,507,503,-4,-505,255.5,249.5
1.45713976867366,506,502,-4,-504,255,249
1.45930169711383,504,500,-4,-502,254,248
1.46146362555399,502,498,-4,-500,253,247
1.46362555399416,500,497,-3,-498.5,251.5,247
1.46578748243433,497,495,-2,-496,249.5,246.5
1.4679494108745,496,494,-2,-495,249,246
1.47011133931467,499,495,-4,-497,251.5,245.5
1.47227326775484,501,495,-6,-498,253.5,244.5
1.47443519619501,500,495,-5,-497.5,252.5,245
1.47659712463517,499,494,-5,-496.5,252,244.5
1.47875905307534,498,493,-5,-495.5,251.5,244
1.48092098151551,496,492,-4,-494,250,244
1.48308290995568,494,491,-3,-492.5,248.5,244
1.48524483839585,495,490,-5,-492.5,250,242.5
1.48740676683602,496,492,-4,-494,250,244
1.48956869527619,497,492,-5,-494.5,251,243.5
1.49173062371636,498,493,-5,-495.5,251.5,244
1.49389255215652,498,493,-5,-495.5,251.5,244
1.49605448059669,498,492,-6,-495,252,243
1.49821640903686,498,492,-6,-495,252,243
1.50037833747703,498,491,-7,-494.5,252.5,242
1.5025402659172,496,492,-4,-494,250,244
1.50470219435737,497,492,-5,-494.5,251,243.5
1.50686412279754,494,491,-3,-492.5,248.5,244
1.5090260512377,492,490,-2,-491,247,244
1.51118797967787,493,489,-4,-491,248.5,242.5
1.51334990811804,493,489,-4,-491,248.5,242.5
1.51551183655821,493,489,-4,-491,248.5,242.5
1.51767376499838,494,490,-4,-492,249,243
1.51983569343855,497,491,-6,-494,251.5,242.5
1.52199762187872,496,490,-6,-493,251,242
1.52415955031888,496,489,-7,-492.5,251.5,241
1.52632147875905,489,487,-2,-488,245.5,242.5
1.52848340719922,487,483,-4,-485,245.5,239.5
1.53064533563939,483,481,-2,-482,242.5,239.5
1.53280726407956,483,480,-3,-481.5,243,238.5
1.53496919251973,486,481,-5,-483.5,245.5,238
1.5371311209599,490,483,-7,-486.5,248.5,238
1.53929304940006,492,485,-7,-488.5,249.5,239
1.54145497784023,493,487,-6,-490,249.5,240.5
1.5436169062804,495,489,-6,-492,250.5,241.5
1.54577883472057,499,492,-7,-495.5,253,242.5
1.54794076316074,509,499,-10,-504,259.5,244.5
1.55010269160091,519,508,-11,-513.5,265,248.5
1.55226462004108,539,521,-18,-530,278.5,251.5
1.55442654848125,559,536,-23,-547.5,291,256.5
1.55658847692141,578,554,-24,-566,301,265
1.55875040536158,599,573,-26,-586,312.5,273.5
1.56091233380175,620,592,-28,-606,324,282
1.56307426224192,638,611,-27,-624.5,332.5,292
1.56523619068209,650,625,-25,-637.5,337.5,300
1.56739811912226,654,633,-21,-643.5,337.5,306
1.56956004756243,645,631,-14,-638,329.5,308.5
1.57172197600259,628,623,-5,-625.5,316.5,309
1.57388390444276,606,609,3,-607.5,301.5,306
1.57604583288293,581,590,9,-585.5,286,299.5
1.5782077613231,557,571,14,-564,271.5,292.5
1.58036968976327,534,551,17,-542.5,258.5,284
1.58253161820344,515,533,18,-524,248.5,275.5
1.58469354664361,500,517,17,-508.5,241.5,267
1.58685547508377,492,506,14,-499,239,260
1.58901740352394,490,497,7,-493.5,241.5,252
1.59117933196411,489,493,4,-491,242.5,248.5
1.59334126040428,488,491,3,-489.5,242.5,247
1.59550318884445,493,490,-3,-491.5,248,243.5
1.59766511728462,496,493,-3,-494.5,249.5,245
1.59982704572479,500,495,-5,-497.5,252.5,245
1.60198897416496,507,497,-10,-502,258.5,243.5
1.60415090260512,504,498,-6,-501,255,246
1.60631283104529,504,499,-5,-501.5,254.5,247
1.60847475948546,502,498,-4,-500,253,247
1.61063668792563,498,495,-3,-496.5,250.5,246
1.6127986163658,495,493,-2,-494,248.5,245.5
1.61496054480597,494,490,-4,-492,249,243
1.61712247324614,488,487,-1,-487.5,244.5,243
1.6192844016863,488,484,-4,-486,246,240
1.62144633012647,485,484,-1,-484.5,243,241.5
1.62360825856664,484,482,-2,-483,243,240
1.62577018700681,485,481,-4,-483,244.5,238.5
1.62793211544698,483,480,-3,-481.5,243,238.5
1.63009404388715,486,482,-4,-484,245,239
1.63225597232732,486,482,-4,-484,245,239
1.63441790076748,486,483,-3,-484.5,244.5,240
1.63657982920765,488,482,-6,-485,247,238
1.63874175764782,488,483,-5,-485.5,246.5,239
1.64090368608799,489,484,-5,-486.5,247,239.5
1.64306561452816,491,485,-6,-488,248.5,239.5
1.64522754296833,489,485,-4,-487,246.5,240.5
1.6473894714085,490,484,-6,-487,248,239
1.64955139984867,488,483,-5,-485.5,246.5,239
1.65171332828883,488,483,-5,-485.5,246.5,239
1.653875256729,487,483,-4,-485,245.5,239.5
1.65603718516917,486,483,-3,-484.5,244.5,240
1.65819911360934,485,483,-2,-484,243.5,240.5
1.66036104204951,489,483,-6,-486,247.5,238.5
1.66252297048968,490,483,-7,-486.5,248.5,238
1.66468489892985,490,483,-7,-486.5,248.5,238
1.66684682737001,490,484,-6,-487,248,239
1.66900875581018,493,487,-6,-490,249.5,240.5
1.67117068425035,494,488,-6,-491,250,241
1.67333261269052,495,489,-6,-492,250.5,241.5
1.67549454113069,497,490,-7,-493.5,252,241.5
1.67765646957086,497,491,-6,-494,251.5,242.5
1.67981839801103,495,490,-5,-492.5,250,242.5
1.68198032645119,496,491,-5,-493.5,250.5,243
1.68414225489136,495,490,-5,-492.5,250,242.5
1.68630418333153,493,489,-4,-491,248.5,242.5
1.6884661117717,495,490,-5,-492.5,250,242.5
1.69062804021187,497,492,-5,-494.5,251,243.5
1.69278996865204,501,494,-7,-497.5,254,243.5
1.69495189709221,506,498,-8,-502,257,245
1.69711382553237,508,500,-8,-504,258,246
1.69927575397254,507,502,-5,-504.5,256,248.5
1.70143768241271,508,503,-5,-505.5,256.5,249
1.70359961085288,510,504,-6,-507,258,249
1.70576153929305,509,504,-5,-506.5,257,249.5
1.70792346773322,508,502,-6,-505,257,248
1.71008539617339,505,502,-3,-503.5,254,249.5
1.71224732461356,505,501,-4,-503,254.5,248.5
1.71440925305372,506,501,-5,-503.5,255.5,248
1.71657118149389,508,501,-7,-504.5,257.5,247
1.71873310993406,505,501,-4,-503,254.5,248.5
1.72089503837423,505,501,-4,-503,254.5,248.5
1.7230569668144,506,501,-5,-503.5,255.5,248
1.72521889525457,506,501,-5,-503.5,255.5,248
1.72738082369474,508,503,-5,-505.5,256.5,249
1.7295427521349,509,503,-6,-506,257.5,248.5
1.73170468057507,512,505,-7,-508.5,259.5,249
1.73386660901524,513,507,-6,-510,259.5,250.5
1.73602853745541,514,508,-6,-511,260,251
1.73819046589558,517,510,-7,-513.5,262,251.5
1.74035239433575,517,511,-6,-514,261.5,252.5
1.74251432277592,519,512,-7,-515.5,263,252.5
1.74467625121608,522,513,-9,-517.5,265.5,252
1.74683817965625,519,513,-6,-516,262.5,253.5
1.74900010809642,517,513,-4,-515,260.5,254.5
1.75116203653659,521,513,-8,-517,264.5,252.5
1.75332396497676,519,515,-4,-517,261.5,255.5
1.75548589341693,520,514,-6,-517,263,254
1.7576478218571,526,516,-10,-521,268,253
1.75980975029727,530,520,-10,-525,270,255
1.76197167873743,531,522,-9,-526.5,270,256.5
1.7641336071776,535,524,-11,-529.5,273,256.5
1.76629553561777,536,526,-10,-531,273,258
1.76845746405794,535,528,-7,-531.5,271,260.5
1.77061939249811,539,529,-10,-534,274.5,259.5
1.77278132093828,540,532,-8,-536,274,262
1.77494324937845,543,534,-9,-538.5,276,262.5
1.77710517781861,543,536,-7,-539.5,275,264.5
1.77926710625878,546,537,-9,-541.5,277.5,264
1.78142903469895,544,538,-6,-541,275,266
1.78359096313912,543,539,-4,-541,273.5,267.5
1.78575289157929,544,539,-5,-541.5,274.5,267
1.78791482001946,543,539,-4,-541,273.5,267.5
1.79007674845963,540,537,-3,-538.5,271.5,267
1.79223867689979,536,534,-2,-535,269,266
1.79440060533996,534,532,-2,-533,268,265
1.79656253378013,538,534,-4,-536,271,265
1.7987244622203,540,534,-6,-537,273,264
1.80088639066047,542,535,-7,-538.5,274.5,264
1.80304831910064,542,536,-6,-539,274,265
1.80521024754081,543,536,-7,-539.5,275,264.5
1.80737217598097,544,537,-7,-540.5,275.5,265
1.80953410442114,544,537,-7,-540.5,275.5,265
1.81169603286131,547,539,-8,-543,277.5,265.5
1.81385796130148,547,540,-7,-543.5,277,266.5
1.81601988974165,547,539,-8,-543,277.5,265.5
1.81818181818182,544,539,-5,-541.5,274.5,267
1.82034374662199,540,537,-3,-538.5,271.5,267
1.82250567506216,537,534,-3,-535.5,270,265.5
1.82466760350232,533,531,-2,-532,267.5,264.5
1.82682953194249,527,527,0,-527,263.5,263.5
1.82899146038266,524,524,0,-524,262,262
1.83115338882283,522,521,-1,-521.5,261.5,260
1.833315317263,518,518,0,-518,259,259
1.83547724570317,517,516,-1,-516.5,259,257.5
1.83763917414334,512,511,-1,-511.5,256.5,255
1.8398011025835,509,509,0,-509,254.5,254.5
1.84196303102367,502,503,1,-502.5,250.5,252
1.84412495946384,496,498,2,-497,247,250
1.84628688790401,493,494,1,-493.5,246,247.5
1.84844881634418,490,490,0,-490,245,245
1.85061074478435,491,487,-4,-489,247.5,241.5
1.85277267322452,490,487,-3,-488.5,246.5,242
1.85493460166468,493,489,-4,-491,248.5,242.5
1.85709653010485,495,488,-7,-491.5,251,240.5
1.85925845854502,490,487,-3,-488.5,246.5,242
1.86142038698519,487,483,-4,-485,245.5,239.5
1.86358231542536,484,482,-2,-483,243,240
1.86574424386553,482,480,-2,-481,242,239
1.8679061723057,479,477,-2,-478,240.5,237.5
1.87006810074587,480,475,-5,-477.5,242.5,235
1.87223002918603,476,472,-4,-474,240,234
1.8743919576262,473,470,-3,-471.5,238,233.5
1.87655388606637,472,469,-3,-470.5,237.5,233
1.87871581450654,473,469,-4,-471,238.5,232.5
1.88087774294671,474,470,-4,-472,239,233
1.88303967138688,474,469,-5,-471.5,239.5,232
1.88520159982705,473,470,-3,-471.5,238,233.5
1.88736352826721,471,468,-3,-469.5,237,232.5
1.88952545670738,474,468,-6,-471,240,231
1.89168738514755,472,467,-5,-469.5,238.5,231
1.89384931358772,471,466,-5,-468.5,238,230.5
1.89601124202789,474,467,-7,-470.5,240.5,230
1.89817317046806,473,468,-5,-470.5,239,231.5
1.90033509890823,471,468,-3,-469.5,237,232.5
1.90249702734839,473,469,-4,-471,238.5,232.5
1.90465895578856,475,468,-7,-471.5,241,230.5
1.90682088422873,475,469,-6,-472,240.5,231.5
1.9089828126689,474,470,-4,-472,239,233
1.91114474110907,477,471,-6,-474,241.5,232.5
1.91330666954924,476,471,-5,-473.5,240.5,233
1.91546859798941,474,470,-4,-472,239,233
1.91763052642958,476,470,-6,-473,241,232
1.91979245486974,473,469,-4,-471,238.5,232.5
1.92195438330991,474,467,-7,-470.5,240.5,230
1.92411631175008,472,468,-4,-470,238,232
1.92627824019025,468,465,-3,-466.5,235.5,231
1.92844016863042,468,464,-4,-466,236,230
1.93060209707059,465,463,-2,-464,233.5,230.5
1.93276402551076,466,463,-3,-464.5,234.5,230
1.93492595395092,471,466,-5,-468.5,238,230.5
1.93708788239109,475,468,-7,-471.5,241,230.5
1.93924981083126,478,471,-7,-474.5,242.5,232
1.94141173927143,480,473,-7,-476.5,243.5,233
1.9435736677116,478,474,-4,-476,241,235
1.94573559615177,481,474,-7,-477.5,244,233.5
1.94789752459194,481,475,-6,-478,243.5,234.5
1.9500594530321,482,477,-5,-479.5,243.5,236
1.95222138147227,480,475,-5,-477.5,242.5,235
1.95438330991244,481,474,-7,-477.5,244,233.5
1.95654523835261,477,473,-4,-475,240.5,234.5
1.95870716679278,475,472,-3,-473.5,239,234.5
1.96086909523295,474,470,-4,-472,239,233
1.96303102367312,479,471,-8,-475,243.5,231.5
1.96519295211328,480,474,-6,-477,243,234
1.96735488055345,481,475,-6,-478,243.5,234.5
1.96951680899362,485,477,-8,-481,246.5,234.5
1.97167873743379,486,480,-6,-483,246,237
1.97384066587396,490,482,-8,-486,249,237
1.97600259431413,489,483,-6,-486,247.5,238.5
1.9781645227543,488,484,-4,-486,246,240
1.98032645119447,486,483,-3,-484.5,244.5,240
1.98248837963463,487,481,-6,-484,246.5,237.5
1.9846503080748,485,481,-4,-483,244.5,238.5
1.98681223651497,488,481,-7,-484.5,247.5,237
1.98897416495514,487,481,-6,-484,246.5,237.5
1.99113609339531,488,481,-7,-484.5,247.5,237
1.99329802183548,490,484,-6,-487,248,239
1.99545995027565,490,483,-7,-486.5,248.5,238
1.99762187871581,488,484,-4,-486,246,240
1.99978380715598,490,485,-5,-487.5,247.5,240
2.00194573559615,486,483,-3,-484.5,244.5,240
2.00410766403632,487,482,-5,-484.5,246,238.5
2.00626959247649,489,482,-7,-485.5,248,237.5
2.00843152091666,490,483,-7,-486.5,248.5,238
2.01059344935683,491,483,-8,-487,249.5,237.5
2.01275537779699,491,484,-7,-487.5,249,238.5
2.01491730623716,490,485,-5,-487.5,247.5,240
2.01707923467733,492,486,-6,-489,249,240
2.0192411631175,493,488,-5,-490.5,249,241.5
2.02140309155767,493,487,-6,-490,249.5,240.5
2.02356501999784,494,488,-6,-491,250,241
2.02572694843801,492,487,-5,-489.5,248.5,241
2.02788887687818,491,486,-5,-488.5,248,240.5
2.03005080531834,493,486,-7,-489.5,250,239.5
2.03221273375851,490,486,-4,-488,247,241
2.03437466219868,491,485,-6,-488,248.5,239.5
2.03653659063885,491,486,-5,-488.5,248,240.5
2.03869851907902,495,487,-8,-491,251.5,239.5
2.04086044751919,496,489,-7,-492.5,251.5,241
2.04302237595936,494,489,-5,-491.5,249.5,242
2.04518430439952,494,488,-6,-491,250,241
2.04734623283969,493,488,-5,-490.5,249,241.5
2.04950816127986,492,486,-6,-489,249,240
2.05167008972003,491,486,-5,-488.5,248,240.5
2.0538320181602,491,486,-5,-488.5,248,240.5
2.05599394660037,490,487,-3,-488.5,246.5,242
2.05815587504054,490,486,-4,-488,247,241
2.0603178034807,494,487,-7,-490.5,250.5,240
2.06247973192087,495,488,-7,-491.5,251,240.5
2.06464166036104,493,489,-4,-491,248.5,242.5
2.06680358880121,495,488,-7,-491.5,251,240.5
2.06896551724138,492,488,-4,-490,248,242
2.07112744568155,493,489,-4,-491,248.5,242.5
2.07328937412172,494,490,-4,-492,249,243
2.07545130256189,495,490,-5,-492.5,250,242.5
2.07761323100205,495,490,-5,-492.5,250,242.5
2.07977515944222,496,491,-5,-493.5,250.5,243
2.08193708788239,498,492,-6,-495,252,243
2.08409901632256,500,493,-7,-496.5,253.5,243
2.08626094476273,499,493,-6,-496,252.5,243.5
2.0884228732029,498,493,-5,-495.5,251.5,244
2.09058480164307,497,492,-5,-494.5,251,243.5
2.09274673008323,495,491,-4,-493,249.5,243.5
2.0949086585234,497,491,-6,-494,251.5,242.5
2.09707058696357,497,492,-5,-494.5,251,243.5
2.09923251540374,494,491,-3,-492.5,248.5,244
2.10139444384391,497,491,-6,-494,251.5,242.5
2.10355637228408,499,492,-7,-495.5,253,242.5
2.10571830072425,497,493,-4,-495,250.5,244.5
2.10788022916441,498,493,-5,-495.5,251.5,244
2.11004215760458,498,494,-4,-496,251,245
2.11220408604475,495,493,-2,-494,248.5,245.5
2.11436601448492,496,492,-4,-494,250,244
2.11652794292509,494,491,-3,-492.5,248.5,244
2.11868987136526,495,492,-3,-493.5,249,244.5
2.12085179980543,499,492,-7,-495.5,253,242.5
2.1230137282456,500,493,-7,-496.5,253.5,243
2.12517565668576,501,494,-7,-497.5,254,243.5
2.12733758512593,503,495,-8,-499,255.5,243.5
2.1294995135661,501,496,-5,-498.5,253,245.5
2.13166144200627,501,497,-4,-499,252.5,246.5
2.13382337044644,501,496,-5,-498.5,253,245.5
2.13598529888661,500,495,-5,-497.5,252.5,245
2.13814722732678,500,494,-6,-497,253,244
2.14030915576694,498,495,-3,-496.5,250.5,246
2.14247108420711,500,495,-5,-497.5,252.5,245
2.14463301264728,500,494,-6,-497,253,244
2.14679494108745,499,496,-3,-497.5,251,246.5
2.14895686952762,504,497,-7,-500.5,255.5,245
2.15111879796779,504,498,-6,-501,255,246
2.15328072640796,506,499,-7,-502.5,256.5,246
2.15544265484812,507,500,-7,-503.5,257,246.5
2.15760458328829,507,501,-6,-504,256.5,247.5
2.15976651172846,508,501,-7,-504.5,257.5,247
2.16192844016863,510,502,-8,-506,259,247
2.1640903686088,508,503,-5,-505.5,256.5,249
2.16625229704897,506,502,-4,-504,255,249
2.16841422548914,505,499,-6,-502,255.5,246.5
2.1705761539293,502,499,-3,-500.5,252.5,248
2.17273808236947,500,497,-3,-498.5,251.5,247
2.17490001080964,503,497,-6,-500,254.5,245.5
2.17706193924981,504,500,-4,-502,254,248
2.17922386768998,510,503,-7,-506.5,258.5,248
2.18138579613015,516,507,-9,-511.5,262.5,249
2.18354772457032,518,511,-7,-514.5,262.5,252
2.18570965301049,522,513,-9,-517.5,265.5,252
2.18787158145065,519,514,-5,-516.5,262,254.5
2.19003350989082,520,513,-7,-516.5,263.5,253
2.19219543833099,518,513,-5,-515.5,261.5,254
2.19435736677116,513,511,-2,-512,257.5,254.5
2.19651929521133,515,509,-6,-512,260.5,251.5
2.1986812236515,513,508,-5,-510.5,259,251.5
2.20084315209167,512,506,-6,-509,259,250
2.20300508053183,510,506,-4,-508,257,251
2.205167008972,506,504,-2,-505,254,251
2.20732893741217,506,504,-2,-505,254,251
2.20949086585234,508,502,-6,-505,257,248
2.21165279429251,507,503,-4,-505,255.5,249.5
2.21381472273268,510,504,-6,-507,258,249
2.21597665117285,508,504,-4,-506,256,250
2.21813857961301,507,503,-4,-505,255.5,249.5
2.22030050805318,503,501,-2,-502,252.5,249.5
2.22246243649335,501,499,-2,-500,251.5,248.5
2.22462436493352,495,496,1,-495.5,247,248.5
2.22678629337369,496,494,-2,-495,249,246
2.22894822181386,495,493,-2,-494,248.5,245.5
2.23111015025403,496,492,-4,-494,250,244
2.2332720786942,499,495,-4,-497,251.5,245.5
2.23543400713436,498,494,-4,-496,251,245
2.23759593557453,501,495,-6,-498,253.5,244.5
2.2397578640147,502,497,-5,-499.5,253.5,246
2.24191979245487,501,496,-5,-498.5,253,245.5
2.24408172089504,501,495,-6,-498,253.5,244.5
2.24624364933521,498,494,-4,-496,251,245
2.24840557777538,495,492,-3,-493.5,249,244.5
2.25056750621554,494,491,-3,-492.5,248.5,244
2.25272943465571,492,489,-3,-490.5,247.5,243
2.25489136309588,494,490,-4,-492,249,243
2.25705329153605,492,489,-3,-490.5,247.5,243
2.25921521997622,495,488,-7,-491.5,251,240.5
2.26137714841639,494,489,-5,-491.5,249.5,242
2.26353907685656,495,487,-8,-491,251.5,239.5
2.26570100529672,493,489,-4,-491,248.5,242.5
2.26786293373689,496,491,-5,-493.5,250.5,243
2.27002486217706,499,494,-5,-496.5,252,244.5
2.27218679061723,500,495,-5,-497.5,252.5,245
2.2743487190574,500,495,-5,-497.5,252.5,245
2.27651064749757,500,496,-4,-498,252,246
2.27867257593774,498,494,-4,-496,251,245
2.28083450437791,499,493,-6,-496,252.5,243.5
2.28299643281807,498,492,-6,-495,252,243
2.28515836125824,493,491,-2,-492,247.5,244.5
2.28732028969841,492,489,-3,-490.5,247.5,243
2.28948221813858,490,487,-3,-488.5,246.5,242
2.29164414657875,491,486,-5,-488.5,248,240.5
2.29380607501892,495,488,-7,-491.5,251,240.5
2.29596800345909,497,491,-6,-494,251.5,242.5
2.29812993189925,498,492,-6,-495,252,243
2.30029186033942,501,494,-7,-497.5,254,243.5
2.30245378877959,507,499,-8,-503,257.5,245.5
2.30461571721976,518,507,-11,-512.5,264.5,248
2.30677764565993,533,518,-15,-525.5,274,251.5
2.3089395741001,555,535,-20,-545,287.5,257.5
2.31110150254027,578,553,-25,-565.5,301.5,264
2.31326343098043,600,574,-26,-587,313,274
2.3154253594206,624,595,-29,-609.5,326.5,283
2.31758728786077,648,616,-32,-632,340,292
2.31974921630094,659,632,-27,-645.5,343,302.5
2.32191114474111,664,640,-24,-652,344,308
2.32407307318128,656,639,-17,-647.5,336.5,311
2.32623500162145,641,633,-8,-637,324.5,312.5
2.32839693006161,621,622,1,-621.5,310,311.5
2.33055885850178,598,605,7,-601.5,295.5,306
2.33272078694195,575,587,12,-581,281.5,299.5
2.33488271538212,555,568,13,-561.5,271,290.5
2.33704464382229,535,551,16,-543,259.5,283.5
2.33920657226246,519,535,16,-527,251.5,275.5
2.34136850070263,506,521,15,-513.5,245.5,268
2.3435304291428,501,512,11,-506.5,245,261.5
2.34569235758296,499,506,7,-502.5,246,256.5
2.34785428602313,501,504,3,-502.5,249,253.5
2.3500162144633,504,503,-1,-503.5,252.5,251
2.35217814290347,506,504,-2,-505,254,251
2.35434007134364,511,506,-5,-508.5,258,250.5
2.35650199978381,509,505,-4,-507,256.5,250.5
2.35866392822398,509,505,-4,-507,256.5,250.5
2.36082585666414,505,502,-3,-503.5,254,249.5
2.36298778510431,501,499,-2,-500,251.5,248.5
2.36514971354448,501,496,-5,-498.5,253,245.5
2.36731164198465,499,496,-3,-497.5,251,246.5
2.36947357042482,498,493,-5,-495.5,251.5,244
2.37163549886499,496,490,-6,-493,251,242
2.37379742730516,493,489,-4,-491,248.5,242.5
2.37595935574532,491,488,-3,-489.5,247,242.5
2.37812128418549,494,489,-5,-491.5,249.5,242
2.38028321262566,496,491,-5,-493.5,250.5,243
2.38244514106583,497,492,-5,-494.5,251,243.5
2.384607069506,499,494,-5,-496.5,252,244.5
2.38676899794617,500,493,-7,-496.5,253.5,243
2.38893092638634,497,491,-6,-494,251.5,242.5
2.39109285482651,495,491,-4,-493,249.5,243.5
2.39325478326667,495,493,-2,-494,248.5,245.5
2.39541671170684,497,492,-5,-494.5,251,243.5
2.39757864014701,495,492,-3,-493.5,249,244.5
2.39974056858718,497,491,-6,-494,251.5,242.5
2.40190249702735,495,491,-4,-493,249.5,243.5
2.40406442546752,495,490,-5,-492.5,250,242.5
2.40622635390769,495,490,-5,-492.5,250,242.5
2.40838828234785,500,492,-8,-496,254,242
2.41055021078802,503,496,-7,-499.5,255,244.5
2.41271213922819,503,497,-6,-500,254.5,245.5
2.41487406766836,505,498,-7,-501.5,256,245.5
2.41703599610853,506,499,-7,-502.5,256.5,246
2.4191979245487,504,499,-5,-501.5,254.5,247
2.42135985298887,502,498,-4,-500,253,247
2.42352178142903,501,496,-5,-498.5,253,245.5
2.4256837098692,499,493,-6,-496,252.5,243.5
2.42784563830937,497,492,-5,-494.5,251,243.5
2.43000756674954,497,493,-4,-495,250.5,244.5
2.43216949518971,502,496,-6,-499,254,245
2.43433142362988,507,500,-7,-503.5,257,246.5
2.43649335207005,512,503,-9,-507.5,260.5,247
2.43865528051021,515,505,-10,-510,262.5,247.5
2.44081720895038,514,506,-8,-510,261,249
2.44297913739055,515,506,-9,-510.5,262,248.5
2.44514106583072,512,506,-6,-509,259,250
2.44730299427089,511,507,-4,-509,257.5,251.5
2.44946492271106,513,507,-6,-510,259.5,250.5
2.45162685115123,515,509,-6,-512,260.5,251.5
2.4537887795914,515,508,-7,-511.5,261,250.5
2.45595070803156,513,508,-5,-510.5,259,251.5
2.45811263647173,514,508,-6,-511,260,251
2.4602745649119,513,508,-5,-510.5,259,251.5
2.46243649335207,513,508,-5,-510.5,259,251.5
2.46459842179224,515,508,-7,-511.5,261,250.5
2.46676035023241,516,509,-7,-512.5,261.5,251
2.46892227867258,517,511,-6,-514,261.5,252.5
2.47108420711274,518,512,-6,-515,262,253
2.47324613555291,519,513,-6,-516,262.5,253.5
2.47540806399308,520,514,-6,-517,263,254
2.47756999243325,519,514,-5,-516.5,262,254.5
2.47973192087342,520,515,-5,-517.5,262.5,255
2.48189384931359,519,514,-5,-516.5,262,254.5
2.48405577775376,521,515,-6,-518,263.5,254.5
2.48621770619393,523,515,-8,-519,265.5,253.5
2.48837963463409,523,517,-6,-520,264.5,255.5
2.49054156307426,525,518,-7,-521.5,266,255.5
2.49270349151443,527,520,-7,-523.5,267,256.5
2.4948654199546,527,521,-6,-524,266.5,257.5
2.49702734839477,529,523,-6,-526,267.5,258.5
2.49918927683494,534,526,-8,-530,271,259
2.50135120527511,535,527,-8,-531,271.5,259.5
2.50351313371527,536,528,-8,-532,272,260
2.50567506215544,538,530,-8,-534,273,261
2.50783699059561,537,529,-8,-533,272.5,260.5
2.50999891903578,533,529,-4,-531,268.5,262.5
2.51216084747595,536,529,-7,-532.5,271.5,261
2.51432277591612,535,531,-4,-533,269.5,263.5
2.51648470435629,536,532,-4,-534,270,264
2.51864663279645,540,534,-6,-537,273,264
2.52080856123662,542,536,-6,-539,274,265
2.52297048967679,542,536,-6,-539,274,265
2.52513241811696,546,537,-9,-541.5,277.5,264
2.52729434655713,546,538,-8,-542,277,265
2.5294562749973,544,538,-6,-541,275,266
2.53161820343747,546,539,-7,-542.5,276.5,266
2.53378013187763,548,540,-8,-544,278,266
2.5359420603178,547,541,-6,-544,276.5,267.5
2.53810398875797,549,543,-6,-546,277.5,268.5
2.54026591719814,553,545,-8,-549,280.5,268.5
2.54242784563831,552,547,-5,-549.5,278.5,271
2.54458977407848,553,547,-6,-550,279.5,270.5
2.54675170251865,551,546,-5,-548.5,278,270.5
2.54891363095882,550,545,-5,-547.5,277.5,270
2.55107555939898,548,545,-3,-546.5,275.5,271
2.55323748783915,550,545,-5,-547.5,277.5,270
2.55539941627932,553,546,-7,-549.5,280,269.5
2.55756134471949,551,548,-3,-549.5,277,272.5
2.55972327315966,552,549,-3,-550.5,277.5,273
2.56188520159983,553,549,-4,-551,278.5,272.5
2.56404713004,552,548,-4,-550,278,272
2.56620905848016,552,548,-4,-550,278,272
2.56837098692033,550,547,-3,-548.5,276.5,272
2.5705329153605,547,544,-3,-545.5,275,270.5
2.57269484380067,547,542,-5,-544.5,276,268.5
2.57485677224084,544,539,-5,-541.5,274.5,267
2.57701870068101,539,538,-1,-538.5,270,268.5
2.57918062912118,537,536,-1,-536.5,269,267.5
2.58134255756134,537,534,-3,-535.5,270,265.5
2.58350448600151,532,530,-2,-531,267,264
2.58566641444168,530,528,-2,-529,266,263
2.58782834288185,528,527,-1,-527.5,264.5,263
2.58999027132202,524,523,-1,-523.5,262.5,261
2.59215219976219,521,520,-1,-520.5,261,259.5
2.59431412820236,519,517,-2,-518,260.5,257.5
2.59647605664252,515,514,-1,-514.5,258,256.5
2.59863798508269,515,511,-4,-513,259.5,253.5
2.60079991352286,514,511,-3,-512.5,258.5,254
2.60296184196303,512,509,-3,-510.5,257.5,253
2.6051237704032,510,507,-3,-508.5,256.5,252
2.60728569884337,510,507,-3,-508.5,256.5,252
2.60944762728354,505,504,-1,-504.5,253,251.5
2.61160955572371,504,501,-3,-502.5,253.5,249
2.61377148416387,501,498,-3,-499.5,252,247.5
2.61593341260404,497,496,-1,-496.5,249,247.5
2.61809534104421,496,492,-4,-494,250,244
2.62025726948438,492,491,-1,-491.5,246.5,245
2.62241919792455,490,488,-2,-489,246,243
2.62458112636472,490,487,-3,-488.5,246.5,242
2.62674305480489,487,486,-1,-486.5,244,242.5
2.62890498324505,487,485,-2,-486,244.5,241.5
2.63106691168522,487,485,-2,-486,244.5,241.5
2.63322884012539,487,484,-3,-485.5,245,240.5
2.63539076856556,485,484,-1,-484.5,243,241.5
2.63755269700573,484,482,-2,-483,243,240
2.6397146254459,483,479,-4,-481,243.5,237.5
2.64187655388607,478,477,-1,-477.5,239.5,238
2.64403848232624,474,473,-1,-473.5,237.5,236
2.6462004107664,473,471,-2,-472,237.5,234.5
2.64836233920657,476,472,-4,-474,240,234
2.65052426764674,479,473,-6,-476,242.5,233.5
2.65268619608691,480,475,-5,-477.5,242.5,235
2.65484812452708,482,476,-6,-479,244,235
2.65701005296725,487,480,-7,-483.5,247,236.5
2.65917198140742,488,480,-8,-484,248,236
2.66133390984758,486,480,-6,-483,246,237
2.66349583828775,484,481,-3,-482.5,243.5,239
2.66565776672792,484,479,-5,-481.5,244.5,237
2.66781969516809,483,478,-5,-480.5,244,236.5
2.66998162360826,480,477,-3,-478.5,241.5,237
2.67214355204843,479,476,-3,-477.5,241,236.5
2.6743054804886,478,474,-4,-476,241,235
2.67646740892876,479,474,-5,-476.5,242,234.5
2.67862933736893,481,476,-5,-478.5,243,235.5
2.6807912658091,486,479,-7,-482.5,246.5,236
2.68295319424927,488,481,-7,-484.5,247.5,237
2.68511512268944,490,483,-7,-486.5,248.5,238
2.68727705112961,492,485,-7,-488.5,249.5,239
2.68943897956978,493,487,-6,-490,249.5,240.5
2.69160090800994,495,486,-9,-490.5,252,238.5
2.69376283645011,492,487,-5,-489.5,248.5,241
2.69592476489028,490,485,-5,-487.5,247.5,240
2.69808669333045,490,485,-5,-487.5,247.5,240
2.70024862177062,490,483,-7,-486.5,248.5,238
2.70241055021079,487,483,-4,-485,245.5,239.5
2.70457247865096,487,482,-5,-484.5,246,238.5
2.70673440709113,487,483,-4,-485,245.5,239.5
2.70889633553129,484,481,-3,-482.5,243.5,239
2.71105826397146,484,481,-3,-482.5,243.5,239
2.71322019241163,485,481,-4,-483,244.5,238.5
2.7153821208518,486,481,-5,-483.5,245.5,238
2.71754404929197,487,482,-5,-484.5,246,238.5
2.71970597773214,489,483,-6,-486,247.5,238.5
2.72186790617231,493,485,-8,-489,250.5,238.5
2.72402983461247,493,487,-6,-490,249.5,240.5
2.72619176305264,497,488,-9,-492.5,253,239.5
2.72835369149281,497,490,-7,-493.5,252,241.5
2.73051561993298,497,491,-6,-494,251.5,242.5
2.73267754837315,496,490,-6,-493,251,242
2.73483947681332,494,489,-5,-491.5,249.5,242
2.73700140525349,493,488,-5,-490.5,249,241.5
2.73916333369365,493,488,-5,-490.5,249,241.5
2.74132526213382,489,486,-3,-487.5,246,241.5
2.74348719057399,488,485,-3,-486.5,245.5,241
2.74564911901416,489,485,-4,-487,246.5,240.5
2.74781104745433,487,484,-3,-485.5,245,240.5
2.7499729758945,490,485,-5,-487.5,247.5,240
2.75213490433467,495,488,-7,-491.5,251,240.5
2.75429683277483,497,491,-6,-494,251.5,242.5
2.756458761215,499,492,-7,-495.5,253,242.5
2.75862068965517,501,494,-7,-497.5,254,243.5
2.76078261809534,502,495,-7,-498.5,254.5,244
2.76294454653551,505,497,-8,-501,256.5,244.5
2.76510647497568,504,496,-8,-500,256,244
2.76726840341585,499,495,-4,-497,251.5,245.5
2.76943033185602,497,494,-3,-495.5,250,245.5
2.77159226029618,497,493,-4,-495,250.5,244.5
2.77375418873635,494,491,-3,-492.5,248.5,244
2.77591611717652,497,492,-5,-494.5,251,243.5
2.77807804561669,497,492,-5,-494.5,251,243.5
2.78023997405686,499,493,-6,-496,252.5,243.5
2.78240190249703,498,493,-5,-495.5,251.5,244
2.7845638309372,499,494,-5,-496.5,252,244.5
2.78672575937736,503,495,-8,-499,255.5,243.5
2.78888768781753,501,496,-5,-498.5,253,245.5
2.7910496162577,499,495,-4,-497,251.5,245.5
2.79321154469787,502,497,-5,-499.5,253.5,246
2.79537347313804,502,494,-8,-498,255,243
2.79753540157821,500,496,-4,-498,252,246
2.79969733001838,498,494,-4,-496,251,245
2.80185925845855,497,494,-3,-495.5,250,245.5
2.80402118689871,497,494,-3,-495.5,250,245.5
2.80618311533888,497,493,-4,-495,250.5,244.5
2.80834504377905,497,493,-4,-495,250.5,244.5
2.81050697221922,495,492,-3,-493.5,249,244.5
2.81266890065939,494,490,-4,-492,249,243
2.81483082909956,494,490,-4,-492,249,243
2.81699275753973,494,491,-3,-492.5,248.5,244
2.81915468597989,496,491,-5,-493.5,250.5,243
2.82131661442006,500,492,-8,-496,254,242
2.82347854286023,503,495,-8,-499,255.5,243.5
2.8256404713004,506,498,-8,-502,257,245
2.82780239974057,506,499,-7,-502.5,256.5,246
2.82996432818074,504,498,-6,-501,255,246
2.83212625662091,498,496,-2,-497,250,247
2.83428818506107,496,494,-2,-495,249,246
2.83645011350124,496,493,-3,-494.5,249.5,245
2.83861204194141,499,494,-5,-496.5,252,244.5
2.84077397038158,501,494,-7,-497.5,254,243.5
2.84293589882175,505,498,-7,-501.5,256,245.5
2.84509782726192,511,502,-9,-506.5,260,246.5
2.84725975570209,512,504,-8,-508,260,248
2.84942168414225,513,505,-8,-509,260.5,248.5
2.85158361258242,511,505,-6,-508,258.5,249.5
2.85374554102259,510,505,-5,-507.5,257.5,250
2.85590746946276,507,503,-4,-505,255.5,249.5
2.85806939790293,510,503,-7,-506.5,258.5,248
2.8602313263431,508,503,-5,-505.5,256.5,249
2.86239325478327,508,504,-4,-506,256,250
2.86455518322344,508,501,-7,-504.5,257.5,247
2.8667171116636,508,501,-7,-504.5,257.5,247
2.86887904010377,504,501,-3,-502.5,253.5,249
2.87104096854394,504,500,-4,-502,254,248
2.87320289698411,502,500,-2,-501,252,249
2.87536482542428,502,498,-4,-500,253,247
2.87752675386445,500,498,-2,-499,251,248
2.87968868230462,505,498,-7,-501.5,256,245.5
2.88185061074478,504,498,-6,-501,255,246
2.88401253918495,506,497,-9,-501.5,257.5,244
2.88617446762512,505,498,-7,-501.5,256,245.5
2.88833639606529,506,501,-5,-503.5,255.5,248
2.89049832450546,509,501,-8,-505,258.5,246.5
2.89266025294563,509,503,-6,-506,257.5,248.5
2.8948221813858,507,503,-4,-505,255.5,249.5
2.89698410982596,507,502,-5,-504.5,256,248.5
2.89914603826613,506,501,-5,-503.5,255.5,248
2.9013079667063,503,499,-4,-501,253.5,247.5
2.90346989514647,502,498,-4,-500,253,247
2.90563182358664,500,497,-3,-498.5,251.5,247
2.90779375202681,502,498,-4,-500,253,247
2.90995568046698,507,499,-8,-503,257.5,245.5
2.91211760890714,506,502,-4,-504,255,249
2.91427953734731,509,503,-6,-506,257.5,248.5
2.91644146578748,510,504,-6,-507,258,249
2.91860339422765,510,505,-5,-507.5,257.5,250
2.92076532266782,512,504,-8,-508,260,248
2.92292725110799,509,505,-4,-507,256.5,250.5
2.92508917954816,507,504,-3,-505.5,255,250.5
2.92725110798833,507,503,-4,-505,255.5,249.5
2.92941303642849,506,502,-4,-504,255,249
2.93157496486866,508,504,-4,-506,256,250
2.93373689330883,510,505,-5,-507.5,257.5,250
2.935898821749,514,507,-7,-510.5,260.5,250
2.93806075018917,518,510,-8,-514,263,251
2.94022267862934,518,509,-9,-513.5,263.5,250
2.94238460706951,517,511,-6,-514,261.5,252.5
2.94454653550967,519,511,-8,-515,263.5,251.5
2.94670846394984,520,512,-8,-516,264,252
2.94887039239001,520,514,-6,-517,263,254
2.95103232083018,522,516,-6,-519,264,255
2.95319424927035,522,517,-5,-519.5,263.5,256
2.95535617771052,524,518,-6,-521,265,256
2.95751810615069,524,517,-7,-520.5,265.5,255
2.95968003459086,525,519,-6,-522,265.5,256.5
2.96184196303102,523,518,-5,-520.5,264,256.5
2.96400389147119,523,518,-5,-520.5,264,256.5
2.96616581991136,522,517,-5,-519.5,263.5,256
2.96832774835153,521,517,-4,-519,262.5,256.5
2.9704896767917,516,513,-3,-514.5,259.5,255
2.97265160523187,515,512,-3,-513.5,259,254.5
2.97481353367204,513,511,-2,-512,257.5,254.5
2.9769754621122,515,511,-4,-513,259.5,253.5
2.97913739055237,513,510,-3,-511.5,258,253.5
2.98129931899254,514,508,-6,-511,260,251
2.98346124743271,512,509,-3,-510.5,257.5,253
2.98562317587288,514,507,-7,-510.5,260.5,250
2.98778510431305,515,508,-7,-511.5,261,250.5
2.98994703275322,516,510,-6,-513,261,252
2.99210896119338,515,509,-6,-512,260.5,251.5
2.99427088963355,508,505,-3,-506.5,255.5,251
2.99643281807372,511,505,-6,-508,258.5,249.5
2.99859474651389,511,504,-7,-507.5,259,248.5
3.00075667495406,499,500,1,-499.5,249,250.5
3.00291860339423,498,496,-2,-497,250,247
3.0050805318344,499,496,-3,-497.5,251,246.5
3.00724246027456,505,496,-9,-500.5,257,243.5
3.00940438871473,506,498,-8,-502,257,245
3.0115663171549,514,504,-10,-509,262,247
3.01372824559507,503,501,-2,-502,252.5,249.5
3.01589017403524,501,499,-2,-500,251.5,248.5
3.01805210247541,503,499,-4,-501,253.5,247.5
3.02021403091558,506,500,-6,-503,256,247
3.02237595935575,513,504,-9,-508.5,261,247.5
3.02453788779591,516,508,-8,-512,262,250
3.02669981623608,519,510,-9,-514.5,264,250.5
3.02886174467625,518,510,-8,-514,263,251
3.03102367311642,514,508,-6,-511,260,251
3.03318560155659,506,505,-1,-505.5,253.5,252
3.03534752999676,506,501,-5,-503.5,255.5,248
3.03750945843693,501,501,0,-501,250.5,250.5
3.03967138687709,510,502,-8,-506,259,247
3.04183331531726,508,503,-5,-505.5,256.5,249
3.04399524375743,506,503,-3,-504.5,254.5,250
3.0461571721976,505,502,-3,-503.5,254,249.5
3.04831910063777,502,500,-2,-501,252,249
3.05048102907794,505,500,-5,-502.5,255,247.5
3.05264295751811,505,498,-7,-501.5,256,245.5
3.05480488595827,502,498,-4,-500,253,247
3.05696681439844,498,496,-2,-497,250,247
3.05912874283861,499,495,-4,-497,251.5,245.5
3.06129067127878,503,496,-7,-499.5,255,244.5
3.06345259971895,496,494,-2,-495,249,246
3.06561452815912,500,495,-5,-497.5,252.5,245
3.06777645659929,499,495,-4,-497,251.5,245.5
3.06993838503946,501,495,-6,-498,253.5,244.5
3.07210031347962,503,497,-6,-500,254.5,245.5
3.07426224191979,510,502,-8,-506,259,247
3.07642417035996,517,507,-10,-512,263.5,248.5
3.07858609880013,528,516,-12,-522,270,252
3.0807480272403,549,532,-17,-540.5,283,257.5
3.08290995568047,566,546,-20,-556,293,263
3.08507188412064,588,566,-22,-577,305,272
3.0872338125608,612,586,-26,-599,319,280
3.08939574100097,635,605,-30,-620,332.5,287.5
3.09155766944114,650,623,-27,-636.5,338.5,298
3.09371959788131,670,636,-34,-653,352,301
3.09588152632148,671,644,-27,-657.5,349,308.5
3.09804345476165,650,640,-10,-645,330,315
3.10020538320182,629,629,0,-629,314.5,314.5
3.10236731164198,625,617,-8,-621,316.5,304.5
3.10452924008215,592,599,7,-595.5,292.5,303
3.10669116852232,567,580,13,-573.5,277,296.5
3.10885309696249,555,564,9,-559.5,273,286.5
3.11101502540266,529,547,18,-538,255.5,282.5
3.11317695384283,517,531,14,-524,251.5,272.5
3.115338882283,507,521,14,-514,246.5,267.5
3.11750081072317,502,512,10,-507,246,261
3.11966273916333,503,508,5,-505.5,249,256.5
3.1218246676035,504,507,3,-505.5,250.5,255
3.12398659604367,508,508,0,-508,254,254
3.12614852448384,511,508,-3,-509.5,257,252.5
3.12831045292401,511,508,-3,-509.5,257,252.5
3.13047238136418,521,507,-14,-514,267.5,246.5
3.13263430980435,505,504,-1,-504.5,253,251.5
3.13479623824451,503,502,-1,-502.5,252,250.5
3.13695816668468,500,497,-3,-498.5,251.5,247
3.13912009512485,496,496,0,-496,248,248
3.14128202356502,496,493,-3,-494.5,249.5,245
3.14344395200519,498,494,-4,-496,251,245
3.14560588044536,494,491,-3,-492.5,248.5,244
3.14776780888553,502,496,-6,-499,254,245
3.14992973732569,501,497,-4,-499,252.5,246.5
3.15209166576586,510,500,-10,-505,260,245
3.15425359420603,514,504,-10,-509,262,247
3.1564155226462,500,501,1,-500.5,249.5,251
3.15857745108637,514,505,-9,-509.5,261.5,248
3.16073937952654,514,507,-7,-510.5,260.5,250
3.16290130796671,515,506,-9,-510.5,262,248.5
3.16506323640687,509,504,-5,-506.5,257,249.5
3.16722516484704,510,505,-5,-507.5,257.5,250
3.16938709328721,510,505,-5,-507.5,257.5,250
3.17154902172738,513,506,-7,-509.5,260,249.5
3.17371095016755,514,508,-6,-511,260,251
3.17587287860772,514,509,-5,-511.5,259.5,252
3.17803480704789,514,508,-6,-511,260,251
3.18019673548806,518,510,-8,-514,263,251
3.18235866392822,514,510,-4,-512,259,253
3.18452059236839,519,511,-8,-515,263.5,251.5
3.18668252080856,515,511,-4,-513,259.5,253.5
3.18884444924873,518,511,-7,-514.5,262.5,252
3.1910063776889,516,511,-5,-513.5,260.5,253
3.19316830612907,517,511,-6,-514,261.5,252.5
3.19533023456924,516,512,-4,-514,260,254
3.1974921630094,515,511,-4,-513,259.5,253.5
3.19965409144957,515,510,-5,-512.5,260,252.5
3.20181601988974,513,508,-5,-510.5,259,251.5
3.20397794832991,514,510,-4,-512,259,253
3.20613987677008,515,511,-4,-513,259.5,253.5
3.20830180521025,515,511,-4,-513,259.5,253.5
3.21046373365042,518,513,-5,-515.5,261.5,254
3.21262566209058,521,516,-5,-518.5,263,255.5
3.21478759053075,526,517,-9,-521.5,267.5,254
3.21694951897092,524,518,-6,-521,265,256
3.21911144741109,523,518,-5,-520.5,264,256.5
3.22127337585126,521,516,-5,-518.5,263,255.5
3.22343530429143,520,515,-5,-517.5,262.5,255
3.2255972327316,515,514,-1,-514.5,258,256.5
3.22775916117177,519,514,-5,-516.5,262,254.5
3.22992108961193,520,515,-5,-517.5,262.5,255
3.2320830180521,521,516,-5,-518.5,263,255.5
3.23424494649227,526,518,-8,-522,267,255
3.23640687493244,527,520,-7,-523.5,267,256.5
3.23856880337261,522,518,-4,-520,263,257
3.24073073181278,522,517,-5,-519.5,263.5,256
3.24289266025295,519,514,-5,-516.5,262,254.5
3.24505458869311,513,512,-1,-512.5,257,255.5
3.24721651713328,517,510,-7,-513.5,262,251.5
3.24937844557345,516,512,-4,-514,260,254
3.25154037401362,517,512,-5,-514.5,261,253.5
3.25370230245379,520,515,-5,-517.5,262.5,255
3.25586423089396,527,518,-9,-522.5,268,254.5
3.25802615933413,529,522,-7,-525.5,268,257.5
3.26018808777429,535,526,-9,-530.5,272,258.5
3.26235001621446,535,527,-8,-531,271.5,259.5
3.26451194465463,535,527,-8,-531,271.5,259.5
3.2666738730948,533,529,-4,-531,268.5,262.5
3.26883580153497,538,530,-8,-534,273,261
3.27099772997514,536,530,-6,-533,271,262
3.27315965841531,537,529,-8,-533,272.5,260.5
3.27532158685547,538,532,-6,-535,272,263
3.27748351529564,540,532,-8,-536,274,262
3.27964544373581,539,533,-6,-536,272.5,263.5
3.28180737217598,541,535,-6,-538,273.5,264.5
3.28396930061615,542,536,-6,-539,274,265
3.28613122905632,544,536,-8,-540,276,264
3.28829315749649,542,537,-5,-539.5,273.5,266
3.29045508593666,540,536,-4,-538,272,266
3.29261701437682,542,537,-5,-539.5,273.5,266
3.29477894281699,542,537,-5,-539.5,273.5,266
3.29694087125716,542,538,-4,-540,273,267
3.29910279969733,544,540,-4,-542,274,268
3.3012647281375,549,540,-9,-544.5,279,265.5
3.30342665657767,550,543,-7,-546.5,278.5,268
3.30558858501784,551,543,-8,-547,279.5,267.5
3.307750513458,551,542,-9,-546.5,280,266.5
3.30991244189817,550,544,-6,-547,278,269
3.31207437033834,549,544,-5,-546.5,277,269.5
3.31423629877851,551,546,-5,-548.5,278,270.5
3.31639822721868,555,548,-7,-551.5,281,270.5
3.31856015565885,554,548,-6,-551,280,271
3.32072208409902,556,550,-6,-553,281,272
3.32288401253918,557,551,-6,-554,281.5,272.5
3.32504594097935,554,550,-4,-552,279,273
3.32720786941952,556,550,-6,-553,281,272
3.32936979785969,555,549,-6,-552,280.5,271.5
3.33153172629986,556,550,-6,-553,281,272
3.33369365474003,557,551,-6,-554,281.5,272.5
3.3358555831802,560,552,-8,-556,284,272
3.33801751162037,561,555,-6,-558,283.5,274.5
3.34017944006053,562,556,-6,-559,284,275
3.3423413685007,559,555,-4,-557,281.5,275.5
3.34450329694087,555,554,-1,-554.5,278,276.5
3.34666522538104,554,552,-2,-553,278,275
3.34882715382121,551,549,-2,-550,276.5,273.5
3.35098908226138,550,547,-3,-548.5,276.5,272
3.35315101070155,547,545,-2,-546,274.5,271.5
3.35531293914171,544,542,-2,-543,273,270
3.35747486758188,540,540,0,-540,270,270
3.35963679602205,540,537,-3,-538.5,271.5,267
3.36179872446222,537,534,-3,-535.5,270,265.5
3.36396065290239,533,532,-1,-532.5,267,265.5
3.36612258134256,533,529,-4,-531,268.5,262.5
3.36828450978273,532,527,-5,-529.5,268.5,261
3.37044643822289,525,524,-1,-524.5,263,261.5
3.37260836666306,522,522,0,-522,261,261
3.37477029510323,518,518,0,-518,259,259
3.3769322235434,513,514,1,-513.5,256,257.5
3.37909415198357,512,510,-2,-511,257,254
3.38125608042374,512,508,-4,-510,258,252
3.38341800886391,507,505,-2,-506,254.5,251.5
3.38557993730408,506,504,-2,-505,254,251
3.38774186574424,504,502,-2,-503,253,250
3.38990379418441,502,499,-3,-500.5,252.5,248
3.39206572262458,498,498,0,-498,249,249
3.39422765106475,497,495,-2,-496,249.5,246.5
3.39638957950492,493,493,0,-493,246.5,246.5
3.39855150794509,489,490,1,-489.5,244,245.5
3.40071343638526,490,488,-2,-489,246,243
3.40287536482542,489,486,-3,-487.5,246,241.5
3.40503729326559,490,485,-5,-487.5,247.5,240
3.40719922170576,488,485,-3,-486.5,245.5,241
3.40936115014593,488,484,-4,-486,246,240
3.4115230785861,487,481,-6,-484,246.5,237.5
3.41368500702627,485,480,-5,-482.5,245,237.5
3.41584693546644,483,479,-4,-481,243.5,237.5
3.4180088639066,484,480,-4,-482,244,238
3.42017079234677,483,480,-3,-481.5,243,238.5
3.42233272078694,484,481,-3,-482.5,243.5,239
3.42449464922711,488,480,-8,-484,248,236
3.42665657766728,488,482,-6,-485,247,238
3.42881850610745,488,482,-6,-485,247,238
3.43098043454762,484,480,-4,-482,244,238
3.43314236298778,485,481,-4,-483,244.5,238.5
3.43530429142795,487,480,-7,-483.5,247,236.5
3.43746621986812,486,482,-4,-484,245,239
3.43962814830829,490,484,-6,-487,248,239
3.44179007674846,488,483,-5,-485.5,246.5,239
3.44395200518863,490,484,-6,-487,248,239
3.4461139336288,492,486,-6,-489,249,240
3.44827586206897,493,485,-8,-489,250.5,238.5
3.45043779050913,490,485,-5,-487.5,247.5,240
3.4525997189493,490,484,-6,-487,248,239
3.45476164738947,487,484,-3,-485.5,245,240.5
3.45692357582964,486,481,-5,-483.5,245.5,238
3.45908550426981,485,481,-4,-483,244.5,238.5
3.46124743270998,485,481,-4,-483,244.5,238.5
3.46340936115015,487,482,-5,-484.5,246,238.5
3.46557128959031,489,483,-6,-486,247.5,238.5
3.46773321803048,493,487,-6,-490,249.5,240.5
3.46989514647065,496,488,-8,-492,252,240
3.47205707491082,496,489,-7,-492.5,251.5,241
3.47421900335099,496,490,-6,-493,251,242
3.47638093179116,492,489,-3,-490.5,247.5,243
3.47854286023133,494,489,-5,-491.5,249.5,242
3.4807047886715,491,488,-3,-489.5,247,242.5
3.48286671711166,491,486,-5,-488.5,248,240.5
3.48502864555183,488,487,-1,-487.5,244.5,243
3.487190573992,492,487,-5,-489.5,248.5,241
3.48935250243217,494,487,-7,-490.5,250.5,240
3.49151443087234,494,489,-5,-491.5,249.5,242
3.49367635931251,499,491,-8,-495,253.5,241.5
3.49583828775268,500,491,-9,-495.5,254.5,241
3.49800021619284,500,492,-8,-496,254,242
3.50016214463301,500,494,-6,-497,253,244
3.50232407307318,505,496,-9,-500.5,257,243.5
3.50448600151335,504,497,-7,-500.5,255.5,245
3.50664792995352,503,496,-7,-499.5,255,244.5
3.50880985839369,501,495,-6,-498,253.5,244.5
3.51097178683386,496,493,-3,-494.5,249.5,245
3.51313371527402,494,492,-2,-493,248,245
3.51529564371419,495,492,-3,-493.5,249,244.5
3.51745757215436,496,492,-4,-494,250,244
3.51961950059453,502,496,-6,-499,254,245
3.5217814290347,504,497,-7,-500.5,255.5,245
3.52394335747487,502,497,-5,-499.5,253.5,246
3.52610528591504,501,496,-5,-498.5,253,245.5
3.5282672143552,500,494,-6,-497,253,244
3.53042914279537,497,493,-4,-495,250.5,244.5
3.53259107123554,499,494,-5,-496.5,252,244.5
3.53475299967571,502,495,-7,-498.5,254.5,244
3.53691492811588,504,496,-8,-500,256,244
3.53907685655605,505,498,-7,-501.5,256,245.5
3.54123878499622,502,498,-4,-500,253,247
3.54340071343639,505,499,-6,-502,255.5,246.5
3.54556264187655,507,500,-7,-503.5,257,246.5
3.54772457031672,507,500,-7,-503.5,257,246.5
3.54988649875689,509,502,-7,-505.5,258,247.5
3.55204842719706,506,501,-5,-503.5,255.5,248
3.55421035563723,504,500,-4,-502,254,248
3.5563722840774,502,499,-3,-500.5,252.5,248
3.55853421251757,503,498,-5,-500.5,254,246.5
3.56069614095773,504,498,-6,-501,255,246
3.5628580693979,504,498,-6,-501,255,246
3.56501999783807,504,499,-5,-501.5,254.5,247
3.56718192627824,504,499,-5,-501.5,254.5,247
3.56934385471841,505,500,-5,-502.5,255,247.5
3.57150578315858,506,500,-6,-503,256,247
3.57366771159875,508,501,-7,-504.5,257.5,247
3.57582964003891,509,500,-9,-504.5,259,245.5
3.57799156847908,509,503,-6,-506,257.5,248.5
3.58015349691925,510,504,-6,-507,258,249
3.58231542535942,514,504,-10,-509,262,247
3.58447735379959,513,506,-7,-509.5,260,249.5
3.58663928223976,511,505,-6,-508,258.5,249.5
3.58880121067993,512,505,-7,-508.5,259.5,249
3.59096313912009,511,505,-6,-508,258.5,249.5
3.59312506756026,510,504,-6,-507,258,249
3.59528699600043,510,505,-5,-507.5,257.5,250
3.5974489244406,508,504,-4,-506,256,250
3.59961085288077,509,504,-5,-506.5,257,249.5
3.60177278132094,510,504,-6,-507,258,249
3.60393470976111,510,505,-5,-507.5,257.5,250
3.60609663820128,510,504,-6,-507,258,249
3.60825856664144,514,505,-9,-509.5,261.5,248
3.61042049508161,515,508,-7,-511.5,261,250.5
3.61258242352178,517,509,-8,-513,262.5,250.5
3.61474435196195,515,511,-4,-513,259.5,253.5
3.61690628040212,517,510,-7,-513.5,262,251.5
3.61906820884229,515,510,-5,-512.5,260,252.5
3.62123013728246,519,512,-7,-515.5,263,252.5
3.62339206572262,520,514,-6,-517,263,254
3.62555399416279,523,515,-8,-519,265.5,253.5
3.62771592260296,523,516,-7,-519.5,265,254.5
3.62987785104313,523,517,-6,-520,264.5,255.5
3.6320397794833,520,516,-4,-518,262,256
3.63420170792347,519,515,-4,-517,261.5,255.5
3.63636363636364,518,514,-4,-516,261,255
3.63852556480381,516,511,-5,-513.5,260.5,253
3.64068749324397,515,511,-4,-513,259.5,253.5
3.64284942168414,518,512,-6,-515,262,253
3.64501135012431,519,512,-7,-515.5,263,252.5
3.64717327856448,520,515,-5,-517.5,262.5,255
3.64933520700465,523,517,-6,-520,264.5,255.5
3.65149713544482,521,516,-5,-518.5,263,255.5
3.65365906388499,523,517,-6,-520,264.5,255.5
3.65582099232515,527,520,-7,-523.5,267,256.5
3.65798292076532,526,519,-7,-522.5,266.5,256
3.66014484920549,525,519,-6,-522,265.5,256.5
3.66230677764566,527,521,-6,-524,266.5,257.5
3.66446870608583,527,520,-7,-523.5,267,256.5
3.666630634526,525,520,-5,-522.5,265,257.5
3.66879256296617,527,521,-6,-524,266.5,257.5
3.67095449140633,526,521,-5,-523.5,265.5,258
3.6731164198465,529,521,-8,-525,268.5,256.5
3.67527834828667,532,523,-9,-527.5,270.5,257
3.67744027672684,534,526,-8,-530,271,259
3.67960220516701,537,529,-8,-533,272.5,260.5
3.68176413360718,539,531,-8,-535,273.5,261.5
3.68392606204735,539,532,-7,-535.5,273,262.5
3.68608799048751,539,532,-7,-535.5,273,262.5
3.68824991892768,540,532,-8,-536,274,262
3.69041184736785,539,533,-6,-536,272.5,263.5
3.69257377580802,542,535,-7,-538.5,274.5,264
3.69473570424819,543,535,-8,-539,275.5,263.5
3.69689763268836,544,536,-8,-540,276,264
3.69905956112853,541,536,-5,-538.5,273,265.5
3.7012214895687,542,534,-8,-538,275,263
3.70338341800886,544,537,-7,-540.5,275.5,265
3.70554534644903,545,538,-7,-541.5,276,265.5
3.7077072748892,546,539,-7,-542.5,276.5,266
3.70986920332937,546,540,-6,-543,276,267
3.71203113176954,549,541,-8,-545,278.5,266.5
3.71419306020971,547,541,-6,-544,276.5,267.5
3.71635498864988,547,542,-5,-544.5,276,268.5
3.71851691709004,551,544,-7,-547.5,279,268.5
3.72067884553021,553,546,-7,-549.5,280,269.5
3.72284077397038,557,549,-8,-553,282.5,270.5
3.72500270241055,558,550,-8,-554,283,271
3.72716463085072,558,552,-6,-555,282,273
3.72932655929089,558,553,-5,-555.5,281.5,274
3.73148848773106,560,554,-6,-557,283,274
3.73365041617122,559,553,-6,-556,282.5,273.5
3.73581234461139,555,552,-3,-553.5,279,274.5
3.73797427305156,553,551,-2,-552,277.5,274.5
3.74013620149173,552,548,-4,-550,278,272
3.7422981299319,549,547,-2,-548,275.5,272.5
3.74446005837207,551,545,-6,-548,278.5,269.5
3.74662198681224,550,546,-4,-548,277,271
3.7487839152524,547,544,-3,-545.5,275,270.5
3.75094584369257,545,542,-3,-543.5,274,269.5
3.75310777213274,543,541,-2,-542,272.5,269.5
3.75526970057291,543,540,-3,-541.5,273,268.5
3.75743162901308,542,539,-3,-540.5,272.5,268
3.75959355745325,541,538,-3,-539.5,272,267.5
3.76175548589342,543,539,-4,-541,273.5,267.5
3.76391741433359,544,538,-6,-541,275,266
3.76607934277375,541,538,-3,-539.5,272,267.5
3.76824127121392,541,537,-4,-539,272.5,266.5
3.77040319965409,541,537,-4,-539,272.5,266.5
3.77256512809426,543,537,-6,-540,274.5,265.5
3.77472705653443,542,534,-8,-538,275,263
3.7768889849746,539,534,-5,-536.5,272,264.5
3.77905091341477,539,535,-4,-537,271.5,265.5
3.78121284185493,540,534,-6,-537,273,264
3.7833747702951,541,536,-5,-538.5,273,265.5
3.78553669873527,543,536,-7,-539.5,275,264.5
3.78769862717544,546,537,-9,-541.5,277.5,264
3.78986055561561,545,538,-7,-541.5,276,265.5
3.79202248405578,546,540,-6,-543,276,267
3.79418441249595,543,538,-5,-540.5,274,266.5
3.79634634093612,541,538,-3,-539.5,272,267.5
3.79850826937628,543,538,-5,-540.5,274,266.5
3.80067019781645,548,538,-10,-543,279,264
3.80283212625662,550,541,-9,-545.5,279.5,266
3.80499405469679,549,542,-7,-545.5,278,267.5
3.80715598313696,548,542,-6,-545,277,268
3.80931791157713,548,543,-5,-545.5,276.5,269
3.8114798400173,548,543,-5,-545.5,276.5,269
3.81364176845746,549,544,-5,-546.5,277,269.5
3.81580369689763,547,541,-6,-544,276.5,267.5
3.8179656253378,545,541,-4,-543,274.5,268.5
3.82012755377797,548,542,-6,-545,277,268
3.82228948221814,550,543,-7,-546.5,278.5,268
3.82445141065831,550,543,-7,-546.5,278.5,268
3.82661333909848,548,543,-5,-545.5,276.5,269
3.82877526753864,551,543,-8,-547,279.5,267.5
3.83093719597881,550,545,-5,-547.5,277.5,270
3.83309912441898,554,546,-8,-550,281,269
3.83526105285915,556,548,-8,-552,282,270
3.83742298129932,559,549,-10,-554,284.5,269.5
3.83958490973949,557,549,-8,-553,282.5,270.5
3.84174683817966,557,551,-6,-554,281.5,272.5
3.84390876661982,567,557,-10,-562,288.5,273.5
3.84607069505999,580,566,-14,-573,297,276
3.84823262350016,602,582,-20,-592,311,281
3.85039455194033,626,602,-24,-614,325,289
3.8525564803805,656,624,-32,-640,344,296
3.85471840882067,681,647,-34,-664,357.5,306.5
3.85688033726084,702,668,-34,-685,368,317
3.85904226570101,725,688,-37,-706.5,381,325.5
3.86120419414117,737,703,-34,-720,385.5,334.5
3.86336612258134,738,712,-26,-725,382,343
3.86552805102151,732,713,-19,-722.5,375.5,347
3.86768997946168,716,706,-10,-711,363,348
3.86985190790185,693,692,-1,-692.5,347,345.5
3.87201383634202,669,677,8,-673,330.5,342.5
3.87417576478219,646,659,13,-652.5,316.5,336
3.87633769322235,620,638,18,-629,301,328
3.87849962166252,596,617,21,-606.5,287.5,319
3.88066155010269,574,596,22,-585,276,309
3.88282347854286,560,580,20,-570,270,300
3.88498540698303,558,571,13,-564.5,272.5,292
3.8871473354232,558,565,7,-561.5,275.5,286
3.88930926386337,559,562,3,-560.5,278,282.5
3.89147119230353,565,563,-2,-564,283.5,280.5
3.8936331207437,572,566,-6,-569,289,280
3.89579504918387,572,567,-5,-569.5,288.5,281
3.89795697762404,572,566,-6,-569,289,280
3.90011890606421,569,565,-4,-567,286.5,280.5
3.90228083450438,567,564,-3,-565.5,285,280.5
3.90444276294455,565,562,-3,-563.5,284,279.5
3.90660469138472,566,562,-4,-564,285,279
3.90876661982488,567,562,-5,-564.5,286,278.5
3.91092854826505,565,560,-5,-562.5,285,277.5
3.91309047670522,563,559,-4,-561,283.5,277.5
3.91525240514539,563,559,-4,-561,283.5,277.5
3.91741433358556,570,560,-10,-565,290,275
3.91957626202573,571,562,-9,-566.5,290,276.5
3.9217381904659,568,563,-5,-565.5,286.5,279
3.92390011890606,570,563,-7,-566.5,288.5,278
3.92606204734623,569,564,-5,-566.5,287,279.5
3.9282239757864,571,565,-6,-568,288.5,279.5
3.93038590422657,570,564,-6,-567,288,279
3.93254783266674,571,565,-6,-568,288.5,279.5
3.93470976110691,574,567,-7,-570.5,290.5,280
3.93687168954708,578,569,-9,-573.5,293.5,280
3.93903361798724,580,571,-9,-575.5,294.5,281
3.94119554642741,581,573,-8,-577,294.5,282.5
3.94335747486758,579,573,-6,-576,292.5,283.5
3.94551940330775,578,573,-5,-575.5,291.5,284
3.94768133174792,577,572,-5,-574.5,291,283.5
3.94984326018809,575,571,-4,-573,289.5,283.5
3.95200518862826,577,572,-5,-574.5,291,283.5
3.95416711706842,577,571,-6,-574,291.5,282.5
3.95632904550859,577,572,-5,-574.5,291,283.5
3.95849097394876,581,574,-7,-577.5,294,283.5
3.96065290238893,581,574,-7,-577.5,294,283.5
3.9628148308291,579,574,-5,-576.5,292,284.5
3.96497675926927,581,575,-6,-578,293.5,284.5
3.96713868770944,581,575,-6,-578,293.5,284.5
3.96930061614961,579,575,-4,-577,291.5,285.5
3.97146254458977,581,575,-6,-578,293.5,284.5
3.97362447302994,582,576,-6,-579,294,285
3.97578640147011,583,577,-6,-580,294.5,285.5
3.97794832991028,581,576,-5,-578.5,293,285.5
3.98011025835045,583,576,-7,-579.5,295,284.5
3.98227218679062,581,576,-5,-578.5,293,285.5
3.98443411523079,582,577,-5,-579.5,293.5,286
3.98659604367095,579,575,-4,-577,291.5,285.5
3.98875797211112,581,576,-5,-578.5,293,285.5
3.99091990055129,581,576,-5,-578.5,293,285.5
3.99308182899146,581,576,-5,-578.5,293,285.5
3.99524375743163,584,578,-6,-581,295,286
3.9974056858718,586,579,-7,-582.5,296.5,286
3.99956761431197,589,581,-8,-585,298.5,286.5
4.00172954275213,590,583,-7,-586.5,298.5,288
4.0038914711923,594,584,-10,-589,302,287
4.00605339963247,593,586,-7,-589.5,300,289.5
4.00821532807264,594,587,-7,-590.5,300.5,290
4.01037725651281,593,587,-6,-590,299.5,290.5
4.01253918495298,595,587,-8,-591,301.5,289.5
4.01470111339315,595,588,-7,-591.5,301,290.5
4.01686304183332,594,588,-6,-591,300,291
4.01902497027348,596,589,-7,-592.5,301.5,291
4.02118689871365,597,590,-7,-593.5,302,291.5
4.02334882715382,596,591,-5,-593.5,300.5,293
4.02551075559399,597,592,-5,-594.5,301,293.5
4.02767268403416,597,592,-5,-594.5,301,293.5
4.02983461247433,601,594,-7,-597.5,304,293.5
4.0319965409145,604,595,-9,-599.5,306.5,293
4.03415846935466,609,598,-11,-603.5,310,293.5
4.03632039779483,609,601,-8,-605,308.5,296.5
4.038482326235,613,603,-10,-608,311.5,296.5
4.04064425467517,614,606,-8,-610,311,299
4.04280618311534,615,607,-8,-611,311.5,299.5
4.04496811155551,613,606,-7,-609.5,310,299.5
4.04713003999568,613,607,-6,-610,309.5,300.5
4.04929196843584,616,607,-9,-611.5,312.5,299
4.05145389687601,615,609,-6,-612,310.5,301.5
4.05361582531618,618,610,-8,-614,313,301
4.05577775375635,621,613,-8,-617,314.5,302.5
4.05793968219652,623,615,-8,-619,315.5,303.5
4.06010161063669,621,616,-5,-618.5,313,305.5
4.06226353907686,623,617,-6,-620,314.5,305.5
4.06442546751703,623,617,-6,-620,314.5,305.5
4.06658739595719,622,617,-5,-619.5,313.5,306
4.06874932439736,625,619,-6,-622,315.5,306.5
4.07091125283753,624,619,-5,-621.5,314.5,307
4.0730731812777,627,621,-6,-624,316.5,307.5
4.07523510971787,630,622,-8,-626,319,307
4.07739703815804,631,623,-8,-627,319.5,307.5
4.07955896659821,631,624,-7,-627.5,319,308.5
4.08172089503837,636,627,-9,-631.5,322.5,309
4.08388282347854,638,629,-9,-633.5,323.5,310
4.08604475191871,640,631,-9,-635.5,324.5,311
4.08820668035888,645,634,-11,-639.5,328,311.5
4.09036860879905,645,636,-9,-640.5,327,313.5
4.09253053723922,646,638,-8,-642,327,315
4.09469246567939,650,641,-9,-645.5,329.5,316
4.09685439411955,651,642,-9,-646.5,330,316.5
4.09901632255972,647,642,-5,-644.5,326,318.5
4.10117825099989,644,640,-4,-642,324,318
4.10334017944006,642,638,-4,-640,323,317
4.10550210788023,640,636,-4,-638,322,316
4.1076640363204,643,636,-7,-639.5,325,314.5
4.10982596476057,642,636,-6,-639,324,315
4.11198789320073,643,638,-5,-640.5,324,316.5
4.1141498216409,649,640,-9,-644.5,329,315.5
4.11631175008107,649,640,-9,-644.5,329,315.5
4.11847367852124,647,641,-6,-644,326.5,317.5
4.12063560696141,645,637,-8,-641,326.5,314.5
4.12279753540158,635,634,-1,-634.5,318,316.5
4.12495946384175,630,630,0,-630,315,315
4.12712139228192,626,624,-2,-625,314,311
4.12928332072208,620,621,1,-620.5,309.5,311
4.13144524916225,614,615,1,-614.5,306.5,308
4.13360717760242,607,610,3,-608.5,302,306.5
4.13576910604259,604,605,1,-604.5,301.5,303
4.13793103448276,600,601,1,-600.5,299.5,301
4.14009296292293,596,598,2,-597,297,300
4.1422548913631,594,595,1,-594.5,296.5,298
4.14441681980326,598,595,-3,-596.5,300.5,296
4.14657874824343,597,594,-3,-595.5,300,295.5
4.1487406766836,595,592,-3,-593.5,299,294.5
4.15090260512377,591,588,-3,-589.5,297,292.5
4.15306453356394,588,586,-2,-587,295,292
4.15522646200411,587,585,-2,-586,294.5,291.5
4.15738839044428,585,582,-3,-583.5,294,289.5
4.15955031888444,582,580,-2,-581,292,289
4.16171224732461,578,577,-1,-577.5,289.5,288
4.16387417576478,578,574,-4,-576,291,285
4.16603610420495,574,571,-3,-572.5,288.5,284
4.16819803264512,571,570,-1,-570.5,286,284.5
4.17035996108529,570,568,-2,-569,286,283
4.17252188952546,570,567,-3,-568.5,286.5,282
4.17468381796562,571,567,-4,-569,287.5,281.5
4.17684574640579,572,568,-4,-570,288,282
4.17900767484596,572,568,-4,-570,288,282
4.18116960328613,570,566,-4,-568,287,281
4.1833315317263,568,565,-3,-566.5,285.5,281
4.18549346016647,567,564,-3,-565.5,285,280.5
4.18765538860664,567,564,-3,-565.5,285,280.5
4.18981731704681,567,563,-4,-565,285.5,279.5
4.19197924548697,568,564,-4,-566,286,280
4.19414117392714,570,563,-7,-566.5,288.5,278
4.19630310236731,573,565,-8,-569,290.5,278.5
4.19846503080748,571,565,-6,-568,288.5,279.5
4.20062695924765,570,565,-5,-567.5,287.5,280
4.20278888768782,572,566,-6,-569,289,280
4.20495081612799,571,565,-6,-568,288.5,279.5
4.20711274456816,571,565,-6,-568,288.5,279.5
4.20927467300832,573,567,-6,-570,289.5,280.5
4.21143660144849,577,570,-7,-573.5,292,281.5
4.21359852988866,577,571,-6,-574,291.5,282.5
4.21576045832883,575,570,-5,-572.5,290,282.5
4.217922386769,571,567,-4,-569,287.5,281.5
4.22008431520917,571,567,-4,-569,287.5,281.5
4.22224624364934,572,566,-6,-569,289,280
4.2244081720895,572,566,-6,-569,289,280
4.22657010052967,572,567,-5,-569.5,288.5,281
4.22873202896984,572,568,-4,-570,288,282
4.23089395741001,577,570,-7,-573.5,292,281.5
4.23305588585018,579,572,-7,-575.5,293,282.5
4.23521781429035,582,575,-7,-578.5,294.5,284
4.23737974273052,579,574,-5,-576.5,292,284.5
4.23954167117068,580,574,-6,-577,293,284
4.24170359961085,577,572,-5,-574.5,291,283.5
4.24386552805102,575,570,-5,-572.5,290,282.5
4.24602745649119,571,568,-3,-569.5,287,282.5
4.24818938493136,574,568,-6,-571,290,281
4.25035131337153,579,572,-7,-575.5,293,282.5
4.2525132418117,582,575,-7,-578.5,294.5,284
4.25467517025186,586,577,-9,-581.5,297.5,284
4.25683709869203,587,579,-8,-583,297.5,285.5
4.2589990271322,586,579,-7,-582.5,296.5,286
4.26116095557237,583,577,-6,-580,294.5,285.5
4.26332288401254,583,577,-6,-580,294.5,285.5
4.26548481245271,583,578,-5,-580.5,294,286.5
4.26764674089288,584,579,-5,-581.5,294.5,287
4.26980866933305,585,579,-6,-582,295.5,286.5
4.27197059777321,586,580,-6,-583,296,287
4.27413252621338,585,580,-5,-582.5,295,287.5
4.27629445465355,586,580,-6,-583,296,287
4.27845638309372,588,580,-8,-584,298,286
4.28061831153389,591,582,-9,-586.5,300,286.5
4.28278023997406,594,584,-10,-589,302,287
4.28494216841423,593,587,-6,-590,299.5,290.5
4.28710409685439,592,587,-5,-589.5,298.5,291
4.28926602529456,592,587,-5,-589.5,298.5,291
4.29142795373473,589,586,-3,-587.5,296,291.5
4.2935898821749,587,585,-2,-586,294.5,291.5
4.29575181061507,587,583,-4,-585,295.5,289.5
4.29791373905524,584,581,-3,-582.5,293.5,289
4.30007566749541,584,581,-3,-582.5,293.5,289
4.30223759593557,586,580,-6,-583,296,287
4.30439952437574,589,583,-6,-586,297.5,288.5
4.30656145281591,594,584,-10,-589,302,287
4.30872338125608,595,587,-8,-591,301.5,289.5
4.31088530969625,599,589,-10,-594,304.5,289.5
4.31304723813642,599,590,-9,-594.5,304,290.5
4.31520916657659,600,593,-7,-596.5,303.5,293
4.31737109501675,601,594,-7,-597.5,304,293.5
4.31953302345692,601,594,-7,-597.5,304,293.5
4.32169495189709,596,592,-4,-594,300,294
4.32385688033726,599,593,-6,-596,302.5,293.5
4.32601880877743,596,592,-4,-594,300,294
4.3281807372176,594,591,-3,-592.5,298.5,294
4.33034266565777,597,590,-7,-593.5,302,291.5
4.33250459409794,596,591,-5,-593.5,300.5,293
4.3346665225381,599,592,-7,-595.5,303,292.5
4.33682845097827,600,593,-7,-596.5,303.5,293
4.33899037941844,602,594,-8,-598,305,293
4.34115230785861,598,594,-4,-596,301,295
4.34331423629878,599,593,-6,-596,302.5,293.5
4.34547616473895,598,593,-5,-595.5,301.5,294
4.34763809317912,601,595,-6,-598,303.5,294.5
4.34980002161928,600,595,-5,-597.5,302.5,295
4.35196195005945,602,596,-6,-599,304,295
4.35412387849962,601,596,-5,-598.5,303,295.5
4.35628580693979,600,595,-5,-597.5,302.5,295
4.35844773537996,602,596,-6,-599,304,295
4.36060966382013,601,596,-5,-598.5,303,295.5
4.3627715922603,600,596,-4,-598,302,296
4.36493352070046,601,596,-5,-598.5,303,295.5
4.36709544914063,601,595,-6,-598,303.5,294.5
4.3692573775808,602,594,-8,-598,305,293
4.37141930602097,602,596,-6,-599,304,295
4.37358123446114,600,595,-5,-597.5,302.5,295
4.37574316290131,601,595,-6,-598,303.5,294.5
4.37790509134148,599,595,-4,-597,301.5,295.5
4.38006701978165,599,596,-3,-597.5,301,296.5
4.38222894822181,599,595,-4,-597,301.5,295.5
4.38439087666198,597,594,-3,-595.5,300,295.5
4.38655280510215,600,594,-6,-597,303,294
4.38871473354232,599,594,-5,-596.5,302,294.5
4.39087666198249,598,593,-5,-595.5,301.5,294
4.39303859042266,598,594,-4,-596,301,295
4.39520051886283,597,593,-4,-595,300.5,294.5
4.39736244730299,598,593,-5,-595.5,301.5,294
4.39952437574316,598,591,-7,-594.5,302.5,292
4.40168630418333,597,592,-5,-594.5,301,293.5
4.4038482326235,598,593,-5,-595.5,301.5,294
4.40601016106367,600,593,-7,-596.5,303.5,293
4.40817208950384,602,595,-7,-598.5,304.5,294
4.41033401794401,604,596,-8,-600,306,294
4.41249594638417,607,599,-8,-603,307.5,295.5
4.41465787482434,607,600,-7,-603.5,307,296.5
4.41681980326451,607,601,-6,-604,306.5,297.5
4.41898173170468,607,601,-6,-604,306.5,297.5
4.42114366014485,610,603,-7,-606.5,308.5,298
4.42330558858502,608,602,-6,-605,307,298
4.42546751702519,610,603,-7,-606.5,308.5,298
4.42762944546535,609,603,-6,-606,307.5,298.5
4.42979137390552,612,604,-8,-608,310,298
4.43195330234569,610,605,-5,-607.5,307.5,300
4.43411523078586,613,605,-8,-609,310.5,298.5
4.43627715922603,614,607,-7,-610.5,310.5,300
4.4384390876662,614,607,-7,-610.5,310.5,300
4.44060101610637,614,608,-6,-611,310,301
4.44276294454654,614,608,-6,-611,310,301
4.4449248729867,618,609,-9,-613.5,313.5,300
4.44708680142687,620,612,-8,-616,314,302
4.44924872986704,622,614,-8,-618,315,303
4.45141065830721,622,614,-8,-618,315,303
4.45357258674738,623,616,-7,-619.5,315,304.5
4.45573451518755,623,616,-7,-619.5,315,304.5
4.45789644362772,623,616,-7,-619.5,315,304.5
4.46005837206788,622,615,-7,-618.5,314.5,304
4.46222030050805,620,615,-5,-617.5,312.5,305
4.46438222894822,622,616,-6,-619,314,305
4.46654415738839,621,617,-4,-619,312.5,306.5
4.46870608582856,623,615,-8,-619,315.5,303.5
4.47086801426873,619,614,-5,-616.5,312,304.5
4.4730299427089,618,612,-6,-615,312,303
4.47519187114906,615,611,-4,-613,309.5,303.5
4.47735379958923,616,610,-6,-613,311,302
4.4795157280294,616,611,-5,-613.5,310.5,303
4.48167765646957,617,612,-5,-614.5,311,303.5
4.48383958490974,617,612,-5,-614.5,311,303.5
4.48600151334991,616,611,-5,-613.5,310.5,303
4.48816344179008,616,612,-4,-614,310,304
4.49032537023025,613,608,-5,-610.5,309,301.5
4.49248729867041,611,608,-3,-609.5,307,302.5
4.49464922711058,609,606,-3,-607.5,306,301.5
4.49681115555075,610,606,-4,-608,307,301
4.49897308399092,612,607,-5,-609.5,308.5,301
4.50113501243109,611,606,-5,-608.5,308,300.5
4.50329694087126,609,604,-5,-606.5,307,299.5
4.50545886931143,612,604,-8,-608,310,298
4.50762079775159,610,602,-8,-606,309,297
4.50978272619176,609,602,-7,-605.5,308,297.5
4.51194465463193,606,602,-4,-604,305,299
4.5141065830721,604,600,-4,-602,304,298
4.51626851151227,603,600,-3,-601.5,303,298.5
4.51843043995244,604,600,-4,-602,304,298
4.52059236839261,605,600,-5,-602.5,305,297.5
4.52275429683277,612,605,-7,-608.5,309.5,299
4.52491622527294,618,607,-11,-612.5,314.5,298
4.52707815371311,622,610,-12,-616,317,299
4.52924008215328,621,612,-9,-616.5,315,301.5
4.53140201059345,620,613,-7,-616.5,313.5,303
4.53356393903362,619,612,-7,-615.5,313,302.5
4.53572586747379,613,610,-3,-611.5,308,303.5
4.53788779591395,614,607,-7,-610.5,310.5,300
4.54004972435412,612,607,-5,-609.5,308.5,301
4.54221165279429,614,607,-7,-610.5,310.5,300
4.54437358123446,616,608,-8,-612,312,300
4.54653550967463,615,610,-5,-612.5,310,302.5
4.5486974381148,616,610,-6,-613,311,302
4.55085936655497,616,610,-6,-613,311,302
4.55302129499514,614,609,-5,-611.5,309.5,302
4.5551832234353,614,609,-5,-611.5,309.5,302
4.55734515187547,615,609,-6,-612,310.5,301.5
4.55950708031564,616,608,-8,-612,312,300
4.56166900875581,619,609,-10,-614,314.5,299.5
4.56383093719598,617,610,-7,-613.5,312,301.5
4.56599286563615,614,609,-5,-611.5,309.5,302
4.56815479407632,619,612,-7,-615.5,313,302.5
4.57031672251648,622,614,-8,-618,315,303
4.57247865095665,633,622,-11,-627.5,322,305.5
4.57464057939682,654,636,-18,-645,336,309
4.57680250783699,680,655,-25,-667.5,352.5,315
4.57896443627716,710,680,-30,-695,370,325
4.58112636471733,744,705,-39,-724.5,391.5,333
4.5832882931575,771,731,-40,-751,405.5,345.5
4.58545022159767,799,756,-43,-777.5,421,356.5
4.58761215003783,822,782,-40,-802,431,371
4.589774078478,837,800,-37,-818.5,437,381.5
4.59193600691817,839,809,-30,-824,434.5,389.5
4.59409793535834,831,808,-23,-819.5,427,392.5
4.59625986379851,810,801,-9,-805.5,409.5,396
4.59842179223868,781,784,3,-782.5,389,393.5
4.60058372067885,748,763,15,-755.5,366.5,389
4.60274564911901,716,739,23,-727.5,346.5,381
4.60490757755918,689,713,24,-701,332.5,368.5
4.60706950599935,663,690,27,-676.5,318,358.5
4.60923143443952,644,668,24,-656,310,346
4.61139336287969,634,653,19,-643.5,307.5,336
4.61355529131986,626,643,17,-634.5,304.5,330
4.61571721976003,628,639,11,-633.5,308.5,325
4.61787914820019,633,636,3,-634.5,315,319.5
4.62004107664036,637,636,-1,-636.5,319,317.5
4.62220300508053,644,638,-6,-641,325,316
4.6243649335207,645,640,-5,-642.5,325,317.5
4.62652686196087,645,640,-5,-642.5,325,317.5
4.62868879040104,643,639,-4,-641,323.5,317.5
4.63085071884121,641,637,-4,-639,322.5,316.5
4.63301264728138,640,633,-7,-636.5,323.5,313
4.63517457572154,636,633,-3,-634.5,319.5,315
4.63733650416171,635,632,-3,-633.5,319,314.5
4.63949843260188,636,632,-4,-634,320,314
4.64166036104205,636,631,-5,-633.5,320.5,313
4.64382228948222,636,629,-7,-632.5,321.5,311
4.64598421792239,634,630,-4,-632,319,313
4.64814614636256,631,628,-3,-629.5,317,312.5
4.65030807480272,634,628,-6,-631,320,311
4.65247000324289,630,625,-5,-627.5,317.5,310
4.65463193168306,629,625,-4,-627,316.5,310.5
4.65679386012323,629,624,-5,-626.5,317,309.5
4.6589557885634,632,624,-8,-628,320,308
4.66111771700357,635,627,-8,-631,321.5,309.5
4.66327964544374,635,628,-7,-631.5,321,310.5
4.6654415738839,639,631,-8,-635,323.5,311.5
4.66760350232407,643,632,-11,-637.5,327,310.5
4.66976543076424,643,635,-8,-639,325.5,313.5
4.67192735920441,645,636,-9,-640.5,327,313.5
4.67408928764458,645,637,-8,-641,326.5,314.5
4.67625121608475,644,637,-7,-640.5,325.5,315
4.67841314452492,643,638,-5,-640.5,324,316.5
4.68057507296508,639,636,-3,-637.5,321,316.5
4.68273700140525,639,635,-4,-637,321.5,315.5
4.68489892984542,638,632,-6,-635,322,313
4.68706085828559,637,632,-5,-634.5,321,313.5
4.68922278672576,638,633,-5,-635.5,321.5,314
4.69138471516593,640,634,-6,-637,323,314
4.6935466436061,645,636,-9,-640.5,327,313.5
4.69570857204627,649,639,-10,-644,329.5,314.5
4.69787050048643,657,644,-13,-650.5,335,315.5
4.7000324289266,657,645,-12,-651,334.5,316.5
4.70219435736677,658,648,-10,-653,334,319
4.70435628580694,657,649,-8,-653,332.5,320.5
4.70651821424711,659,649,-10,-654,334.5,319.5
4.70868014268728,657,649,-8,-653,332.5,320.5
4.71084207112745,653,649,-4,-651,328.5,322.5
4.71300399956761,652,649,-3,-650.5,327.5,323
4.71516592800778,652,648,-4,-650,328,322
4.71732785644795,653,648,-5,-650.5,329,321.5
4.71948978488812,652,647,-5,-649.5,328.5,321
4.72165171332829,654,649,-5,-651.5,329.5,322
4.72381364176846,654,649,-5,-651.5,329.5,322
4.72597557020863,657,650,-7,-653.5,332,321.5
4.72813749864879,659,652,-7,-655.5,333,322.5
4.73029942708896,658,652,-6,-655,332,323
4.73246135552913,660,654,-6,-657,333,324
4.7346232839693,664,656,-8,-660,336,324
4.73678521240947,667,659,-8,-663,337.5,325.5
4.73894714084964,671,661,-10,-666,340.5,325.5
4.74110906928981,669,661,-8,-665,338.5,326.5
4.74327099772997,672,663,-9,-667.5,340.5,327
4.74543292617014,671,664,-7,-667.5,339,328.5
4.74759485461031,674,666,-8,-670,341,329
4.74975678305048,677,668,-9,-672.5,343,329.5
4.75191871149065,678,668,-10,-673,344,329
4.75408063993082,678,671,-7,-674.5,342.5,332
4.75624256837099,679,672,-7,-675.5,343,332.5
4.75840449681116,681,674,-7,-677.5,344,333.5
4.76056642525132,679,674,-5,-676.5,342,334.5
4.76272835369149,678,673,-5,-675.5,341.5,334
4.76489028213166,681,675,-6,-678,343.5,334.5
4.76705221057183,682,675,-7,-678.5,344.5,334
4.769214139012,679,674,-5,-676.5,342,334.5
4.77137606745217,681,675,-6,-678,343.5,334.5
4.77353799589234,682,676,-6,-679,344,335
4.7756999243325,683,676,-7,-679.5,345,334.5
4.77786185277267,689,681,-8,-685,348.5,336.5
4.78002378121284,695,686,-9,-690.5,352,338.5
4.78218570965301,701,688,-13,-694.5,357,337.5
4.78434763809318,703,691,-12,-697,357.5,339.5
4.78650956653335,706,694,-12,-700,359,341
4.78867149497352,705,695,-10,-700,357.5,342.5
4.79083342341368,707,696,-11,-701.5,359,342.5
4.79299535185385,708,697,-11,-702.5,359.5,343
4.79515728029402,706,698,-8,-702,357,345
4.79731920873419,708,700,-8,-704,358,346
4.79948113717436,709,702,-7,-705.5,358,347.5
4.80164306561453,708,702,-6,-705,357,348
4.8038049940547,708,702,-6,-705,357,348
4.80596692249487,713,705,-8,-709,360.5,348.5
4.80812885093503,713,705,-8,-709,360.5,348.5
4.8102907793752,721,710,-11,-715.5,366,349.5
4.81245270781537,722,713,-9,-717.5,365.5,352
4.81461463625554,725,716,-9,-720.5,367,353.5
4.81677656469571,726,715,-11,-720.5,368.5,352
4.81893849313588,721,715,-6,-718,363.5,354.5
4.82110042157605,719,716,-3,-717.5,361,356.5
4.82326235001621,717,712,-5,-714.5,361,353.5
4.82542427845638,714,710,-4,-712,359,353
4.82758620689655,713,709,-4,-711,358.5,352.5
4.82974813533672,716,709,-7,-712.5,361.5,351
4.83191006377689,720,711,-9,-715.5,364.5,351
4.83407199221706,723,714,-9,-718.5,366,352.5
4.83623392065723,724,715,-9,-719.5,366.5,353
4.83839584909739,721,714,-7,-717.5,364,353.5
4.84055777753756,719,715,-4,-717,361.5,355.5
4.84271970597773,716,714,-2,-715,359,356
4.8448816344179,714,712,-2,-713,358,355
4.84704356285807,712,709,-3,-710.5,357.5,353
4.84920549129824,707,705,-2,-706,354.5,351.5
4.85136741973841,702,702,0,-702,351,351
4.85352934817857,702,698,-4,-700,353,347
4.85569127661874,696,694,-2,-695,349,346
4.85785320505891,691,691,0,-691,345.5,345.5
4.86001513349908,684,686,2,-685,341,344
4.86217706193925,679,681,2,-680,338.5,341.5
4.86433899037942,676,676,0,-676,338,338
4.86650091881959,674,675,1,-674.5,336.5,338
4.86866284725976,671,671,0,-671,335.5,335.5
4.87082477569992,670,669,-1,-669.5,335.5,334
4.87298670414009,669,668,-1,-668.5,335,333.5
4.87514863258026,667,665,-2,-666,334.5,331.5
4.87731056102043,661,660,-1,-660.5,331,329.5
4.8794724894606,658,658,0,-658,329,329
4.88163441790077,654,654,0,-654,327,327
4.88379634634094,652,650,-2,-651,327,324
4.88595827478111,650,647,-3,-648.5,326.5,322
4.88812020322127,646,644,-2,-645,324,321
4.89028213166144,643,641,-2,-642,322.5,319.5
4.89244406010161,644,640,-4,-642,324,318
4.89460598854178,641,639,-2,-640,321.5,318.5
4.89676791698195,641,637,-4,-639,322.5,316.5
4.89892984542212,637,635,-2,-636,319.5,316.5
4.90109177386229,638,633,-5,-635.5,321.5,314
4.90325370230245,639,634,-5,-636.5,322,314.5
4.90541563074262,640,634,-6,-637,323,314
4.90757755918279,645,637,-8,-641,326.5,314.5
4.90973948762296,645,638,-7,-641.5,326,315.5
4.91190141606313,650,641,-9,-645.5,329.5,316
4.9140633445033,653,643,-10,-648,331.5,316.5
4.91622527294347,657,646,-11,-651.5,334,317.5
4.91838720138363,659,647,-12,-653,335.5,317.5
4.9205491298238,657,648,-9,-652.5,333,319.5
4.92271105826397,653,648,-5,-650.5,329,321.5
4.92487298670414,654,647,-7,-650.5,330.5,320
4.92703491514431,651,645,-6,-648,328.5,319.5
4.92919684358448,650,646,-4,-648,327,321
4.93135877202465,650,645,-5,-647.5,327.5,320
4.93352070046481,648,643,-5,-645.5,326.5,319
4.93568262890498,647,643,-4,-645,325.5,319.5
4.93784455734515,650,643,-7,-646.5,328.5,318
4.94000648578532,657,648,-9,-652.5,333,319.5
4.94216841422549,658,649,-9,-653.5,333.5,320
4.94433034266566,662,652,-10,-657,336,321
4.94649227110583,662,654,-8,-658,335,323
4.948654199546,661,655,-6,-658,333.5,324.5
4.95081612798616,661,653,-8,-657,334.5,322.5
4.95297805642633,658,652,-6,-655,332,323
4.9551399848665,655,652,-3,-653.5,329,324.5
4.95730191330667,655,651,-4,-653,329.5,323.5
4.95946384174684,660,653,-7,-656.5,333.5,323
4.96162577018701,665,656,-9,-660.5,337,323.5
4.96378769862718,669,659,-10,-664,339.5,324.5
4.96594962706734,670,660,-10,-665,340,325
4.96811155550751,669,662,-7,-665.5,338,327.5
4.97027348394768,670,661,-9,-665.5,339.5,326
4.97243541238785,668,662,-6,-665,337,328
4.97459734082802,669,663,-6,-666,337.5,328.5
4.97675926926819,671,664,-7,-667.5,339,328.5
4.97892119770836,672,663,-9,-667.5,340.5,327
4.98108312614852,669,665,-4,-667,336.5,330.5
4.98324505458869,672,664,-8,-668,340,328
4.98540698302886,672,665,-7,-668.5,339.5,329
4.98756891146903,674,667,-7,-670.5,340.5,330
4.9897308399092,677,669,-8,-673,342.5,330.5
4.99189276834937,682,672,-10,-677,346,331
4.99405469678954,683,674,-9,-678.5,346,332.5
4.9962166252297,685,675,-10,-680,347.5,332.5
4.99837855366987,685,677,-8,-681,346.5,334.5
5.00054048211004,685,678,-7,-681.5,346,335.5
5.00270241055021,686,678,-8,-682,347,335
5.00486433899038,684,678,-6,-681,345,336
5.00702626743055,683,677,-6,-680,344.5,335.5
5.00918819587072,684,676,-8,-680,346,334
5.01135012431089,678,674,-4,-676,341,335
5.01351205275105,682,675,-7,-678.5,344.5,334
5.01567398119122,683,677,-6,-680,344.5,335.5
5.01783590963139,689,679,-10,-684,349.5,334.5
5.01999783807156,689,680,-9,-684.5,349,335.5
5.02215976651173,694,685,-9,-689.5,351.5,338
5.0243216949519,693,685,-8,-689,350.5,338.5
5.02648362339207,693,686,-7,-689.5,350,339.5
5.02864555183223,693,687,-6,-690,349.5,340.5
5.0308074802724,693,687,-6,-690,349.5,340.5
5.03296940871257,694,687,-7,-690.5,350.5,340
5.03513133715274,692,686,-6,-689,349,340
5.03729326559291,694,687,-7,-690.5,350.5,340
5.03945519403308,695,687,-8,-691,351.5,339.5
5.04161712247325,697,688,-9,-692.5,353,339.5
5.04377905091341,696,689,-7,-692.5,351.5,341
5.04594097935358,698,692,-6,-695,352,343
5.04810290779375,702,693,-9,-697.5,355.5,342
5.05026483623392,704,695,-9,-699.5,356.5,343
5.05242676467409,708,698,-10,-703,359,344
5.05458869311426,711,701,-10,-706,360.5,345.5
5.05675062155443,717,705,-12,-711,364.5,346.5
5.0589125499946,720,708,-12,-714,366,348
5.06107447843476,720,708,-12,-714,366,348
5.06323640687493,714,707,-7,-710.5,360.5,350
5.0653983353151,711,706,-5,-708.5,358,350.5
5.06756026375527,710,706,-4,-708,357,351
5.06972219219544,715,707,-8,-711,361.5,349.5
5.07188412063561,718,707,-11,-712.5,364.5,348
5.07404604907578,718,709,-9,-713.5,363.5,350
5.07620797751594,719,710,-9,-714.5,364,350.5
5.07836990595611,721,713,-8,-717,364.5,352.5
5.08053183439628,724,716,-8,-720,366,354
5.08269376283645,726,718,-8,-722,367,355
5.08485569127662,727,717,-10,-722,368.5,353.5
5.08701761971679,727,717,-10,-722,368.5,353.5
5.08917954815696,724,717,-7,-720.5,365.5,355
5.09134147659712,725,718,-7,-721.5,366,355.5
5.09350340503729,727,718,-9,-722.5,368,354.5
5.09566533347746,728,720,-8,-724,368,356
5.09782726191763,730,722,-8,-726,369,357
5.0999891903578,735,724,-11,-729.5,373,356.5
5.10215111879797,733,725,-8,-729,370.5,358.5
5.10431304723814,729,724,-5,-726.5,367,359.5
5.1064749756783,727,722,-5,-724.5,366,358.5
5.10863690411847,724,720,-4,-722,364,358
5.11079883255864,725,721,-4,-723,364.5,358.5
5.11296076099881,729,722,-7,-725.5,368,357.5
5.11512268943898,730,722,-8,-726,369,357
5.11728461787915,731,723,-8,-727,369.5,357.5
5.11944654631932,735,725,-10,-730,372.5,357.5
5.12160847475949,737,728,-9,-732.5,373,359.5
5.12377040319965,741,731,-10,-736,375.5,360.5
5.12593233163982,744,733,-11,-738.5,377.5,361
5.12809426007999,743,734,-9,-738.5,376,362.5
5.13025618852016,740,732,-8,-736,374,362
5.13241811696033,737,732,-5,-734.5,371,363.5
5.1345800454005,735,730,-5,-732.5,370,362.5
5.13674197384067,734,729,-5,-731.5,369.5,362
5.13890390228083,737,730,-7,-733.5,372,361.5
5.141065830721,737,730,-7,-733.5,372,361.5
5.14322775916117,742,733,-9,-737.5,375.5,362
5.14538968760134,746,736,-10,-741,378,363
5.14755161604151,752,740,-12,-746,382,364
5.14971354448168,758,744,-14,-751,386,365
5.15187547292185,758,747,-11,-752.5,384.5,368
5.15403740136201,759,749,-10,-754,384.5,369.5
5.15619932980218,759,750,-9,-754.5,384,370.5
5.15836125824235,757,747,-10,-752,383.5,368.5
5.16052318668252,753,748,-5,-750.5,379,371.5
5.16268511512269,753,747,-6,-750,379.5,370.5
5.16484704356286,754,747,-7,-750.5,380.5,370
5.16700897200303,760,748,-12,-754,386,368
5.16917090044319,757,749,-8,-753,382.5,370.5
5.17133282888336,760,751,-9,-755.5,384.5,371
5.17349475732353,759,752,-7,-755.5,383,372.5
5.1756566857637,759,751,-8,-755,383.5,371.5
5.17781861420387,762,752,-10,-757,386,371
5.17998054264404,766,754,-12,-760,389,371
5.18214247108421,773,760,-13,-766.5,393,373.5
5.18430439952438,782,766,-16,-774,399,375
5.18646632796454,788,772,-16,-780,402,378
5.18862825640471,792,777,-15,-784.5,403.5,381
5.19079018484488,789,778,-11,-783.5,400,383.5
5.19295211328505,790,780,-10,-785,400,385
5.19511404172522,787,777,-10,-782,398.5,383.5
5.19727597016539,787,780,-7,-783.5,397,386.5
5.19943789860556,786,779,-7,-782.5,396.5,386
5.20159982704573,787,778,-9,-782.5,398,384.5
5.20376175548589,781,777,-4,-779,392.5,386.5
5.20592368392606,781,775,-6,-778,393.5,384.5
5.20808561236623,778,773,-5,-775.5,391.5,384
5.2102475408064,778,774,-4,-776,391,385
5.21240946924657,782,774,-8,-778,395,383
5.21457139768674,780,774,-6,-777,393,384
5.2167333261269,783,775,-8,-779,395.5,383.5
5.21889525456707,778,773,-5,-775.5,391.5,384
5.22105718300724,779,773,-6,-776,392.5,383.5
5.22321911144741,776,770,-6,-773,391,382
5.22538103988758,772,767,-5,-769.5,388.5,381
5.22754296832775,768,765,-3,-766.5,385.5,381
5.22970489676792,764,762,-2,-763,383,380
5.23186682520809,762,760,-2,-761,382,379
5.23402875364825,763,759,-4,-761,383.5,377.5
5.23619068208842,768,761,-7,-764.5,387.5,377
5.23835261052859,770,760,-10,-765,390,375
5.24051453896876,769,762,-7,-765.5,388,377.5
5.24267646740893,771,764,-7,-767.5,389,378.5
5.2448383958491,770,763,-7,-766.5,388.5,378
5.24700032428927,766,760,-6,-763,386,377
5.24916225272943,765,759,-6,-762,385.5,376.5
5.2513241811696,765,759,-6,-762,385.5,376.5
5.25348610960977,764,758,-6,-761,385,376
5.25564803804994,768,759,-9,-763.5,388.5,375
5.25780996649011,767,761,-6,-764,386.5,377.5
5.25997189493028,766,760,-6,-763,386,377
5.26213382337045,765,759,-6,-762,385.5,376.5
5.26429575181062,763,757,-6,-760,384.5,375.5
5.26645768025078,763,758,-5,-760.5,384,376.5
5.26861960869095,765,758,-7,-761.5,386,375.5
5.27078153713112,769,760,-9,-764.5,389,375.5
5.27294346557129,775,765,-10,-770,392.5,377.5
5.27510539401146,782,767,-15,-774.5,398.5,376
5.27726732245163,787,773,-14,-780,400.5,379.5
5.2794292508918,787,774,-13,-780.5,400,380.5
5.28159117933196,785,775,-10,-780,397.5,382.5
5.28375310777213,785,776,-9,-780.5,397,383.5
5.2859150362123,781,774,-7,-777.5,394,383.5
5.28807696465247,782,774,-8,-778,395,383
5.29023889309264,780,773,-7,-776.5,393.5,383
5.29240082153281,777,772,-5,-774.5,391,383.5
5.29456274997298,774,769,-5,-771.5,389.5,382
5.29672467841314,775,769,-6,-772,390.5,381.5
5.29888660685331,779,770,-9,-774.5,394,380.5
5.30104853529348,781,772,-9,-776.5,395,381.5
5.30321046373365,789,777,-12,-783,400.5,382.5
5.30537239217382,793,781,-12,-787,402.5,384.5
5.30753432061399,805,788,-17,-796.5,411,385.5
5.30969624905416,820,800,-20,-810,420,390
5.31185817749432,844,816,-28,-830,436,394
5.31402010593449,877,840,-37,-858.5,457,401.5
5.31618203437466,912,867,-45,-889.5,478.5,411
5.31834396281483,950,897,-53,-923.5,501.5,422
5.320505891255,986,932,-54,-959,520,439
5.32266781969517,1019,960,-59,-989.5,539,450.5
5.32482974813534,1020,977,-43,-998.5,531.5,467
5.32699167657551,1021,991,-30,-1006,525.5,480.5
5.32915360501567,1023,995,-28,-1009,525.5,483.5
5.33131553345584,1021,996,-25,-1008.5,523,485.5
5.33347746189601,995,984,-11,-989.5,503,486.5
5.33563939033618,962,967,5,-964.5,478.5,486
5.33780131877635,930,947,17,-938.5,456.5,482
5.33996324721652,893,917,24,-905,434.5,470.5
5.34212517565669,861,891,30,-876,415.5,460.5
5.34428710409685,839,867,28,-853,405.5,447.5
5.34644903253702,825,851,26,-838,399.5,438.5
5.34861096097719,821,839,18,-830,401.5,428.5
5.35077288941736,822,833,11,-827.5,405.5,422
5.35293481785753,824,828,4,-826,410,416
5.3550967462977,826,827,1,-826.5,412.5,414
5.35725867473787,839,830,-9,-834.5,424,410.5
5.35942060317803,843,834,-9,-838.5,426,412.5
5.3615825316182,842,834,-8,-838,425,413
5.36374446005837,845,835,-10,-840,427.5,412.5
5.36590638849854,842,832,-10,-837,426,411
5.36806831693871,834,829,-5,-831.5,419.5,412
5.37023024537888,832,827,-5,-829.5,418.5,411
5.37239217381905,826,824,-2,-825,414,411
5.37455410225922,824,823,-1,-823.5,412.5,411
5.37671603069938,824,820,-4,-822,414,408
5.37887795913955,829,822,-7,-825.5,418,407.5
5.38103988757972,829,821,-8,-825,418.5,406.5
5.38320181601989,829,821,-8,-825,418.5,406.5
5.38536374446006,832,821,-11,-826.5,421.5,405
5.38752567290023,829,820,-9,-824.5,419,405.5
5.3896876013404,828,821,-7,-824.5,417.5,407
5.39184952978056,829,821,-8,-825,418.5,406.5
5.39401145822073,829,820,-9,-824.5,419,405.5
5.3961733866609,833,823,-10,-828,421.5,406.5
5.39833531510107,836,824,-12,-830,424,406
5.40049724354124,839,827,-12,-833,425.5,407.5
5.40265917198141,844,831,-13,-837.5,428.5,409
5.40482110042158,855,837,-18,-846,436.5,409.5
5.40698302886174,856,842,-14,-849,435,414
5.40914495730191,859,847,-12,-853,435.5,417.5
5.41130688574208,859,848,-11,-853.5,435,418.5
5.41346881418225,856,846,-10,-851,433,418
5.41563074262242,854,846,-8,-850,431,419
5.41779267106259,854,846,-8,-850,431,419
5.41995459950276,852,845,-7,-848.5,429.5,419
5.42211652794292,855,845,-10,-850,432.5,417.5
5.42427845638309,852,845,-7,-848.5,429.5,419
5.42644038482326,855,847,-8,-851,431.5,419.5
5.42860231326343,861,851,-10,-856,435.5,420.5
5.4307642417036,864,853,-11,-858.5,437.5,421
5.43292617014377,871,858,-13,-864.5,442,422.5
5.43508809858394,869,859,-10,-864,439.5,424.5
5.43725002702411,868,860,-8,-864,438,426
5.43941195546427,870,860,-10,-865,440,425
5.44157388390444,872,861,-11,-866.5,441.5,425
5.44373581234461,874,864,-10,-869,442,427
5.44589774078478,876,864,-12,-870,444,426
5.44805966922495,875,865,-10,-870,442.5,427.5
5.45022159766512,876,868,-8,-872,442,430
5.45238352610529,873,865,-8,-869,440.5,428.5
5.45454545454545,878,869,-9,-873.5,443.5,430
5.45670738298562,879,869,-10,-874,444.5,429.5
5.45886931142579,883,870,-13,-876.5,448,428.5
5.46103123986596,886,873,-13,-879.5,449.5,430
5.46319316830613,886,875,-11,-880.5,448.5,432
5.4653550967463,887,876,-11,-881.5,449,432.5
5.46751702518647,887,877,-10,-882,448.5,433.5
5.46967895362663,888,877,-11,-882.5,449.5,433
5.4718408820668,889,880,-9,-884.5,449,435.5
5.47400281050697,891,882,-9,-886.5,450,436.5
5.47616473894714,891,882,-9,-886.5,450,436.5
5.47832666738731,897,885,-12,-891,454.5,436.5
5.48048859582748,903,889,-14,-896,458.5,437.5
5.48265052426765,908,893,-15,-900.5,461.5,439
5.48481245270782,913,899,-14,-906,463.5,442.5
5.48697438114798,918,902,-16,-910,467,443
5.48913630958815,913,902,-11,-907.5,462,445.5
5.49129823802832,910,902,-8,-906,459,447
5.49346016646849,910,900,-10,-905,460,445
5.49562209490866,909,901,-8,-905,458.5,446.5
5.49778402334883,916,904,-12,-910,464,446
5.499945951789,920,907,-13,-913.5,466.5,447
5.50210788022916,927,911,-16,-919,471.5,447.5
5.50426980866933,927,913,-14,-920,470.5,449.5
5.5064317371095,933,918,-15,-925.5,474,451.5
5.50859366554967,933,920,-13,-926.5,473,453.5
5.51075559398984,939,922,-17,-930.5,478,452.5
5.51291752243001,941,925,-16,-933,478.5,454.5
5.51507945087018,943,930,-13,-936.5,478,458.5
5.51724137931034,940,929,-11,-934.5,475.5,459
5.51940330775051,947,933,-14,-940,480.5,459.5
5.52156523619068,951,935,-16,-943,483.5,459.5
5.52372716463085,956,938,-18,-947,487,460
5.52588909307102,959,944,-15,-951.5,487,464.5
5.52805102151119,964,948,-16,-956,490,466
5.53021294995136,970,953,-17,-961.5,493.5,468
5.53237487839152,974,958,-16,-966,495,471
5.53453680683169,975,959,-16,-967,495.5,471.5
5.53669873527186,976,960,-16,-968,496,472
5.53886066371203,978,964,-14,-971,496,475
5.5410225921522,981,968,-13,-974.5,497,477.5
5.54318452059237,983,969,-14,-976,498.5,477.5
5.54534644903254,983,970,-13,-976.5,498,478.5
5.54750837747271,985,973,-12,-979,498.5,480.5
5.54967030591287,987,974,-13,-980.5,500,480.5
5.55183223435304,989,975,-14,-982,501.5,480.5
5.55399416279321,993,978,-15,-985.5,504,481.5
5.55615609123338,991,980,-11,-985.5,501,484.5
5.55831801967355,991,978,-13,-984.5,502,482.5
5.56047994811372,991,979,-12,-985,501.5,483.5
5.56264187655389,990,981,-9,-985.5,499.5,486
5.56480380499405,994,982,-12,-988,503,485
5.56696573343422,998,985,-13,-991.5,505.5,486
5.56912766187439,1002,988,-14,-995,508,487
5.57128959031456,1000,986,-14,-993,507,486
5.57345151875473,995,985,-10,-990,502.5,487.5
5.5756134471949,987,983,-4,-985,495.5,489.5
5.57777537563507,986,980,-6,-983,496,487
5.57993730407524,983,977,-6,-980,494.5,485.5
5.5820992325154,980,974,-6,-977,493,484
5.58426116095557,976,972,-4,-974,490,484
5.58642308939574,968,965,-3,-966.5,485.5,481
5.58858501783591,966,963,-3,-964.5,484.5,480
5.59074694627608,963,958,-5,-960.5,484,476.5
5.59290887471625,956,954,-2,-955,479,476
5.59507080315642,953,950,-3,-951.5,478,473.5
5.59723273159658,951,948,-3,-949.5,477,472.5
5.59939466003675,949,945,-4,-947,476.5,470.5
5.60155658847692,943,941,-2,-942,472.5,469.5
5.60371851691709,939,937,-2,-938,470.5,467.5
5.60588044535726,934,932,-2,-933,468,465
5.60804237379743,926,927,1,-926.5,462.5,464
5.6102043022376,920,920,0,-920,460,460
5.61236623067776,911,914,3,-912.5,454,458.5
5.61452815911793,904,907,3,-905.5,450.5,455
5.6166900875581,900,901,1,-900.5,449.5,451
5.61885201599827,898,900,2,-899,448,451
5.62101394443844,897,894,-3,-895.5,450,445.5
5.62317587287861,898,893,-5,-895.5,451.5,444
5.62533780131878,895,891,-4,-893,449.5,443.5
5.62749972975895,894,890,-4,-892,449,443
5.62966165819911,898,889,-9,-893.5,453.5,440
5.63182358663928,899,891,-8,-895,453.5,441.5
5.63398551507945,901,893,-8,-897,454.5,442.5
5.63614744351962,901,893,-8,-897,454.5,442.5
5.63830937195979,900,892,-8,-896,454,442
5.64047130039996,895,891,-4,-893,449.5,443.5
5.64263322884013,894,886,-8,-890,451,439
5.64479515728029,886,883,-3,-884.5,444.5,440
5.64695708572046,886,882,-4,-884,445,439
5.64911901416063,887,881,-6,-884,446.5,437.5
5.6512809426008,895,885,-10,-890,452.5,437.5
5.65344287104097,902,888,-14,-895,458,437
5.65560479948114,905,891,-14,-898,459.5,438.5
5.65776672792131,903,893,-10,-898,456.5,441.5
5.65992865636147,904,893,-11,-898.5,457.5,441
5.66209058480164,905,895,-10,-900,457.5,442.5
5.66425251324181,907,897,-10,-902,458.5,443.5
5.66641444168198,908,897,-11,-902.5,459.5,443
5.66857637012215,912,901,-11,-906.5,461.5,445
5.67073829856232,908,901,-7,-904.5,457.5,447
5.67290022700249,908,899,-9,-903.5,458.5,445
5.67506215544265,908,900,-8,-904,458,446
5.67722408388282,909,901,-8,-905,458.5,446.5
5.67938601232299,915,902,-13,-908.5,464,444.5
5.68154794076316,916,905,-11,-910.5,463.5,447
5.68370986920333,920,908,-12,-914,466,448
5.6858717976435,919,910,-9,-914.5,464,450.5
5.68803372608367,922,911,-11,-916.5,466.5,450
5.69019565452384,924,914,-10,-919,467,452
5.692357582964,923,915,-8,-919,465.5,453.5
5.69451951140417,924,914,-10,-919,467,452
5.69668143984434,924,914,-10,-919,467,452
5.69884336828451,927,915,-12,-921,469.5,451.5
5.70100529672468,930,918,-12,-924,471,453
5.70316722516485,931,919,-12,-925,471.5,453.5
5.70532915360502,931,921,-10,-926,470.5,455.5
5.70749108204518,934,923,-11,-928.5,472.5,456
5.70965301048535,932,924,-8,-928,470,458
5.71181493892552,932,923,-9,-927.5,470.5,457
5.71397686736569,932,924,-8,-928,470,458
5.71613879580586,927,920,-7,-923.5,467,456.5
5.71830072424603,927,921,-6,-924,466.5,457.5
5.7204626526862,930,921,-9,-925.5,469.5,456
5.72262458112636,936,924,-12,-930,474,456
5.72478650956653,945,929,-16,-937,480.5,456.5
5.7269484380067,954,934,-20,-944,487,457
5.72911036644687,958,940,-18,-949,488,461
5.73127229488704,957,943,-14,-950,485.5,464.5
5.73343422332721,959,946,-13,-952.5,486,466.5
5.73559615176738,960,944,-16,-952,488,464
5.73775808020754,957,947,-10,-952,483.5,468.5
5.73992000864771,957,947,-10,-952,483.5,468.5
5.74208193708788,958,947,-11,-952.5,484.5,468
5.74424386552805,962,950,-12,-956,487,469
5.74640579396822,964,949,-15,-956.5,489.5,467
5.74856772240839,963,952,-11,-957.5,487,470.5
5.75072965084856,969,955,-14,-962,491.5,470.5
5.75289157928873,972,958,-14,-965,493,472
5.75505350772889,973,959,-14,-966,493.5,472.5
5.75721543616906,973,961,-12,-967,492.5,474.5
5.75937736460923,973,962,-11,-967.5,492,475.5
5.7615392930494,977,965,-12,-971,494.5,476.5
5.76370122148957,977,967,-10,-972,493.5,478.5
5.76586314992974,982,968,-14,-975,498,477
5.76802507836991,980,968,-12,-974,496,478
5.77018700681007,979,968,-11,-973.5,495,478.5
5.77234893525024,977,969,-8,-973,492.5,480.5
5.77451086369041,979,967,-12,-973,495.5,477.5
5.77667279213058,979,969,-10,-974,494.5,479.5
5.77883472057075,987,973,-14,-980,500.5,479.5
5.78099664901092,989,976,-13,-982.5,501,481.5
5.78315857745109,996,977,-19,-986.5,507.5,479
5.78532050589125,993,979,-14,-986,503.5,482.5
5.78748243433142,992,981,-11,-986.5,501.5,485
5.78964436277159,987,979,-8,-983,497.5,485.5
5.79180629121176,987,979,-8,-983,497.5,485.5
5.79396821965193,986,977,-9,-981.5,497.5,484
5.7961301480921,986,977,-9,-981.5,497.5,484
5.79829207653227,987,978,-9,-982.5,498,484.5
5.80045400497244,990,977,-13,-983.5,501.5,482
5.8026159334126,987,978,-9,-982.5,498,484.5
5.80477786185277,989,979,-10,-984,499.5,484.5
5.80693979029294,995,981,-14,-988,504.5,483.5
5.80910171873311,996,984,-12,-990,504,486
5.81126364717328,995,985,-10,-990,502.5,487.5
5.81342557561345,996,985,-11,-990.5,503.5,487
5.81558750405362,995,984,-11,-989.5,503,486.5
5.81774943249378,995,984,-11,-989.5,503,486.5
5.81991136093395,995,984,-11,-989.5,503,486.5
5.82207328937412,992,986,-6,-989,499,490
5.82423521781429,993,984,-9,-988.5,501,487.5
5.82639714625446,987,984,-3,-985.5,495,490.5
5.82855907469463,987,981,-6,-984,496.5,487.5
5.8307210031348,985,978,-7,-981.5,496,485.5
5.83288293157496,985,977,-8,-981,496.5,484.5
5.83504486001513,983,976,-7,-979.5,495,484.5
5.8372067884553,987,977,-10,-982,498.5,483.5
5.83936871689547,993,981,-12,-987,502.5,484.5
5.84153064533564,996,983,-13,-989.5,504.5,485
5.84369257377581,997,983,-14,-990,505.5,484.5
5.84585450221598,995,985,-10,-990,502.5,487.5
5.84801643065614,997,986,-11,-991.5,504,487.5
5.85017835909631,996,985,-11,-990.5,503.5,487
5.85234028753648,994,986,-8,-990,501,489
5.85450221597665,993,983,-10,-988,501.5,486.5
5.85666414441682,994,984,-10,-989,502,487
5.85882607285699,993,985,-8,-989,500.5,488.5
5.86098800129716,996,986,-10,-991,503,488
5.86314992973733,996,984,-12,-990,504,486
5.86531185817749,999,986,-13,-992.5,506,486.5
5.86747378661766,1004,987,-17,-995.5,510.5,485
5.86963571505783,1004,991,-13,-997.5,508.5,489
