t,leadI,leadII,leadIII,aVR,aVL,aVF
0,212.009009009009,85.5315315315315,-126.477477477477,-148.77027027027,169.243243243243,-20.472972972973
0.00216379963215406,190.398476019722,95.8162259076647,-94.5822501120573,-143.107350963693,142.49036306589,0.616987897803696
0.00432759926430813,172.578473329417,100.020894520433,-72.5575788089843,-136.299683924925,122.568026069201,13.7316578557243
0.00649139889646219,158.525480839387,101.626534336736,-56.8989465026503,-130.076007588061,107.712213671018,22.363793917043
0.00865519852861625,147.677404888975,102.331454167744,-45.3459507212305,-125.004429528359,96.5116778051026,28.4927517232568
0.0108189981607703,137.822762602909,102.237261356379,-35.5855012465297,-120.030011979644,86.7041319247192,33.3258800549246
0.0129827977929244,128.712776321527,100.506104047123,-28.2066722744042,-114.609440184325,78.4597242979656,36.1497158863593
0.0151465974250784,121.391499017471,98.9970241181495,-22.3944748993217,-110.19426156781,71.8929869583964,38.3012746094139
0.0173103970572325,115.295701040195,97.0921741823285,-18.2035268578669,-106.193937611262,66.7496139490312,39.4443236622308
0.0194741966893866,109.790228477484,94.6258038215774,-15.1644246559066,-102.208016149531,62.4773265666953,39.7306895828354
0.0216379963215406,105.51509855109,92.8318986703992,-12.6831998806911,-99.1734986107448,59.0991492158907,40.0743493948541
0.0238017959536947,102.130141593911,91.7954855722025,-10.3346560217088,-96.9628135830569,56.2323988078101,40.7304147752468
0.0259655955858488,99.391728842138,90.2288311038014,-9.16289773833667,-94.8102799729697,54.2773132902373,40.5329666827323
0.0281293952180028,96.8536594368058,88.0050292013766,-8.84863023542925,-92.4293443190912,52.8511448361175,39.5781994829737
0.0302931948501569,94.1911652133098,86.6526523080451,-7.53851290526474,-90.4219087606775,50.8648390592873,39.5570697013902
0.0324569944823109,92.5184272080722,85.9359548565203,-6.58247235155196,-89.2271910322962,49.5504497798121,39.6767412524842
0.034620794114465,90.4871763141843,84.6024096299691,-5.88476668421521,-87.5447929720767,48.1859714991998,39.3588214728769
0.0367845937466191,88.1942521320971,83.3590071194321,-4.83524501266503,-85.7766296257646,46.5147485723811,39.2618810533835
0.0389483933787731,87.6014529179486,82.9918577200367,-4.60959519791196,-85.2966553189927,46.1055240579303,39.1911312610624
0.0411121930109272,86.0881742348516,81.9134244488524,-4.17474978599915,-84.000799341852,45.1314620104254,38.8693373314266
0.0432759926430813,84.4434095567841,80.0457124059105,-4.39769715087354,-82.2445609813473,44.4205533538288,37.8240076275185
0.0454397922752353,83.2429923013272,78.952735735494,-4.2902565658332,-81.0978640184106,43.7666244335802,37.3312395848304
0.0476035919073894,81.826563752172,78.1550349277309,-3.67152882444114,-79.9907993399515,42.7490462883066,37.2417530516449
0.0497673915395434,79.4420112811313,76.4922130008343,-2.94979828029705,-77.9671121409828,41.1959047807142,36.7712073602686
0.0519311911716975,77.9718176542513,75.2786133621652,-2.69320429208612,-76.6252155082082,40.3325109731687,36.2927045350395
0.0540949908038516,77.4391187747532,74.933187960446,-2.50593081430718,-76.1861533675996,39.9725247945302,36.2136285730694
0.0562587904360056,76.7801756259548,74.4109251764189,-2.36925044953591,-75.5955504011868,39.5747130377454,36.0208373634415
0.0584225900681597,75.7589376488522,73.4894425068579,-2.26949514199433,-74.624190077855,39.0142163954233,35.6099736824318
0.0605863897003138,75.5539059232673,73.0870603509556,-2.4668455723117,-74.3204831371115,39.0103757477895,35.310107389322
0.0627501893324678,74.8639523640173,72.7933842404034,-2.07056812361388,-73.8286683022103,38.4672602438156,35.3614080583948
0.0649139889646219,74.0902378366728,71.2282654885673,-2.8619723481055,-72.65925166262,38.4761050923891,34.1831465702309
0.0670777885967759,72.9852346727263,70.0859732969051,-2.89926137582121,-71.5356039848157,37.9422480242738,33.5933559605419
0.06924158822893,72.4489111927451,69.5224346517697,-2.92647654097541,-70.9856729222574,37.6876938668603,33.2979790553971
0.0714053878610841,71.7873226209663,69.1111394729674,-2.67618314799883,-70.4492310469668,37.2317528844825,33.2174781624843
0.0735691874932381,70.4939976759114,68.2706458178477,-2.22335185806377,-69.3823217468795,36.3586747669876,33.0236469798919
0.0757329871253922,69.8202287111576,67.6572167450019,-2.16301196615569,-68.7387227280798,35.9916203386567,32.7471023894231
0.0778967867575463,69.8687950415627,67.7498217706808,-2.11897327088192,-68.8093084061218,35.9938841562223,32.8154242498994
0.0800605863897003,68.8236160285327,66.736784125829,-2.08683190270361,-67.7802000771809,35.4552239656181,32.3249761115627
0.0822243860218544,68.0607986184478,65.4571124698802,-2.60368614856756,-66.758955544164,35.3322423835077,31.4267131606563
0.0843881856540084,67.774217282122,65.0634644847364,-2.71075279738552,-66.4188408834292,35.2424850397537,31.1763558436755
0.0865519852861625,67.0247452502649,64.2358505243255,-2.78889472593939,-65.6302978872952,34.9068199881021,30.7234778991931
0.0887157849183166,65.6672791078235,63.3616654044846,-2.30561370333895,-64.514472256154,33.9864464055812,30.5280258505728
0.0908795845504706,65.2168532999194,62.9938030369709,-2.22305026294851,-64.1053281684452,33.719951781434,30.3853763870112
0.0930433841826247,65.1582690338812,62.1850085494114,-2.97326048446983,-63.6716387916463,34.0657647591755,29.6058740324708
0.0952071838147788,64.8453554593593,61.8648711286665,-2.98048433069275,-63.3551132940129,33.912919895026,29.4421933989869
0.0973709834469328,64.3468212189019,61.6312208207887,-2.71560039811315,-62.9890210198453,33.5312108085075,29.4578102113378
0.0995347830790869,63.9829691003349,61.1905363831181,-2.79243271721673,-62.5867527417265,33.3877009087758,29.1990518329507
0.101698582711241,63.1771014680581,60.0584369481445,-3.11866451991364,-61.6177692081013,33.1478829939859,28.4698862141154
0.103862382343395,62.5889439825873,59.5023374198571,-3.0866065627302,-61.0456407012222,32.8377752726587,28.2078654285634
0.106026181975549,61.6193684716319,59.0964716335555,-2.52289683807647,-60.3579200525937,32.0711326548542,28.2867873977395
0.108189981607703,61.1818860197115,58.2599405868661,-2.92194543284536,-59.7209133032888,32.0519157262784,27.6689975770104
0.110353781239857,59.5118111104039,56.8389349632484,-2.67287614715549,-58.1753730368262,31.0923436287797,27.0830294080465
0.112517580872011,58.8332297358801,56.6122914715706,-2.22093826430954,-57.7227606037253,30.5270840000948,27.1956766036305
0.114681380504165,59.1484399705592,56.987189550793,-2.16125041976618,-58.0678147606761,30.6548451951627,27.4129695655134
0.116845180136319,59.3784942022942,56.7204941613515,-2.65800004094272,-58.0494941818229,31.0182471216185,27.0312470602044
0.119008979768473,60.3568664898736,56.7960043999168,-3.56086208995683,-58.5764354448952,31.9588642899152,26.61757115498
0.121172779400628,62.1515502739269,58.4720523497036,-3.67949792422332,-60.3118013118153,32.9155240990751,27.3962772127401
0.123336579032782,64.0017015091162,60.5057741700757,-3.4959273390405,-62.253737839596,33.7488144240784,28.5049234155176
0.125500378664936,66.7028039545753,62.260229619327,-4.44257433524831,-64.4815167869512,35.5726891449118,28.9088276420394
0.12766417829709,70.5652802785935,65.9721139373558,-4.59316634123765,-68.2686971079747,37.5792233099156,30.6894737980591
0.129827977929244,76.8963153848023,70.5723031322217,-6.32401225258063,-73.734309258512,41.6101638186915,32.1241454398205
0.131991777561398,83.4080755125929,75.280503699668,-8.12757181292494,-79.3442896061305,45.7678236627589,33.5764659433715
0.134155577193552,90.3218928866159,80.8780043320542,-9.44388855456175,-85.5999486093351,49.8828907205888,35.7170578887462
0.136319376825706,97.2589930324021,86.0439302451324,-11.2150627872697,-91.6514616387672,54.2370279098359,37.4144337289314
0.13848317645786,102.5921486933,90.6247178183388,-11.9674308749613,-96.6084332558194,57.2797897841306,39.3286434716887
0.140646976090014,106.214363011656,93.967977173379,-12.2463858382773,-100.091170092518,59.2303744249668,40.8607956675508
0.142810775722168,107.237076359948,95.8677218220138,-11.3693545379346,-101.552399090981,59.3032154489415,42.2491836420396
0.144974575354322,106.092403861134,96.1736138053635,-9.91879005577037,-101.133008833249,58.0055969584521,43.1274118747966
0.147138374986476,103.365878265331,94.505773686148,-8.86010457918319,-98.9358259757396,56.1129914222572,42.8228345534824
0.14930217461863,99.7550032248318,92.2078860880608,-7.54711713677104,-95.9814446564463,53.6510601808014,42.3303844756449
0.151465974250784,96.039003659329,89.9904746750363,-6.0485289842927,-93.0147391671827,51.0437663218109,41.9709728453718
0.153629773882938,91.9761234004009,86.7511734582856,-5.22494994211527,-89.3636484293433,48.6005366712581,40.7631117580852
0.155793573515093,88.200386845898,83.5765209517486,-4.62386589414939,-85.8884538988233,46.4121263700237,39.4763275287996
0.157957373147247,84.6342203403699,80.7192081166431,-3.91501222372679,-82.6767142285065,44.2746162820484,38.4020979464582
0.160121172779401,81.7613196570072,78.633816093202,-3.12750356380522,-80.1975678751046,42.4444116104062,37.7531562646984
0.162284972411555,78.8540823037303,76.0311808315945,-2.82290147213583,-77.4426315676624,40.8384918879331,36.6041396797293
0.164448772043709,76.7322531808264,74.4018198650181,-2.33043331580838,-75.5670365229223,39.5313432483174,36.0356932746048
0.166612571675863,75.7239617997485,73.4827970968151,-2.2411647029334,-74.6033794482818,38.9825632513409,35.6208161969408
0.168776371308017,74.7179103867737,72.8120540382936,-1.90585634848011,-73.7649822125337,38.3118833676269,35.4530988449067
0.170940170940171,74.253806224348,72.3225163836015,-1.93128984074649,-73.2881613039747,38.0925480325472,35.1956132714275
0.173103970572325,74.1852388962287,72.7756990028845,-1.40953989334422,-73.4804689495566,37.7973893947864,35.6830795547701
0.175267770204479,73.594883033989,72.5661390987126,-1.0287439352764,-73.0805110663508,37.3118134846327,35.7686975817181
0.177431569836633,72.6237030514049,71.3325682569254,-1.29113479447948,-71.9781356541651,36.9574189229422,35.020716731223
0.179595369468787,71.6447371620896,70.1620980289591,-1.48263913313052,-70.9034175955244,36.5636881476101,34.3397294479143
0.181759169100941,70.9302449889833,69.0376813920171,-1.89256359696624,-69.9839631905002,36.4114042929748,33.5725588975254
0.183922968733095,69.3281524672888,67.9468766824051,-1.38127578488367,-68.637514574847,35.3547141260862,33.2828004487607
0.186086768365249,67.6185627685799,65.7999785816755,-1.8185841869044,-66.7092706751277,34.7185734777421,31.9906971973855
0.188250567997403,66.3708293467289,64.7733907628566,-1.59743858387229,-65.5721100547928,33.9841339653006,31.5879760894922
0.190414367629558,65.1900226476792,63.7539858084519,-1.43603683922739,-64.4720042280655,33.3130297434533,31.1589744846122
0.192578167261712,64.5983744252691,62.4696670111489,-2.12870741412016,-63.534020718209,33.3635409196946,30.1704797985144
0.194741966893866,63.8964074335143,62.8830959743192,-1.01331145919509,-63.3897517039167,32.4548594463547,30.934892257562
0.19690576652602,63.3840811851108,63.1848345349213,-0.199246650189536,-63.2844578600161,31.7916639176502,31.4927939423659
0.199069566158174,62.7400068433468,62.8647441252723,0.124737281925427,-62.8023754843095,31.3076347807107,31.4947407035988
0.201233365790328,62.8102456096608,62.0908157044072,-0.719429905253634,-62.450530657034,31.7648377574572,30.6856928995768
0.203397165422482,62.8615089369409,61.7961250658544,-1.06538387108642,-62.3288170013976,31.9634464040136,30.365370597384
0.205560965054636,62.898923157915,61.3108907220155,-1.58803243589949,-62.1049069399652,32.2434777969072,29.861429143058
0.20772476468679,62.3859172709373,60.9567454503781,-1.42917182055923,-61.6713313606577,31.9075445457483,29.7637868149094
0.209888564318944,62.2816593229251,61.2385871475218,-1.04307217540325,-61.7601232352234,31.6623657491642,30.0977574860593
0.212052363951098,61.9354110953336,60.9039751356744,-1.03143595965923,-61.419693115504,31.4834235274964,29.9362695880076
0.214216163583252,61.1423915535323,60.3896044255228,-0.752787128009501,-60.7659979895276,30.9475893407709,29.8184086487567
0.216379963215406,60.5636111670842,60.0141941579235,-0.54941700916072,-60.2889026625039,30.5565140881225,29.7323885743814
0.21854376284756,60.1411918973446,60.0103595179882,-0.13083237935637,-60.0757757076664,30.1360121383505,29.9397635693159
0.220707562479714,59.8328918173393,59.1970921942368,-0.635799623102585,-59.514992005788,30.234345720221,29.2806462855671
0.222871362111868,59.6078809190681,58.8736903017806,-0.73419061728741,-59.2407856104243,30.1710357681777,29.0697498422466
0.225035161744023,59.9839705364469,59.1779698632459,-0.806000673200984,-59.5809701998464,30.3949856048239,29.1859845950224
0.227198961376177,59.7181447837271,59.6702026229073,-0.0479421608197299,-59.6941737033172,29.8830434722734,29.8111302310438
0.229362761008331,59.7942897212516,59.2189870092446,-0.575302712007016,-59.5066383652481,30.1847962166293,29.3218421486188
0.231526560640485,59.5797074190297,58.6195138846347,-0.960193534395003,-59.0996106518322,30.2699504767124,28.8296601751199
0.233690360272639,59.4230958587108,58.4521483603599,-0.970947498350853,-58.9376221095353,30.1970216785308,28.7406004310045
0.235854159904793,59.5789500961345,58.0598414602495,-1.51910863588507,-58.819395778192,30.5490293660098,28.2703664121822
0.238017959536947,59.1523869194285,57.5033624942923,-1.64902442513615,-58.3278747068604,30.4007056722823,27.9271690345781
0.240181759169101,59.3813748584085,57.9076884133793,-1.47368644502919,-58.6445316358939,30.4275306517189,28.2170009841751
0.242345558801255,60.0888127069727,58.4729393856759,-1.6158733212968,-59.2808760463243,30.8523430141348,28.4285330321896
0.244509358433409,59.7946631906193,58.0750156609252,-1.71964752969409,-58.9348394257722,30.7571553601567,28.1776840656155
0.246673158065563,59.5799799933277,58.3249059260102,-1.25507406731751,-58.952442959669,30.4175270303226,28.5349159293464
0.248836957697717,59.6934510072406,58.7774429955679,-0.91600801167268,-59.2354470014043,30.3047295094566,28.9307174919476
0.251000757329871,59.7762671218776,58.0270995171959,-1.74916760468168,-58.9016833195367,30.7627173632796,28.1389659562571
0.253164556962025,59.296397524959,57.4794659905434,-1.81693153441557,-58.3879317577512,30.5566645296873,27.8312672280639
0.255328356594179,59.4864801042796,57.6200914866886,-1.86638861759101,-58.5532857954841,30.6764343609353,27.8768514345488
0.257492156226333,60.1655231177714,57.9928823433742,-2.17264077439719,-59.0792027305728,31.1690819460843,27.9101207844885
0.259655955858487,59.8506498074255,57.724649010654,-2.12600079677146,-58.7876494090397,30.9883253020985,27.7993241069413
0.261819755490642,60.431310113437,58.6095054264857,-1.82180468695123,-59.5204077699614,31.1265574001941,28.3938503697673
0.263983555122796,60.8551014307922,59.5254685968377,-1.32963283395448,-60.190285013815,31.0923671323733,29.0979178814416
0.26614735475495,60.6240904674834,59.1133537793869,-1.51073668809647,-59.8687221234351,31.0674135777899,28.8013085456452
0.268311154387104,60.1853323390512,58.5424181280031,-1.64291421104811,-59.3638752335272,30.9141232750497,28.4497519584775
0.270474954019258,60.6755760801391,58.1257242894196,-2.54985179071947,-59.4006501847794,31.6127139354293,27.7879362493501
0.272638753651412,60.7632212173693,58.0917590916498,-2.67146212571951,-59.4274901545095,31.7173416715444,27.7101484829651
0.274802553283566,61.3675009000797,58.0669698030449,-3.30053109703477,-59.7172353515623,32.3340159985572,27.3832193530051
0.27696635291572,61.2682182490547,58.8593461303594,-2.40887211869531,-60.0637821897071,31.838545183875,28.2252370058321
0.279130152547874,62.0062260585502,59.7078132825815,-2.29841277596865,-60.8570196705658,32.1523194172594,28.7047002533064
0.281293952180028,62.0045440501574,60.3270617630618,-1.67748228709557,-61.1658029066096,31.8410131686265,29.3247897379831
0.283457751812182,62.8137850823952,61.3193288435915,-1.49445623880369,-62.0665569629934,32.1541206605995,29.9124363023939
0.285621551444336,63.4044046228726,62.0435288084804,-1.36087581439218,-62.7239667156765,32.3826402186324,30.3413264970441
0.28778535107649,63.5653084137656,61.7616130186024,-1.80369539516318,-62.663460716184,32.6845019044644,29.9789588117196
0.289949150708644,63.4125868341635,61.5558585305847,-1.85672830357886,-62.4842226823741,32.6346575688712,29.8495651135029
0.292112950340798,63.8414363617211,61.675846107497,-2.16559025422406,-62.758641234609,33.0035133079726,29.7551279266365
0.294276749972953,64.4245857373224,62.3037307189024,-2.12085501842003,-63.3641582281124,33.2727203778712,30.0914378502412
0.296440549605107,64.039725051041,62.2216759784546,-1.81804907258635,-63.1307005147478,32.9288870618137,30.2018134529341
0.298604349237261,64.0289930817354,62.1617888358524,-1.86720424588297,-63.0953909587939,32.9480986638092,30.1472922949847
0.300768148869415,64.2913166324749,62.1180805768354,-2.17323605563951,-63.2046986046551,33.2322763440572,29.9724222605979
0.302931948501569,63.672303210847,61.8160241636303,-1.85627904721672,-62.7441636872386,32.7642911290319,29.9798725582068
0.305095748133723,62.9503638984321,61.3254139549166,-1.62494994351559,-62.1378889266743,32.2876569209739,29.8502320057005
0.307259547765877,62.9637733996038,61.2375013535661,-1.72627204603766,-62.100637376585,32.3450227228207,29.7556146537642
0.309423347398031,62.9735602407358,61.443495099444,-1.53006514129186,-62.2085276700899,32.2518126910138,29.956714979076
0.311587147030185,62.7105468940698,61.3236821433945,-1.38686475067524,-62.0171145187322,32.0487058223725,29.9684086963596
0.313750946662339,62.7887444486824,61.5063936135562,-1.28235083512615,-62.1475690311193,32.0355476419043,30.112021389215
0.315914746294493,62.8458164481632,61.6397444450735,-1.20607200308967,-62.2427804466184,32.0259442256264,30.2168362209919
0.318078545926647,63.4277825162036,61.1967572973549,-2.23102521884874,-62.3122699067793,32.8294038675262,29.4828660392531
0.320242345558801,63.0420582002495,60.8734458793718,-2.16861232087774,-61.9577520398106,32.6053352605636,29.352416779247
0.322406145190955,63.8411645518069,61.4479476849407,-2.39321686686617,-62.6445561183738,33.1171907093365,29.5273654090373
0.324569944823109,64.1542311466733,61.5970880471321,-2.55714309954121,-62.8756595969027,33.3556871231073,29.5199724737954
0.326733744455263,63.8424084324638,60.8954685784218,-2.94693985404201,-62.3689385054428,33.3946741432529,28.9742643621899
0.328897544087418,64.1551389852439,61.4640208150402,-2.69111817020374,-62.8095799001421,33.4231285777238,29.3864513224182
0.331061343719572,63.8430710128052,61.608818921291,-2.23425209151419,-62.7259449670481,33.0386615521597,29.6872834148884
0.333225143351726,63.6153101416469,61.4443427077992,-2.17096743384771,-62.5298264247231,32.8931387877473,29.6366876369758
0.33538894298388,63.719236496525,61.0541445532158,-2.66509194330929,-62.3866905248704,33.1921642199172,29.1945263049532
0.337552742616034,64.6055551366706,61.5798294895688,-3.02572564710179,-63.0926923131197,33.8156403918862,29.2770519212335
0.339716542248188,65.5225855023548,61.4231849511354,-4.09940055121938,-63.4728852267451,34.8109930267871,28.661892199958
0.341880341880342,65.9217182064029,61.8491713315589,-4.072546874844,-63.8854447689809,34.9971325406234,28.8883122283574
0.344044141512496,66.7533351548345,62.7003872688815,-4.05294788595302,-64.726861211858,35.4031415203938,29.3237196914642
0.34620794114465,67.3602856187496,63.0514857212206,-4.30879989752898,-65.2058856699851,35.8345427581393,29.3713429118458
0.348371740776804,66.7226397970531,63.0375765338102,-3.68506326324292,-64.8801081654316,35.203851530148,29.6762566352836
0.350535540408958,66.2572579550619,63.567737423524,-2.68952053153786,-64.912497689293,34.4733892432999,30.4391084459931
0.352699340041112,66.7280705441918,64.7651406912052,-1.96292985298659,-65.7466056176985,34.3455001985892,31.4011054191093
0.354863139673266,67.0716901877409,64.2882769686487,-2.78341321909218,-65.6799835781948,34.9275517034165,30.7524318747783
0.35702693930542,66.7821664263208,63.9402409429571,-2.84192548336371,-65.361203684639,34.8120459548423,30.5491577297967
0.359190738937574,67.1111717312761,64.4966976471761,-2.61447408409997,-65.8039346892261,34.862822907688,30.9411117815381
0.361354538569728,67.351294209359,64.9028241161127,-2.44847009324623,-66.1270591627359,34.8998821513026,31.2271770114333
0.363518338201883,67.2563898965061,64.929076784789,-2.3273131117171,-66.0927333406476,34.7918515041116,31.300881836536
0.365682137834037,67.1871245733038,65.2183933438158,-1.96873122948804,-66.2027589585598,34.5779279013959,31.6248310571639
0.367845937466191,67.4067279193036,65.9698616609675,-1.43686625833615,-66.6882947901355,34.4217970888199,32.2664977013157
0.370009737098345,67.5670040572338,65.707847508601,-1.8591565486328,-66.6374257829174,34.7130803029333,31.9243454799841
0.372173536730499,67.143668177144,64.9763056833513,-2.16736249379274,-66.0599869302476,34.6555153354684,31.4044715947793
0.374337336362653,67.3750115385119,64.7125506383083,-2.66246090020358,-66.0437810884101,35.0187362193577,31.0250448690524
0.376501135994807,66.4632312062444,63.9797382333529,-2.4834929728915,-65.2214847197987,34.473362089568,30.7481226302307
0.378664935626961,65.7977739946014,63.1747434398612,-2.62303055474021,-64.4862587172313,34.2104022746708,30.2758564425605
0.380828735259115,65.5822503942902,62.5872229903556,-2.99502740393459,-64.0847366923229,34.2886388991124,29.7960977932105
0.382992534891269,65.424951833408,62.9688934755005,-2.45605835790751,-64.1969226544542,33.9405050956577,30.2564175587965
0.385156334523423,64.7698360321233,62.1668284607088,-2.60300757141446,-63.4683322464161,33.6864218017689,29.7819104446472
0.387320134155577,64.5618600459226,61.5814462919881,-2.9804137539345,-63.0716531689553,33.7711368999285,29.3005162690268
0.389483933787731,64.4100700643141,61.4243649643378,-2.98570509997634,-62.9172175143259,33.6978875821452,29.2193299321807
0.391647733419885,64.299287089137,61.3097201331212,-2.98956695601581,-62.8045036111291,33.6444270225764,29.1600765885527
0.393811533052039,62.8676517635155,60.4155786796019,-2.45207308391359,-61.6416152215587,32.6598624237145,28.9817527978441
0.395975332684193,62.6332502498604,59.7629950940427,-2.87025515581765,-61.1981226719516,32.751752702839,28.4463699691125
0.398139132316348,61.921861337448,59.0165548060162,-2.90530653143183,-60.4692080717321,32.4135839344399,28.0556241372922
0.400302931948502,60.3220337112939,57.931457574848,-2.3905761364459,-59.126745643071,31.3563049238699,27.7704407192011
0.402466731580656,58.8842532443976,57.1395061011647,-1.74474714323293,-58.0118796727811,30.3145001938153,27.6973794789659
0.40463053121281,58.3752105256843,56.5615052375977,-1.81370528808654,-57.468357881641,30.0944579068854,27.3738999747556
0.406794330844964,57.7335326476678,55.5993424740473,-2.13419017362044,-56.6664375608575,29.9338614106441,26.7325761502134
0.408958130477118,56.7248956106747,54.62695774603,-2.09793786464474,-55.6759266783524,29.4114167376597,26.2645099406926
0.411121930109272,55.7185919228775,54.4575812163589,-1.2610107065186,-55.0880865696182,28.4898013146981,26.5982852549202
0.413285729741426,55.794616062983,54.3339628083238,-1.46065325465923,-55.0642894356534,28.6276346588211,26.4366547768323
0.41544952937358,55.0396331737719,53.9735844692494,-1.06604870452251,-54.5066088215106,28.0528409391472,26.4537678823634
0.417613329005734,54.4886136019379,53.9807207889715,-0.507892812966396,-54.2346671954547,27.4982532074522,26.7364139880026
0.419777128637888,54.0864553902978,53.7157729757192,-0.37068241457856,-53.9011141830085,27.2285689024382,26.6725452805703
0.421940928270042,53.7929427176874,52.9820900362955,-0.810852681391871,-53.3875163769915,27.3018976995396,26.0856186774518
0.424104727902196,52.7682556812308,51.9063036767581,-0.86195200447272,-52.3372796789945,26.8151038428518,25.5221758361427
0.42626852753435,52.0203942128974,51.3913038967682,-0.629090316129201,-51.7058490548328,26.3247422645133,25.3811067903195
0.428432327166504,51.4745721658536,51.015434506455,-0.4591376593986,-51.2450033361543,25.9668549126261,25.2781484235282
0.430596126798658,50.2657386997803,50.2007961430441,-0.0649425567362201,-50.2332674214122,25.1653406282583,25.0679267931539
0.432759926430813,49.383479103685,50.1465498176809,0.763070713995823,-49.765014460683,24.3102041948446,25.4548102658383
0.434923726062967,49.5500360535732,49.8368022622141,0.286766208640884,-49.6934191578936,24.6316349224662,25.0617842354275
0.437087525695121,50.211909032562,49.6107349329687,-0.601174099593258,-49.9113219827653,25.4065415660776,24.5047804166877
0.439251325327275,49.3441918554487,49.4457410970202,0.101549241571483,-49.3949664762345,24.6213213069386,24.7736451692958
0.441415124959429,49.2512062876236,49.5954775826454,0.344271295021734,-49.4233419351345,24.4534674963009,24.9698744388335
0.443578924591583,48.9131851366892,49.4346056146634,0.521420477974154,-49.1738953756763,24.1958823293575,24.9780130463188
0.445742724223737,48.3963262875521,48.2365693606612,-0.159756926890935,-48.3164478241067,24.2780416072215,24.0384062168851
0.447906523855891,48.0191000671703,47.9025024664684,-0.116597600701823,-47.9608012668194,24.067848833936,23.8929524328833
0.450070323488045,47.4736276416338,47.1183733951792,-0.355254246454543,-47.2960005184065,23.9144409440442,23.3815595743623
0.452234123120199,46.5352055565174,46.0057692396647,-0.52943631685271,-46.270487398091,23.532320936685,22.738166461406
0.454397922752353,46.390616450796,45.7340544318598,-0.65656201893615,-46.0623354413279,23.5235892348661,22.5387462064618
0.456561722384507,46.5552452020258,45.535745067241,-1.01950013478485,-46.0454951346334,23.7873726684053,22.2581224662281
0.458725522016661,46.9455546853299,45.1208539974746,-1.82470068785531,-46.0332043414023,24.3851276865926,21.6480766548096
0.460889321648815,46.4199510015521,44.8180483274557,-1.60190267409639,-45.6189996645039,24.0109268378242,21.6080728266796
0.463053121280969,46.306498629801,44.867203702054,-1.43929492774709,-45.5868511659275,23.8728967787741,21.7139543871534
0.465216920913123,45.9535399091585,44.3627670231144,-1.59077288604416,-45.1581534661364,23.7721563976013,21.3859970685351
0.467380720545278,45.1556227556885,43.9946070464862,-1.16101570920235,-44.5751149010874,23.1583192324454,21.4167956686419
0.469544520177432,44.0329554540441,43.1855953507634,-0.847360103280771,-43.6092754024037,22.4401577786624,21.1691176237413
0.471708319809586,44.024052333419,42.8652994019885,-1.15875293143056,-43.4446758677038,22.5914026324248,20.853273235279
0.47387211944174,43.4772420223926,42.3613771815408,-1.11586484085176,-42.9193096019667,22.2965534316222,20.6227561703445
0.476035919073894,42.5378434898621,41.453280255504,-1.08456323435814,-41.9955618726831,21.8112033621101,20.1843585105729
0.478199718706048,42.3925417300611,41.6009799906325,-0.79156173942868,-41.9967608603468,21.5920517347449,20.4047091256019
0.480363518338202,42.5566503551379,41.7087777248242,-0.847872630313745,-42.1327140399811,21.7022614927258,20.4304525472552
0.482527317970356,42.6764240157285,41.7874532314983,-0.888970784230182,-42.2319386236134,21.7826973999793,20.4492412236341
0.48469111760251,43.0339962897636,42.1150302731939,-0.918966016569634,-42.5745132814788,21.9764811531666,20.5980321283122
0.486854917234664,43.8352806165183,42.6242665540806,-1.21101406243769,-43.2297735852994,22.523147339478,20.7066262458215
0.489018716866818,43.6096243693099,42.455617066632,-1.15400730267788,-43.032620717971,22.3818158359939,20.6508048819771
0.491182516498972,43.7150867709041,42.062373073975,-1.65271369692914,-42.8887299224396,22.6839002339166,20.2048296885229
0.493346316131126,43.7920578495888,42.0455226005871,-1.74653524900167,-42.918790225088,22.7692965492952,20.1494936757927
0.49551011576328,43.307922289489,42.033224387258,-1.27469790223108,-42.6705733383735,22.2913100958601,20.3792632425134
0.497673915395434,42.4142665345949,41.2137799770397,-1.20048655755525,-41.8140232558173,21.8073765460751,20.0066467097422
0.499837715027588,42.3023498569036,40.885869776397,-1.41648008050658,-41.5941098166503,21.8594149687051,19.7346948479452
0.502001514659743,42.4908243767742,41.4570151890089,-1.03380918776529,-41.9739197828916,21.7623167822697,20.2116030006218
0.504165314291897,42.088068910579,41.0633934849068,-1.02467542567216,-41.5757311977429,21.5563721681256,20.0193590296173
0.506329113924051,41.7941203354417,40.5059549174238,-1.28816541801789,-41.1500376264327,21.5411428767298,19.6088947497029
0.508492913556205,41.8497400057201,40.6394242654264,-1.21031574029377,-41.2445821355733,21.530027873007,19.7145542625663
0.510656713188359,41.3500212528274,40.4666798281,-0.883341424727384,-40.9083505404637,21.1166813387774,19.7916692016863
0.512820512820513,41.255460837089,39.8002909498403,-1.45516988724866,-40.5278758934646,21.3553153621688,19.1725605312958
0.514984312452667,40.6461340813162,39.8542435903079,-0.791890491008232,-40.250188835812,20.7190122861622,19.5311765496498
0.517148112084821,40.7417331574183,40.4339330135496,-0.307800143868626,-40.587833085484,20.5247666506434,20.0630664348405
0.519311911716975,40.8115055492622,40.0465471025314,-0.764958446730816,-40.4290263258968,20.7882319979965,19.6407943279003
0.521475711349129,40.5922722841607,40.0339721136379,-0.558300170522799,-40.3131221988993,20.5752862273417,19.7378359715576
0.523639510981283,40.7024224593469,39.7546381242366,-0.947784335110349,-40.2285302917917,20.8251033972286,19.4034268945631
0.525803310613437,41.3231273042111,39.5507679472589,-1.77235935695222,-40.436947625735,21.5477433305817,18.8892042951533
0.527967110245591,40.9656762438815,39.6721307768788,-1.29354546700275,-40.3189035103801,21.1296108554421,19.189292654938
0.530130909877745,41.7854176554266,40.0308628960581,-1.75455475936848,-40.9081402757424,21.7699862073975,19.1381540683448
0.532294709509899,42.3837008325144,40.8329937285866,-1.55070710392777,-41.6083472805505,21.9672039682211,19.6411433123294
0.534458509142054,42.8203540928536,40.6079552983588,-2.21239879449477,-41.7141546956062,22.5163764436742,19.197778251932
0.536622308774208,42.5987303387349,40.7138686098385,-1.88486172889631,-41.6562994742867,22.2417960338156,19.4145034404711
0.538786108406362,42.4369796184896,41.3314812060454,-1.10549841244421,-41.8842304122675,21.7712390154669,20.1129913968006
0.540949908038516,42.3189268600933,41.7822419228568,-0.536684937236522,-42.0505843914751,21.4278058986649,20.6227784928102
0.54311370767067,42.2327667877064,41.8410706200823,-0.391696167624133,-42.0369187038943,21.3122314776653,20.7246872262291
0.545277507302824,42.1698833940901,42.4243188030592,0.25443540896913,-42.2971010985747,20.9577239925605,21.3393771060142
0.547441306934978,41.5836759161395,42.5798426544705,0.996166738330942,-42.081759285305,20.2937545889043,21.7880046964007
0.549605106567132,41.1558360298029,41.3425697119706,0.186733682167642,-41.2492028708868,20.4845511738176,20.7646516970691
0.551768906199286,40.573423534575,40.979866164411,0.406442629836029,-40.776644849493,20.0834904523695,20.6931543971235
0.55393270583144,40.4185096046761,40.4449930214209,0.026483416744739,-40.4317513130485,20.1960130939657,20.2357382190828
0.556096505463594,39.49497799963,39.7844629687012,0.289484969071211,-39.6397204841656,19.6027465152794,20.0369739688862
0.558260305095748,38.8209441945469,39.03222300098,0.211278806433157,-38.9265835977635,19.3048326940569,19.6217509037066
0.560424104727902,38.8693172326617,39.0235177571001,0.154200524438416,-38.9464174948809,19.3575583541116,19.5888591407693
0.562587904360056,39.7150906296577,39.0171642889302,-0.69792634072742,-39.3661274592939,20.2065084851925,19.1596189741014
0.56475170399221,39.7920606658761,39.0125272496534,-0.779533416222705,-39.4022939577647,20.2857970410494,19.1164969167153
0.566915503624364,40.3885491924254,39.0091429353418,-1.37940625708355,-39.6988460638836,20.8839777247545,18.8148683391292
0.569079303256518,40.8238926382172,39.2768291264361,-1.5470635117811,-40.0503608823267,21.1854780749992,18.8648828073275
0.571243102888673,40.8714691359592,39.2020420183024,-1.66942711765676,-40.0367555771308,21.270448126808,18.7663074503228
0.573406902520827,40.906192547297,39.4176153238706,-1.48857722342646,-40.1619039355838,21.1973848853617,18.9645190502221
0.575570702152981,40.9315352133646,39.8451063736974,-1.08642883966716,-40.388320793531,21.0089820265159,19.3793387670151
0.577734501785135,40.9500314007686,39.6167956371508,-1.33323576361786,-40.2834135189597,21.1416335821932,19.1417799367665
0.579898301417289,40.1530620926346,39.1800082524475,-0.973053840187056,-39.666535172541,20.5630579664108,19.1034772061302
0.582062101049443,39.3012427818923,38.5910654811174,-0.710177300774966,-38.9461541315049,20.0057100413337,18.9404440901712
0.584225900681597,39.4900163849543,38.7015416816423,-0.788474703312012,-39.0957790332983,20.1392455441331,18.9565334891651
0.586389700313751,39.35763541464,38.2418596265881,-1.11577578805191,-38.799747520614,20.236705601346,18.5630419192681
0.588553499945905,38.9908617739181,37.6362073223211,-1.354654451597,-38.3135345481196,20.1727581127575,18.140776435362
0.590717299578059,38.9933305224596,38.2748005977727,-0.718529924686855,-38.6340655601162,19.8559302235732,18.7781353365429
0.592881099210213,39.5354447469904,37.9304052973867,-1.60503944960361,-38.7329250221886,20.570242098297,18.1626829238916
0.595044898842367,39.1206348106052,37.6790505267394,-1.44158428386579,-38.3998426686723,20.2811095472355,18.1187331214368
0.597208698474521,39.0880445671523,37.2254445968944,-1.86259997025784,-38.1567445820234,20.4753222687051,17.6814223133183
0.599372498106675,39.3344149922862,37.1645393386105,-2.16987565367568,-38.2494771654483,20.7521453229809,17.4973318424674
0.601536297738829,39.5142269166487,37.3902442260593,-2.12398269058944,-38.452235571354,20.8191048036191,17.6331307677349
0.603700097370984,40.1857739564194,37.8251297479856,-2.36064420843379,-39.0054518522025,21.2732090824266,17.7322427697759
0.605863897003138,40.4057421799604,38.1425282447105,-2.26321393524987,-39.2741352123354,21.3344780576051,17.9396571547303
0.608027696635292,40.2961284096257,37.8338671421631,-2.46226126746258,-39.0649977758944,21.3791948385442,17.6858029373503
0.610191496267446,40.4862836921253,37.6085927538321,-2.87769093829319,-39.0474382229787,21.6819873152092,17.3654509077695
0.6123552958996,40.8952235557091,37.9844900646276,-2.91073349108147,-39.4398568101683,21.9029785233953,17.5368782867731
0.614519095531754,41.1936857748637,38.5289925937575,-2.66469318110627,-39.8613391843106,21.929189477985,17.9321497063256
0.616682895163908,41.4115165715048,38.3860819585198,-3.02543461298497,-39.8987992650123,22.2184755922449,17.6803236727674
0.618846694796062,41.030186601553,38.0116233072625,-3.01856329429053,-39.5209049544077,22.0243749479218,17.496530006486
0.621010494428216,41.5623439273714,38.5487956223463,-3.01354830502514,-40.0555697748589,22.2879461161983,17.7676236586606
0.62317429406037,41.6805794340554,38.6706912877931,-3.00988814626226,-40.1756353609243,22.3452337901588,17.8304015707654
0.625338093692524,41.4967166722732,38.219343658276,-3.27737301399726,-39.8580301652746,22.3870448431352,17.4709853221394
0.627501893324678,41.0923693658468,39.2407114539446,-1.85165791190213,-40.1665404098957,21.4720136388745,18.6945267710213
0.629665692956832,41.0674152078766,39.1756817593928,-1.89173344848378,-40.1215484836347,21.4795743281802,18.6419741554545
0.631829492588986,40.7790463588225,38.8580640289087,-1.92098232991381,-39.8185551938656,21.3500143443681,18.4685408494974
0.63399329222114,40.5685821456506,38.6262527013154,-1.94232944433521,-39.597417423483,21.2554557949929,18.3419616284901
0.636157091853294,40.9552885707871,38.7272228557253,-2.22806571506179,-39.8412557132562,21.5916771429244,18.2495785703317
0.638320891485448,41.2375238530023,39.0710715075793,-2.1664523454229,-40.1542976802908,21.7019880992126,18.4523095810782
0.640484691117603,41.173355308646,39.3220273101913,-1.85132799845466,-40.2476913094187,21.5123416535503,18.7353496558683
0.642648490749757,42.2071471426409,40.585810691309,-1.62133645133189,-41.396478916975,21.9142417969864,19.4822371199886
0.644812290381911,42.6914974790283,40.6977065059427,-1.99379097308557,-41.6946019924855,22.3426442260569,19.3519577664286
0.646976090014065,42.7748413514469,40.7793729711707,-1.99546838027619,-41.7771071613088,22.3851548658615,19.3919522954473
0.649139889646219,42.8356693590101,40.5688205216441,-2.26684883736606,-41.7022449403271,22.5512590981881,19.150985842139
0.651303689278373,43.150220514346,40.9554625480251,-2.19475796632089,-42.0528415311856,22.6724892403335,19.3803522908521
0.653467488910527,42.5693250855016,40.4271821935938,-2.14214289190781,-41.4982536395477,22.3557339887047,19.142519650843
0.655631288542681,42.9558308008223,40.8520886941368,-2.10374210668552,-41.9039597474795,22.5297864537539,19.3741732937256
0.657795088174835,43.5080758080968,41.1622040640934,-2.34587174400342,-42.3351399360951,22.9269737760501,19.408166160045
0.659958887806989,43.911128396181,40.8482274167161,-3.06290097946494,-42.3796779064486,23.487014687823,18.8926632186256
0.662122687439143,43.3948251882684,40.8892297228821,-2.50559546538639,-42.1420274555753,22.9502103268274,19.1918171287478
0.664286487071297,42.4776920754394,40.6489987894646,-1.82869328597484,-41.563345432452,22.1531926807071,19.4101527517449
0.666450286703451,41.8083281701543,40.4736677349935,-1.33466043516077,-41.1409979525739,21.5714943026575,19.5695036499164
0.668614086335605,41.049640870013,39.8053910302786,-1.24424983973442,-40.4275159501458,21.1469453548737,19.2805705952721
0.670777885967759,39.9556052331297,38.5071847929765,-1.44842044015316,-39.2313950130531,20.7020128366414,18.5293821764117
0.672941685599914,40.5079111789176,38.6403218824587,-1.86758929645885,-39.5741165306882,21.1877502376882,18.3863662929999
0.675105485232068,40.1005396069823,38.1971787364435,-1.90336087053878,-39.1488591717129,21.0019502387605,18.1469089329524
0.677269284864222,39.5330657838736,37.8737534640727,-1.65931231980095,-38.7034096239731,20.5961890518373,18.1072205721359
0.679433084496376,39.6592109628956,37.9078597499807,-1.75135121291487,-38.7835353564381,20.7052810879052,18.0782542685329
0.68159688412853,39.4811210263355,37.9327520108868,-1.54836901544862,-38.7069365186111,20.514745020892,18.1921914977191
0.683760683760684,39.0809869805372,36.8702946253951,-2.21069235514216,-37.9756408029661,20.6458396678397,17.3298011351264
0.685924483392838,38.2486392090494,36.6351791261861,-1.61346008286336,-37.4419091676178,19.9310496459564,17.5108595216614
0.688088283024992,38.1814677822099,36.7337377514674,-1.44773003074253,-37.4576027668386,19.8145989064762,17.6430038603624
0.690252082657146,38.1324431335913,36.2653577281521,-1.86708540543923,-37.1989004308717,19.9997642695153,17.1991361613564
0.6924158822893,37.2861941627169,35.6533572657804,-1.63283689693659,-36.4697757142487,19.4595155298268,17.0102601844219
0.694579681921454,37.4790332437292,36.0171611656016,-1.4618720781276,-36.7480972046654,19.4704526609284,17.277644543737
0.696743481553608,37.6197756491144,36.0125249701114,-1.60725067900301,-36.8161503096129,19.6135131640587,17.2026371455542
0.698907281185762,36.6418707719244,35.468828847889,-1.17304192403543,-36.0553498099067,18.9074563479799,17.1478934619268
0.701071080817916,35.6579967600553,34.8018593985839,-0.856137361471397,-35.2299280793196,18.2570670607633,16.9728610185562
0.70323488045007,35.7503910598066,34.0449196772655,-1.70547138254107,-34.897655368536,18.7279312211738,16.1697241473622
0.705398680082224,34.737199618052,33.4924719236737,-1.24472769437828,-34.1148357708628,17.9909636562151,16.1238721146477
0.707562479714378,34.2678843499742,32.8191151505776,-1.44876919939661,-33.5434997502759,17.8583267746854,15.6851729755905
0.709726279346533,34.7358261525087,33.1381385281541,-1.59768762435459,-33.9369823403314,18.1667568884317,15.7702254518998
0.711890078978687,35.0773505702942,33.1008195466745,-1.97653102361968,-34.0890850584843,18.5269407969569,15.5621442615274
0.714053878610841,34.7862976213657,33.8840511554772,-0.902246465888524,-34.3351743884215,17.8442720436271,16.4909023447943
0.716217678242995,35.3843430701888,33.9153754560844,-1.46896761410443,-34.6498592631366,18.4266553421466,16.22320392099
0.718381477875149,35.8208228260308,33.9382373023,-1.88258552373078,-34.8795300641654,18.8517041748808,16.0278258892846
0.720545277507303,35.3289162288609,33.1444542431307,-2.18446198573021,-34.2366852359958,18.7566891072955,15.4799961287002
0.722709077139457,34.9699012545771,32.8352728201461,-2.13462843443101,-33.9025870373616,18.552264844504,15.3503221928575
0.724872876771611,34.4377201938793,32.8797748910477,-1.55794530283164,-33.6587475424635,17.9978327483555,15.660914794108
0.727036676403765,34.5896235763128,32.3719420273108,-2.217681549002,-33.4807828018118,18.4036525626574,15.0771302391544
0.729200476035919,33.8900206807627,32.2714595781767,-1.61856110258599,-33.0807401294697,17.7542908916743,15.3264492377953
0.731364275668073,33.919732277032,32.7384355106035,-1.18129676642857,-33.3290838938178,17.5505145217303,15.7785693720875
0.733528075300227,33.671260889133,32.809098782219,-0.862162106913999,-33.240179835676,17.2667114980235,15.9734683376525
0.735691874932381,33.4899155901472,32.8606719320564,-0.629243658090843,-33.1752937611018,17.059579624119,16.1157141369828
0.737855674564535,32.8172494264329,32.3579998513561,-0.459249575076768,-32.5876246388945,16.6382495007548,15.9493751381397
0.740019474196689,33.4069330528485,32.8015963914064,-0.60533666144201,-33.1042647221274,17.0061348571452,16.0981298649822
0.742183273828844,32.7566851370623,32.5850401468541,-0.171644990208165,-32.6708626419582,16.4641650636352,16.206697578323
0.744347073460998,32.5522619468539,31.8866754932439,-0.665586453610064,-32.2194687200489,16.608924200232,15.6105445198169
0.746510873093152,32.1329087394594,31.9172908127013,-0.215617926758043,-32.0250997760804,16.1742633331087,15.8508364429716
0.748674672725306,31.8268464060108,32.2097914253006,0.382945019289814,-32.0183189156557,15.7219506933605,16.2963682222952
0.75083847235746,31.0631562894199,31.6128025448149,0.549646255395007,-31.3379794171174,15.2567550170125,16.081224400105
0.753002271989614,31.0460942255144,31.1770939188108,0.130999693296417,-31.1115940721626,15.457547266109,15.6540468060536
0.755166071621768,31.5739540079035,31.6695633203026,0.0956093123991124,-31.6217586641031,15.7391723477522,15.8825863163509
0.757329871253922,30.8785843435965,30.9483642063382,0.0697798627417185,-30.9134742749673,15.4044022404274,15.50907203454
0.759493670886076,30.6412293255207,30.9623139367509,0.321084611230138,-30.8017716311358,15.1600723571453,15.6416992739905
0.76165747051823,31.278465875612,31.2426512727102,-0.0358146029017199,-31.2605585741611,15.6571402392568,15.6034183349043
0.763821270150384,32.824173860751,31.7174099478123,-1.10676391293867,-32.2707919042816,16.9654688868448,15.3053230174368
0.765985069782538,32.8716743844785,31.7937534058239,-1.07792097865457,-32.3327138951512,16.9747976815665,15.3579162135847
0.768148869414692,34.2571234060121,33.2002532637762,-1.05687014223592,-33.7286883348941,17.656996774124,16.0716915607701
0.770312669046846,37.9698468868633,35.3074032955926,-2.66244359127072,-36.638625091228,20.316145239067,16.3224798521609
0.772476468679,41.7601799038875,38.4662309281982,-3.2939489756893,-40.1132054160428,22.5270644397884,17.5861409762544
0.774640268311154,47.2280930300168,42.3926189248534,-4.83547410516338,-44.8103559774351,26.0317835675901,18.778572409845
0.776804067943308,54.1905337897358,47.1493622970954,-7.04117149264037,-50.6699480434156,30.6158526411881,20.0540954022275
0.778967867575463,61.1631214115299,52.5121353821485,-8.6509860293814,-56.8376283968392,34.9070537204557,21.9305746763836
0.781131667207617,67.062489810092,57.5067468529031,-9.55574295718893,-62.2846183314975,38.3091163836405,23.9755019478571
0.783295466839771,72.1785758252782,62.7729702801777,-9.40560554510041,-67.475773052728,40.7920906851893,26.6836823675387
0.785459266471925,75.1020507873772,66.6164907354702,-8.48556005190703,-70.8592707614237,41.7938054196421,29.0654653417816
0.787623066104079,75.8849497688558,68.0708792049515,-7.81407056390435,-71.9779144869036,41.8495101663801,30.1284043205236
0.789786865736233,74.5652502441185,68.3218869593129,-6.24336328480553,-71.4435686017157,40.404306764462,31.0392618372537
0.791950665368387,72.791607108178,67.9647709858624,-4.82683612231561,-70.3781890470202,38.8092216152468,31.5689674317734
0.794114465000541,69.8761874118256,66.3533510516399,-3.52283636018562,-68.1147692317328,36.6995118860056,31.4152573457272
0.796278264632695,66.1274491854258,63.8264851632233,-2.30096402220255,-64.9769671743245,34.2142066038142,30.7627605705104
0.798442064264849,62.5809872419537,61.4419553673856,-1.13903187456809,-62.0114713046696,31.8600095582609,30.1514617464088
0.800605863897003,59.182155387062,58.8911524726716,-0.291002914390432,-59.0366539298668,29.7365791507262,29.3000747791406
0.802769663529157,56.1612266471333,55.9488399777382,-0.212386669395102,-56.0550333124357,28.1868066582642,27.8682266541715
0.804933463161311,53.4161081481746,54.3417239043218,0.92561575614728,-53.8789160262482,26.2452461960136,27.6336698302346
0.807097262793465,52.4932253115199,53.709092645081,1.21586733356111,-53.1011589783004,25.6386789889794,27.462479989321
0.809261062425619,51.8196650060172,51.89658959099,0.0769245849728364,-51.8581272985036,25.8713702105222,25.9867570879814
0.811424862057774,51.0579149892445,50.573745495998,-0.484169493246505,-50.8158302426213,25.7710422412455,25.0447880013758
0.813588661689928,51.3124251070113,50.1485883743491,-1.16383673266215,-50.7305067406802,26.2381309198367,24.4923758208435
0.815752461322082,51.7683339473508,50.1084463020068,-1.659887645344,-50.9383901246788,26.7141107963474,24.2242793283314
0.817916260954236,52.1010761824254,50.0791488598652,-2.02192732256025,-51.0901125211453,27.0615017524928,24.0286107686525
0.82008006058639,52.0737698238709,49.7876100918384,-2.28615973203253,-50.9306899578547,27.1799647779517,23.7507251799029
0.822243860218544,52.0538404477035,49.8449885448671,-2.20885190283642,-50.9494144962853,27.13134617527,23.8180683210153
0.824407659850698,51.7691389044348,49.0763972167676,-2.69274168766724,-50.4227680606012,27.230940296051,23.1918277645502
0.826571459482852,51.0210388278663,48.5154456103448,-2.50559321752149,-49.7682422191056,26.7633160226939,23.0049261964117
0.828735259115006,51.2855112696994,48.9165072005715,-2.36900406912789,-50.1010092351354,26.8272576694136,23.2737515657218
0.83089905874716,50.9382224147591,48.9390632989837,-1.99915911577543,-49.9386428568714,26.4686907652673,23.4699520916041
0.833062858379314,50.6847558012947,48.4152133035509,-2.26954249774381,-49.5499845524228,26.4771491495193,23.0728354029035
0.835226658011468,50.7699209798314,48.8433532740882,-1.92656770574327,-49.8066371269598,26.3482443427874,23.4583927841724
0.837390457643622,50.5619220444797,48.615516148291,-1.94640589618871,-49.5887190963853,26.2541639703342,23.3345551260511
0.839554257275776,49.5996466779609,47.9089182135796,-1.69072846438139,-48.7542824457703,25.6451875711712,23.1090948745991
0.84171805690793,48.8973359792383,47.3932121002261,-1.5041238790122,-48.1452740397322,25.2007299291253,22.944544110607
0.843881856540084,48.9250713021828,47.5571396206386,-1.36793168154423,-48.2411054614107,25.1465014918635,23.0946039695472
0.846045656172238,48.9453137553456,47.1364686793716,-1.80884507597396,-48.0408912173586,25.3770794156598,22.6638118016988
0.848209455804393,48.149618948428,46.5592883941702,-1.5903305542578,-47.3544536712991,24.8699747513429,22.4844789199562
0.850373255436547,47.8390422482248,46.4081931602574,-1.43084908796742,-47.1236177042411,24.6349456680961,22.488672036145
0.852537055068701,47.6123697728441,46.2979172423703,-1.31445253047379,-46.9551435076072,24.463411151659,22.4917323559483
0.854700854700855,47.1767780628762,45.677120624977,-1.49965743789919,-46.4269493439266,24.3382177503877,22.0887315935389
0.856864654333009,47.6693327948109,45.4941922819531,-2.17514051285778,-46.581762538382,24.9222366538343,21.6595258845476
0.859028453965163,47.7586645943549,45.3606831671244,-2.39798142723051,-46.5596738807397,25.0783230107927,21.481350869947
0.861192253597317,47.8238628533345,45.2632423690082,-2.56062048432629,-46.5435526111714,25.1922416688304,21.351310942341
0.863356053229471,47.3311349739043,44.9219695959212,-2.40916537798306,-46.1265522849127,24.8701501759437,21.2564021089691
0.865519852861625,47.2416768037361,45.2132062061696,-2.02847059756648,-46.2274415049528,24.6350737006513,21.5923678043016
0.867683652493779,47.9868549495564,45.6959196489066,-2.29093530064984,-46.8413872992315,25.1388951251031,21.7024921741284
0.869847452125933,48.2605623784608,46.3183812684059,-1.9421811100549,-47.2894718234333,25.1013717442578,22.1881000791755
0.872011251758087,48.7304822570828,46.5025248028741,-2.22795745420873,-47.6165035299785,25.4792198556458,22.1372836743327
0.874175051390241,49.3436065732848,46.9070770295014,-2.43652954378344,-48.1253418013931,25.8900680585341,22.235273742859
0.876338851022395,49.5209353349436,47.4724931709504,-2.04844216399321,-48.496714252947,25.7846887494684,22.7120255034786
0.878502650654549,50.1906700538401,47.3448462057512,-2.84582384808886,-48.7677581297957,26.5182469509645,22.2495111788312
0.880666450286704,50.4093155662489,47.5218400729988,-2.88747549325012,-48.9655778196239,26.6483955297495,22.3171822898743
0.882830249918858,50.0285802115394,47.3808617356746,-2.64771847586476,-48.704720973607,26.3381493437021,22.3665716299049
0.884994049551012,49.7507028779838,46.7376571481746,-3.01304572980914,-48.2441800130792,26.3818743038965,21.8623057091827
0.887157849183166,49.8180520440982,47.078686911107,-2.73936513299116,-48.4483694776026,26.2787085885447,22.1696608890579
0.88932164881532,49.8672064146224,47.5977415770218,-2.26946483760065,-48.7324739958221,26.0683356261115,22.6641383697105
0.891485448447474,50.4433938503522,47.4362579768954,-3.00713587345678,-48.9398259136238,26.7252648619045,22.2145610517193
0.893649248079628,50.8639206711171,46.7780877507152,-4.08583292040187,-48.8210042109162,27.4748767957595,21.3461274151567
0.895813047711782,50.9006833471221,47.6485073589649,-3.25217598815729,-49.2745953530435,27.0764296676397,22.1981656854038
0.897976847343936,51.197670569711,48.0136214912393,-3.18404907847173,-49.6056460304752,27.1908598240914,22.4147862063838
0.90014064697609,50.6039562136561,47.4696291370228,-3.13432707663334,-49.0367926753394,26.8691416451447,22.1676510301947
0.902304446608244,50.4407936908384,47.6129121202518,-2.82788157058664,-49.0268529055451,26.6343376307125,22.3925152748326
0.904468246240398,50.3217105371046,47.9876425273776,-2.33406800972696,-49.1546765322411,26.3278892734158,22.8267872588253
0.906632045872552,49.9646422252096,47.9909809753696,-1.97366124983999,-48.9778116002896,25.9691517375248,23.0086598627648
0.908795845504706,50.2443505595788,47.9934175208985,-2.25093303868029,-49.1188840402387,26.2476417991296,22.8712422411091
0.91095964513686,50.9888063736492,49.0758206660039,-1.91298570764535,-50.0323135198265,26.4508960406473,23.5814174791793
0.913123444769014,51.8022990369562,49.8658058777096,-1.93649315924657,-50.8340524573329,26.8693960981014,23.9646563592315
0.915287244401168,52.1258653920871,49.902059253443,-2.22380613864409,-51.0139623227651,27.1748357653656,23.8391265573995
0.917451044033323,52.6321744982984,50.1986747663924,-2.43349973190602,-51.4154246323454,27.5328371151022,23.8825875172432
0.919614843665477,53.0017010543395,50.415157755981,-2.58654329835856,-51.7084294051603,27.794122176349,23.9143072288112
0.921778643297631,52.4609290801997,50.303000309296,-2.15792877090367,-51.3819646947479,27.3094289255517,24.0725357691962
0.923942442929785,52.0662500140798,49.950986681669,-2.11526333241079,-51.0086183478744,27.0907566732453,23.9178616746291
0.926106242561939,52.3185083731112,49.9642279340806,-2.35428043903063,-51.1413681535959,27.3363944060709,23.804973747525
0.928270042194093,52.2324613575821,49.7037357680286,-2.52872558955354,-50.9680985628053,27.3805934735678,23.5875050892375
0.930433841826247,51.8995042659395,49.783773390651,-2.11573087528851,-50.8416388282953,27.007617570614,23.8340212576813
0.932597641458401,52.4669662365058,50.1123445642102,-2.35462167229561,-51.289655400358,27.4107939544007,23.8788614459573
0.934761441090555,52.6109686188511,50.3521501941905,-2.25881842466065,-51.4815594065208,27.4348935217559,24.0466658847649
0.936925240722709,52.9862240749531,50.5271708435898,-2.45905323136338,-51.7566974592714,27.7226386531583,24.0340588061132
0.939089040354863,53.5302581504221,50.9250647892197,-2.60519336120245,-52.2276614698209,28.0677257558123,24.1599357140086
0.941252839987017,54.7377866765482,52.2960900612581,-2.44169661529013,-53.5169383689032,28.5897416459192,24.927196722984
0.943416639619171,55.8892500822008,52.756411915679,-3.13283816652175,-54.3228309989399,29.5110441243613,24.8117868745786
0.945580439251325,56.1893260723302,52.8222187497963,-3.3671073225339,-54.5057724110632,29.778216697432,24.7275557136312
0.947744238883479,56.6784908815642,53.4105598826364,-3.26793099892781,-55.0445253821003,29.973210940246,25.0713144418543
0.949908038515634,57.5758172026979,54.1101132156118,-3.46570398708613,-55.8429652091549,30.520760594892,25.3222046142628
0.952071838147788,57.4202566084865,53.8102092345335,-3.61004737395306,-55.61523292151,30.5151519912198,25.1000809302902
0.954235637779942,57.8470340988671,54.4017948125234,-3.44523928634366,-56.1244144556952,30.6461366926054,25.4782777630899
0.956399437412096,58.428671211006,55.373872295509,-3.05479891549698,-56.9012717532575,30.7417350632515,26.159536690006
0.95856323704425,58.8531754442454,55.2728683724305,-3.58030707181492,-57.063021908338,31.2167412580302,25.8462806503078
0.960727036676404,58.8928410100378,56.00961992221,-2.88322108782779,-57.4512304661239,30.8880310489328,26.5631994171911
0.962890836308558,60.0024155243206,56.5473334642106,-3.45508206011002,-58.2748744942656,31.7287487922153,26.5461257020503
0.965054635940712,60.0017629554204,56.6696241407605,-3.33213881465995,-58.3356935480905,31.6669508850402,26.6687426630503
0.967218435572866,59.7311304701907,56.7588772313865,-2.97225323880424,-58.2450038507886,31.3516918544975,26.8933119962911
0.96938223520502,60.0739234557233,56.5538618332795,-3.52006162244388,-58.3138926445014,31.7969925390836,26.5169001054178
0.971546034837174,60.3241087868283,56.9445450422437,-3.37956374458462,-58.634326914536,31.8518362657065,26.7824906488295
0.973709834469328,59.9663925728728,56.689370331689,-3.27702224118382,-58.3278814522809,31.6217074070283,26.7061740452526
0.975873634101482,60.2456280399479,56.7732888661748,-3.47233917377305,-58.5094584530614,31.8589836068605,26.6504748462009
0.978037433733636,61.2598949466327,57.6450049228931,-3.61489002373958,-59.4524499347629,32.4373924851861,27.0150574495768
0.98020123336579,61.7299951361091,58.5513776837723,-3.17861745233679,-60.1406864099407,32.4543062942229,27.6863801157178
0.982365032997944,61.8029386273248,58.9427320011571,-2.86020662616767,-60.3728353142409,32.3315726267462,28.0412626874947
0.984528832630098,62.6666446168879,59.4985157305293,-3.16812888635862,-61.0825801737086,32.9173867516232,28.1651934220853
0.986692632262253,63.5671712800114,60.4444634566976,-3.12270782331377,-62.0058173683545,33.3449395516626,28.6608778166919
0.988856431894407,63.9542588592644,60.3243888929208,-3.62986996634359,-62.1393238760926,33.792064412804,28.3472594632886
0.991020231526561,65.0472409600588,60.7770656421794,-4.27017531787941,-62.9121533011191,34.6587081389691,28.25344516215
0.993184031158715,66.1151033687307,62.1880738031425,-3.92702956558825,-64.1515885859366,35.0210664671595,29.1305221187771
0.995347830790869,66.3541636905324,62.9477331325481,-3.40643055798427,-64.6509484115403,34.8802971242583,29.7706512872819
0.997511630423023,67.0689528051306,63.7723219870802,-3.29663081805036,-65.4206373961054,35.1827918115905,30.2378455845149
0.999675430055177,67.5906372002419,64.3741430403204,-3.2164941599215,-65.9823901202811,35.4035656800817,30.5788244401994
1.00183922968733,67.9713853153773,64.5432221857209,-3.42816312965641,-66.2573037505491,35.6997742225169,30.5575295280323
1.00400302931949,68.2492719620505,64.9367797615652,-3.31249220048532,-66.5930258618079,35.7808820812679,30.8121437805399
1.00616682895164,68.4520858049288,65.224015313566,-3.22807049136277,-66.8380505592474,35.8400781481458,30.9979724111016
1.00833062858379,69.6807330757865,65.9739648206667,-3.70676825511978,-67.8273489482266,36.6937506654531,31.1335982827735
1.01049442821595,69.4968288067363,65.9809983860908,-3.51583042064549,-67.7389135964135,36.5063296136909,31.2325839827227
1.0126582278481,69.0924512064881,65.7159755782523,-3.37647562823575,-67.4042133923702,36.2344634173619,31.1697499750083
1.01482202748026,69.3376311506319,66.0628627519823,-3.2747683986496,-67.7002469513071,36.3061997746408,31.3940471766664
1.01698582711241,70.0568866335823,66.3160362009106,-3.74085043267168,-68.1864614172464,36.898868533127,31.2875928841195
1.01914962674456,69.7713621442759,65.9605008461866,-3.81086129808926,-67.8659314952313,36.7911117211826,31.0748197740487
1.02131342637672,70.3734425050121,65.971171787953,-4.40227071705907,-68.1723071464825,37.3878566110356,30.784450535447
1.02347722600887,70.5427109043778,66.5192723322579,-4.02343857211986,-68.5309916183179,37.2830747382488,31.247916880069
1.02564102564103,70.3960941823097,66.1088314741737,-4.28726270813593,-68.2524628282417,37.3416784452228,30.9107843830189
1.02780482527318,70.0189306666008,65.5391175516353,-4.47981311496558,-67.779024109118,37.2493718907832,30.5296522183348
1.02996862490533,70.0138164294238,65.6636278080036,-4.35018862142014,-67.8387221187137,37.182002525422,30.6567195932917
1.03213242453749,69.7399276233174,65.7545008451723,-3.98542677814508,-67.7472142342449,36.8626772007312,30.8845370335136
1.03429622416964,68.9997191557995,65.0103553312433,-3.98936382455616,-67.0050372435214,36.4945414901778,30.5104957533436
1.0364600238018,68.4594826038615,65.007557774182,-3.45192482967958,-66.7335201890218,35.9557037167706,30.7778164722512
1.03862382343395,68.3353505241814,65.0055159945388,-3.32983452964261,-66.6704332593601,35.832592526912,30.8378407324481
1.0407876230661,67.7044410731761,65.0040258143495,-2.70041525882662,-66.3542334437628,35.2024281660014,31.1518052777614
1.04295142269826,67.51413194136,64.1924695799802,-3.32166236137985,-65.8533007606701,35.4178971513699,30.4354036093002
1.04511522233041,67.1050797918084,63.8703165154806,-3.23476327632778,-65.4876981536445,35.1699215340681,30.3177766195764
1.04727902196257,66.5363794095659,63.3650388906574,-3.17134051890849,-64.9507091501116,34.8538599642372,30.0968491858744
1.04944282159472,65.310848332665,62.9962651548999,-2.31458317776512,-64.1535567437825,33.8127157552151,30.3408409885674
1.05160662122687,64.956714512774,62.4569617227608,-2.49975279001319,-63.7068381177674,33.7282336513936,29.9786044663738
1.05377042085903,64.4280959322887,61.7931982510261,-2.63489768126259,-63.1106470916574,33.5314968067756,29.5791502848818
1.05593422049118,63.501974521289,61.0385983925224,-2.4633761287666,-62.2702864569057,32.9826753250278,29.2876111318779
1.05809802012334,62.5558943505466,60.4878583732709,-2.06803597727562,-61.5218763619087,32.3119651639111,29.2099111979977
1.06026181975549,62.1355598267304,60.3560604032182,-1.77949942351221,-61.2458101149743,31.9575296251213,29.288280489853
1.06242561938764,61.0183126499724,58.6389312022574,-2.37938144771495,-59.8286219261149,31.6988470488437,28.1297748772712
1.0645894190198,59.6625843144683,57.1155389096508,-2.54704540481754,-58.3890616120595,31.1048148596429,27.2842467524166
1.06675321865195,58.9432706222827,56.2738567198808,-2.66941390240189,-57.6085636710817,30.8063422623423,26.8022214087395
1.06891701828411,58.4182839923253,55.9297164139706,-2.48856757835478,-57.174000203148,30.4534257853401,26.7205744178079
1.07108081791626,57.7649695497289,54.8680791138425,-2.89689043588643,-56.3165243317857,30.3309299928077,25.985594338978
1.07324461754842,56.7478396383621,54.3634059369702,-2.38443370139181,-55.5556227876662,29.5661366698769,25.9894861177892
1.07540841718057,56.2756499027031,53.9950733537951,-2.280576548908,-55.1353616282491,29.2781132258055,25.8572484024435
1.07757221681272,56.201181369186,53.1859356822561,-3.01524568692993,-54.6935585257211,29.608213528058,25.0853449976631
1.07973601644488,55.8766747607159,52.5953915789427,-3.2812831817732,-54.2360331698293,29.5789789712446,24.6570541985848
1.08189981607703,55.9099918401891,52.4345428453953,-3.47544899479379,-54.1722673427922,29.6927204174914,24.4795469253007
1.08406361570919,55.9343081036811,52.3171483963874,-3.61715970729377,-54.1257282500342,29.7757339054874,24.3499943445468
1.08622741534134,55.9520551775413,52.2314687870182,-3.72058639052312,-54.0917619822797,29.8363207840322,24.2554411982475
1.08839121497349,55.694851557284,52.4390922682225,-3.25575928906149,-54.0669719127532,29.4753054231727,24.5916664895805
1.09055501460565,55.507133092755,52.590624976249,-2.91650811650601,-54.048879034502,29.2118206046305,24.8370584298715
1.0927188142378,54.8298155137583,51.8907515462855,-2.93906396747278,-53.3602835300219,28.8844397406155,24.4758437894064
1.09488261386996,54.605635698009,51.1097970590789,-3.4958386389301,-52.857716378544,29.0507371684696,23.8069792100744
1.09704641350211,54.4420194520607,51.8906033371384,-2.55141611492223,-53.1663113945996,28.4967177834914,24.6695936111081
1.09921021313426,54.8629175750617,52.1903137370402,-2.6726038380215,-53.5266156560509,28.7677607065416,24.7588549495093
1.10137401276642,54.3596388199539,51.8687430869026,-2.49089573305129,-53.1141909534283,28.4252672765026,24.6889236769257
1.10353781239857,54.8027925824565,52.1743591691986,-2.62843341325785,-53.4885758758275,28.7156129978571,24.7729628779704
1.10570161203073,54.856069391333,52.1272549565428,-2.72881443479018,-53.4916621739379,28.7924419130616,24.6992202608763
1.10786541166288,54.6247969274712,51.8227200276697,-2.80207689980154,-53.2237584775705,28.7134369136364,24.5103215639341
1.11002921129503,55.2664727919715,51.8706133134352,-3.39585947853633,-53.5685430527033,29.3311661352539,24.2373769174494
1.11219301092719,54.924327300054,51.9055679305441,-3.01875936950983,-53.414947615299,28.9715433347819,24.4434042805172
1.11435681055934,53.8641459025269,51.9310793407075,-1.93306656181939,-52.8976126216172,27.8986062321732,24.9990063894441
1.1165206101915,53.3605353071242,51.4093862611984,-1.95114904592581,-52.3849607841613,27.655842176525,24.7291186076363
1.11868440982365,53.2631344543056,51.0286318078091,-2.23450264649645,-52.1458831310573,27.748818550401,24.3970645806563
1.1208482094558,52.9218908350458,50.7507405352007,-2.1711502998451,-51.8363156851233,27.5465205674455,24.2897951176778
1.12301200908796,51.8623676636757,50.0076108923691,-1.8547567713066,-50.9349892780224,26.8585622174912,24.0764270605313
1.12517580872011,52.1697061061598,49.7353985506461,-2.4343075555137,-50.9525523284029,27.3020068308367,23.6505454975662
1.12733960835227,52.9343275830031,50.0770384877309,-2.85728909527217,-51.505683035367,27.8958083391376,23.6098746962294
1.12950340798442,52.9520693944034,49.5159136379739,-3.4361557564295,-51.2339915161887,28.1941125754165,23.0398789407722
1.13166720761657,52.1545495096292,49.376536363886,-2.77801314574321,-50.7655429367576,27.4662813276862,23.2992616090714
1.13383100724873,52.3829532114328,49.5449689380583,-2.83798427337452,-50.9639610747455,27.6104687424037,23.3534923323419
1.13599480688088,52.0093398106364,49.938054617908,-2.07128519272837,-50.9736972142722,27.0403125016824,23.9333847125898
1.13815860651304,52.0068166027753,49.6846333358053,-2.32218326696997,-50.8457249692903,27.1644999348726,23.6812250344177
1.14032240614519,51.4646626314484,50.310144022898,-1.15451860855036,-50.8874033271732,26.3095906199994,24.5778127071738
1.14248620577735,52.4197559826245,50.4965129004089,-1.92324308221565,-51.4581344415167,27.1714995324201,24.2866349090966
1.1446500054095,52.8466687201915,50.9026892798323,-1.94397944035921,-51.8746790000119,27.3953240802754,24.4793549197365
1.14681380504165,53.4284045416493,51.4692907991106,-1.9591137425387,-52.4488476703799,27.693759142094,24.7550885282859
1.14897760467381,54.9336056647586,52.4231338220432,-2.51047184271534,-53.6783697434009,28.722038753737,24.9563309896639
1.15114140430596,56.0321673543437,53.1192902271802,-2.91287712716351,-54.5757287907619,29.4725222407536,25.1032065500083
1.15330520393812,56.2936333556199,53.3572194431635,-2.93641391245639,-54.8254263993917,29.6150236340382,25.2104027653536
1.15546900357027,57.294931328073,54.0711830272065,-3.22374830086655,-55.6830571776398,30.2593398144698,25.42371736317
1.15763280320242,57.4854100095902,54.5922649139701,-2.89314509562008,-56.0388374617802,30.1892775526051,25.849559909175
1.15979660283458,56.8139610564515,54.7024170802591,-2.11154397619234,-55.7581890683553,29.4627525163219,26.2954365520334
1.16196040246673,56.8642206327011,55.0529671664457,-1.81125346625548,-55.9585938995734,29.3377370494783,26.6208568500951
1.16412420209889,57.4412146959642,55.5789701811484,-1.8622445148158,-56.5100924385563,29.65172960539,26.8583628331663
1.16628800173104,57.5921740169521,55.1524015783511,-2.43977243860098,-56.3722877976516,30.0159732277765,26.356314569875
1.16845180136319,56.8918821040202,54.8410731333888,-2.05080897063134,-55.8664776187045,29.4713455373258,26.3951320813788
1.17061560099535,56.1106221896187,55.1541644255088,-0.956457764109913,-55.6323933075637,28.5335399768643,27.0988533306994
1.1727794006275,56.350893129794,55.112515948308,-1.23837718148604,-55.731704539051,28.79463515564,26.937069383411
1.17494320025966,56.2560971710771,54.5418066421947,-1.71429052888242,-55.3989519066359,28.9851938499797,26.4137580566561
1.17710699989181,55.9167547175962,54.1252780003008,-1.7914767172954,-55.0210163589485,28.8541157174458,26.1669006415027
1.17927079952396,56.2094001596182,54.3615895821803,-1.84781057743791,-55.2854948708993,29.0286053685281,26.2568895023712
1.18143459915612,55.8826731938588,53.9937476985346,-1.88892549532422,-54.9382104461967,28.8857993445915,26.0524111016052
1.18359839878827,55.6442135474853,53.7252805847423,-1.91893296274294,-54.6847470661138,28.7815732551141,25.9031738109997
1.18576219842043,56.0104876796035,53.7994977412959,-2.21098993830761,-54.9049927104497,29.1107388089556,25.7942539014942
1.18792599805258,56.2778105796822,54.1238208838508,-2.15398969583139,-55.2008157317665,29.2159001377568,25.9849155940097
1.19008979768473,56.2027583258574,53.2799012673041,-2.92285705855324,-54.7413297965807,29.5628076922053,25.1785221043754
1.19225359731689,56.4181381164899,53.4744404131028,-2.94369770338714,-54.9462892647964,29.6809179099385,25.2653713548578
1.19441739694904,56.8454879306432,54.1567360239551,-2.6887519066881,-55.5011119772991,29.7671199186656,25.7339920586335
1.1965811965812,57.697698961604,54.6547052372028,-3.04299372440115,-56.1762020994034,30.3703463430026,25.8058557564008
1.19874499621335,58.5898361005968,55.0181449741709,-3.57169112642597,-56.8039905373839,31.0807636135114,25.7232269238725
1.2009087958455,59.2409568496494,56.3640240560426,-2.87693279360681,-57.802490452846,31.0589448216281,26.7435456312179
1.20307259547766,58.9057046480519,56.265680696032,-2.64002395201997,-57.585692672042,30.772864300036,26.812828372006
1.20523639510981,58.1207104875164,55.3834367700096,-2.73727371750678,-56.752073628763,30.4289921025116,26.3230815262514
1.20740019474197,57.5477873757325,55.2798489447315,-2.26793843100099,-56.413818160232,29.9078629033667,26.5059552568653
1.20956399437412,57.3997992133935,55.2042460139266,-2.19555319946693,-56.30202261366,29.7976762064302,26.5043464072298
1.21172779400628,57.5619471842655,55.4192238963859,-2.14272328787956,-56.4905855403257,29.8523352360725,26.6382503042532
1.21389159363843,57.1399774498208,55.3059679566122,-1.83400949320851,-56.2229727032165,29.4869934715146,26.7359792317019
1.21605539327058,58.4529427315879,56.0337774481147,-2.41916528347324,-57.2433600898513,30.4360540075306,26.8073060823207
1.21821919290274,58.8708898627706,56.5649646844286,-2.30592517834201,-57.7179272735996,30.5884075205563,27.1295197530433
1.22038299253489,59.1759259802304,56.1421797535705,-3.0337462266599,-57.6590528669004,31.1048361034451,26.5542167634553
1.22254679216705,59.1283984838415,56.914237645556,-2.21416083828557,-58.0213180646988,30.6712796610636,27.3500384036352
1.2247105917992,59.0937108358369,57.7478755139687,-1.34583532186816,-58.4207931749028,30.2197730788525,28.2010200960503
1.22687439143135,59.8788629070308,57.2756760862917,-2.60318682073906,-58.5772694966612,31.2410248638849,27.3362446327763
1.22903819106351,59.9115888451845,56.9310442672439,-2.98054457794058,-58.4213165562142,31.4460667115625,26.9752498446517
1.23120199069566,60.4757860915999,57.2198292986638,-3.25595679293616,-58.8478076951318,31.865871442268,26.9819362528638
1.23336579032782,60.3472495234321,57.1604410480784,-3.18680847535371,-58.7538452857552,31.7670289993929,26.9868162863623
1.23552958995997,59.7131254838641,56.5767844785575,-3.13634100530663,-58.1449549812108,31.4247332445854,26.7202217366254
1.23769338959212,59.2503139926826,56.9612749925073,-2.28903900017529,-58.105794492595,30.769676496429,27.336117996166
1.23985718922428,59.7230025363843,57.5120492175795,-2.21095331880477,-58.6175258769819,30.9669779275945,27.6505479493874
1.24202098885643,60.0679913337244,58.1841845762813,-1.88380675744308,-59.1260879550029,30.9758990455837,28.1501889094191
1.24418478848859,60.5899354763086,58.4045821807396,-2.18535329556898,-59.4972588285241,31.3876443859388,28.1096144425853
1.24634858812074,61.7813418021386,59.3759066388868,-2.40543516325178,-60.5786242205127,32.0933884826952,28.4852357378175
1.24851238775289,61.8404136725675,59.814665549051,-2.02574812351648,-60.8275396108093,31.933080898042,28.8944587127673
1.25067618738505,62.1536831221248,59.8647348022487,-2.28894831987611,-61.0092089621868,32.2213157210005,28.7878932411863
1.2528399870172,62.6524770957663,60.1714337475429,-2.48104334822334,-61.4119554216546,32.5667602219948,28.8451951996598
1.25500378664936,63.0165187789843,60.9355884913347,-2.08093028764964,-61.9760536351595,32.548724533317,29.4273291018425
1.25716758628151,63.0120561282292,60.9529896605166,-2.05906646771253,-61.9825228943729,32.5355612979708,29.4469615964021
1.25933138591366,63.0087990902969,60.9656897957503,-2.04310929454667,-61.9872444430236,32.5259541924218,29.4612902506018
1.26149518554582,63.5467343851377,61.2451151224306,-2.30161926270713,-62.3959247537841,32.9241768239224,29.4717479298617
1.26365898517797,63.9393431184922,61.1788957494823,-2.76044736900994,-62.5591194339872,33.3498952437511,29.2092241902362
1.26582278481013,63.6855737399527,61.4007221633538,-2.28485157659881,-62.5431479516532,32.9852126582757,29.5579352933775
1.26798658444228,64.3108303710233,61.8327770054324,-2.47805336559086,-63.0718036882279,33.3944418683071,29.6773618199208
1.27015038407443,64.4970138273246,61.8779533361826,-2.61906049114199,-63.1874835817536,33.5580371592333,29.6294464225203
1.27231418370659,64.3627424544868,61.6407687886795,-2.72197366580733,-63.0017556215831,33.5423580601471,29.4593975614361
1.27447798333874,64.2647453270976,61.4676611200442,-2.79708420705337,-62.8662032235709,33.5309147670755,29.3352884564954
1.2766417829709,64.7335351561615,61.8816319871567,-2.85190316900477,-63.3075835716591,33.7927191625831,29.514864409076
1.27880558260305,64.8055222889699,61.9136098411132,-2.89191244785663,-63.3595660650415,33.8487173684132,29.5108486966283
1.28096938223521,64.8580616506752,61.9369486791811,-2.92111297149417,-63.3975051649282,33.8895873110847,29.5079178538435
1.28313318186736,65.1665633893198,62.7644510207819,-2.40211236853784,-63.9655072050509,33.7843378789288,30.1811693261221
1.28529698149951,66.2021901025112,63.368398464461,-2.8337916380502,-64.7852942834861,34.5179908702807,30.2673034132054
1.28746078113167,67.2281920378254,64.3494981783295,-2.87869385949594,-65.7888451080774,35.0534429486607,30.7354021594168
1.28962458076382,68.5173256006654,65.6058601337742,-2.91146546689129,-67.0615928672198,35.7143955337784,31.3471973334414
1.29178838039598,69.1880355117004,66.5228081025963,-2.66522740910412,-67.8554218071483,35.9266314604022,31.9287903467461
1.29395218002813,69.947705185777,66.3815682460631,-3.56613693971393,-68.16463671592,36.7569210627455,31.4077156531746
1.29611597966028,70.7723015903029,66.5486414260078,-4.22366016429514,-68.6604715081554,37.497980877299,31.1624906308563
1.29827977929244,71.1039719419875,67.2108911722966,-3.89308076969093,-69.1574315571421,37.4985263558392,31.6589052013028
1.30044357892459,70.535570852256,67.4240738239434,-3.11149702831254,-68.9798223380997,36.8235339402842,32.1562883978154
1.30260737855675,70.12072684775,66.7691952223697,-3.35153162538032,-68.4449610350598,36.7361292365651,31.7088317984947
1.3047711781889,69.2776431042757,66.5613923549045,-2.7162507493712,-67.9195177295901,35.9969469268235,31.9225708027667
1.30693497782105,68.9324798831007,66.4097287229298,-2.52275116017084,-67.6711043030152,35.7276155216357,31.9434887813795
1.30909877745321,67.8700960146207,65.2184131157615,-2.65168289885922,-66.5442545651911,35.26088945674,31.2833651084512
1.31126257708536,67.3648779594745,64.8892512439127,-2.47562671556187,-66.1270646016936,34.9202523375182,31.2068122641754
1.31342637671752,67.8066163358907,65.1893269201984,-2.61728941569237,-66.4979716280445,35.2119528757915,31.286018752253
1.31559017634967,68.6693287696393,64.8680228647606,-3.80130590487866,-66.7686758171999,36.235317337259,30.533358479941
1.31775397598182,68.7586616566085,64.6335210957989,-4.12514056080954,-66.6960913762037,36.441901108709,30.2541902674947
1.31991777561398,70.1746417685967,65.272840072032,-4.90180169656466,-67.7237409203144,37.5382217325807,30.1855191877337
1.32208157524613,70.6677736337013,65.7394430554684,-4.92833057823297,-68.2036083445848,37.7980521059672,30.4055562386177
1.32424537487829,70.4873704384328,64.9993654969649,-5.48800494146788,-67.7433679676989,37.9876876899503,29.7556802777485
1.32640917451044,69.8153918632643,64.9995369119013,-4.81585495136298,-67.4074643875828,37.3156234073136,30.0918409802692
1.32857297414259,68.7846400506789,64.4593495942845,-4.3252904563944,-66.6219948224817,36.5549652535367,30.0670295689451
1.33073677377475,67.4920398194182,62.9844723886096,-4.50756743080854,-65.2382561040139,35.9998036251134,29.2384524789005
1.3329005734069,66.0083311463559,62.1781986336673,-3.8301325126886,-64.0932648900116,34.9192318295223,29.1740330604894
1.33506437303906,65.1956117998009,61.5897447420918,-3.60586705770915,-63.3926782709464,34.400739428755,28.9919388421913
1.33722817267121,64.602453633226,61.1602653247254,-3.44218830850064,-62.8813594789757,34.0223209708633,28.8590385081124
1.33939197230336,63.8993846181021,60.5766562279599,-3.32272839014217,-62.238020423031,33.6110565041221,28.6269639189089
1.34155577193552,64.1967227004033,60.6910251777337,-3.50569752266957,-62.4438739390685,33.8512101115364,28.5926638275321
1.34371957156767,64.4137330527448,60.7744966452809,-3.63923640746393,-62.5941148490129,34.0264847301044,28.5676301189085
1.34588337119983,64.3019604984892,60.8354177773562,-3.46654272113304,-62.5686891379227,33.8842516098111,28.6844375281116
1.34804717083198,64.2203839940825,60.3395682634238,-3.88081573065873,-62.2799761287531,34.0505998623706,28.2293762663825
1.35021097046414,64.7011583128273,60.7881442114486,-3.91301410137866,-62.744651262138,34.307086207103,28.437565055035
1.35237477009629,64.7818922509832,61.1155345806184,-3.6663576703648,-62.9487134158008,34.224124960674,28.7245884551268
1.35453856972844,64.3005029904942,60.5440097722351,-3.75649321825908,-62.4222563813646,34.0284981043766,28.393758276988
1.3567023693606,63.9491640290545,60.6671983648185,-3.28196566423598,-62.3081811969365,33.6155648466452,28.6926163502913
1.35886616899275,63.6927414705203,60.7571067938838,-2.93563467663648,-62.2249241322021,33.3141880735784,28.9107360586237
1.36102996862491,63.2354368471665,60.0122572667226,-3.2231795804439,-61.6238470569446,33.2293082138052,28.3945388431394
1.36319376825706,62.9016759085294,59.4686334662336,-3.43304244229572,-61.1851546873815,33.1673591754125,28.017795511969
1.36535756788921,62.3879263488735,59.6121854361113,-2.77574091276218,-61.0000558924924,32.5818336308178,28.4182222616746
1.36752136752137,62.2831256359766,59.4467997377285,-2.83632589824814,-60.8649626868526,32.5597257671124,28.3052369197402
1.36968516715352,61.9364812748058,59.0559378012469,-2.88054347355892,-60.4962095380263,32.4085123741824,28.087697163844
1.37184896678568,62.2237974648588,59.0408258567616,-3.18297160809723,-60.6323116608102,32.703384536478,27.9289271243322
1.37401276641783,61.8931809776544,59.0297964979525,-2.86338447970197,-60.4614887378035,32.3782827286782,28.0832060091253
1.37617656604998,61.6518825882155,58.4814343651953,-3.1704482230202,-60.0666584767054,32.4111654056179,27.6554930710876
1.37834036568214,62.0160848813414,58.8916843045726,-3.12440057676881,-60.453884592957,32.5702427290551,27.8836418639019
1.38050416531429,62.8222080863447,59.1911026744071,-3.63110541193759,-61.0066553803759,33.2266567491412,27.7799986312348
1.38266796494645,63.6807083118542,58.8693188879391,-4.81138942391505,-61.2750135998967,34.2460488678846,27.028964732012
1.3848317645786,64.0371231566774,59.1747794140083,-4.86234374266908,-61.6059512853429,34.4497334496732,27.1562178356696
1.38699556421075,64.56740652904,60.2081865170933,-4.35922001194675,-62.3877965230666,34.4633132704934,27.9244832525733
1.38915936384291,64.684274342435,60.1519436362726,-4.53233070616237,-62.4181089893538,34.6083025242987,27.8098064650551
1.39132316347506,64.2292571663301,59.5705826953359,-4.65867447099423,-61.899919930833,34.4439658186622,27.4559541121708
1.39348696310722,64.4374781306016,59.1462800239328,-5.29119810666879,-61.7918790772672,34.8643381186352,26.927540958632
1.39565076273937,64.3192906960616,59.1067615667946,-5.21252912926695,-61.7130261314281,34.7659099126643,26.9471162187638
1.39781456237152,63.6927199073844,59.3480754782075,-4.34464442917688,-61.520397692796,34.0186821682807,27.5017155245153
1.39997836200368,62.6951086857025,59.2540407255696,-3.44106796013286,-60.974574705636,33.0680883229177,27.9064863827184
1.40214216163583,63.0476331800773,59.9958786811035,-3.05175449897377,-61.5217559305904,33.0496938395255,28.4720620910649
1.40430596126799,63.8452334162031,60.2671482928761,-3.57808512332699,-62.0561908545396,33.7116592697651,28.3445315847746
1.40646976090014,64.4273569939493,60.4651327339364,-3.9622242600129,-62.4462448639428,34.1947906269811,28.2514542369617
1.40863356053229,64.0417476354755,60.8797866602619,-3.16196097521354,-62.4607671478687,33.6018543053445,28.8589128425242
1.41079736016445,64.3006254642925,61.1824192526136,-3.11820621167881,-62.741522358453,33.7094158379856,29.0321065204674
1.4129611597966,64.4895658395387,60.5928251346118,-3.89674070492688,-62.5411954870752,34.1931532722328,28.3480422148425
1.41512495942876,64.6274627987388,60.9729821656861,-3.65448063305273,-62.8002224822124,34.1409717158958,28.6592507663167
1.41728875906091,66.078887097171,61.7907498370722,-4.28813726009877,-63.9348184671216,35.1835121786349,28.7513062884867
1.41945255869307,68.2188249528069,63.1980611277805,-5.02076382502634,-65.7084430402937,36.6197943889166,29.0886486513771
1.42161635832522,71.6717387868249,65.5759595906251,-6.09577919619984,-68.623849188725,38.8837589915124,29.7400901972126
1.42378015795737,76.6232324063703,69.4727037075053,-7.15052869886496,-73.0479680569378,41.8868805526176,31.1610875043202
1.42594395758953,82.3982989615258,74.4779678901092,-7.92033107141656,-78.4381334258175,45.1593150164712,33.2788184093463
1.42810775722168,89.8550699552935,80.0221223448255,-9.83294761046803,-84.9385961500595,49.8440087828808,35.0945873671787
1.43027155685384,97.9989100633071,86.7700511527408,-11.2288589105663,-92.3844806080239,54.6138844869367,37.7705961210872
1.43243535648599,106.103890872625,94.3965471946466,-11.7073436779779,-100.250219033636,58.9056172753012,41.3446017583343
1.43459915611814,112.559573192948,100.232854167889,-12.326719025059,-106.396213680418,62.4431461090033,43.9530675714148
1.4367629557503,116.190587985079,104.222290346048,-11.968297639031,-110.206439165563,64.079442812055,46.1269963535085
1.43892675538245,118.300349151975,106.593643135069,-11.7067060169062,-112.446996143522,65.0035275844405,47.4434685590813
1.44109055501461,117.138583115352,107.24373539011,-9.89484772524203,-112.191159252731,63.516715420297,48.674443832434
1.44325435464676,114.399581907163,106.097263912932,-8.30231799423048,-110.248422910047,61.3509499506966,48.8974729593509
1.44541815427891,110.239289194717,103.909737767689,-6.32955142702704,-107.074513481203,58.2844203108718,48.7900931703312
1.44758195391107,106.662612977999,100.962404339858,-5.70020863814123,-103.812508658928,56.18141080807,47.6310978508581
1.44974575354322,102.161104575979,97.4605302866531,-4.70057428932627,-99.8108174313162,53.4308394326528,46.3799779986634
1.45190955317538,98.3353942078146,93.8240844146274,-4.51130979318721,-96.079739311221,51.4233520005009,44.6563873107201
1.45407335280753,95.2730670485596,91.7103594078077,-3.56270764075195,-93.4917132281836,49.4178873446558,44.0738258835279
1.45623715243968,92.2275779585457,89.0870454942822,-3.14053246426353,-90.657311726414,47.6840552114046,42.9732565150093
1.45840095207184,89.4645342406431,86.36196749457,-3.10256674607311,-87.9132508676065,46.2835504933581,41.6297003742484
1.46056475170399,87.7181001586764,84.6432424561864,-3.07485770248999,-86.1806713074314,45.3964789305832,40.7841923768482
1.46272855133615,86.4434760925774,83.6589978752932,-2.78447821728423,-85.0512369839353,44.6139771549308,40.4372598290045
1.4648923509683,85.2430434238645,82.1301844463143,-3.11285897755019,-83.6866139350894,44.1779512007073,39.5086627343821
1.46705615060045,84.366915097538,81.0143894619669,-3.35252563557117,-82.6906522797524,43.8597203665546,38.8309319131978
1.46921995023261,83.7274782809654,80.4701896356877,-3.25728864527763,-82.0988339583265,43.4923834631215,38.6064504952051
1.47138374986476,83.5309455043609,80.6133211967207,-2.9176243076402,-82.0721333505408,43.2242849060005,38.8478484445402
1.47354754949692,82.5770386425775,79.9073162418107,-2.66972240076677,-81.2421774421941,42.6233805216721,38.618796920522
1.47571134912907,81.8808356450519,79.6621991229535,-2.21863652209839,-80.7715173840027,42.0497360835752,38.7217813004276
1.47787514876122,81.6428724239032,78.9429894926484,-2.69988293125478,-80.2929309582758,42.171377677579,38.1215532806968
1.48003894839338,80.9288840214015,78.1479225997365,-2.78096142166501,-79.538403310569,41.8549227215332,37.6834805890357
1.48220274802553,80.6779402329116,77.2974917549265,-3.38044847798503,-78.987715993919,42.0291943554483,36.9585216384707
1.48436654765769,80.7649466795844,77.2171225093525,-3.54782417023189,-78.9910345944685,42.1563854249082,36.8346491695603
1.48653034728984,80.0179791586008,77.4286217265854,-2.58935743201539,-78.7233004425931,41.3036682953081,37.419632147285
1.488694146922,79.4728095534773,77.3128269046052,-2.15998264887207,-78.3928182290413,40.8163961011747,37.5764221278666
1.49085794655415,79.3450771155731,76.9581585612139,-2.38691855435924,-78.1516178383935,40.8659978349662,37.2856200034273
1.4930217461863,78.711539965483,77.2396184976873,-1.47192146779577,-77.9755792315851,40.0917307166394,37.8838485149457
1.49518554581846,78.2491568119412,76.3644154364428,-1.88474137549844,-77.306786124192,40.0669490937198,37.2398370304722
1.49734934545061,77.1012207039786,75.7256539188426,-1.37556678513603,-76.4134373114106,39.2383937445573,37.1750435668533
1.49951314508277,76.8037190901571,75.5296140049982,-1.27410508515887,-76.1666665475777,39.038912087658,37.1277544599197
1.50167694471492,76.5865893853513,75.1163792797821,-1.47021010556922,-75.8514843325667,39.0283997454603,36.8230845871064
1.50384074434707,76.6982748309523,74.5446262706725,-2.15364856027981,-75.6214505508124,39.4259616956161,36.1954888551964
1.50600454397923,77.0499439715202,74.3974921005019,-2.65245187101837,-75.7237180360111,39.8511979212693,35.8725201147417
1.50816834361138,76.7662950854969,74.2901071403814,-2.47618794511548,-75.5282011129391,39.6212415153062,35.9069595976329
1.51033214324354,75.7488070724083,73.4012642586841,-2.34754281372415,-74.5750356655462,39.0481749430662,35.52686072248
1.51249594287569,75.5465121903037,73.5630164384702,-1.98349575183357,-74.554764314387,38.7650039710687,35.7897603433183
1.51465974250784,75.6690247391012,73.4109140502316,-2.25811068886964,-74.5399693946664,38.9635677139854,35.576401680681
1.51682354214,75.2181273380656,72.7595906432729,-2.45853669479268,-73.9888589906693,38.8383320164291,35.1505269742401
1.51898734177215,75.4293550945798,72.5543825125132,-2.87497258206663,-73.9918688035465,39.1521638383232,34.8397049652233
1.52115114140431,75.8536745724236,73.2150812686196,-2.63859330380397,-74.5343779205216,39.2461339381138,35.2882439824078
1.52331494103646,75.8932052956382,73.1569757278448,-2.73622956779334,-74.5250905117415,39.3147174317157,35.2103730800257
1.52547874066861,75.9220565484165,73.6548801835977,-2.26717636481877,-74.7884683660071,39.0946164566176,35.6938519093895
1.52764254030077,77.0237383035231,74.2884288695821,-2.73530943394098,-75.6560835865526,39.879523868732,35.7765597178206
1.52980633993292,77.2874814652387,74.480664230653,-2.80681723458565,-75.8840728479458,40.0471493499122,35.8369234980337
1.53197013956508,76.9396603497348,74.080653591046,-2.85900675868888,-75.5101569703904,39.8993335542119,35.6108234161785
1.53413393919723,76.9559614810761,73.7887083105435,-3.16725317053263,-75.3723348958098,40.0616073258044,35.3107275700054
1.53629773882938,76.967858760525,73.845790072967,-3.12206868755803,-75.406824416746,40.0449637240415,35.3618606927045
1.53846153846154,76.7063857041548,73.6172946308156,-3.0890910733392,-75.1618401674852,39.897738388747,35.2641017787382
1.54062533809369,76.2453950063284,73.1803724398741,-3.0650225664543,-74.7128837231013,39.6552087863914,35.0576749367099
1.54278913772585,76.4492562328782,73.4017999166633,-3.04745631621483,-74.9255280747707,39.7483562745465,35.1771718002242
1.544952937358,77.138355506459,73.8335635969905,-3.30479190946849,-75.4859595517247,40.2215737079637,35.264385843761
1.54711673699015,76.8308216950708,73.8785274251451,-2.95229426992572,-75.354674560108,39.8915579824983,35.4631165776097
1.54928053662231,76.8765262650613,73.3710315720709,-3.50549469299044,-75.1237789185661,40.1910104790259,34.9327684395402
1.55144433625446,77.1800396734297,73.2707950880754,-3.90924458535422,-75.2254173807526,40.5446421293919,34.6807752513606
1.55360813588662,77.9418694728842,73.4677943247592,-4.47407514812504,-75.7048318988217,41.2079723105046,34.4968595883171
1.55577193551877,77.9575737958839,73.6115729939188,-4.34600080196509,-75.7845733949014,41.1517872989245,34.6327860959769
1.55793573515093,78.7795041340869,74.2568213862136,-4.52268274787329,-76.5181627601503,41.6510934409801,34.8670693191702
1.56009953478308,79.3793848856987,74.9979081290015,-4.38147675669718,-77.1886465073501,41.8804308211979,35.3082156861521
1.56226333441523,79.276891702137,74.7283170490745,-4.54857465306243,-77.0026043756057,41.9127331775997,35.089871198006
1.56442713404739,78.9319314769173,75.0718700977983,-3.860061379119,-77.0019007873578,41.3959964280182,35.6059043593396
1.56659093367954,79.2204768231327,75.3226101563019,-3.89786666683075,-77.2715434897173,41.5591717449817,35.7123717447356
1.5687547333117,78.6206012160464,74.9652988066924,-3.65530240935394,-76.7929500113694,41.1379518127001,35.6549981986692
1.57091853294385,78.723098154308,74.7045173377522,-4.0185808165558,-76.7138077460301,41.3708394854319,35.3429682605982
1.573082332576,79.068061119872,75.0545000263304,-4.0135610935416,-77.0612805731012,41.5408111067068,35.5204694663944
1.57524613220816,79.589986409295,75.3099327175418,-4.2800536917532,-77.4499595634184,41.9350200505241,35.5149395128943
1.57740993184031,79.9709103396474,75.7665148923789,-4.20439544726848,-77.8687126160131,42.0876528934579,35.7810597225552
1.57957373147247,80.2489253039645,76.9102171920688,-3.3387081118957,-78.5795712480167,41.7938167079301,36.7857545400866
1.58173753110462,80.7219890105497,77.474784999094,-3.24720401145576,-79.0983870048219,41.9845965110028,37.1137904938191
1.58390133073677,80.5269391944467,76.806206458542,-3.72073273590468,-78.6665728264943,42.1238359651757,36.5427368613187
1.58606513036893,80.6547395096599,77.1287171994591,-3.52602231020079,-78.8917283545595,42.0903809099303,36.8013474446292
1.58822893000108,81.2883261995824,77.0939434484505,-4.1943827511319,-79.1911348240165,42.7413544753572,36.4497803486593
1.59039272963324,81.7507455094632,77.3387202541586,-4.41202525530457,-79.5447328818109,43.0813853823839,36.463347499427
1.59255652926539,81.8180831584186,77.2472128734109,-4.57087028500769,-79.5326480159148,43.1944767217131,36.3381712942016
1.59472032889754,81.8672291232159,77.450582991876,-4.41664613133993,-79.6589060575459,43.1419376272779,36.516968430268
1.5968841285297,82.1732542122064,77.5990114095286,-4.5742428026778,-79.8861328108675,43.3737485074421,36.5123843034254
1.59904792816185,82.1264485105459,77.4371847562625,-4.68926375428346,-79.7818166334042,43.4078561324147,36.3739605009895
1.60121172779401,82.6326000836833,77.8593890023658,-4.77321108131746,-80.2459945430246,43.7029055825004,36.5430889605242
1.60337552742616,83.002011665189,78.7078445724491,-4.29416709273991,-80.8549281188191,43.6480893789645,37.2068387398546
1.60553932705831,83.2716244132136,78.2464597522907,-5.02516466092294,-80.7590420827522,44.1483945370683,36.6106475456839
1.60770312669047,83.198243390688,78.7201895429763,-4.47805384771168,-80.9592164668321,43.8381486191998,37.1210678476323
1.60986692632262,84.4954677665893,79.3360944998312,-5.15937326675815,-81.9157811332103,44.8274205166737,37.0883606165365
1.61203072595478,85.4422389191496,80.5960775422841,-4.84616137686551,-83.0191582307169,45.1442001480076,37.8749580827093
1.61419452558693,85.32276532801,80.9753559152222,-4.34740941278778,-83.1490606216161,44.8350873703989,38.3139732512172
1.61635832521908,85.7758806934146,81.5223260915541,-4.25355460186049,-83.6491033924843,45.0147176476375,38.6343857448468
1.61852212485124,85.5662717044173,81.6513726651697,-3.9148990392476,-83.6088221847936,44.7405853718325,38.8682368129611
1.62068592448339,85.1431336739902,80.9350878696875,-4.20804580430276,-83.0391107718388,44.6755897391465,38.3635210326924
1.62284972411555,84.5641527990905,80.4123118611739,-4.15184093791653,-82.4882323301322,44.3579968685035,38.1302354616287
1.6250135237477,85.492368263458,81.1113918862644,-4.38097637719362,-83.3018800748612,44.9366723203258,38.3652077545354
1.62717732337986,86.1698205541713,81.6216110999812,-4.54820945419006,-83.8957158270763,45.3590150041807,38.5367008228956
1.62934112301201,86.6642549003017,81.9939914236962,-4.6702634766055,-84.329123161999,45.6672591884536,38.6618639735454
1.63150492264416,87.295270948334,82.8060833135241,-4.48918763480984,-85.050677130929,45.8922292915719,39.1584478393571
1.63366872227632,87.7558140911996,83.6689397465761,-4.08687434462351,-85.7123769188878,45.9213442179115,39.7910327009763
1.63583252190847,88.6322510669285,84.028533942414,-4.60371712451447,-86.3303925046712,46.6179840957215,39.7124084089498
1.63799632154063,89.8122255730935,84.5611377443649,-5.25108782872853,-87.1866816587292,47.531656700911,39.6550249578182
1.64016012117278,91.4838912721828,85.7603239563673,-5.72356731581543,-88.6221076142751,48.6037292939991,40.0183783202759
1.64232392080493,92.7039460984903,87.4460111996214,-5.25793489886897,-90.0749786490559,48.9809404986797,41.0940381503762
1.64448772043709,93.3242393227753,88.1359871390943,-5.18825218368103,-90.7301132309348,49.2562457532282,41.4738674777066
1.64665152006924,94.3172689030811,88.6395617924766,-5.67770711060449,-91.4784153477788,49.9974880068428,41.480927340936
1.6488153197014,94.7718691618233,89.8175612607215,-4.95430790110181,-92.2947152112724,49.8630885314626,42.4316266798098
1.65097911933355,95.1036563367479,90.4071606431669,-4.69649569358097,-92.7554084899574,49.9000760151644,42.855332474793
1.6531429189657,95.3458091453472,90.0270074543141,-5.31880169103314,-92.6864082998306,50.3323054181902,42.3541028816405
1.65530671859786,95.7926990803529,90.0197112227643,-5.77298785758865,-92.9062051515586,50.7828434689708,42.1233616825878
1.65747051823001,95.8487027115223,90.0143861134909,-5.83431659803136,-92.9315444125066,50.8415096547768,42.0900347577298
1.65963431786217,95.3492641901006,90.0104996155667,-5.33876457453393,-92.6798819028336,50.3440143823173,42.3358675205164
1.66179811749432,94.9847520876889,90.5479755029424,-4.4367765847466,-92.7663637953156,49.7107643362178,43.0555994590979
1.66396191712647,94.7187151940462,90.6700927287406,-4.04862246530558,-92.6944039613934,49.3836688296759,43.3107351317175
1.66612571675863,93.9842373960648,89.6785943799264,-4.30564301613842,-91.8314158879956,49.1449402061016,42.686475681894
1.66828951639078,94.2586519733048,90.0355803165914,-4.22307165671344,-92.1471161449481,49.2408618150091,42.906254329939
1.67045331602294,94.1887755360037,90.5662804967871,-3.62249503921652,-92.3775280163954,48.9056352876101,43.4718927287853
1.67261711565509,94.1377766523029,90.1431400910467,-3.99463656125619,-92.1404583716748,49.0662066067795,43.0742517648953
1.67478091528724,93.8303992219607,89.5641574825393,-4.26624173942146,-91.69727835225,49.0483204806911,42.6489578715589
1.6769447149194,93.8762179256863,89.4117468341574,-4.46447109152888,-91.6439823799219,49.1703445086076,42.4736378713143
1.67910851455155,93.3693459982372,89.0303546573197,-4.33899134091754,-91.1998503277784,48.8541686695774,42.3456816582011
1.68127231418371,92.4590962468686,88.2116855224706,-4.24741072439798,-90.3353908846696,48.3532534856333,41.9821373990363
1.68343611381586,92.0649123320584,88.1544973636119,-3.91041496844656,-90.1097048478352,47.9876636502525,42.1220411975827
1.68559991344801,92.5876882860691,88.6530713648576,-3.93461692121144,-90.6203798254633,48.2611526036403,42.3592272218231
1.68776371308017,92.1587644330717,88.2064838669742,-3.95228056609747,-90.1826241500229,48.0555224995846,42.1271016504384
1.68992751271232,91.8457170233814,87.6103885439166,-4.23532847946488,-89.728052783649,48.0405227514232,41.6875300322258
1.69209131234448,91.3470851041577,87.4454882871222,-3.90159681703548,-89.39628669564,47.6243409605966,41.7719457350434
1.69425511197663,90.7130054834781,87.3251368590401,-3.38786862443801,-89.0190711712591,47.0504370539581,41.968634117301
1.69641891160879,89.4397577755314,86.6969866931187,-2.74277108241269,-88.068372234325,46.091264428972,41.977107805353
1.69858271124094,88.2403296332662,85.6982227727659,-2.54210686050028,-86.969276203016,45.3912182468832,41.5780579561328
1.70074651087309,87.6350906661992,85.5095935534329,-2.12549711276625,-86.5723421098161,44.8802938894827,41.6920482203333
1.70291031050525,86.6530483420089,84.5614550538284,-2.0915932881805,-85.6072516979186,44.3723208150947,41.2349308828239
1.7050741101374,86.4766232757627,83.8694620596066,-2.60716121615607,-85.1730426676847,44.5418922459594,40.6311504217253
1.70723790976956,86.0777043252211,83.3644152713455,-2.71328905387561,-84.7210597982833,44.3954966895484,40.325563108735
1.70940170940171,85.2462433834584,82.4554975864757,-2.79074579698272,-83.8508704849671,44.0184945902206,39.8323758947465
1.71156550903386,84.0990943562983,81.7921296602535,-2.3069646960448,-82.9456120082759,43.2030295261715,39.7425824821043
1.71372930866602,83.5320109766396,81.3079747000566,-2.22403627658301,-82.4199928383481,42.8780236266113,39.5419692117368
1.71589310829817,83.1181286946449,80.6844609979937,-2.43366769665116,-81.9012948463193,42.775898195648,39.1253966506713
1.71805690793033,81.4652782227564,79.6890809719869,-1.77619725076948,-80.5771795973717,41.6207377367629,38.9564418606087
1.72022070756248,79.988799361272,78.1521404075639,-1.83665895370807,-79.0704698844179,40.91272915749,38.1577407269279
1.72238450719463,79.7216690715296,77.3005700957689,-2.42109897576074,-78.5111195836493,41.0713840236452,37.4397355600041
1.72454830682679,79.2565494770686,76.6790567935508,-2.57749268351783,-77.9678031353097,40.9170210802932,37.0507820550165
1.72671210645894,78.3767724065712,75.6851367469445,-2.6916356596267,-77.0309545767578,40.5342040330989,36.4967505436589
1.7288759060911,78.0048287886025,75.7701990106475,-2.23462977795496,-76.887513899625,40.1197292832787,36.7677846163463
1.73103970572325,78.0035242613657,75.2919687516721,-2.71155550969365,-76.6477465065189,40.3575398855297,36.2902066209892
1.7332035053554,77.4622597365222,74.6727791559922,-2.78948058053005,-76.0675194462572,40.1258701585261,35.9416492877311
1.73536730498756,76.7970649734593,74.2208674759115,-2.57619749754782,-75.5089662246854,39.6866312355036,35.8223349891818
1.73753110461971,76.3115767077423,74.1611987552936,-2.15037795244874,-75.236387731518,39.2309773300955,36.0054104014224
1.73969490425187,76.2274023246712,73.8474936983334,-2.37990862633782,-75.0374480115023,39.3036554755045,35.7337925359978
1.74185870388402,75.8958119621956,73.3483817993349,-2.54743016286068,-74.6220968807653,39.2216210625281,35.4004758182371
1.74402250351617,75.3836465840679,72.7139518683983,-2.66969471566961,-74.0487992262331,39.0266706498688,35.0221285763643
1.74618630314833,75.2800020762186,72.5210733361731,-2.75892874004549,-73.9005377061959,39.0194654081321,34.8810722980638
1.74835010278048,74.1237329285046,71.839989713822,-2.28374321468264,-72.9818613211633,38.2037380715936,34.7781232495697
1.75051390241264,73.2798370736411,71.0727488509814,-2.20708822265971,-72.1762929623113,37.7434626481504,34.4328303141609
1.75267770204479,72.6639249261417,71.3232515088539,-1.3406734172878,-71.9935882174978,37.0022991717148,34.991289045783
1.75484150167694,71.9442490593848,70.6956106819969,-1.24863837738796,-71.3199298706908,36.5964437183864,34.7234861523044
1.7570053013091,71.6891543104381,69.9673747114679,-1.7217795989702,-70.8282645109529,36.7054669547041,34.1227975562488
1.75916910094125,72.0432874162784,69.7060324239573,-2.33725499232109,-70.8746599201178,37.1902712042997,33.6843887158181
1.76133290057341,71.22112441626,68.9749809550991,-2.24614346116083,-70.0980526856796,36.7336339387104,33.3644187469692
1.76349670020556,70.6210738578676,67.9011151580076,-2.71995869985993,-69.2610945079376,36.6705162788637,32.5905782290738
1.76566049983772,70.7234431090052,67.3875170885885,-3.33592602041666,-69.0554800987969,37.0296845647109,32.0257955340859
1.76782429946987,70.7981566710433,68.0932955755148,-2.7048610955285,-69.4457261232791,36.7515088832859,32.6942172399932
1.76998809910202,70.3123734764425,67.5277787725061,-2.78459470393646,-68.9200761244743,36.5484840901895,32.3715920342848
1.77215189873418,69.4175152057427,66.8448836348763,-2.57263157086643,-68.1311994203095,35.9950733883046,32.1361260320049
1.77431569836633,69.5748770912321,67.4271017082207,-2.14777538301141,-68.5009893997264,35.8613262371218,32.6396631626046
1.77647949799849,69.1494142621014,67.3117175286439,-1.83769673345752,-68.2305658953726,35.4935554977795,32.7370103975932
1.77864329763064,68.8388928591808,66.6871926781882,-2.15170018099266,-67.7630427686845,35.4952965200868,32.2677462485978
1.78080709726279,68.88241695405,66.5015433074229,-2.38087364662708,-67.6919801307365,35.6316453003385,32.0603348303979
1.78297089689495,68.3738703205809,66.6362044792716,-1.73766584130928,-67.5050373999263,35.0557680809451,32.4492693189812
1.7851346965271,67.4623982954266,65.6538612515609,-1.8085370438657,-66.5581297734938,34.6354676696462,31.9226621038476
1.78729849615926,66.797166099815,64.9369041490063,-1.86026195080869,-65.8670351244106,34.3287140253118,31.5383210990988
1.78946229579141,66.8519629379281,64.9539498850956,-1.89801305283254,-65.9029564115118,34.3749879953803,31.5279684161315
1.79162609542356,67.4322684935773,64.6962343978228,-2.73603409575458,-66.0642514457001,35.084151294666,30.9801001510341
1.79378989505572,67.315488474841,64.5081423503322,-2.80734612450878,-65.9118154125866,35.0614172996749,30.8503981129117
1.79595369468787,66.9601010917172,64.9111769616182,-2.04892413009895,-65.9356390266677,34.5045126109081,31.4311264157596
1.79811749432003,67.2410362415083,64.9351730571944,-2.30586318431395,-66.0881046493513,34.7734497129111,31.3146549364402
1.80028129395218,67.1759188035787,64.6825302466183,-2.49338855696034,-65.9292245250985,34.8346536802695,31.094570844829
1.80244509358433,67.3985494578785,64.7682966725757,-2.63025278530277,-66.0834230652271,35.0144011215906,31.0690219436365
1.80460889321649,67.0207226342229,64.8308927657907,-2.18982986843218,-65.9258077000068,34.6052762513275,31.3205314486793
1.80677269284864,66.7449680739896,64.6064219237131,-2.13854615027645,-65.6756949988514,34.441757112133,31.2339378867183
1.8089364924808,66.2735541092836,64.4425932740069,-1.83096083527673,-65.3580736916452,34.0522574722802,31.3058162193651
1.81110029211295,66.1996517673776,65.4036487991879,-0.796002968189754,-65.8016502832828,33.4978273677837,32.3038229154991
1.8132640917451,66.6860270259527,66.1050692042877,-0.580957821665024,-66.3955481151202,33.6334924238089,32.7620556913113
1.81542789137726,66.7708487752514,65.8065278942013,-0.964320881050085,-66.2886883347263,33.8675848281507,32.4211035065756
1.81759169100941,66.5625991902036,65.8587955854067,-0.703803604796875,-66.2106973878051,33.6332013975002,32.5774959903049
1.81975549064157,67.4912343716627,66.4372552588961,-1.05397911276663,-66.9642448152794,34.2726067422147,32.6916380730647
1.82191929027372,67.0883681428015,66.3191280345318,-0.769240108269756,-66.7037480886666,33.9288041255356,32.774943963131
1.82408308990587,66.7943387282205,65.6926011898773,-1.10173753834314,-66.2434699590489,33.9480381332818,32.2954318257671
1.82624688953803,66.8498993983331,65.7756468879539,-1.07425251037921,-66.3127731431435,33.9620759543562,32.3506971887874
1.82841068917018,66.6202937964075,65.2959448510826,-1.32434894532484,-65.9581193237451,33.9723213708662,31.9857979528789
1.83057448880234,66.1825613622509,64.1353686637047,-2.04719269854625,-65.1589650129778,34.1148770303986,31.0440879825792
1.83273828843449,66.1332412761911,64.0987979783121,-2.03444329787899,-65.1160196272516,34.083842287035,31.0321773402165
1.83490208806665,66.367401529622,64.3422633026224,-2.02513822699963,-65.3548324161222,34.1962698783108,31.1585625378114
1.8370658876988,65.9979895122718,63.7094863215799,-2.28850319069188,-64.8537379169259,34.1432463514818,30.710491565444
1.83922968733095,66.5388450817638,63.5178141845672,-3.02103089719661,-65.0283296331655,34.7799379894802,30.2483916436853
1.84139348696311,67.2037413713037,64.188392101626,-3.01534926967771,-65.6960667364649,35.1095453204907,30.5865214159742
1.84355728659526,67.9591680098457,64.4076530169758,-3.55151499286987,-66.1834105134108,35.7553415013578,30.428069012053
1.84572108622742,68.2403552375006,64.5676792340232,-3.67267600347738,-66.4040172357619,35.956515620489,30.4475016152729
1.84788488585957,67.9052655651623,64.9546295863446,-2.9506359788177,-66.4299475757535,35.42795077199,31.0019968037635
1.85004868549172,67.6607024493402,64.9668866854288,-2.69381576391142,-66.3137945673845,35.1772591066258,31.1365354607587
1.85221248512388,66.6717409428372,64.4355200293126,-2.23622091352463,-65.5536304860749,34.4539809281809,31.099649557894
1.85437628475603,66.2201097424896,64.3178615879993,-1.90224815449031,-65.2689856652444,34.0611789484899,31.2078067167545
1.85654008438819,66.1606457282626,64.5021455173575,-1.65850021090502,-65.33139562281,33.9095729695838,31.4218226532263
1.85870388402034,65.5769338631185,63.2858629390933,-2.29107092402517,-64.4313984011059,33.9340023935718,30.4973960075341
1.86086768365249,65.4210715961579,62.9384790784817,-2.4825925176762,-64.1797753373198,33.9518320569171,30.2279432804028
1.86303148328465,65.3073164888132,63.4954117613332,-1.81190472747991,-64.4013641250732,33.5596106081465,30.8417535169267
1.8651952829168,65.764605454093,63.3615731965748,-2.40303225751819,-64.5630893253339,34.0838188558056,30.4792704695283
1.86735908254896,65.8281987529105,62.9937357396022,-2.83446301330828,-64.4109672462563,34.3313308831094,30.079636363147
1.86952288218111,65.3342995032757,63.2655842803331,-2.06871522294264,-64.2999418918044,33.7015073631092,30.5984345286952
1.87168668181326,65.7842988395835,64.0043036728406,-1.77999516674289,-64.894301256212,33.7821470031632,31.1121542530488
1.87385048144542,65.8425718479779,63.7329847970172,-2.10958705096073,-64.7877783224975,33.9760794494693,30.8116988730282
1.87601428107757,65.8851020411701,63.5349644008955,-2.35013764027462,-64.7100332210328,34.1176198407224,30.5924133803104
1.87817808070973,66.4564548622227,64.2009090804783,-2.25554578174436,-65.3286819713505,34.3560003219835,30.972681649367
1.88034188034188,66.3331407457542,64.9571008799806,-1.37603986577359,-65.6451208128674,33.8545903057639,31.7905305071035
1.88250567997403,65.9729844919895,65.2388465556093,-0.734137936380179,-65.6059155237994,33.3535612141848,32.2523543096146
1.88466947960619,65.9802828992954,65.1743206749273,-0.805962224368088,-65.5773017871114,33.3931225618317,32.1841792252796
1.88683327923834,66.7960782321458,65.127226861738,-1.66885137040774,-65.9616525469419,34.2324648012768,31.7291877456652
1.8889970788705,66.3108565407242,64.5525433109793,-1.75831322974487,-65.4316999258517,34.0345848852345,31.3971150406172
1.89116087850265,65.6865642915033,63.8629578794468,-1.82360641205649,-64.7747610854751,33.7550853517799,31.0196757336952
1.8933246781348,66.0413971070477,63.8999806596023,-2.1414164474454,-64.970688883325,34.0914067772466,30.8792821060785
1.89548847776696,65.7600572095536,63.9270015057181,-1.83305570383556,-64.8435293576358,33.7965564566946,31.0469729009412
1.89765227739911,65.2845668211432,63.1362538667907,-2.14831295435257,-64.210410343967,33.7164398877479,30.4939704562191
1.89981607703127,65.2076893267188,63.0994440382856,-2.1082452884332,-64.1535666825022,33.657967307576,30.4955993749262
1.90197987666342,65.9620494005812,63.3427348254808,-2.61931457510042,-64.652392113031,34.2906819878408,30.3617101251902
1.90414367629558,65.9723019907585,63.5202990952241,-2.45200289553439,-64.7463005429913,34.2121524431464,30.5341480998448
1.90630747592773,65.9797847800115,63.6498932744897,-2.3298915055218,-64.8148390272506,34.1548381427667,30.660000884484
1.90847127555988,66.5255584710091,64.014632993076,-2.51092547793304,-65.2700957320425,34.5182419744711,30.7518537575715
1.91063507519204,67.1940442209791,64.0106797990983,-3.18336442188087,-65.6023620100387,35.18870432143,30.4136576886087
1.91279887482419,67.4117781811755,64.0077945850303,-3.40398359614514,-65.7097863831029,35.4078808886603,30.3019054944426
1.91496267445635,67.840846171361,64.8161574650804,-3.02468870628064,-66.3285018182207,35.4327674388208,30.8957343793999
1.9171264740885,68.4241549905543,65.1359798797668,-3.28817511078749,-66.7800674351605,35.8561650506709,30.9239023844896
1.91929027372065,68.039410673188,65.6395564943015,-2.39985417888653,-66.8394835837448,35.2196324260373,31.6198511577075
1.92145407335281,68.0287636350122,65.7369325463947,-2.2918310886175,-66.8828480907035,35.1602973618149,31.7225507288886
1.92361787298496,68.8314615959526,66.6184704887424,-2.21299110721021,-67.7249660423475,35.5222263515814,32.2027396907661
1.92578167261712,69.6874619283599,66.721543056221,-2.96591887213889,-68.2045024922904,36.3266904002494,31.877812092041
1.92794547224927,69.7718960298598,66.52661371745,-3.2452823124098,-68.1492548736549,36.5085891711348,31.6406657025201
1.93010927188142,70.1036759462174,66.9246581741674,-3.17901777205005,-68.5141670601924,36.6413468591337,31.8728202010587
1.93227307151358,70.3458234571968,67.2151684483015,-3.1306550088953,-68.7804959527491,36.738239233046,32.0422567197031
1.93443687114573,69.7120846782808,66.6167269316507,-3.0953577466301,-68.1644058049658,36.4037212124555,31.7606845925103
1.93660067077789,69.5197105790647,66.4501143200368,-3.06959625902789,-67.9849124495507,36.2946534190463,31.6902590305044
1.93876447041004,68.8389951140116,66.3285131404265,-2.51048197358519,-67.583754127219,35.6747385437984,31.9090155834206
1.94092827004219,68.3421791603598,65.6994508511155,-2.64272830924429,-67.0208150057376,35.492453734802,31.5283612709356
1.94309206967435,67.4392686990006,64.9701774350445,-2.46909126395619,-66.2047230670226,34.9541799814784,31.2505430855441
1.9452558693065,67.8609099550281,64.9782341862211,-2.88267576880699,-66.4195720706246,35.3717928619176,31.0477792087071
1.94741966893866,67.8984859946868,64.9841143560199,-2.91437163866685,-66.4413001753534,35.4064288166768,31.0348713586765
1.94958346857081,67.3855982100708,64.4480935376775,-2.93750467239339,-65.9168458738741,35.1615514412321,30.755294432642
1.95174726820296,67.2814264583336,64.8673507087176,-2.41407574961598,-66.0743885835256,34.8477511039748,31.2266374795508
1.95391106783512,67.2053973524298,64.9031867387579,-2.30221061367182,-66.0542920455939,34.7538039830508,31.3004880625431
1.95607486746727,66.0692831342823,64.3890290189307,-1.68025411535156,-65.2291560766065,33.8747686248169,31.3543874517896
1.95823866709943,65.2400972295631,63.743617989125,-1.49647924043809,-64.491857609344,33.3682882350006,31.1235693743434
1.96040246673158,65.1752334715434,63.0024125463601,-2.17282092518335,-64.0888230089518,33.6740271983634,30.4147958105884
1.96256626636373,64.3174244250632,62.4614483582312,-1.85597606683203,-63.3894363916472,33.0867002459476,30.3027361456996
1.96473006599589,63.4212016092177,61.5263165821821,-1.89488502703554,-62.4737590956999,32.6580433181266,29.8157157775733
1.96689386562804,62.7670989542939,61.6542850999662,-1.11281385432768,-62.2106920271301,31.9399564043108,30.2707356228193
1.9690576652602,63.1001748304145,61.7476821277469,-1.35249270266752,-62.4239284790807,32.226333766541,30.1975947125397
1.97122146489235,62.5327995539615,61.0053787326874,-1.52742082127411,-61.7690891433245,32.0301101876178,29.7389789557067
1.97338526452451,61.8485480210331,59.9233007871533,-1.92524723387975,-60.8859244040932,31.8868976274564,28.9990267766368
1.97554906415666,61.6193075020796,59.9440215559495,-1.67528594613009,-60.7816645290146,31.6472967241049,29.1343678049097
1.97771286378881,60.9116853095908,58.8785196328541,-2.03316567673671,-59.8951024712225,31.4724254931638,28.4226769780587
1.97987666342097,59.5847630124462,57.5605572493008,-2.02420576314536,-58.5726601308735,30.8044843877958,27.7681757430777
1.98204046305312,58.8864732284178,56.3284943788059,-2.55797884961184,-57.6074838036119,30.7222260390148,26.885257764597
1.98420426268528,57.8365183434879,55.6994371580633,-2.13708118542456,-56.7679777507756,29.9867997644562,26.7811779863194
1.98636806231743,56.8000590810351,54.9701674412554,-1.82989163977975,-55.8851132611452,29.3149753604074,26.5701379007378
1.98853186194958,55.7734495148142,53.6274458329581,-2.14600368185619,-54.7004476738861,28.9597265983352,25.7407210755509
1.99069566158174,55.2943411119464,52.6474688079565,-2.64687230398989,-53.9709049599515,28.9706067079682,25.0002982519833
1.99285946121389,54.40435439653,51.9322386637507,-2.4721157327793,-53.1682965301403,28.4382350646546,24.7300614654857
1.99502326084605,53.4846469088949,51.1400761740482,-2.34457073484663,-52.3123615414715,27.9146088218707,24.3977527196008
1.9971870604782,52.8134041121492,50.8320775136222,-1.981326598527,-51.8227408128857,27.3973653553381,24.4253754575476
1.99935086011035,53.1339703622335,50.8774428164301,-2.25652754580335,-52.0057065893318,27.6952489540184,24.3104576353134
2.00151465974251,52.8276212247978,50.3702399771377,-2.45738124766003,-51.5989306009677,27.6425012362289,23.9564293647388
2.00367845937466,52.6040342098418,50.0000611355591,-2.60397307428271,-51.3020476727005,27.6040036420623,23.6980440306382
2.00584225900682,52.9811630396134,50.2702008312797,-2.71096220833367,-51.6256819354465,27.8460626239735,23.779619311473
2.00800605863897,53.2564081733462,50.1972043982566,-3.05920377508964,-51.7268062858014,28.1578059742179,23.5690003115835
2.01016985827112,53.1871379125421,49.8737721931875,-3.31336571935456,-51.5304550528648,28.2502518159483,23.2802032369165
2.01233365790328,53.4067376548638,50.4481858430521,-2.95855181181166,-51.927461748958,28.1826447333377,23.7448170156202
2.01449745753543,53.2968549508002,50.867418077222,-2.42943687357828,-52.0821365140111,27.8631459121893,24.2189906018218
2.01666125716759,53.2166577418167,50.362923483499,-2.85373425831766,-51.7897906126579,28.0351960000672,23.7545946125907
2.01882505679974,52.8879700951432,49.7245650262544,-3.1634050688888,-51.3062675606988,28.025687582016,23.2805799786828
2.02098885643189,52.9182356698556,49.5288192835068,-3.38941638634881,-51.2235274766812,28.1538260281022,23.069701448579
2.02315265606405,52.4000123878104,49.1157992572383,-3.28421313057208,-50.7579058225244,27.8421127591912,22.9157930633331
2.0253164556962,51.7516341326745,49.0845153685653,-2.66711876410926,-50.4180747506199,27.2093764483919,23.208698302228
2.02748025532836,51.5485755026777,48.7915268048771,-2.75704869780066,-50.1700511537774,27.1528121002392,23.0172390535382
2.02964405496051,51.1302182110771,48.8478471335483,-2.28237107752883,-49.9890326723127,26.706294644303,23.2827380280097
2.03180785459266,50.5547265287125,47.8083273280877,-2.74639920062481,-49.1815269284001,26.6505628646687,22.5309640637315
2.03397165422482,50.4048637110908,47.8601088910509,-2.54475482003998,-49.1324863010708,26.4748092655654,22.6576770355054
2.03613545385697,50.0253310527066,47.0874327075042,-2.93789834520245,-48.5563818801054,26.4816146989545,22.0747671811509
2.03829925348913,49.4781752877214,46.2533435828362,-3.22483170488516,-47.8657594352788,26.3515034963033,21.5142559389755
2.04046305312128,49.3489932633799,45.9147450283236,-3.43424823505639,-47.6318691458518,26.3916207492182,21.2402483966336
2.04262685275344,49.2547105653765,45.6676209766432,-3.58708958873325,-47.4611657710099,26.4209000770549,21.040265693955
2.04479065238559,49.1858989239107,45.2171028107556,-3.96879611315508,-47.2015008673332,26.5773475185329,20.6241533488003
2.04695445201774,49.135677174836,45.6987635615585,-3.43691361327749,-47.4172203681972,26.2862953940567,21.1309249741405
2.0491182516499,49.0990231432448,45.7801444566455,-3.31887868659929,-47.4395837999452,26.2089509149221,21.2306328850231
2.05128205128205,49.0722714259782,45.8395397973972,-3.23273162858102,-47.4559056116877,26.1525015272796,21.3034040844081
2.05344585091421,48.7825906394377,45.3425766941452,-3.4400139452925,-47.0625836667915,26.1113022923651,20.9512813744264
2.05560965054636,48.3010127049694,46.0604961077944,-2.24051659717501,-47.1807544063819,25.2707646510722,21.9099897553097
2.05777345017851,49.3003171003562,46.5844651322229,-2.71585196813324,-47.9423911162896,26.0080845342447,21.9343065820449
2.05993724981067,50.8401218413935,47.5071930936171,-3.33292874777643,-49.1736574675053,27.086525294585,22.0871321729203
2.06210104944282,53.5848760378001,49.2612652118595,-4.32361082594055,-51.4230706248298,28.9542434318703,22.4688271929595
2.06426484907498,58.2896799567031,53.2430259700044,-5.04665398669872,-55.7663529633537,31.6681669717009,24.0981859916528
2.06642864870713,65.2354826256077,58.0401828082511,-7.19529981735663,-61.6378327169294,36.2153912214822,25.4224414954472
2.06859244833928,72.736239463918,63.7026076222961,-9.03363184162183,-68.219423543107,40.8849356527699,27.3344878903371
2.07075624797144,81.182338579208,70.8070115291588,-10.3753270500492,-75.9946750541834,45.7788328146286,30.2158422395548
2.07292004760359,90.0482336711353,78.4235224957822,-11.6247111753532,-84.2358780834587,50.8364724232442,33.3994056602145
2.07508384723575,97.5995769776627,84.7928543475986,-12.8067226300641,-91.1962156626307,55.2031498038634,35.9930658587673
2.0772476468679,102.570565558213,89.9817840579183,-12.5887815002948,-96.2761748080657,57.579673529254,38.6965012788117
2.07941144650005,105.658298270842,94.0390483859014,-11.6192498849402,-99.8486733283715,58.6387740778909,41.2098992504806
2.08157524613221,106.561079751196,96.4599051287314,-10.1011746224646,-101.510492439964,58.3311271868302,43.1793652531334
2.08373904576436,106.139344359183,97.4162837488195,-8.72306061036377,-101.777814054001,57.4312024847735,44.3466115692279
2.08590284539652,105.021074767474,97.3038221081747,-7.71725265929938,-101.162448437824,56.3691637133867,44.7932847244377
2.08806664502867,102.043662957539,95.6008054071175,-6.44285755042162,-98.8222341823283,54.2432602539804,44.5789739283479
2.09023044466082,97.9795239602566,92.4667757636706,-5.51274819658603,-95.2231498619636,51.7461360784213,43.4770137835423
2.09239424429298,93.6625562996415,89.0987988491041,-4.56375745053739,-91.3806775743728,49.1131568750895,42.2675206992834
2.09455804392513,89.7013756333757,86.3705456075765,-3.33083002579923,-88.0359606204761,46.5161028295875,41.5198577908886
2.09672184355729,85.7297076829608,83.0285658674482,-2.70114181551263,-84.3791367752045,44.2154247492367,40.1637120259678
2.09888564318944,82.5608542889704,80.0491302903215,-2.51172399864893,-81.304992289646,42.5362891438097,38.7687031458363
2.10104944282159,80.2480863238771,78.9552325897135,-1.29285373416356,-79.6016594567953,40.7704700290203,38.831189427775
2.10321324245375,78.5601269911714,77.0762333005903,-1.48389369058111,-77.8181801458809,40.0220103408763,37.7961698050046
2.1053770420859,75.9773992982247,75.1645449177829,-0.812854380441848,-75.5709721080038,38.3951268393333,37.1758452686705
2.10754084171806,74.6327239588438,73.4991548148821,-1.13356914396169,-74.0659393868629,37.8831465514027,36.1827928354602
2.10970464135021,73.6513210153472,72.2836801934695,-1.3676408218777,-72.9675006044083,37.5094809186124,35.4580196857959
2.11186844098237,72.394737749642,70.8562611676605,-1.53847658198148,-71.6254994586513,36.9666071658118,34.6588922928395
2.11403224061452,71.4776282589011,69.544312046746,-1.93331621215506,-70.5109701528235,36.7054722355281,33.8054979172955
2.11619604024667,70.8082815940502,68.8569503423777,-1.9513312516725,-69.832615968214,36.3798064228614,33.4528095453526
2.11835983987883,70.8600755123477,68.6254398841188,-2.23463562822883,-69.7427576982333,36.5473555702883,33.195402127945
2.12052363951098,69.8172521343933,67.9161609905286,-1.90109114386476,-68.866706562461,35.8591716391291,33.0075349233319
2.12268743914314,69.32631018175,67.3984981959912,-1.92781198575881,-68.3624041888706,35.6270610837544,32.7353431051162
2.12485123877529,68.9679992472816,67.0206852210529,-1.94731402622874,-67.9943422341672,35.4576566367552,32.5366855974121
2.12701503840744,68.1661758137981,65.9344721326049,-2.23170368119318,-67.0503239732015,35.1989397474957,31.8513842257059
2.1291788380396,67.5809699616944,65.1417062574175,-2.43926370427697,-66.361338109556,35.0101168329857,31.3512212765703
2.13134263767175,66.8837048938886,65.1034234317151,-1.78028146217351,-65.9935641628018,34.331993178031,31.6615709847708
2.13350643730391,66.3748103154716,65.0754829491842,-1.2993273662874,-65.7251466323279,33.8370688408795,31.8880777914484
2.13567023693606,65.4630843448584,64.5147783378284,-0.948306007030041,-64.9889313413434,33.2056951759442,31.7832361653992
2.13783403656821,65.3379792324744,64.1055515602554,-1.23242767221896,-64.7217653963649,33.2852034523467,31.4365619440182
2.13999783620037,64.9765158314662,64.0770361505797,-0.8994796808865,-64.526775991023,32.9379977561764,31.5887782348466
2.14216163583252,64.7127040136046,62.9755995084753,-1.73710450512926,-63.84415176104,33.2249042593669,30.619247501673
2.14432543546468,63.9798501733602,62.4418790290902,-1.53797114427002,-63.2108646012252,32.7589106588151,30.4519539424101
