t,leadI,leadII,leadIII,aVR,aVL,aVF
0,-7.14344898188088,-5.46744769094629,1.6760012909346,6.30544833641359,-4.40972513640774,-1.89572320000584
0.00279485746226942,-29.2515230024068,-43.6641854960754,-14.4126624936685,36.4578542492411,-7.41943025436914,-29.038423994872
0.00558971492453885,-50.2943616978325,-77.4648929242697,-27.1705312264371,63.8796273110511,-11.5619152356977,-52.3177120753534
0.00838457238680827,-68.9692135353938,-103.39251981239,-34.4233062769963,86.180866673892,-17.2729536291988,-68.9079130446932
0.0111794298490777,-83.8022191967101,-119.598705588131,-35.7964863914212,101.700462392421,-24.0028664026445,-77.6975959897763
0.0139742873113471,-93.5815395583089,-126.172667316827,-32.5911277585177,109.877103437568,-30.4952058998956,-79.3818975376721
0.0167691447736165,-97.9354315528824,-124.954120096864,-27.0186885439812,111.444775824873,-35.4583715044506,-75.9864043204225
0.019564002235886,-97.6713389131393,-118.903020667291,-21.231681754152,108.287179790215,-38.2198285794937,-70.0673512107217
0.0223588596981554,-94.5948558563623,-111.229859737964,-16.6350038816019,102.912357797163,-38.9799259873802,-63.9324318097831
0.0251537171604248,-90.8404015861742,-104.563950852297,-13.7235492661224,97.7021762192354,-38.5584261600259,-59.1437500592095
0.0279485746226942,-88.0586440209027,-100.402473218842,-12.3438291979391,94.2305586198722,-37.8574074114818,-56.3731512083904
0.0307434320849637,-86.8990993961183,-98.9698805264019,-12.0707811302837,92.9344899612601,-37.4141591329173,-55.5203308283428
0.0335382895472331,-87.0344552319431,-99.4794911776387,-12.4450359456956,93.2569732047909,-37.2947096431237,-55.9622635616672
0.0363331470095025,-87.6331069264253,-100.666096581926,-13.0329896555005,94.1496017541756,-37.3000586354624,-56.8495431187131
0.0391280044717719,-87.9370838441348,-101.377123681918,-13.4400398377829,94.6571037630262,-37.248522003176,-57.4085817598503
0.0419228619340414,-87.6070177636312,-101.001683515965,-13.3946657523336,94.304350639798,-37.1061760056488,-57.1981746341492
0.0447177193963108,-86.7195155122538,-99.5983552810165,-12.8788397687627,93.1589353966352,-36.9203378717456,-56.2385975248896
0.0475125768585802,-85.5527567346945,-97.7224789226971,-12.1697221880025,91.6376178286958,-36.691517273346,-54.9461005553498
0.0503074343208496,-84.3878599097448,-96.0825686776606,-11.6947087679157,90.2352142937027,-36.3465755709146,-53.8886387227882
0.0531022917831191,-83.4496857392487,-95.2077220885037,-11.758036349255,89.3287039138762,-35.8458246949969,-53.4828792188793
0.0558971492453885,-82.9334272576191,-95.2611806829651,-12.3277534253461,89.0973039702921,-35.3028369161365,-53.7944670541556
0.0586920067076579,-82.9817152602112,-96.0307605167795,-13.0490452565682,89.5062378884954,-34.9663350018215,-54.5399028866739
0.0614868641699273,-83.5612486958098,-97.0430582509178,-13.481809555108,90.3021534733637,-35.0397195703509,-55.2624339030129
0.0642817216321968,-84.344797869035,-97.7303818259037,-13.3855839568687,91.0375898474693,-35.4796069560831,-55.5579828913862
0.0670765790944662,-84.7630481800414,-97.603865619888,-12.8408174398466,91.1834568999647,-35.9611153700974,-55.2223415298673
0.0698714365567356,-84.2719084947422,-96.4036214237398,-12.1317129289975,90.337764959241,-36.0700977828724,-54.2676671763686
0.072666294019005,-82.681910702029,-94.1893329553637,-11.5074222533347,88.4356218286964,-35.5872442243472,-52.8483776043492
0.0754611514812745,-80.3036760961381,-91.3271245934789,-11.0234484973407,85.8154003448085,-34.6401137993987,-51.1752865454098
0.0782560089435439,-77.7772051708306,-88.3561206694482,-10.5789154986176,83.0666629201394,-33.5991448361065,-49.4675180840329
0.0810508664058133,-75.6898727592108,-85.7817995691787,-10.0919268099679,80.7358361641948,-32.7989729746215,-47.9368631895733
0.0838457238680827,-74.2529430423877,-83.8950085141451,-9.64206547175746,79.0739757782664,-32.3054387853151,-46.7685369929513
0.0866405813303521,-73.2605672439011,-82.7058649698787,-9.44529772597768,77.9832161068899,-31.9076347589617,-46.0755813479282
0.0894354387926216,-72.3342589290668,-82.0144817251959,-9.6802227961291,77.1743703271313,-31.3270180664688,-45.8473522606625
0.092230296254891,-71.240342044225,-81.5623885643651,-10.32204652014,76.4013653042951,-30.4591477620425,-45.9422175422525
0.0950251537171604,-70.0326164509587,-81.1663695217983,-11.1337530708397,75.5994929863785,-29.4494316900595,-46.150061296319
0.0978200111794298,-68.9367045249227,-80.7556254826524,-11.8189209577297,74.8461650037875,-28.5588917835965,-46.2872732201911
0.100614868641699,-68.1068856450481,-80.3057852687431,-12.198899623695,74.2063354568956,-27.9539930106766,-46.2523424462191
0.103409726103969,-67.4722354532802,-79.7407983878716,-12.2685629345914,73.6065169205759,-27.6018362593444,-46.0046806612315
0.106204583566238,-66.7905147186366,-78.8965889488358,-12.1060742301992,72.8435518337362,-27.3422202442187,-45.5013315895175
0.108999441028508,-65.8426746808169,-77.5889863427519,-11.746311661935,71.7158305117844,-27.048181509441,-44.6676490023435
0.111794298490777,-64.5892414193202,-75.7425023670247,-11.1532609477046,70.1658718931725,-26.7179902358078,-43.4478816573647
0.114589155953046,-63.1631816308391,-73.4845001226691,-10.32131849183,68.3238408767541,-26.4209315695046,-41.9029093072495
0.117384013415316,-61.7332748574137,-71.132459348141,-9.39918449072729,66.4328671027774,-26.1670451833432,-40.2658219194341
0.120178870877585,-60.38496445736,-69.0773821946269,-8.69241773726687,64.7311733259934,-25.8462733600466,-38.8848999659469
0.122973728339855,-59.1300774215455,-67.6293850848306,-8.49930766328512,63.379731253188,-25.3153848791302,-38.0643463740578
0.125768585802124,-58.012369598936,-66.9000066091103,-8.88763701017437,62.4561881040231,-24.5623662943808,-37.8938218096423
0.128563443264394,-57.166503632773,-66.7624182359556,-9.59591460318256,61.9644609343643,-23.7852945147952,-38.1791664195691
0.131358300726663,-56.7280986765219,-66.8927110763823,-10.1646123998604,61.8104048764521,-23.2817431383308,-38.5286617381213
0.134153158188932,-56.6498910720629,-66.8714278126482,-10.2215367405853,61.7606594423556,-23.2141771657388,-38.5464822766168
0.136948015651202,-56.600210764168,-66.3118325974645,-9.71162183329648,61.4560216808162,-23.4442944654358,-38.0117272153805
0.139742873113471,-56.0801376293941,-64.9770331644777,-8.89689553508362,60.5285853969359,-23.5916210471552,-36.9369643497807
0.142537730575741,-54.7176056337927,-62.8532322295958,-8.13562659580315,58.7854189316942,-23.2909895189947,-35.4944294126995
0.14533258803801,-52.5303651975142,-60.1578185977272,-7.62745340021304,56.3440918976207,-22.4514558986506,-33.8926359989701
0.148127445500279,-49.9447478629434,-57.2734278279805,-7.32867996503711,53.6090878454619,-21.3080339489531,-32.3010538965088
0.150922302962549,-47.5325865434568,-54.6159079999321,-7.08332145647533,51.0742472716945,-20.2246325434907,-30.8496147282037
0.153717160424818,-45.6480990384909,-52.4732326689726,-6.82513363048163,49.0606658537318,-19.4114827040047,-29.6491831497271
0.156512017887088,-44.2294436700202,-50.8845707096248,-6.65512703960458,47.5570071898225,-18.7871583152078,-28.7698488746147
0.159306875349357,-42.9032182554527,-49.6310037752993,-6.72778551984669,46.267111015376,-18.087716367803,-28.179394647573
0.162101732811627,-41.2943709196617,-48.3583274254811,-7.06395650581948,44.8263491725714,-17.1152072069211,-27.7111419656503
0.164896590273896,-39.2938094509952,-46.7720923218,-7.47828287080483,43.0329508863976,-15.9077632900952,-27.1251875963024
0.167691447736165,-37.0928678121659,-44.7948553631981,-7.70198755103219,40.943861587682,-14.6954401305669,-26.2484214571151
0.170486305198435,-34.996656043337,-42.5961433914562,-7.5994873481192,38.7963997173966,-13.6985843476089,-25.0978153697877
0.173281162660704,-33.1974839423891,-40.4836894682023,-7.28620552581311,36.8405867052957,-12.955639208288,-23.8849474970077
0.176076020122974,-31.6908395595979,-38.7261297175764,-7.03529015797852,35.2084846385872,-12.3277747008097,-22.8807099377775
0.178870877585243,-30.3658744729421,-37.4093542303286,-7.04347975738651,33.8876143516353,-11.6611973577778,-22.2264169938575
0.181665735047513,-29.1420775609842,-36.3960294279563,-7.25395186697203,32.7690534944703,-10.9440628470061,-21.8249906474641
0.184460592509782,-27.998787620903,-35.3910572171983,-7.3922695962953,31.6949224190507,-10.3032590123039,-21.3916634067468
0.187255449972051,-26.8723904778187,-34.0640362855778,-7.19164580775904,30.4682133816982,-9.84037233502984,-20.6278410466684
0.190050307434321,-25.5499585825495,-32.1710791512068,-6.62112056865735,28.8605188668782,-9.46441900694607,-19.3960998599321
0.19284516489659,-23.7144819400407,-29.6397990857357,-5.92531714569501,26.6771405128882,-8.89458239717286,-17.7825581157154
0.19564002235886,-21.1610416617191,-26.6012177987096,-5.44017613699046,23.8811297302143,-7.86043276236433,-16.02069696785
0.198434879821129,-18.0249874589687,-23.3609852482629,-5.33599778929415,20.6929863536158,-6.34449483483728,-14.3484915187785
0.201229737283399,-14.812509633267,-20.3150500713553,-5.50254043808828,17.5637798523112,-4.65498459758937,-12.9087952547218
0.204024594745668,-12.1633784690772,-17.8359195271384,-5.67254105806117,14.9996489981078,-3.24541870550802,-11.7542302925998
0.206819452207937,-10.493520515175,-16.1674260680087,-5.67390555283372,13.3304732915919,-2.40980748117063,-10.9206658104212
0.209614309670207,-9.77440714974107,-15.3604632518789,-5.58605610213783,12.56743520081,-2.09417552380162,-10.4732596770084
0.212409167132476,-9.61047054953339,-15.2704638581517,-5.65999330861835,12.4404672038426,-1.97523862045752,-10.465228583385
0.215204024594746,-9.54833760562105,-15.6224711779048,-6.07413357228378,12.5854043917629,-1.73710201666864,-10.8483023750943
0.217998882057015,-9.37639122982204,-16.1236108724118,-6.74721964258973,12.7500010511169,-1.31458579361615,-11.4354152575008
0.220793739519285,-9.19572071027275,-16.5749435757807,-7.37922286550796,12.8853321430267,-0.908248922382395,-11.9770832206443
0.223588596981554,-9.2425369643052,-16.9303339624159,-7.68779699811069,13.0864354633605,-0.777369983097255,-12.3090654802633
0.226383454443823,-9.64318512703516,-17.2780372557854,-7.63485212875029,13.4606111914103,-1.00416649914243,-12.4564446922679
0.229178311906093,-10.3164015871777,-17.7637116206377,-7.44731003345994,14.0400566039077,-1.43454577685888,-12.6055108270488
0.231973169368362,-11.0866143160869,-18.5048509377942,-7.41823662170733,14.7957326269406,-1.83418884718979,-12.9615437797508
0.234768026830632,-11.8790914687243,-19.5464956860106,-7.66740421728631,15.7127935773675,-2.105843625719,-13.6069499516485
0.237562884292901,-12.8052203209549,-20.8757921401587,-8.07057181920377,16.8405062305568,-2.36732425087556,-14.4731819796812
0.24035774175517,-14.0626273373138,-22.4719173614624,-8.40929002414868,18.2672723493881,-2.82666865658254,-15.4406036928056
0.24315259921744,-15.7529749998923,-24.3479167941465,-8.59494179425425,20.0504458970194,-3.57901660281901,-16.4714292942004
0.245947456679709,-17.793912983457,-26.5524647935134,-8.75855181005637,22.1731888884852,-4.51768058670033,-17.6555083017849
0.248742314141979,-20.0094148053183,-29.1306257359764,-9.1212109306581,24.5700202706474,-5.4441019373301,-19.1259183333173
0.251537171604248,-22.3120575455814,-32.0728138537642,-9.76075630818287,27.1924356996728,-6.27565061869925,-20.9167850809736
0.254332029066518,-24.7973434932084,-35.2902059627463,-10.4928624695379,30.0437747279773,-7.15224051183526,-22.8915342161421
0.257126886528787,-27.6454354542192,-38.6351735807877,-10.9897381265685,33.1403045175035,-8.32784866382532,-24.8124558536781
0.259921743991056,-30.9080382953312,-41.9528424494994,-11.0448041541683,36.4304403724153,-9.93161707058145,-26.4988233018339
0.262716601453326,-34.3782715349674,-45.1309237244719,-10.7526521895045,39.7545976297196,-11.8128096727315,-27.9417879569882
0.265511458915595,-37.6805388701465,-48.1198336264499,-10.4392947563033,42.9001862482982,-13.6206220569216,-29.2795641913766
0.268306316377865,-40.522703525418,-50.9144569163657,-10.3917533909476,45.7185802208919,-15.0654750672352,-30.6531051536566
0.271101173840134,-42.8975179983657,-53.5098227300532,-10.6123047316875,48.2036703642094,-16.1426066333391,-32.0610637308703
0.273896031302404,-45.0503967030661,-55.8578440623166,-10.8074473592505,50.4541203826914,-17.1214746719078,-33.3326457107836
0.276690888764673,-47.2300285811569,-57.855062567281,-10.6250339861241,52.5425455742189,-18.3024972975164,-34.2400482767026
0.279485746226942,-49.4335414587426,-59.3763476047727,-9.94280614603009,54.4049445317576,-19.7453676563562,-34.6595768754014
0.282280603689212,-51.3720727811139,-60.340284440397,-8.96821165928311,55.8561786107554,-21.2019305609154,-34.65424804984
0.285075461151481,-52.6970845578604,-60.767744715975,-8.07066015811461,56.7324146369177,-22.3132121998729,-34.4192024370448
0.287870318613751,-53.3011280486149,-60.7974809698126,-7.49635292119771,57.0493045092138,-22.9023875637086,-34.1469169455052
0.29066517607602,-53.4375706955144,-60.650443960247,-7.21287326473263,57.0440073278807,-23.1123487153909,-33.9316586124898
0.29346003353829,-53.5553201376481,-60.5616378782236,-7.00631774057554,57.0584790079359,-23.2745011985363,-33.7839778093996
0.296254891000559,-53.9845384328179,-60.7050461084391,-6.72050767562125,57.3447922706285,-23.6320153785983,-33.7127768920302
0.299049748462828,-54.7277896245377,-61.1316710821829,-6.40388145764518,57.9297303533603,-24.1619540834463,-33.767776269914
0.301844605925098,-55.5096353029884,-61.7381233170939,-6.22848801410554,58.6238793100412,-24.6405736444414,-33.9833056655997
0.304639463387367,-56.0134883166381,-62.2818165215018,-6.26832820486376,59.14765241907,-24.8725800558872,-34.2750723631828
0.307434320849637,-56.0889645458823,-62.4492682427202,-6.36030369683792,59.2691163943013,-24.8643304245222,-34.4047859697791
0.310229178311906,-55.7693173958521,-61.9655810898252,-6.1962636939731,58.8674492428386,-24.7865268509395,-34.0809223918992
0.313024035774175,-55.131627514671,-60.7132459370434,-5.58161842237246,57.9224367258572,-24.7750045461493,-33.1474321797079
0.315818893236445,-54.176458514045,-58.8152258150348,-4.63876730098976,56.4958421645399,-24.7688456065276,-31.7269965580123
0.318613750698714,-52.8688428925758,-56.6388475636423,-3.77000467106652,54.7538452281091,-24.5494191107547,-30.2044261173544
0.321408608160984,-51.307472366749,-54.700655109206,-3.39318274245698,53.0040637379775,-23.957144812146,-29.0469189258315
0.324203465623253,-49.8397602141799,-53.4951556867659,-3.65539547258603,51.6674579504729,-23.0921823707969,-28.575275579676
0.326998323085523,-48.9616110090483,-53.3113101898182,-4.34969918076987,51.1364605994332,-22.3059559141392,-28.830504685294
0.329793180547792,-49.0237542839261,-54.1138385306667,-5.0900842467406,51.5687964072964,-21.9668350185927,-29.6019613887036
0.332588038010061,-49.9532822293024,-55.5422643148312,-5.58898208552873,52.7477732720668,-22.1821500718868,-30.5656232001799
0.335382895472331,-51.2218268422235,-57.0303713061908,-5.80854446396736,54.1260990742071,-22.706641189128,-31.4194578850791
0.3381777529346,-52.1188089776717,-57.9976669925888,-5.87885801491707,55.0582379851303,-23.1199754813773,-31.9382625037529
0.34097261039687,-52.1526674092665,-58.0390401057224,-5.88637269645584,55.0958537574945,-23.1331473564053,-31.9627064010891
0.343767467859139,-51.2987631635766,-57.0485504009577,-5.74978723738116,54.1736567822671,-22.7744879630977,-31.3991688191694
0.346562325321409,-49.9313220666313,-55.2442680012108,-5.3129459345795,52.587795033921,-22.3091880660259,-30.2786069678951
0.349357182783678,-48.5207805323127,-53.0915997062638,-4.57081917395114,50.8061901192882,-21.9749806791808,-28.8312094401075
0.352152040245947,-47.3432841377189,-51.145298895969,-3.80201475825005,49.244291516844,-21.7706346897344,-27.4736568271095
0.354946897708217,-46.406645000226,-49.8545043370702,-3.44785933684415,48.1305746686481,-21.479392831691,-26.6511818369572
0.357741755170486,-45.5975055448244,-49.4006777098395,-3.80317216501511,47.499091627332,-20.8971666899047,-26.6019249374273
0.360536612632756,-44.8739037913909,-49.640047173748,-4.76614338235716,47.2569754825695,-20.0538802045169,-27.2030952780526
0.363331470095025,-44.3155564771695,-50.1788818194866,-5.86332534231705,47.2472191483281,-19.2261155674262,-28.0211035809018
0.366126327557295,-43.9990880984076,-50.5423158209193,-6.54322772251173,47.2707019596634,-18.7279301879479,-28.5427717717155
0.368921185019564,-43.8395087807083,-50.3547775491502,-6.51526876844188,47.0971431649292,-18.6621200061332,-28.435023158796
0.371716042481833,-43.5747978729601,-49.4588171213658,-5.88401924840572,46.516807497163,-18.8453893122772,-27.6714181848858
0.374510899944103,-42.9384992055915,-47.9414357746278,-5.00293656903638,45.4399674901097,-18.9677813182775,-26.4721861718321
0.377305757406372,-41.8848413407543,-46.0788346845222,-4.19399334376787,43.9818380126382,-18.8454239984932,-25.136414014145
0.380100614868642,-40.6646602880041,-44.2322810644605,-3.5676207764564,42.4484706762323,-18.5485197557739,-23.8999509204585
0.382895472330911,-39.664401435253,-42.7290170828027,-3.06461564754973,41.1967092590278,-18.2998928938516,-22.8968163651762
0.385690329793181,-39.1218499838451,-41.7555585949862,-2.63370861114107,40.4387042894157,-18.244070686352,-22.1946336030636
0.38848518725545,-38.9455111120736,-41.2911501433261,-2.34563903125255,40.1183306276999,-18.2999360404105,-21.8183945872894
0.391280044717719,-38.7860519648107,-41.1130031533371,-2.32695118852639,39.9495275590739,-18.2295503881422,-21.7199771709318
0.394074902179989,-38.3007955708574,-40.8895067911682,-2.58871122031071,39.5951511810128,-17.8560421752734,-21.7391090057394
0.396869759642258,-37.395051434443,-40.3349289181674,-2.93987748372436,38.8649901763052,-17.2275869753593,-21.6374032009459
0.399664617104528,-36.2549749533339,-39.357263645533,-3.1022886921991,37.8061192994335,-16.5763431305674,-21.229776168866
0.402459474566797,-35.1741629437917,-38.1247659199906,-2.95060297619884,36.6494644318912,-16.1117799837965,-20.5376844480947
0.405254332029067,-34.3474157496653,-37.0113587458385,-2.66394299617327,35.6793872477519,-15.841736376746,-19.8376508710059
0.408049189491336,-33.8091788905437,-36.4364529542485,-2.62727406370475,35.1228159223961,-15.5909524134195,-19.5318635089766
0.410844046953605,-33.53881048632,-36.6673866533928,-3.1285761670728,35.1030985698564,-15.2051171596236,-19.8979814102328
0.413638904415875,-33.5902286772828,-37.6780732525504,-4.08784457526762,35.6341509649166,-14.7511920510076,-20.882958913909
0.416433761878144,-34.0826527858189,-39.1343582544128,-5.05170546859384,36.6085055201159,-14.5154736586125,-22.0930318615033
0.419228619340414,-35.0316468672212,-40.5118445292067,-5.48019766198547,37.771745698214,-14.7757246026179,-22.9960210955961
0.422023476802683,-36.1745696399343,-41.2866449662213,-5.11207532628707,38.7306073030778,-15.5312471568236,-23.1993601462542
0.424818334264952,-36.9869537713047,-41.1147403980459,-4.12778662674116,39.0508470846753,-16.4295835722818,-22.6212635123935
0.427613191727222,-36.9437295334285,-39.9370764975404,-2.99334696411194,38.4404030154844,-16.9751912846583,-21.4652117308262
0.430408049189491,-35.8625405253005,-37.9886092021826,-2.12606867688214,36.9255748637416,-16.8682359242092,-20.0573389395324
0.433202906651761,-34.0649259108597,-35.721753349992,-1.65682743913234,34.8933396304258,-16.2040492358637,-18.6892903945622
0.43599776411403,-32.2092482115001,-33.6700427231864,-1.46079451168623,32.9396454673433,-15.374226849907,-17.5654186174363
0.4387926215763,-30.9005273803031,-32.2856808892508,-1.38515350894765,31.593104134777,-14.7576869356777,-16.8354171990992
0.441587479038569,-30.356784872755,-31.7945517583207,-1.43776688556567,31.0756683155378,-14.4595089935947,-16.6161593219432
0.444382336500838,-30.3630624544918,-32.1200827332151,-1.75702027872339,31.2415725938534,-14.3030210878842,-16.9385515059693
0.447177193963108,-30.5153642187574,-32.9168162445217,-2.40145202576431,31.7160902316395,-14.0569560964965,-17.659134135143
0.449972051425377,-30.5368508409684,-33.7142305652999,-3.17737972433153,32.1255407031342,-13.6797355583184,-18.4458051448157
0.452766908887647,-30.4163963115663,-34.1135146996681,-3.69711838810173,32.2649555056172,-13.3596389617323,-18.9053165438849
0.455561766349916,-30.2925786595143,-33.9414508535601,-3.64887219404574,32.1170147565372,-13.3218532327343,-18.7951615238029
0.458356623812186,-30.2265256854575,-33.2826983523376,-3.05617266688017,31.7546120188975,-13.5851765092886,-18.1694355096089
0.461151481274455,-30.0864039831136,-32.3834370612049,-2.29703307809125,31.2349205221593,-13.8946854525112,-17.3402350696481
0.463946338736724,-29.6483358388767,-31.4957507919198,-1.8474149530431,30.5720433153982,-13.9004604429168,-16.6715828724814
0.466741196198994,-28.8142798859199,-30.7562293288592,-1.94194944293928,29.7852546073895,-13.4361652214903,-16.3490893858992
0.469536053661263,-27.7367646323615,-30.1529962645547,-2.41623163219317,28.9448804484581,-12.6602665000842,-16.2846139483739
0.472330911123533,-26.7213128675984,-29.5713717212995,-2.85005885370109,28.146342294449,-11.9356270069487,-16.2107152875003
0.475125768585802,-25.9781062209791,-28.8675816671861,-2.88947544620708,27.4228439440826,-11.544315387386,-15.8785285566966
0.477920626048072,-25.4356609998052,-27.9240521175253,-2.48839111772016,26.6798565586652,-11.4736349410425,-15.2062216176227
0.480715483510341,-24.7856936272177,-26.6753042390907,-1.88961061187297,25.7304989331542,-11.4480415076724,-14.2824574254818
0.48351034097261,-23.7349364002357,-25.1240426705404,-1.38910627030468,24.4294895353881,-11.1729150649655,-13.2565744704225
0.48630519843488,-22.2594564361569,-23.3624751443629,-1.10301870820603,22.8109657902599,-10.5782188639754,-12.2327469262845
0.489100055897149,-20.6459908352368,-21.579584180213,-0.933593344976174,21.1127875077249,-9.85619874513031,-11.2565887625946
0.491894913359419,-19.277504488295,-20.0124200484981,-0.734915560203124,19.6449622683965,-9.27129446404593,-10.3736678043506
0.494689770821688,-18.3322545064107,-18.8274617901018,-0.495207283691101,18.5798581482563,-8.91852361135982,-9.66133453689647
0.497484628283958,-17.6376019517803,-17.9876220005736,-0.350020048793308,17.812611976177,-8.6437909514935,-9.16882102468346
0.500279485746227,-16.7916638171611,-17.2087580977902,-0.41709428062903,17.0002109574756,-8.18728476826605,-8.81292618920959
0.503074343208496,-15.4480911603477,-16.0747438498344,-0.626652689486685,15.761417505091,-7.41071923543049,-8.35069826966052
0.505869200670766,-13.5378576294376,-14.2714439305725,-0.733586301134912,13.9046507800051,-6.40213566415135,-7.50251511585372
0.508664058133035,-11.2750795637361,-11.8016110931223,-0.526531529386208,11.5383453284292,-5.37427401717494,-6.16407131125425
0.511458915595305,-8.98505944346564,-9.03885944879436,-0.0538000053287142,9.01195944613,-4.46562971906847,-4.54632972706154
0.514253773057574,-6.92630157110886,-6.57644725065494,0.349854320453916,6.7513744108819,-3.63807794578139,-3.11329646510051
0.517048630519844,-5.24359778787605,-4.95257242349679,0.291025364379265,5.09808510568642,-2.76731157612766,-2.33077352955876
0.519843487982113,-4.03694198898459,-4.40279655898396,-0.365854569999377,4.21986927398427,-1.8355437094926,-2.38432556449167
0.522638345444382,-3.41727424389931,-4.76899097006059,-1.35171672616128,4.09313260697995,-1.03277875886902,-3.06035384811093
0.525433202906652,-3.45367478234361,-5.60617168871365,-2.15249690637004,4.52992323552863,-0.650588937986789,-3.87933429754184
0.528228060368921,-4.05410994368258,-6.42169971665403,-2.36758977297146,5.23790483016831,-0.843260085355561,-4.39464474481275
0.531022917831191,-4.91825467075025,-6.90918792503538,-1.99093325428513,5.91372129789282,-1.46366070823256,-4.45006058966026
0.53381777529346,-5.65671898685711,-7.04754092837282,-1.39082194151571,6.35212995761496,-2.1329485226707,-4.21918143494426
0.536612632755729,-6.0211483595134,-7.02798060192795,-1.00683224241455,6.52456448072068,-2.50715805854943,-4.01740642217125
0.539407490217999,-6.06941554181669,-7.08727977234758,-1.01786423053089,6.57834765708213,-2.5257756556429,-4.05257200143924
0.542202347680268,-6.11849769835828,-7.37392067781244,-1.25542297945416,6.74620918808536,-2.43153735945206,-4.3146718286333
0.544997205142538,-6.50490558920476,-7.92133873094028,-1.41643314173552,7.21312216007252,-2.54423622373462,-4.6688859363379
0.547792062604807,-7.33688140656141,-8.70590788528078,-1.36902647871937,8.0213946459211,-2.98392746392102,-5.03746718200007
0.550586920067077,-8.43689806265471,-9.71241684405039,-1.27551878139568,9.07465745335255,-3.58068964062951,-5.49396781272304
0.553381777529346,-9.51845125533128,-10.948473330959,-1.43002207562767,10.2334622931451,-4.0442145898518,-6.18924770329331
0.556176634991615,-10.4438799945186,-12.4080954058198,-1.96421541130114,11.4259877001692,-4.23983229160875,-7.18615540856046
0.558971492453885,-11.3385816299818,-14.0288200189265,-2.69023838894464,12.6837008244542,-4.3241716205186,-8.35952920393557
0.561766349916154,-12.460035923771,-15.6849731006793,-3.22493717690827,14.0725045122252,-4.61754937343138,-9.4549551387938
0.564561207378424,-13.9358500308771,-17.2240185680982,-3.2881685372211,15.5799342994877,-5.323840746828,-10.2560935526596
0.567356064840693,-15.6037895881424,-18.5198310761852,-2.91604148804284,17.0618103321638,-6.34387405004976,-10.717936282114
0.570150922302962,-17.1012684521937,-19.5103539011625,-2.40908544896878,18.3058111766781,-7.34609150161246,-10.9597196750656
0.572945779765232,-18.1333413226111,-20.2021400446317,-2.06879872202058,19.1677406836214,-8.03227130029528,-11.1354693833262
0.575740637227501,-18.6861351837093,-20.643392088283,-1.95725690457377,19.6647636359962,-8.36443913956775,-11.3003244964284
0.578535494689771,-18.9947456097137,-20.8818863721765,-1.88714076246274,19.9383159909451,-8.5538024236255,-11.3845135673196
0.58133035215204,-19.2935915689763,-20.9338469393291,-1.64025537035283,20.1137192541527,-8.82666809931173,-11.287051154841
0.58412520961431,-19.5803595940645,-20.7891887150192,-1.20882912095466,20.1847741545419,-9.18576523655494,-10.9990089179869
0.586920067076579,-19.6218931439331,-20.4593768611361,-0.837483717203053,20.0406350025346,-9.39220471336501,-10.6484302891696
0.589714924538849,-19.2142258414876,-20.0401167421391,-0.825890900651487,19.6271712918133,-9.19416747041804,-10.4330038213953
0.592509782001118,-18.4695266327667,-19.7347102952015,-1.26518366243478,19.1021184639841,-8.60217148516594,-10.4999469788181
0.595304639463387,-17.8581775054234,-19.7937099806781,-1.93553247525474,18.8259437430507,-7.96132251508431,-10.8646212279664
0.598099496925657,-17.9318975850542,-20.3804565348897,-2.44855894983543,19.156177059972,-7.74166931760941,-11.4145077423626
0.600894354387926,-18.9257697591795,-21.4378530630317,-2.51208330385225,20.1818114111056,-8.20684322766361,-11.974968183442
0.603689211850196,-20.550778431143,-22.6528445814746,-2.10206615033154,21.6018115063088,-9.22435614040574,-12.377455365903
0.606484069312465,-22.1487522398959,-23.5645829337183,-1.41583069382245,22.8566675868071,-10.3664607730367,-12.4902068137704
0.609278926774734,-23.1037155062475,-23.775924584545,-0.672209078297474,23.4398200453963,-11.215753213975,-12.2240668314212
0.612073784237004,-23.2127347263925,-23.167992020477,0.0447427059155352,23.1903633734347,-11.628738716154,-11.5616246572807
0.614868641699273,-22.765780201771,-22.013796435125,0.75198376664601,22.389788318448,-11.7588819842085,-10.6309063342395
0.617663499161543,-22.3192044749976,-20.9283900910373,1.39081438396028,21.6237972830175,-11.8550094294789,-9.76878785353852
0.620458356623812,-22.3665574839776,-20.6554435226907,1.71111396128696,21.5110005033342,-12.0388357226323,-9.47216478070187
0.623253214086082,-23.1331985432608,-21.7485665076826,1.3846320355782,22.4408825254717,-12.2589152894195,-10.1819672360522
0.626048071548351,-24.5482505331218,-24.239128105337,0.309122427784814,24.3936893192294,-12.4286864804533,-11.9650028387761
0.62884292901062,-26.2568553603058,-27.3876044149011,-1.13074905459523,26.8222298876035,-12.5630531528553,-14.2591767347481
0.63163778647289,-27.5209288393596,-29.6070204163405,-2.08609157698095,28.56397462785,-12.7174186311893,-15.8465559966607
0.634432643935159,-27.042423128426,-28.632956735436,-1.59053360700997,27.837689931931,-12.725944760708,-15.111745171223
0.637227501397429,-22.949738438079,-21.9793460028602,0.970392435218812,22.4645422204696,-11.9600654366489,-10.5044767838207
0.640022358859698,-13.1936691985781,-7.63937692733048,5.5542922712476,10.4165230629543,-9.37398073491284,-1.04254232804144
0.642817216321968,3.64850159398583,15.1259827958223,11.4774812018364,-9.38724219490406,-3.91448980392531,13.3017319988294
0.645612073784237,27.488996465129,45.1657452368131,17.6767487716841,-36.327370850971,4.90612384672244,31.4212470042486
0.648406931246506,56.2411897520136,79.2445635750635,23.00337382305,-67.7428766635385,16.6189079644818,51.1239686990567
0.651201788708776,86.0423963886198,112.435768179004,26.3933717903839,-99.2390822838118,29.8245122991179,69.4145699846939
0.653996646171045,112.142227676494,139.083695366118,26.9414676896235,-125.612961521306,42.6003799934355,83.0125815278706
0.656791503633315,130.095512511376,154.12114364869,24.0256311373138,-142.108328080033,53.0349406870313,89.073387393002
0.659586361095584,136.81766671,154.376457838782,17.5587911287829,-145.597062274391,59.6294377906084,85.9676244837827
0.662381218557853,131.215465067897,139.465398906893,8.24993383899678,-135.340431987395,61.4827656144499,73.8576663729451
0.665176076020123,114.338721201629,111.973300948386,-2.36542025324246,-113.156011075008,58.3520707274357,54.803940347572
0.667970933482392,89.133548319003,76.8580132113129,-12.2755351076902,-82.995780765158,50.7045417133466,32.2912390518114
0.670765790944662,59.8721944175883,40.248174873904,-19.6240195436843,-50.0601846457462,39.7481069806363,10.3120776651099
0.673560648406931,31.2961501390075,7.98295050689945,-23.3131996321081,-19.6395503229535,27.3046748855578,-7.6651245626043
0.676355505869201,7.56873440282812,-15.7022473691587,-23.2709817719868,4.06675648316527,15.4198580874075,-19.4866145705727
0.67915036333147,-8.70662856285684,-28.9920257548108,-20.285397191954,18.8493271588338,5.78938431454857,-24.6387114733824
0.68194522079374,-17.0333105592462,-32.603851546482,-15.5705409872358,24.8185810528641,-0.731384786005208,-24.0871962668589
0.684740078256009,-18.8637174828144,-29.2052959832554,-10.341578500441,24.0345067330349,-4.26106949118674,-19.7734372418482
0.687534935718278,-16.785402241699,-22.3656592202729,-5.58025697857392,19.575530730986,-5.60257263156255,-13.9729580994234
0.690329793180548,-13.4408147200494,-15.4159455135819,-1.97513079353245,14.4283801168157,-5.73284196325849,-8.69553815355716
0.693124650642817,-10.6879900135815,-10.5893435591493,0.0986464544321937,10.6386667863654,-5.39331823400683,-5.24534855235853
0.695919508105087,-9.3171140878136,-8.67192458965175,0.645189498161852,8.99451933873268,-4.98115179298773,-4.01336754574495
0.698714365567356,-9.2806140134772,-9.18351755957679,0.0970964539004058,9.23206578652699,-4.6888552336888,-4.54321055283819
0.701509223029625,-10.1300377043612,-10.9216618703719,-0.791624166010681,10.5258497873666,-4.66920676917528,-5.85664301819131
0.704304080491895,-11.3486018360499,-12.6034169184001,-1.25481508235023,11.976009377225,-5.04689337684982,-6.92911600037516
0.707098937954164,-12.4736338842044,-13.3567031975013,-0.883069313296852,12.9151685408529,-5.79528228545379,-7.11988625539907
0.709893795416434,-13.1130880853619,-12.9228105200442,0.190277565317668,13.0179493027031,-6.65168282533979,-6.36626647736329
0.712688652878703,-13.0042005816369,-11.5744732841189,1.42972729751797,12.2893369328779,-7.21696393957742,-5.07237299330047
0.715483510340973,-12.1376135848905,-9.86285524584804,2.27475833904247,11.0002344153693,-7.20618596196649,-3.79404845340278
0.718278367803242,-10.8231157502339,-8.34016367595915,2.48295207427475,9.58163971309652,-6.65303391225432,-2.9286058008422
0.721073225265511,-9.56346930541719,-7.363016915364,2.20045239005319,8.46324311039059,-5.88196084773519,-2.58128226265541
0.723868082727781,-8.75619368378519,-7.00842770134844,1.74776598243675,7.88231069256681,-5.25197983311097,-2.63033085945584
0.72666294019005,-8.41943125944892,-7.08443851118252,1.3349927482664,7.75193488531572,-4.87721200385766,-2.87472288145806
0.72945779765232,-8.16303116482876,-7.21101280944116,0.952018355387596,7.68702198713496,-4.55752476010818,-3.12949722702678
0.732252655114589,-7.45786553421673,-6.95731799098501,0.50054754323172,7.20759176260087,-3.97920653872422,-3.22838522387664
0.735047512576859,-6.02399467562093,-6.01291780943473,0.0110768661862082,6.01845624252783,-3.01753577090357,-3.00092047162426
0.737842370039128,-4.05273060176926,-4.33751452051562,-0.284783918746368,4.19512256114244,-1.88397334151144,-2.311149219631
0.740637227501397,-2.09436697171331,-2.21066040849807,-0.116293436784754,2.15251369010569,-0.98903676746428,-1.16347692264141
0.743432084963667,-0.697237608689013,-0.131692731864322,0.565544876824691,0.414465170276667,-0.631391242756852,0.216926072480185
0.746226942425936,-0.071883336444446,1.39820772436852,1.47009106081296,-0.663162193962035,-0.770987198628704,1.43414939259074
0.749021799888206,-0.0220747723053345,2.10253861526405,2.12461338756938,-1.04023192147936,-1.07334407993736,2.11357600141671
0.751816657350475,-0.159413559996669,2.04540536965781,2.20481892965448,-0.942995904830572,-1.18211624482558,2.12511214965615
0.754611514812745,-0.192904807630314,1.58326808763125,1.77617289526156,-0.695181640000468,-0.984538851445938,1.67972049144641
0.757406372275014,-0.0516998190799183,1.19191686516535,1.24361668424527,-0.570108523042718,-0.647658251662595,1.21776677470531
0.760201229737283,0.224328987024144,1.26770479957301,1.04337581254887,-0.746016893298577,-0.409523412762361,1.15554030606094
0.762996087199553,0.674460525010603,1.99674250929662,1.32228198428601,-1.33560151715361,-0.323910729637705,1.65951224679131
0.765790944661822,1.47339528130269,3.33186128790481,1.85846600660212,-2.40262828460375,-0.192535362649716,2.59516364725347
0.768585802124092,2.78210434322294,5.0578618904359,2.27575754721296,-3.91998311682942,0.253173398004991,3.66680971882443
0.771380659586361,4.5333744001285,6.89273172733444,2.35935732720595,-5.71305306373147,1.08700853646128,4.62604452727019
0.774175517048631,6.37266487613237,8.57472675361097,2.2020618774786,-7.47369581487167,2.08530149932689,5.38839431554478
0.7769703745109,7.84297678906822,9.91326639300537,2.07028960393715,-8.87812159103679,2.88634359256553,5.99177799847126
0.779765231973169,8.67990082122817,10.8111943789056,2.13129355767744,-9.74554760006689,3.27430363177537,6.47124396829152
0.782560089435439,8.97636014482564,11.2733549899359,2.29699484511023,-10.1248575673808,3.33968264985771,6.78517491752305
0.785354946897708,9.08122441042628,11.4024612977068,2.32123688728053,-10.2418428540665,3.37999376157287,6.86184909249367
0.788149804359978,9.31954827671532,11.3716424373433,2.05209416062803,-10.3455953570293,3.63372705804364,6.71186829898569
0.790944661822247,9.77190379085443,11.3723984525179,1.60049466166346,-10.5721511216862,4.08570456459549,6.48644655709067
0.793739519284516,10.2949606597343,11.5598498027081,1.26488914297376,-10.9274052312212,4.51503575838029,6.41236947284094
0.796534376746786,10.750096251219,12.0275841500143,1.27748789879532,-11.3888402006166,4.73630417621182,6.6525360244048
0.799329234209055,11.2192716339791,12.8228728037888,1.60360116980964,-12.021072218884,4.80783523208474,7.21323698679921
0.802124091671325,11.9949253866695,13.9740965345897,1.97917114792017,-12.9845109606296,5.00787711937469,7.97663384125493
0.804918949133594,13.3326676578598,15.4877956621004,2.15512800424066,-14.4102316599801,5.58876982680955,8.82146183317054
0.807713806595864,15.1786563703758,17.3061921129847,2.12753574260889,-16.2424242416802,6.52556031388345,9.71686392779679
0.810508664058133,17.1250514094551,19.2676644556296,2.14261304617448,-18.1963579325423,7.49121918164031,10.705138750902
0.813303521520402,18.6597443743291,21.1268955525969,2.46715117826781,-19.893319963463,8.09629659803064,11.7970233654324
0.816098378982672,19.5228606230151,22.6476413291722,3.1247807061571,-21.0852509760936,8.19903995842898,12.8862110176646
0.818893236444941,19.8866549029009,23.7175993717629,3.83094446886198,-21.8021271373319,8.02785521701947,13.7742719203124
0.821688093907211,20.2195822492095,24.4105857958661,4.19100354665664,-22.3150840225378,8.01428935127642,14.3007946712614
0.82448295136948,20.9532718271217,24.9567894762592,4.00351764913746,-22.9550306516904,8.47487708899213,14.4801535626983
0.82727780883175,22.2221381554546,25.6422994621045,3.42016130664989,-23.9322188087796,9.40098842440237,14.5312303843772
0.830072666294019,23.8643190216991,26.6948634867964,2.83054446509725,-25.2795912542477,10.5168872783009,14.7627039759468
0.832867523756288,25.6390943754607,28.2074011926506,2.56830681718988,-26.9232477840557,11.5353937791354,15.3878540049203
0.835662381218558,27.4398038897172,30.1214139774878,2.68161008777061,-28.7806089336025,12.3790969009733,16.4015120326292
0.838457238680827,29.311523977869,32.2614401631345,2.94991618526544,-30.7864820705017,13.1808038963018,17.6056781742
0.841252096143097,31.2812157841097,34.3936856547427,3.11246987063301,-32.8374507194262,14.0843729567384,18.7530777626879
0.844046953605366,33.1909216319242,36.2847631022771,3.09384147035291,-34.7378423671006,15.0485400807856,19.689302286315
0.846841811067636,34.7246731250082,37.7539212213892,3.029248096381,-36.2392971731987,15.8477125143136,20.3915846588851
0.849636668529905,35.63672236179,38.7230704514712,3.08634808968124,-37.1798964066306,16.2751871360544,20.9047092705762
0.852431525992174,35.9921779230295,39.2596324546248,3.26745453159531,-37.6259051888271,16.3623616957171,21.2635434931101
0.855226383454444,36.20195293589,39.5887773638727,3.38682442798269,-37.8953651498814,16.4075642539537,21.4878008959277
0.858021240916713,36.7978141813408,40.0462578505788,3.24844366923801,-38.4220360159598,16.7746852560514,21.6473507599084
0.860816098378983,38.1062170357988,40.9634433766202,2.85722634082142,-39.5348302062095,17.6244953474887,21.9103348587208
0.863610955841252,40.0606143673468,42.5176289333635,2.45701456601668,-41.2891216503552,18.8017999006651,22.4873217496901
0.866405813303522,42.2774344112399,44.6199992093766,2.34256479813671,-43.4487168103083,19.9674348065516,23.4812820037567
0.869200670765791,44.3138674559408,46.9166415523022,2.60277409636144,-45.6152545041215,20.8555466797897,24.7597078243318
0.87199552822806,45.9004732166715,48.9260918233948,3.02561860672328,-47.4132825200331,21.4374273049741,25.975855215059
0.87479038569033,46.993140793621,50.2543318840018,3.26119109038085,-48.6237363388114,21.86597485162,26.7577614871913
0.877585243152599,47.6589470509679,50.7721081711838,3.11316112021593,-49.2155276110758,22.272892965376,26.9426346456999
0.880380100614869,47.9448982397503,50.6525782643346,2.70768002458434,-49.2987382520425,22.618609107583,26.6801291444595
0.883174958077138,47.8620741228886,50.2452413399613,2.3831672170727,-49.053657731425,22.739453452908,26.314204278517
0.885969815539407,47.4763852718769,49.8603738981684,2.38398862629147,-48.6683795850227,22.5461983227927,26.1221812622299
0.888764673001677,46.9729959635818,49.5945044916481,2.62150852806626,-48.2837502276149,22.1757437177578,26.1080065098572
0.891559530463946,46.5777039229269,49.2971956657031,2.71949174277614,-47.937449794315,21.9291060900754,26.0083437042396
0.894354387926216,46.3648812641327,48.6812064625507,2.31632519841795,-47.5230438633417,22.0242780328574,25.4987658304843
0.897149245388485,46.1207923078621,47.4904039757767,1.36961166791462,-46.8055981418194,22.3755903199737,24.4300078218457
0.899944102850755,45.4202551818131,45.6257333034033,0.205478121590225,-45.5229942426082,22.6073885301114,22.9156057124968
0.902738960313024,43.9024462924869,43.1782624838716,-0.724183808615351,-43.5403543881793,22.3133150505511,21.2270393376281
0.905533817775293,41.5435896318757,40.3744955626585,-1.16909406921713,-40.9590425972671,21.3563418505464,19.6027007467207
0.908328675237563,38.6959071589252,37.4690322609281,-1.22687489799711,-38.0824697099267,19.9613910284612,18.1210786814655
0.911123532699832,35.8368583456573,34.6286251991686,-1.20823314648874,-35.2327417724129,18.522545746073,16.7101960263399
0.913918390162102,33.2136407378094,31.8542097124615,-1.35943102534782,-32.5339252251354,17.2865358815786,15.2473893435569
0.916713247624371,30.6676759763442,28.9823995262262,-1.68527645011795,-29.8250377512852,16.1764762132311,13.6485615380541
0.919508105086641,27.7860136904734,25.7816713180195,-2.00434237245388,-26.7838425042465,14.8951780314636,11.8886644727828
0.92230296254891,24.2616104356357,22.1073787495278,-2.15423168610792,-23.1844945925818,13.2079210608718,9.97657353170994
0.925097820011179,20.1757315156775,18.0309708423235,-2.14476067335407,-19.1033511790005,11.1602460945158,7.94310508448469
0.927892677473449,15.9820419106122,13.8576182712156,-2.12442363939667,-14.9198300909139,9.05323277500445,5.86659731590945
0.930687534935718,12.2137745891375,10.0090045822318,-2.20477000690571,-11.1113895856846,7.2092722980216,3.90211728766304
0.933482392397988,9.15184044383928,6.83346223817341,-2.31837820566586,-7.99265134100634,5.73510932475257,2.25754201625377
0.936277249860257,6.70706442461227,4.44952435158638,-2.25754007302588,-5.57829438809933,4.48230224881908,1.09599213928025
0.939072107322527,4.57891440111902,2.70379675538664,-1.87511764573238,-3.64135557825283,3.2270160234257,0.41433955482713
0.941866964784796,2.52606978402379,1.25801441497527,-1.26805536904852,-1.89204209949953,1.89706257653616,-0.00502047703662512
0.944661822247065,0.515631428333892,-0.240924362688333,-0.756555791022225,-0.137353532822779,0.636093609678058,-0.498740076855279
0.947456679709335,-1.34459708861742,-1.98711539463965,-0.642518306022235,1.66585624162854,-0.351039391297592,-1.31481685033094
0.950251537171604,-2.98018644667815,-3.91891735849515,-0.938730911816997,3.44955190258665,-1.02072776743058,-2.42882413515607
0.953046394633874,-4.438578464877,-5.74827516505147,-1.30969670017446,5.09342681496423,-1.56444088235127,-3.52898593261297
0.955841252096143,-5.80902892298753,-7.10396297513924,-1.29493405215171,6.45649594906339,-2.25704743541791,-4.19944851364547
0.958636109558412,-7.07089178683971,-7.71486542411111,-0.6439736372714,7.39287860547541,-3.21345907478416,-4.17941953069126
0.961430967020682,-8.04202067058941,-7.53754911312205,0.504471557467365,7.78978489185573,-4.27324611402839,-3.51653877782734
0.964225824482951,-8.50452422358079,-6.76874603833287,1.73577818524792,7.63663513095683,-5.12015120441435,-2.51648392654248
0.967020681945221,-8.4120182248797,-5.7533813923094,2.65863683257029,7.08269980859455,-5.53532752872499,-1.54737227986956
0.96981553940749,-7.98953432157289,-4.85110961794409,3.1384247036288,6.42032196975849,-5.56397951260084,-0.856342457157647
0.97261039686976,-7.61537932523859,-4.32607076844242,3.28930855679617,5.9707250468405,-5.45234394101738,-0.518381105823122
0.975405254332029,-7.56242753309281,-4.29105772509631,3.2713698079965,5.92674262909456,-5.41689867054465,-0.509843958549907
0.978200111794298,-7.80962879085138,-4.70744347861192,3.10218531223945,6.25853613473165,-5.45590705154542,-0.802629083186235
0.980994969256568,-8.09003949638818,-5.43064715822071,2.65939233816748,6.76034332730444,-5.37471591727783,-1.38562741002661
0.983789826718837,-8.14663115302259,-6.28310239480696,1.86352875821563,7.21486677391477,-5.00507995561911,-2.20978681829567
0.986584684181107,-7.982548219503,-7.12494047372722,0.857607745775785,7.55374434661511,-4.42007798263939,-3.13366636397572
0.989379541643376,-7.88435424408821,-7.8895440405546,-0.00518979646638407,7.8869491423214,-3.93958222381091,-3.94736691851049
0.992174399105646,-8.18472527167397,-8.5666677504162,-0.381942478742229,8.37569651104509,-3.90139139646587,-4.47430511457921
0.994969256567915,-8.95678335180889,-9.14386863908377,-0.187085287274879,9.05032599544633,-4.38484903226701,-4.66547696317932
0.997764114030184,-9.89865283877197,-9.54534266625378,0.353310172518196,9.72199775251287,-5.12598150564508,-4.59601624686779
1.00055897149245,-10.5137881679433,-9.61972059235137,0.894067575591929,10.0667543801473,-5.70392787176761,-4.36282650837972
1.00335382895472,-10.4477086876955,-9.20487981514266,1.24282887255282,9.82629425141907,-5.84526878012414,-3.98102547129492
1.00614868641699,-9.71374397186163,-8.2412080906891,1.47253588117253,8.97747603127536,-5.59313992651708,-3.38433610475828
1.00894354387926,-8.64034128104286,-6.8580432623855,1.78229801865737,7.74919227171418,-5.21131964985011,-2.53787262186407
1.01173840134153,-7.60939959336323,-5.36543721543871,2.24396237792452,6.48741840440097,-4.92668098564387,-1.56073741875709
1.0145332588038,-6.81752351843381,-4.1419020495729,2.67562146886091,5.47971278400336,-4.74657249364736,-0.733140290355996
1.01732811626607,-6.24470723262794,-3.47460622417639,2.77010100845156,4.85965672840217,-4.50740412053975,-0.352252607862414
1.02012297372834,-5.81315566813794,-3.4376740535955,2.37548161454244,4.62541486086672,-4.09431864134019,-0.531096219526531
1.02291783119061,-5.5490209912627,-3.8707605704017,1.678260420861,4.7098907808322,-3.61364070606185,-1.09625007477035
1.02571268865288,-5.57379893525813,-4.46153384548916,1.11226508976897,5.01766639037364,-3.34303201251355,-1.67463437786009
1.02850754611515,-5.93193120086495,-4.8810102142602,1.05092098660475,5.40647070756257,-3.49142609373485,-1.91504461382773
1.03130240357742,-6.43441154809662,-4.90422560782343,1.53018594027319,5.66931857796003,-3.98229874418491,-1.68701983377512
1.03409726103969,-6.70098425735221,-4.47361379419722,2.227370463155,5.58729902577472,-4.46417736025361,-1.12312166552111
1.03689211850196,-6.40911443155614,-3.69837285059661,2.71074158095953,5.05374364107637,-4.55992800625783,-0.49381563481854
1.03968697596423,-5.5583742470786,-2.80129697682976,2.75707727024884,4.17983561195418,-4.15772575866372,-0.0221098532904596
1.0424818334265,-4.51646144286077,-2.02931978490743,2.48714165795334,3.2728906138841,-3.50180155040705,0.228910936522952
1.04527669088876,-3.78057034132257,-1.55458988028959,2.22598046103298,2.66758011080608,-3.00327540117777,0.335695290371697
1.04807154835103,-3.62765218156984,-1.40636206001525,2.2212901215546,2.51700712079254,-2.92447115156222,0.407464030769677
1.0508664058133,-3.92767475088249,-1.46809815426915,2.45957659661334,2.69788645257582,-3.19362567374792,0.495739221172098
1.05366126327557,-4.26412244565975,-1.5417738640786,2.72234858158116,2.90294815486918,-3.49323551362046,0.59028735875128
1.05645612073784,-4.25540795317851,-1.4435732936502,2.81183465952831,2.84949062341436,-3.53362130635341,0.684130682939053
1.05925097820011,-3.8123149208614,-1.07973573288448,2.73257918797692,2.44602532687294,-3.27244705441916,0.826421727546218
1.06204583566238,-3.13340139038101,-0.468249272054192,2.66515211832682,1.8008253312176,-2.89927675435392,1.09845142313631
1.06484069312465,-2.47117368048189,0.292243696632594,2.76341737711449,1.08946499192465,-2.61729552879819,1.52783053687354
1.06763555058692,-1.89488014966882,1.0762543033066,2.97113445297542,0.40931292318111,-2.43300730132212,2.02369437814101
1.07043040804919,-1.26575098707291,1.77350538513331,3.03925637220622,-0.253877199030203,-2.15250367963956,2.40638087866977
1.07322526551146,-0.439654556047262,2.30168409294517,2.74133864899243,-0.931014768448955,-1.59049660251985,2.5215113709688
1.07602012297373,0.501012212341774,2.596103744489,2.09509153214722,-1.54855797841538,-0.797039659902723,2.34559763831811
1.078814980436,1.21776579333466,2.60037916880786,1.38261337547321,-1.90907248107126,-0.0824237910692738,1.99149627214054
1.08160983789827,1.3415069965487,2.28307785735421,0.941570860805501,-1.81229242695145,0.199968067871602,1.61232435907985
1.08440469536054,0.774305193796425,1.68165129630524,0.907346102508814,-1.22797824505083,-0.0665204543561944,1.29449869940703
1.08719955282281,-0.190481637351263,0.938848032298406,1.12932966964967,-0.374183197473571,-0.659905653500466,1.03408885097404
1.08999441028508,-1.04537369553979,0.282877724150911,1.3282514196907,0.38124798569444,-1.18681255761525,0.805564571920806
1.09278926774734,-1.41337142596069,-0.0638634088353871,1.3495080171253,0.738617417398038,-1.381439721543,0.642822304144957
1.09558412520961,-1.28795712950224,-0.000970662243012371,1.28698646725923,0.644463895872626,-1.28747179838073,0.643007902508107
1.09837898267188,-0.980665463862224,0.39070759151942,1.37137305538164,0.294978936171402,-1.17601925962193,0.881040323450531
1.10117384013415,-0.829739251423093,0.898600809962126,1.72834006138522,-0.0344307792695163,-1.27903965640416,1.31347043567367
1.10396869759642,-0.916844753892652,1.31147839308731,2.22832314697996,-0.197316819597328,-1.57258395043631,1.76990077003363
1.10676355505869,-1.02155871284029,1.54826382543104,2.56982253827133,-0.263352556295377,-1.79569062555581,2.05904318185119
1.10955841252096,-0.833523505096138,1.69701156413359,2.53053506922973,-0.431744029518728,-1.68202928716294,2.11377331668166
1.11235326998323,-0.22304176732707,1.94207185369454,2.16511362102161,-0.859515043183736,-1.19407769417434,2.05359273735808
1.1151481274455,0.666287368534595,2.43375897859814,1.76747161006354,-1.55002317356637,-0.550592120764474,2.10061529433084
1.11794298490777,1.56655830181191,3.1893892351331,1.62283093332118,-2.37797376847251,-0.0281363157546335,2.40611008422714
1.12073784237004,2.31984204684905,4.08576453226274,1.76592248541368,-3.2028032895559,0.276959780717684,2.92584350883821
1.12353269983231,2.97528720244111,4.93674874487937,1.96146154243826,-3.95601797366024,0.506912830001422,3.44910514365882
1.12632755729458,3.66857614378206,5.59628533434078,1.92770919055873,-4.63243073906142,0.870433476611665,3.76199726244976
1.12912241475685,4.41552797258776,6.02138606271138,1.60585809012362,-5.21845701764957,1.40483494123207,3.8136220764175
1.13191727221912,5.03394932917857,6.2673493842016,1.23340005502303,-5.65064935669008,1.90027463707777,3.75037471961231
1.13471212968139,5.28464951966938,6.43640834895039,1.15175882928101,-5.86052893430988,2.06644534519419,3.7940835891157
1.13750698714366,5.11198290653473,6.6258804149299,1.51389750839517,-5.86893166073231,1.79904269906978,4.06988896166253
1.14030184460592,4.76212460238262,6.90859214931964,2.14646754693702,-5.83535837585113,1.3078285277228,4.52752984812833
1.14309670206819,4.65612567186395,7.34268616381453,2.68656049195059,-5.99940591783924,0.984782589956679,5.01462332788256
1.14589155953046,5.10793666049,7.98261627183977,2.87467961134976,-6.54527646616488,1.11662852457012,5.42864794159476
1.14868641699273,6.11797464176803,8.87027388339416,2.75229924162613,-7.49412426258109,1.68283770007095,5.81128656251014
1.151481274455,7.41407212869448,10.0140641430736,2.59999201437913,-8.71406813588404,2.40704005715768,6.30702807872636
1.15427613191727,8.70171235463036,11.3807305760727,2.67901822144234,-10.0412214653515,3.01134706659401,7.02987439875752
1.15707098937954,9.90745237645998,12.9118531509386,3.00440077447862,-11.4096527636993,3.45152580099068,7.95812696270862
1.15986584684181,11.208855327404,14.5520378586427,3.34318253123869,-12.8804465930234,3.93283639808266,8.94761019494069
1.16266070430408,12.8330147237346,16.2660330775779,3.43301835384325,-14.5495239006562,4.69999818494568,9.84952571571055
1.16545556176635,14.8083391641672,18.0308314036257,3.22249223945846,-16.4195852838964,5.79292346235438,10.6266618215421
1.16825041922862,16.8892238812255,19.8026776775986,2.91345379637318,-18.3459507794121,6.98788504242615,11.3580657369859
1.17104527669089,18.7096083302072,21.4718716337264,2.76226330351922,-20.0907399819668,7.97367251334399,12.1170674686228
1.17384013415316,20.0144774315585,22.8320298859478,2.81755245438932,-21.4232536587532,8.59846248858459,12.8247911701686
1.17663499161543,20.761736779509,23.5988691491406,2.83713236963157,-22.1803029643248,8.96230220493874,13.2180007593861
1.1794298490777,21.0256514649399,23.5008384275129,2.47518696257302,-22.2632449462264,9.27523225118344,12.988012695043
1.18222470653997,20.8269792461641,22.4205746960243,1.59359544986021,-21.6237769710942,9.61669189815193,12.0070850729422
1.18501956400224,20.0782736636772,20.5114272984247,0.433153634747566,-20.2948504810509,9.8225600144648,10.4722904665861
1.18781442146451,18.7099739672054,18.1969623147067,-0.513011652498701,-18.4534681409561,9.61149280985207,8.84197533110402
1.19060927892677,16.8553733206702,16.01877517972,-0.836598140950191,-16.4370742501951,8.8459857308102,7.59108851938492
1.19340413638904,14.8970930959421,14.3987339547567,-0.498359141185418,-14.6479135253494,7.69772611856377,6.95018740678565
1.19619899385131,13.2843846917079,13.4469518954258,0.162567203717888,-13.3656682935668,6.560908743995,6.80475954957183
1.19899385131358,12.2317717082668,12.9234892205207,0.691717512253897,-12.5776304643938,5.77002709800647,6.80760336638731
1.20178870877585,11.5360180364954,12.3691002706801,0.833082234184751,-11.9525591535878,5.35146790115532,6.60109125243244
1.20458356623812,10.6819397651248,11.3264853289824,0.64454556385763,-11.0042125470536,5.01869710063357,5.98551544642002
1.20737842370039,9.18674926156545,9.53833691194326,0.351587650377812,-9.36254308675435,4.41758080559382,4.94496228116054
1.21017328116266,6.93650758111238,7.04075798866259,0.104250407550214,-6.98863278488749,3.41612858678108,3.5725041981064
1.21296813862493,4.26465282777455,4.13294286688385,-0.131709960890697,-4.1987978473292,2.19818139433262,2.00061645299658
1.2157629960872,1.71951404307549,1.25534438417367,-0.464169658901818,-1.48742921362458,1.09184185098865,0.395587362635924
1.21855785354947,-0.293310088667641,-1.16649019045545,-0.873180101787808,0.729900139561545,0.289935006560084,-1.01983514612163
1.22135271101174,-1.72078903742375,-2.85417256364695,-1.13338352622321,2.28748080053535,-0.293702755600269,-1.99377804493508
1.22414756847401,-2.78472848716261,-3.74388568236931,-0.959157195206708,3.26430708476596,-0.91278564597795,-2.35152143878801
1.22694242593628,-3.71473434264471,-3.97528349323783,-0.260549150593124,3.84500891794127,-1.72709259602579,-2.11791632191548
1.22973728339855,-4.53514370593899,-3.81473415421143,0.720409551727561,4.17493893007521,-2.62777662883328,-1.54716230124193
1.23253214086082,-5.08573868935474,-3.54743263938367,1.53830604997107,4.3165856643692,-3.31202236966291,-1.0045632947063
1.23532699832309,-5.24177230171257,-3.387583248139,1.85418905357357,4.31467777492579,-3.54798067764307,-0.766697097282717
1.23812185578535,-5.11910103504709,-3.44823332445883,1.67086771058826,4.28366717975296,-3.39498437281767,-0.888682806935286
1.24091671324762,-5.06400291398222,-3.77085590959441,1.29314700438781,4.41742941178832,-3.17857495918502,-1.2388544526033
1.24371157070989,-5.42201107012106,-4.36784554819574,1.05416552192532,4.8949283091584,-3.23808829602319,-1.65684001313521
1.24650642817216,-6.27953511958297,-5.22777043492066,1.05176468466231,5.75365277725181,-3.66564990212264,-2.08800287512917
1.24930128563443,-7.39833030123384,-6.27942474988231,1.11890555135153,6.83887752555808,-4.25861792629269,-2.58025959926539
1.2520961430967,-8.39580544819404,-7.35965783759014,1.03614761060391,7.87773164289209,-4.71597652939898,-3.16175511349311
1.25489100055897,-9.01556386366469,-8.23726307716345,0.778300786501239,8.62641347041407,-4.89693232508296,-3.72948114533111
1.25768585802124,-9.26814750178399,-8.70631075312532,0.561836748658674,8.98722912745466,-4.91499212522133,-4.07223700223332
1.26048071548351,-9.35192436804393,-8.70585408789505,0.646070280148884,9.02888922796949,-4.99899732409641,-4.02989190387308
1.26327557294578,-9.46141936663027,-8.39145739777081,1.06996196885946,8.92643838220054,-5.26569066774487,-3.66074771445568
1.26607043040805,-9.67562747457282,-8.10656806621169,1.56905940836113,8.89109777039225,-5.62234344146697,-3.26875432892528
1.26886528787032,-10.0220349642169,-8.26411330931344,1.75792165490344,9.14307413676515,-5.88997830956016,-3.253095827205
1.27166014533259,-10.6257517547721,-9.19781127280102,1.42794048197105,9.91178151378655,-6.02684611837156,-3.88493539541499
1.27445500279486,-11.7468578672567,-11.034827324513,0.712030542743701,11.3908425958849,-6.22944420500021,-5.16139839088466
1.27724986025713,-13.5827534675691,-13.588879331369,-0.00612586379997282,13.585816399469,-6.78831380188454,-6.7975025975845
1.2800447177194,-15.9092608057995,-16.2397600027321,-0.330499196932623,16.0745104042658,-7.78938080443344,-8.28512959983237
1.28283957518167,-17.7920643043604,-17.8055246624226,-0.0134603580622112,17.7987944833915,-8.88930197314911,-8.90949251024243
1.28563443264394,-17.5919695362092,-16.5059373187273,1.08603221748194,17.0489534274682,-9.33900087684558,-7.70995255062266
1.2884292901062,-13.3225887846015,-10.1689226841958,3.15366610040571,11.7457557343987,-8.23812744250363,-3.50762829189506
1.29122414756847,-3.22627953807165,3.23236270260929,6.45864224068094,-0.00304158226881657,-4.8424608893763,4.84550247164511
1.29401900503074,13.6473769331722,24.7928201732967,11.1454432401245,-19.2200985532344,1.25096684652387,17.9691317067106
1.29681386249301,37.0159917064281,53.8966422906897,16.8806505842616,-45.4563169985589,10.0676705610832,35.3886464374756
1.29960871995528,65.1444849506813,87.7840358857629,22.6395509350815,-76.4642604182221,21.2524670077999,55.2117934104222
1.30240357741755,94.857345411743,121.734216522395,26.876871110652,-108.295780967069,33.9902371505455,74.3055438165235
1.30519843487982,121.864659298109,149.939012573593,28.0743532754847,-135.901835935851,46.8951530113119,89.006682924539
1.30799329234209,141.501606561067,166.884884636664,25.3832780755972,-154.193245598866,58.0591642427349,96.1340813561307
1.31078814980436,149.84604717639,168.843185927728,18.9971387513381,-159.344616552059,65.4244542125257,93.9201623395329
1.31358300726663,144.919242855619,154.98206390284,10.0628210472217,-149.950653379229,67.4282109041984,82.5224424750309
1.3163778647289,127.476641282162,127.70661798211,0.229976699947841,-127.591629632136,63.6233322911071,63.9682973410289
1.31917272219117,100.956507271294,92.0838208606105,-8.87268641068306,-96.520164065952,54.9145968409883,41.6055672249637
1.32196757965344,70.505323220729,54.523032517331,-15.982290703398,-62.51417786903,43.2438069620635,19.2703709069665
1.32476243711571,41.4522174913339,21.1364830899213,-20.3157344014126,-31.2943502906276,30.8839759463732,0.410374344254343
1.32755729457798,17.8732057664799,-3.70178992494864,-21.5749956914285,-7.08570792076563,19.7241007289542,-12.6383928081886
1.33035215204025,1.79444594922419,-18.1730294052207,-19.9674753544449,8.18929172799826,10.8809606518345,-19.0702523798328
1.33314700950252,-6.79484975011414,-23.0182302889418,-16.2233805388276,14.906540019528,4.71426539435674,-19.6208054138847
1.33594186696478,-9.3515749239139,-20.8325801985892,-11.4810052746753,15.0920775612515,1.06471517538069,-16.1567927366322
1.33873672442705,-8.0195498160255,-14.9842751233566,-6.96472530733114,11.5019124696911,-0.52741225434718,-10.9745002153439
1.34153158188932,-5.0078900195193,-8.56726925556994,-3.55937923605064,6.78757963754462,-0.724255391734332,-6.06332424581029
1.34432643935159,-2.17917070748486,-3.69841670324988,-1.51924599576502,2.93879370536737,-0.329962355859924,-2.60883134950745
1.34712129681386,-0.773430541133252,-1.27664863205541,-0.503218090922155,1.02503958659433,-0.135106225105548,-0.889933361488781
1.34991615427613,-1.22815088573274,-1.14550662859411,0.0826442571386359,1.18682875716343,-0.65539757143569,-0.531431185727736
1.3527110117384,-3.16729681481815,-2.49889924360691,0.668397571211243,2.83309802921253,-1.9178471930147,-0.915250836197831
1.35550586920067,-5.65203702728397,-4.34415724225961,1.30787978502436,4.99809713477179,-3.47995840615417,-1.51813872861763
1.35830072666294,-7.65322165370737,-5.87015488488881,1.78306676881856,6.76168826929809,-4.71814421126296,-2.04354405803513
1.36109558412521,-8.53095010038445,-6.64039710159701,1.89055299878744,7.58567360099073,-5.21075154958595,-2.37492205140478
1.36389044158748,-8.25949019019712,-6.60874522730739,1.65074496288973,7.43411770875225,-4.95511757654342,-2.47900013220883
1.36668529904975,-7.28680677604897,-6.00949777426934,1.27730900177963,6.64815227515915,-4.2820578889143,-2.36609438624486
1.36948015651202,-6.16323764742355,-5.19486893691748,0.968368710506078,5.67905329217052,-3.56580317896482,-2.1132501132057
1.37227501397429,-5.21797017770375,-4.48558218627867,0.732387991425081,4.85177618199121,-2.97517908456442,-1.8765970974268
1.37506987143656,-4.48970398357684,-4.07338339086423,0.416320592712613,4.28154368722053,-2.45301228814473,-1.82853139907581
1.37786472889883,-3.89398326105018,-3.98436176591226,-0.0903785048620773,3.93917251348122,-1.90180237809405,-2.03737013538717
1.3806595863611,-3.42248141445418,-4.09440516564466,-0.671923751190479,3.75844329004942,-1.37527883163185,-2.38316445841757
1.38345444382336,-3.17334131304785,-4.18300801961247,-1.00966670656462,3.67817466633016,-1.08183730324162,-2.59633736308855
1.38624930128563,-3.19458981946306,-4.00942166858893,-0.814831849125865,3.602005744026,-1.1898789851686,-2.4121267588574
1.3890441587479,-3.31499793315412,-3.39209063711105,-0.0770927039569274,3.35354428513259,-1.6189526145986,-1.73459167053399
1.39183901621017,-3.16258582661055,-2.27225406081796,0.890331765792593,2.71741994371426,-2.02645879620157,-0.690961147512684
1.39463387367244,-2.40470462521122,-0.746770252291906,1.65793437291932,1.57573743875156,-2.03131949906527,0.455582060313705
1.39742873113471,-1.03144884898593,0.940222640656262,1.97167148964219,0.0456131041648334,-1.50156016931406,1.45594706514923
1.40022358859698,0.56217758132712,2.45216958207009,1.88999200074297,-1.5071735816986,-0.663907209707924,2.17108079140653
1.40301844605925,1.791354690363,3.45583872880267,1.66448403843967,-2.62359670958283,0.0634353259616616,2.56016138362117
1.40581330352152,2.24779395054679,3.73570383766345,1.48790988711665,-2.99174889410512,0.379942031715072,2.61180686239005
1.40860816098379,1.94461031526533,3.29026525747285,1.34565494220752,-2.61743778636909,0.299477686528906,2.31796009984018
1.41140301844606,1.26574642382884,2.36792725703998,1.10218083321113,-1.81683684043441,0.081782795308853,1.73505404512556
1.41419787590833,0.684702746335542,1.41070528619056,0.726002539855018,-1.04770401626305,-0.0206498967597377,1.06835391302279
1.4169927333706,0.490063952672206,0.908456184537676,0.41839223186547,-0.699260068604941,0.0358358604033679,0.663424208201573
1.41978759083287,0.717184496163906,1.21411873588137,0.496934239717467,-0.96565161602264,0.110125128223219,0.85552648779942
1.42258244829514,1.28325868084922,2.40026592348321,1.11700724263399,-1.84176230216622,0.0831257191076187,1.7586365830586
1.42537730575741,2.14918127651651,4.22577858207535,2.07659730555884,-3.18747992929593,0.0362919854788375,3.15118794381709
1.42817216321968,3.33955101600431,6.23439016837142,2.8948391523671,-4.78697059218786,0.222355931818603,4.56461466036926
1.43096702068195,4.81775190508314,7.94665623218714,3.12890432710401,-6.38220406863514,0.844423788989565,5.53778027964557
1.43376187814421,6.37043888343185,9.05871237069915,2.6882734872673,-7.7145756270655,1.84108269808228,5.87349292898322
1.43655673560648,7.65652909369933,9.55218947662573,1.89566038292641,-8.60435928516253,2.88043435538646,5.72392492977607
1.43935159306875,8.42041493791215,9.66445767646987,1.24404273855772,-9.04243630719101,3.58818609967721,5.4542502075138
1.44214645053102,8.70111623022394,9.74461565698315,1.04349942675921,-9.22286594360354,3.82880840173236,5.39405754187118
1.44494130799329,8.84440345485958,10.0779329802648,1.23352952540526,-9.46116821756222,3.80543696472716,5.65573125283506
1.44773616545556,9.27515895910513,10.765820588853,1.49066162974788,-10.0204897739791,3.89224866467862,6.12824110930044
1.45053102291783,10.1910201504021,11.7083920790965,1.51737192869442,-10.9497061147493,4.33682411085384,6.61288200389547
1.4533258803801,11.4198137794834,12.6839499292834,1.26413614980003,-12.0518818543834,5.07783881484168,6.97404303954173
1.45612073784237,12.5624307060279,13.4796769885411,0.917246282513213,-13.0210538472845,5.82259221175733,7.19846163552715
1.45891559530464,13.3123392277766,14.0108699584421,0.698530730665508,-13.6616045931094,6.30690424855555,7.35470034455381
1.46171045276691,13.6948527872859,14.3728554287549,0.678002641468947,-14.0338541080204,6.50842507290849,7.52542903511191
1.46450531022918,14.0322006391799,14.7980019226833,0.765801283503444,-14.4151012809316,6.63319967783823,7.78190160309339
1.46730016769145,14.668202099839,15.5346203895656,0.866418289726552,-15.1014112447023,6.90089190505623,8.20051933964606
1.47009502515372,15.6877037500016,16.7080371880877,1.02033343808614,-16.1978704690447,7.33368515595774,8.86418531308694
1.47288988261599,16.8645873796921,18.2395731491662,1.37498576947413,-17.5520802644292,7.74480080510897,9.80727945932017
1.47568474007826,17.8706781790381,19.871320144437,2.00064196539899,-18.8709991617376,7.93501810681953,10.935981054918
1.47847959754053,18.5581846021362,21.2884323138034,2.73024771166723,-19.9233084579698,7.91396844523447,12.0093400127353
1.48127445500279,19.0786566063937,22.2795388311426,3.2008822247489,-20.6790977187681,7.93888719082238,12.7402105279457
1.48406931246506,19.7527475963918,22.8552733044954,3.1025257081036,-21.3040104504436,8.32511094414412,12.9788995062995
1.48686416992733,20.8192612344114,23.2621223412617,2.4428611068503,-22.0406917878366,9.18820006378056,12.852491724056
1.4896590273896,22.2832197920826,23.8766587074012,1.59343891531855,-23.0799392497419,10.344890438382,12.7350488113599
1.49245388485187,23.9753213441371,25.0249748164925,1.04965347235549,-24.5001480803148,11.4628339358908,13.037314144424
1.49524874231414,25.7352623560896,26.8171234672321,1.08186111114248,-26.2761929116609,12.3267006224736,13.9494922891873
1.49804359977641,27.5281643040044,29.0886024094465,1.56043810544209,-28.3083833567255,12.9838630992812,15.3245202574443
1.50083845723868,29.38713528002,31.4863838401431,2.09924856012309,-30.4367595600815,13.6439433599484,16.7928162001331
1.50363331470095,31.2584582315406,33.649426492797,2.39096826125645,-32.4539423621688,14.4337449851421,18.0201973770267
1.50642817216322,32.93104844915,35.3723927843279,2.44134433517792,-34.1517206167389,15.244852056986,18.9068685597529
1.50922302962549,34.153485479717,36.6556188496785,2.50213336996151,-35.4045521646977,15.8256760548777,19.57887610982
1.51201788708776,34.8505623519187,37.6265986639397,2.77603631202096,-36.2385805079292,16.0372630199489,20.2013174879803
1.51481274455003,35.2333094655827,38.4059995670241,3.17269010144141,-36.8196545163034,16.0303096820706,20.7893448342327
1.5176076020123,35.6735414762645,39.0193209914631,3.34577951519864,-37.3464312338638,16.1638809805329,21.1825502533309
1.52040245947457,36.4235513303989,39.409833663862,2.98628233346302,-37.9166924971305,16.718634498468,21.1980579986625
1.52319731693684,37.4145431132127,39.5310093322615,2.11646621904884,-38.4727762227371,17.6490384470819,20.8237377756552
1.52599217439911,38.3183111934525,39.4423718026403,1.12406060918781,-38.8803414980464,18.5971252921324,20.2832162059141
1.52878703186137,38.8362612215675,39.3324719146432,0.496210693075604,-39.0843665681054,19.170025264246,19.9143413038594
1.53158188932364,38.9756398431367,39.4427882070989,0.467148363962167,-39.2092140251178,19.2542457395873,19.9549682855305
1.53437674678591,39.0662774372509,39.9319974387059,0.865720001454989,-39.4991374379784,19.100278717898,20.3988587200804
1.53717160424818,39.4774958832973,40.7558369026481,1.2783410193508,-40.1166663929727,19.0995774319733,21.0170889609995
1.53996646171045,40.2486616616487,41.6253666721743,1.37670501052561,-40.9370141669115,19.4359783255615,21.50103584135
1.54276131917272,40.9369654468849,42.067010801072,1.13004535418712,-41.5019881239785,19.9034600463489,21.5985280776296
1.54555617663499,40.8290430972928,41.5686199549822,0.739576857689428,-41.1988315261375,20.0447331198017,21.1540984063358
1.54835103409726,39.3792508893502,39.7637741177301,0.384523228379969,-39.5715125035402,19.4973638304851,20.0741486730551
1.55114589155953,36.5563636736442,36.5840285614679,0.0276648878236898,-36.5701961175561,18.2643493929103,18.3058467246458
1.5539407490218,32.8499980793122,32.3109412431614,-0.539056836150785,-32.5804696612368,16.6945274577315,15.8859422035053
1.55673560648407,28.9510374018297,27.4973394855219,-1.45369791630775,-28.2241884436758,15.2023676590687,13.0218207846071
1.55953046394634,25.3613999286343,22.7855469766542,-2.5758529519801,-24.0734734526442,13.9686264403072,10.104847012337
1.56232532140861,22.2132992771077,18.6969717988275,-3.51632747828012,-20.4551355379676,12.8648133776939,7.59032216027371
1.56512017887088,19.3788347871413,15.4774695253148,-3.90136526182645,-17.4281521562281,11.6401000244839,5.78805213174419
1.56791503633315,16.7087477625718,13.052306696957,-3.65644106561477,-14.8805272297644,10.1825944140933,4.69793281567112
1.57070989379542,14.1612166573767,11.091495959621,-3.06972069775572,-12.6263563084988,8.6154686775662,4.01088763093262
1.57350475125769,11.7228801434623,9.14317357937664,-2.57970656408562,-10.4330268614194,7.15129335377394,3.28173350764551
1.57629960871996,9.24660238882267,6.78369385205326,-2.46290853676941,-8.01514812043797,5.85475546279604,2.16039265764193
1.57909446618222,6.42319258041337,3.74949746116629,-2.67369511924708,-5.08634502078983,4.54844384983023,0.537901170959605
1.58188932364449,2.97650135554727,0.0268875876959234,-2.94961376785135,-1.5016944716216,2.96305756169931,-1.46136309007771
1.58468418110676,-1.05830093667599,-4.12817476659706,-3.06987382992107,2.59323785163653,1.00578644662254,-3.59902429825906
1.58747903856903,-5.22797213172425,-8.26271234338465,-3.0347402116604,6.74534223755445,-1.09661596003192,-5.64872627752252
1.5902738960313,-8.8656138479659,-11.8796424149922,-3.01402856702633,10.3726281314791,-2.92579264046978,-7.44683549100928
1.59306875349357,-11.4897726255136,-14.6139382430106,-3.12416561749697,13.0518554342621,-4.18280350400832,-8.86905193025377
1.59586361095584,-13.103371828656,-16.3572818668339,-3.25391003817798,14.7303268477449,-4.92473089523899,-9.80559595250596
1.59865846841811,-14.1600176506479,-17.2793678797729,-3.11935022912501,15.7196927652104,-5.52033371076146,-10.199359054449
1.60145332588038,-15.2246163037208,-17.7408094296141,-2.51619312589323,16.4827128666674,-6.3542115889138,-10.1285012777536
1.60424818334265,-16.592897054513,-18.13923043396,-1.546333379447,17.3660637442365,-7.52328183753301,-9.84278190670351
1.60704304080492,-18.1524027816405,-18.7574641502781,-0.605061368637639,18.4549334659593,-8.77367070650142,-9.68126275945788
1.60983789826719,-19.5595692295522,-19.6784967590286,-0.118927529476373,19.6190329942904,-9.72032085003793,-9.89871214425249
1.61263275572946,-20.5552359886029,-20.7970496219321,-0.241813633329222,20.6761428052675,-10.1567111776368,-10.5194316276307
1.61542761319173,-21.1529494236412,-21.909208328067,-0.756258904425849,21.5310788758541,-10.1983452596077,-11.3327336162464
1.618222470654,-21.5701865790571,-22.8247457517954,-1.25455917273828,22.1974661654263,-10.1578137031594,-12.0396524622669
1.62101732811627,-22.0005273849073,-23.4426712628679,-1.44214387796055,22.7215993238876,-10.2791917534734,-12.4424075704142
1.62381218557854,-22.4463601205592,-23.7599756732641,-1.31361555270488,23.1031678969117,-10.5663722839272,-12.5367956129845
1.6266070430408,-22.7534926622195,-23.8273296984573,-1.07383703623786,23.2904111803384,-10.8398278129908,-12.4505833673476
1.62940190050307,-22.7940983307467,-23.69790773374,-0.903809402993311,23.2460030322433,-10.9451444638767,-12.3008585683667
1.63219675796534,-22.6126211412524,-23.4135684183487,-0.800947277096302,23.0130947798005,-10.905836932078,-12.1072578477225
1.63499161542761,-22.3957632677654,-23.0317215147067,-0.635958246941293,22.7137423912361,-10.8799025104121,-11.833839880824
1.63778647288988,-22.2999062694701,-22.6493557372984,-0.349449467828272,22.4746310033842,-10.9752284008209,-11.4994026025633
1.64058133035215,-22.3026366331434,-22.377129818476,-0.0744931853325532,22.3398832258097,-11.1140717239054,-11.2258115019043
1.64337618781442,-22.2206560421457,-22.2661966691319,-0.0455406269861207,22.2434263556388,-11.0875577075798,-11.155868648059
1.64617104527669,-21.8825010886547,-22.2475806829848,-0.365079594330137,22.0650408858198,-10.7587107471623,-11.3063301386575
1.64896590273896,-21.3011177491231,-22.1508927399888,-0.849774990865662,21.7260052445559,-10.2256713791287,-11.5003338654272
1.65176076020123,-20.6873970960768,-21.8111986828368,-1.12380158676009,21.2492978894568,-9.78179775465834,-11.4675001347985
1.6545556176635,-20.2869099943652,-21.1949603358215,-0.908050341456288,20.7409351650934,-9.68942982645447,-11.0515053386389
1.65735047512577,-20.1813513130928,-20.4481331411208,-0.26678182802798,20.3147422271068,-9.95728474253243,-10.3574574845744
1.66014533258804,-20.228786773141,-19.8222809947537,0.40650577838732,20.0255338839473,-10.3176462757642,-9.70788760818318
1.66294019005031,-20.1934484410096,-19.5257687305298,0.667679710479881,19.8596085857697,-10.4305640757448,-9.42904451002494
1.66573504751258,-19.9475091793839,-19.6008409133936,0.346668265990282,19.7741750463888,-10.1470887226871,-9.62708632370167
1.66852990497485,-19.5654002237211,-19.9050978300875,-0.339697606366379,19.7352490269043,-9.61285130867735,-10.1223977182269
1.67132476243712,-19.2324373085834,-20.2030648592226,-0.970627550639165,19.717751083903,-9.13090487897214,-10.5868462049309
1.67411961989939,-19.0614223353144,-20.3060278531554,-1.244605517841,19.6837250942349,-8.90840840873672,-10.7753166854982
1.67691447736165,-18.99497492865,-20.1756789979866,-1.18070406933651,19.5853269633183,-8.90713542965677,-10.6781915336615
1.67970933482392,-18.8885489789278,-19.9342134413127,-1.04566446238492,19.4113812101202,-8.92144225827143,-10.4899389518488
1.68250419228619,-18.6922602281058,-19.7787745528974,-1.08651432479156,19.2355173905016,-8.80287295165714,-10.4326444388445
1.68529904974846,-18.5429853850792,-19.8510028861762,-1.30801750109698,19.1969941356277,-8.61748394199112,-10.5795101936366
1.68809390721073,-18.6514769662384,-20.136965624882,-1.48548865864359,19.3942212955602,-8.58299415379742,-10.8112271417628
1.690888764673,-19.0662165273936,-20.4563873870173,-1.39017085962371,19.7613019572055,-8.83802283388497,-10.9232791233205
1.69368362213527,-19.5337710626776,-20.5510777459487,-1.01730668327111,20.0424244043131,-9.25823218970322,-10.7841922146099
1.69647847959754,-19.6161539621446,-20.2272349924423,-0.611081030297754,19.9216944772934,-9.5025364659234,-10.41915801137
1.69927333705981,-19.0087823560581,-19.4738610360349,-0.465078679976752,19.2413216960465,-9.2718518380407,-9.96946985800583
1.70206819452208,-17.814640082688,-18.4879387684861,-0.673298685798116,18.1512894255871,-8.57067069844495,-9.58061872714213
1.70486305198435,-16.5408586529615,-17.5862153264854,-1.04535667352395,17.0635369897234,-7.74775098971875,-9.31578600000468
1.70765790944662,-15.7933183621381,-17.0483902655827,-1.25507190344457,16.4208543138604,-7.26912322934676,-9.15173108451362
1.71045276690889,-15.8826160755847,-16.9765955440239,-1.09397946843918,16.4296058098043,-7.39431830357277,-9.03528750623154
1.71324762437116,-16.6290134508072,-17.2462091715128,-0.617195720705585,16.93761131116,-8.00590886505082,-8.9317024461092
1.71604248183343,-17.505547669004,-17.5731912183145,-0.0676435493105316,17.5393694436593,-8.71895205984673,-8.82041738381253
1.7188373392957,-18.0013239757539,-17.662576295291,0.338747680462902,17.8319501355225,-9.17003582810842,-8.66191430741407
1.72163219675797,-17.9248791154112,-17.3593487886682,0.565530326742994,17.6421139520397,-9.2452047210771,-8.39690923096261
1.72442705422023,-17.4345547851772,-16.7206996206246,0.713855164552601,17.0776272029009,-9.07420497486492,-8.00342222803602
1.7272219116825,-16.8201162271316,-15.9758245121064,0.844291715025298,16.397970369619,-8.83220397107847,-7.56576639854053
1.73001676914477,-16.2578436472205,-15.4061818299064,0.851661817314136,15.8320127385634,-8.55475273226731,-7.27726000629611
1.73281162660704,-15.7498763014591,-15.216416997555,0.533459303904063,15.4831466495071,-8.14166780268159,-7.34147884682549
1.73560648406931,-15.2618829924619,-15.4560743026149,-0.194191310153064,15.3589786475384,-7.5338458411544,-7.825132806384
1.73840134153158,-14.8821985577392,-16.0176323864439,-1.13543382870471,15.4499154720916,-6.87338236451724,-8.57653310757431
1.74119619899385,-14.8177176757118,-16.7021444427811,-1.88442676706932,15.7599310592465,-6.46664545432123,-9.29328560492522
1.74399105645612,-15.2149521710352,-17.315754517512,-2.10080234647677,16.2653533442736,-6.55707491227921,-9.70827843199437
1.74678591391839,-15.976210938328,-17.7455294234822,-1.7693184851542,16.8608701809051,-7.1034462265869,-9.7574239543182
1.74958077138066,-16.7597752419159,-17.9775971553195,-1.21782191340364,17.3686861986177,-7.77097666425612,-9.59770953436158
1.75237562884293,-17.1945216179342,-18.0617171095058,-0.867195491571575,17.62811936372,-8.1636630631813,-9.46445630053866
1.7551704863052,-17.1455651926744,-18.0601142711566,-0.914549078482189,17.6028397319155,-8.11550805709612,-9.4873316748194
1.75796534376747,-16.8096536692029,-18.0160011021791,-1.20634743297621,17.412827385691,-7.80165311811335,-9.61117426757766
1.76076020122974,-16.5539358953276,-17.949531957137,-1.39559606180938,17.2517339262323,-7.57916991675912,-9.67256400947319
1.76355505869201,-16.6275007167451,-17.8679907860261,-1.24049006928103,17.2477457513856,-7.69350532373201,-9.55424042765356
1.76634991615428,-16.9839404413846,-17.7756122270145,-0.791671785629987,17.3797763341995,-8.09613432787728,-9.28364200632226
1.76914477361655,-17.3577587082963,-17.675961156025,-0.318202447728705,17.5168599321607,-8.51977813028382,-8.99708180187688
1.77193963107881,-17.51773869905,-17.5670764862979,-0.0493377872479002,17.542407592674,-8.73420045590105,-8.8082071367729
1.77473448854108,-17.4665728883801,-17.4351300570449,0.0314428313351698,17.4508514727125,-8.74900785985762,-8.70184361285487
1.77752934600335,-17.4051057481156,-17.2522298399371,0.152875908178491,17.3286677940264,-8.77899082814705,-8.54967696587932
1.78032420346562,-17.4917507122262,-16.9774352148552,0.514315497371026,17.2345929635407,-9.00303310479861,-8.23155985874207
1.78311906092789,-17.6176955776115,-16.5575739076877,1.06012166992387,17.0876347426496,-9.33890862376771,-7.74872611888191
1.78591391839016,-17.4178805927207,-15.9332043780455,1.48467621467523,16.6755424853831,-9.45127840369796,-7.22426408168512
1.78870877585243,-16.5397116097898,-15.0627150320947,1.47699657769508,15.8012133209422,-9.00835409374243,-6.7928592271998
1.7915036333147,-14.959948684273,-13.9653345418045,0.99461414246854,14.4626416130388,-7.97728141337079,-6.48536019966798
1.79429849077697,-13.0784686954445,-12.7549997431904,0.323468952254048,12.9167342193175,-6.70096882384927,-6.2157653954682
1.79709334823924,-11.4903212665048,-11.6219660474189,-0.131644780914119,11.5561436569618,-5.67933824279532,-5.8768054141665
1.79988820570151,-10.6006608586836,-10.745447136437,-0.144786277753401,10.6730539975603,-5.22793729046512,-5.44511670709522
1.80268306316378,-10.3744496418928,-10.1785008823706,0.195948759522169,10.2764752621317,-5.28519920070748,-4.99127606142422
1.80547792062605,-10.4013379983166,-9.78751518849165,0.613822809824969,10.0944265934041,-5.50758040407079,-4.58684618933334
1.80827277808832,-10.2061133867604,-9.30722380614889,0.898889580611529,9.75666859645465,-5.55250148368597,-4.20416711276868
1.81106763555059,-9.55280357603191,-8.49145802377778,1.06134555225414,9.02213079990484,-5.30707456414302,-3.71505623576182
1.81386249301286,-8.51936626524872,-7.25962190490884,1.25974436033987,7.88949408507878,-4.8895553127943,-2.99993877228448
1.81665735047513,-7.32665001441667,-5.73207339391253,1.59457662050413,6.5293617041646,-4.4606133174604,-2.0687483867042
1.8194522079374,-6.10820897874379,-4.13213680361599,1.9760721751278,5.12017289117989,-4.04214057693579,-1.07803231424409
1.82224706539966,-4.83346809785288,-2.63943111195162,2.19403698590127,3.73644960490225,-3.51375254187707,-0.222697063025176
1.82504192286193,-3.43214723711424,-1.31037813320242,2.12176910391182,2.37126268515833,-2.77695817051303,0.405695485354697
1.8278367803242,-1.96979183022593,-0.111857099814603,1.85793473041132,1.04082446502026,-1.91386328031862,0.873038815298359
1.83063163778647,-0.678905796775307,0.983534420902379,1.66244021767769,-0.152314312063536,-1.1706730072265,1.32298731929003
1.83342649524874,0.20166972374908,1.92892721847283,1.72725749472375,-1.06529847111095,-0.762793885487335,1.82809235659829
1.83622135271101,0.630269142315837,2.61001213299915,1.97974299068332,-1.62014063765749,-0.674736924183739,2.29487756184123
1.83901621017328,0.806284414235945,2.91139842347683,2.10511400924088,-1.85884141885639,-0.649414797502468,2.50825621635885
1.84181106763555,0.994839614275914,2.78972532768336,1.79488571340744,-1.89228247097964,-0.400023049565765,2.2923055205454
1.84460592509782,1.2812501961324,2.30628309222072,1.02503289608832,-1.79376664417656,0.128108650022039,1.66565799415452
1.84740078256009,1.48276777871228,1.6054051791946,0.122637400482323,-1.54408647895344,0.680065189114978,0.864021289838463
1.85019564002236,1.31286716916695,0.860014990033513,-0.452852179133433,-1.08644107960023,0.882859674150189,0.20358140545004
1.85299049748463,0.66377034111418,0.217197919530051,-0.446572421584129,-0.440484130322115,0.555171381349155,-0.114687251027039
1.8557853549469,-0.24651959985765,-0.24027502345459,0.00624457640306011,0.24339731165612,-0.126382088130355,-0.117015223525765
1.85858021240917,-1.01227407216441,-0.52126447767422,0.491009594490194,0.766769274919317,-0.751641833327304,-0.0151274415920131
1.86137506987144,-1.36781582403473,-0.744194626787415,0.623621197247317,1.05600522541107,-0.995718510641024,-0.0602867147700488
1.86416992733371,-1.43499515907953,-1.1271360850643,0.307859074015227,1.28106562207192,-0.871427116547379,-0.409638505524539
1.86696478479598,-1.6751835348214,-1.92897443395577,-0.253790899134367,1.80207898438859,-0.710696317843518,-1.09138266654507
1.86975964225824,-2.57462339669929,-3.3517367294565,-0.777113332757208,2.9631800630779,-0.898755031971042,-2.06442503110685
1.87255449972051,-4.31244381519463,-5.45024770349456,-1.13780388829993,4.88134575934459,-1.58731996344735,-3.29402579589724
1.87534935718278,-6.66572834345756,-8.09658859551561,-1.43086025205805,7.38115846948659,-2.61743404569976,-4.76372442378683
1.87814421464505,-9.19891158013488,-11.0125320705064,-1.81362049037156,10.1057218253207,-3.69264554488166,-6.413076280439
1.88093907210732,-11.553245993932,-13.8483838519608,-2.29513785802877,12.7008149229464,-4.62905406795161,-8.07176085499476
1.88373392956959,-13.5950691322096,-16.2761040661779,-2.6810349339683,14.9355865991937,-5.45701709912064,-9.47856950007309
1.88652878703186,-15.335730940997,-18.0713796106008,-2.73564866960387,16.7035552757989,-6.30004113569656,-10.4035141401024
1.88932364449413,-16.7518617524831,-19.1670106556296,-2.41514890314652,17.9594362040564,-7.1683564246683,-10.7910797793881
1.8921185019564,-17.7154780345839,-19.6637534015176,-1.94827536693366,18.6896157180507,-7.88360133382512,-10.8060143842256
1.89491335941867,-18.1194239790129,-19.7907326035923,-1.67130862457943,18.9550782913026,-8.22405767721671,-10.7310206140859
1.89770821688094,-18.0735517720526,-19.8223065727291,-1.74875480067645,18.9479291723908,-8.16239848568807,-10.7855306867028
1.90050307434321,-17.953096048486,-19.9786936122696,-2.02559756378363,18.9658948303778,-7.96374924235119,-11.0021455880266
1.90329793180548,-18.199681324435,-20.3497135676624,-2.15003224322747,19.2746974460487,-8.02482454060374,-11.249872905445
1.90609278926775,-19.0026582530772,-20.8733926284787,-1.87073437540148,19.9380254407779,-8.56596193883786,-11.3720635019401
1.90888764673002,-20.1173298113186,-21.3775190840478,-1.26018927272921,20.7474244476832,-9.4285702692947,-11.3188541783885
1.91168250419229,-20.98953949116,-21.665744335027,-0.676204843867026,21.3276419130935,-10.1566673236465,-11.170974589447
1.91447736165456,-21.1210669786525,-21.612619052384,-0.491552073731526,21.3668430155183,-10.3147574524605,-11.0520855630578
1.91727221911682,-20.4171948743694,-21.2304191865799,-0.813224312210565,20.8238070304747,-9.80198528107941,-11.0218217493953
1.92006707657909,-19.2640136579729,-20.6825671951001,-1.41855353712722,19.9732904265365,-8.92273006042282,-11.0505603661136
1.92286193404136,-18.2856862518096,-20.2361899998113,-1.9505037480017,19.2609381258104,-8.16759125190394,-11.0933468739065
1.92565679150363,-17.9692013987013,-20.1666625916231,-2.19746119292182,19.0679319951622,-7.88587010288973,-11.1820618922725
1.9284516489659,-18.4294944979789,-20.6503397855821,-2.22084528760313,19.5399171417805,-8.1043246051879,-11.4355925365926
1.93124650642817,-19.4603053938312,-21.6987834826512,-2.23847808881994,20.5795444382412,-8.61091365250564,-11.9686307857355
1.93404136389044,-20.7863435205055,-23.1784779557883,-2.39213443528288,21.9824107381469,-9.19710454261129,-12.7853061955356
1.93683622135271,-22.2919259313072,-24.915103345019,-2.62317741371175,23.6035146381631,-9.83437425879774,-13.7691403793654
1.93963107881498,-24.058021874873,-26.822331806805,-2.76430993193201,25.440176840839,-10.6468559714705,-14.7933208693685
1.94242593627725,-26.2196263191215,-28.9612416933182,-2.74161537419667,27.5904340062199,-11.7390054724624,-15.8514285337574
1.94522079373952,-28.7821706353521,-31.4522764134088,-2.67010577805674,30.1172235243805,-13.0560324286477,-17.0611910957328
1.94801565120179,-31.5074178360662,-34.224731995696,-2.71731415962982,32.8660749158811,-14.3950518382182,-18.4710230776629
1.95081050866406,-33.8573919958413,-36.6816034577522,-2.82421146191093,35.2694977267968,-15.5165902669652,-19.7529074598316
1.95360536612633,-34.9211406990601,-37.448748895791,-2.52760819673096,36.1849447974255,-16.1967662511645,-19.988178546261
1.9564002235886,-33.3297422571759,-34.4121964429375,-1.08245418576156,33.8709693500567,-16.1236440357072,-17.7473253143495
1.95919508105087,-27.3125732792529,-25.1720179115748,2.14055536767813,26.2422955954139,-14.7265643234655,-11.5157312719483
1.96198993851314,-15.0858124018903,-7.85971738043741,7.22609502145286,11.4727648911638,-11.1559537116716,-0.316811179492275
1.96478479597541,4.40533294452717,17.9355235264137,13.5301905818865,-11.1704282354704,-4.56242881867969,15.7328570541501
1.96757965343767,30.6535743960964,50.4956625823484,19.842088186252,-40.5746184892224,5.40574310492218,35.1688753843002
1.97037451089994,61.1113371449227,85.878210332698,24.7668731877753,-73.4947737388104,18.1722319785737,55.3225417602367
1.97316936836221,91.4303272917379,118.537834204526,27.1075069127886,-104.984080748132,32.1614101894746,72.8226705586575
1.97596422582448,116.454436895582,142.559921193715,26.1054842981322,-129.507179044648,45.1744762987251,84.3327027459234
1.97875908328675,131.621692872297,153.171058823037,21.5493659507401,-142.396375847667,55.0361634607783,87.3602123868885
1.98155394074902,134.225765979229,148.059538209511,13.8337722302815,-141.14265209437,60.1959968744739,80.9466552198962
1.98434879821129,124.070874672105,128.064002037953,3.99312736584831,-126.067438355029,60.0388736531283,66.0285647019007
1.98714365567356,103.359202985537,96.981974332157,-6.37722865337949,-100.170588658847,54.868215819458,45.3023728393888
1.98993851313583,75.9789934743357,60.5530792813428,-15.4259141929929,-68.2660363778392,45.7024538336643,22.5635825441749
1.9927333705981,46.5264436858796,24.9629073995098,-21.5635362863698,-35.7446755426947,34.0449899861247,1.69968555657003
1.99552822806037,19.3524929914942,-4.63530943629505,-23.9878024277893,-7.35859177759958,21.6701477096417,-14.3115559320422
1.99832308552264,-2.21208349070601,-25.1363321585052,-22.9242486677992,13.6742078246056,10.3560825885466,-24.0302904131522
2.00111794298491,-16.3867355879548,-35.8086114380478,-19.421875850093,26.0976735130013,1.51757013106906,-27.6152436440704
2.00391280044718,-23.149823814158,-37.9695373202287,-14.8197135060707,30.5596805671934,-4.16505515404364,-26.3946254131497
2.00670765790945,-24.0300073460377,-34.2418735544237,-10.211866208386,29.1359404502307,-6.90907056882583,-22.2268698814049
2.00950251537172,-21.4723180171039,-27.6800227050012,-6.20770468789735,24.5761703610526,-7.63230666460327,-16.9438636964493
2.01229737283399,-17.965874780559,-21.0015026705113,-3.03562788995229,19.4836887255352,-7.46512344530337,-12.0185652802318
2.01509223029625,-15.2796757484597,-16.0664646667797,-0.786788918319914,15.6730702076197,-7.24644341506991,-8.42662679254978
2.01788708775852,-14.1250669204165,-13.6687037501231,0.456363170293406,13.8968853352698,-7.29071504535496,-6.60617028991485
2.02068194522079,-14.3335693946326,-13.6378004672901,0.695768927342572,13.9856849309614,-7.51466916098761,-6.47101576997375
2.02347680268306,-15.3502197363054,-15.1826715304203,0.167548205885071,15.2664456333628,-7.75888397109522,-7.50756166226762
2.02627166014533,-16.6936355438027,-17.3362330943988,-0.642597550596093,17.0149343191008,-8.02551899660331,-8.98941532249745
2.0290665176076,-18.1283769860653,-19.3303527056587,-1.20197571959341,18.729364845862,-8.46320063323594,-10.2661642126261
2.03186137506987,-19.5516439953874,-20.7755081470229,-1.22386415163547,20.1635760712051,-9.16388992187596,-10.9996861493292
2.03465623253214,-20.8072441423129,-21.6251132315126,-0.817869089199693,21.2161786869127,-9.99468752655659,-11.2214911603561
2.03745108999441,-21.6447612313839,-22.008994519723,-0.364233288339104,21.8268778755535,-10.6402639715224,-11.1866139040311
2.04024594745668,-21.8607205499387,-22.063518238735,-0.202797688796334,21.9621193943369,-10.8289614305712,-11.1331579637657
2.04304080491895,-21.4665123994485,-21.849167353832,-0.382654954383487,21.6578398766403,-10.5419287225325,-11.1159111541078
2.04583566238122,-20.699215946684,-21.3650718536503,-0.665855906966357,21.0321439001671,-10.0166800198588,-11.0154638803083
2.04863051984349,-19.8448317483582,-20.6073894555432,-0.762557707185021,20.2261106019507,-9.54113702058659,-10.6849735813641
2.05142537730576,-19.0283409819496,-19.6135418202675,-0.585200838317867,19.3209414011086,-9.22157007181588,-10.0993713292927
2.05422023476803,-18.1651942545272,-18.4702587618709,-0.305064507343694,18.317726508199,-8.93006487359174,-9.38766163460728
2.0570150922303,-17.1242676781204,-17.29657385556,-0.172306177439552,17.2104207668402,-8.47598075034043,-8.73444001649975
2.05980994969257,-15.9534793247236,-16.2214106440329,-0.2679313193093,16.0874449843782,-7.84277400270714,-8.24467098167109
2.06260480715483,-14.9498443408513,-15.3657909221682,-0.415946581316893,15.1578176315098,-7.26694887976721,-7.89086875174255
2.0653996646171,-14.4861898272933,-14.8266332104496,-0.3404433831563,14.6564115188715,-7.07287322206852,-7.58353829680297
2.06819452207937,-14.7255687876108,-14.654888810835,0.0706799767757893,14.6902287992229,-7.39812438219331,-7.29210441702963
2.07098937954164,-15.4649875014901,-14.8295760742278,0.635411427262317,15.147281787859,-8.05019946437623,-7.09708232348275
2.07378423700391,-16.2480805775792,-15.2414497224649,1.00663085511433,15.744765150022,-8.62735571634677,-7.11740943367528
2.07657909446618,-16.6577528686204,-15.7018300010089,0.955922867611561,16.1797914348147,-8.806837868116,-7.37295356669866
2.07937395192845,-16.5485832590758,-15.9817684325492,0.566814826526645,16.2651758458125,-8.55769904280123,-7.70747680301127
2.08216880939072,-16.0414707550028,-15.87278288963,0.168687865372805,15.9571268223164,-8.10507931018779,-7.85204751212858
2.08496366685299,-15.3186587170801,-15.2493220913365,0.0693366257435457,15.2839904042083,-7.69399767141181,-7.58999273279649
2.08775852431526,-14.4259681988931,-14.1083576709334,0.317610527959744,14.2671629349132,-7.37178936342643,-6.89537357148681
2.09055338177753,-13.2626452987886,-12.5676045673903,0.695040731398278,12.9151249330894,-6.97884301509343,-5.93628191799601
2.0933482392398,-11.7521749805998,-10.8212419529838,0.930933027616028,11.2867084667918,-6.34155400410791,-4.94515446268387
2.09614309670207,-10.0145128948665,-9.07280818556376,0.941704709302744,9.54366054021513,-5.47810880208462,-4.06555173813051
2.09893795416434,-8.35752817042572,-7.47716762845586,0.880360541969868,7.91734789944079,-4.6189443561978,-3.29840354324299
2.10173281162661,-7.07431584695079,-6.11709295622119,0.957222890729607,6.59570440158599,-4.0157693688402,-2.57993503274579
2.10452766908888,-6.21974066360135,-5.01754974117586,1.20219092242549,5.61864520238861,-3.71096579301342,-1.90767940937519
2.10732252655115,-5.57307152594071,-4.17933022905227,1.39374129688844,4.87620087749649,-3.48340641141458,-1.39279446608191
2.11011738401342,-4.83738533870303,-3.60625953421209,1.23112580449094,4.22182243645756,-3.03425557159698,-1.18756686486058
2.11291224147568,-3.91294334529712,-3.30589977214046,0.60704357315666,3.60942155871879,-2.25999345922689,-1.3494280994919
2.11570709893795,-3.00259523907647,-3.26046508829593,-0.257869849219461,3.1315301636862,-1.3723626949285,-1.75916746875769
2.11850195640022,-2.44369460955609,-3.38924188315719,-0.945547273601102,2.91646824635664,-0.749073667977492,-2.16739457837914
2.12129681386249,-2.39999725864156,-3.53824009017782,-1.13824283153625,2.96911867440969,-0.630877213552655,-2.33824146085703
2.12409167132476,-2.67666546277955,-3.51719962801521,-0.840534165235662,3.09693254539738,-0.918065648771941,-2.17886689662543
2.12688652878703,-2.82360730230183,-3.16690887947132,-0.343301577169491,2.99525809088658,-1.24015286256617,-1.75510522832041
2.1296813862493,-2.44844912475372,-2.41615097740336,0.0322981473503683,2.43230005107854,-1.24037363605205,-1.19192641502649
2.13247624371157,-1.4815410144664,-1.2991924535815,0.182348560884896,1.39036673402395,-0.831944787675648,-0.558421946348304
2.13527110117384,-0.178674578246488,0.0660921702275554,0.244766748474044,0.0562912040094664,-0.211720663360266,0.1554294593508
2.13806595863611,1.1269840645948,1.52432747099502,0.397343406400218,-1.32565576779491,0.364820329097293,0.960835438697621
2.14086081609838,2.30511705659023,2.9411639182276,0.636046861637366,-2.62314048740892,0.834535097476433,1.78860538993248
2.14365567356065,3.50990160274303,4.26302666819018,0.753125065447151,-3.88646413546661,1.37838826864794,2.50807586681867
2.14645053102292,5.01380110700449,5.55627054833026,0.542469441325772,-5.28503582766738,2.23566583283936,3.04936999482802
2.14924538848519,6.95454010634988,6.99773272752712,0.0431926211772433,-6.9761364169385,3.45567374258632,3.52046267435218
2.15204024594746,9.21532061597046,8.80239717873022,-0.412923437240234,-9.00885889735034,4.81412202660535,4.194736870745
2.15483510340973,11.5239118792005,11.1066096288176,-0.417302250382855,-11.3152607540091,5.97060706479168,5.34465368921739
2.157629960872,13.6580755960752,13.8607242088493,0.202648612774114,-13.7593999024623,6.72771349165055,7.03168641081172
2.16042481833426,15.5626827327812,16.7955518518174,1.23286911903623,-16.1791172922993,7.16490680687248,9.01421048542683
2.16321967579653,17.2833599551831,19.4939512553843,2.21059130020116,-18.3886556052837,7.53638432749097,10.8522712777927
2.1660145332588,18.8032040978459,21.5409169220745,2.73771282422859,-20.1720605099602,8.03274563680866,12.1393148731515
2.16880939072107,19.9651195773519,22.6852910701157,2.72017149276382,-21.3252053237338,8.62247404229405,12.7027312814398
2.17160424818334,20.5842245134652,22.9448790367111,2.36065452324589,-21.7645517750881,9.11178499510964,12.6527667799785
2.17439910564561,20.6708343964071,22.612959976433,1.94212558002592,-21.6418971864201,9.3643544081906,12.2775427782295
2.17719396310788,20.5606328661605,22.1623699650651,1.6017370989046,-21.3615014156128,9.47944788362794,11.8820535319848
2.17998882057015,20.8019742675204,22.0835185207052,1.28154425318476,-21.4427463941128,9.76021500716784,11.682531386945
2.18278367803242,21.8459026802631,22.7196008004081,0.873698120145054,-22.2827517403356,10.486102280059,11.7966494602766
2.18557853549469,23.759869980803,24.1610129742062,0.401142993403138,-23.9604414775046,11.6793634936999,12.2810779838046
2.18837339295696,26.1846421708749,26.2319853085024,0.0473431376275215,-26.2083137396887,13.0686495166237,13.139664223065
2.19116825041923,28.5664345895318,28.5623755412323,-0.00405904829949577,-28.5644050653821,14.2852468189156,14.2791582464664
2.1939631078815,30.4805711762409,30.7091895010153,0.228618324774416,-30.5948803386281,15.1259764257332,15.4689039128949
2.19675796534377,31.8039475807928,32.2873519840847,0.483404403291949,-32.0456497824387,15.6602715887504,16.3853781936883
2.19955282280604,32.6367902228366,33.0766599626303,0.439869739793714,-32.8567250927334,16.0984602415214,16.758264851212
2.20234768026831,33.0896615023311,33.0762599999402,-0.0134015023909271,-33.0829607511356,16.551531502361,16.5314292487746
2.20514253773058,33.1510418412865,32.48543650739,-0.665605333896586,-32.8182391743382,16.9083235875916,15.9099155867467
2.20793739519284,32.75185498799,31.6145920406202,-1.13726294736973,-32.1832235143051,16.9445589676798,15.2386645466253
2.21073225265511,31.9420492615133,30.7626658397659,-1.1793834217474,-31.3523575506396,16.5607163416303,14.7916412090092
2.21352711011738,30.9775902523197,30.1094183832672,-0.868171869052524,-30.5435043177935,15.9228810606861,14.6206232571073
2.21632196757965,30.1923314043553,29.6573992116356,-0.534932192719733,-29.9248653079954,15.3636317985375,14.5612335094579
2.21911682504192,29.7326338644262,29.2372897958157,-0.495344068610461,-29.4849618301209,15.1139889665183,14.3709728636026
2.22191168250419,29.3806959794276,28.5718034571066,-0.808892522320992,-28.9762497182671,15.0947942508743,13.8814554673928
2.22470653996646,28.6440969253213,27.3750332160332,-1.26906370928816,-28.0095650706772,14.9565803173047,13.0529847533725
2.22750139742873,27.0736392999323,25.4513598851606,-1.62227941477165,-26.2624995925464,14.347959357352,11.9145402351945
2.230296254891,24.5716600137555,22.7593307240428,-1.81232928971265,-23.6654953688991,13.1919946517341,10.4735007171651
2.23309111235327,21.4459800628101,19.4186274289705,-2.02735263383963,-20.4323037458903,11.7366663483249,8.69563739756542
2.23588596981554,18.1662220433587,15.6582766194044,-2.50794542395429,-16.9122493313816,10.3370837336565,6.57516559772506
2.23868082727781,15.023429893556,11.7300061148097,-3.29342377874634,-13.3767180041829,9.15842683615119,4.21829116803168
2.24147568474008,11.9704152643846,7.82883529253744,-4.14157997184719,-9.89962527846103,8.05599761811591,1.84362766034512
2.24427054220235,8.7609638356358,4.05790703545282,-4.70305680018298,-6.40943543554431,6.73201031790939,-0.322574882365083
2.24706539966462,5.25034679971554,0.449102417787592,-4.80124438192795,-2.84972460875157,5.02579559082175,-2.17607098207018
2.24986025712689,1.58813920182803,-2.98031425222092,-4.56845345404895,0.696087525196445,3.07829632793849,-3.77438385313493
2.25265511458916,-1.86392296472984,-6.17732099509375,-4.31339803036391,4.0206219799118,1.22473753281703,-5.24535951272883
2.25544997205143,-4.81216559251638,-9.04864309879905,-4.23647750628267,6.93040434565772,-0.287844043116858,-6.64256030254086
2.25824482951369,-7.25915072561918,-11.5084662127627,-4.24931548714347,9.38380846919092,-1.50491761923785,-7.87889084995306
2.26103968697596,-9.47989188412114,-13.5440735013663,-4.06418161724517,11.5119826927437,-2.70785513343799,-8.80412755930574
2.26383454443823,-11.7718171967239,-15.2501857122275,-3.47836851550359,13.5110014544757,-4.14672434061014,-9.36427711386552
2.2666294019005,-14.2002153889558,-16.8024100318424,-2.60219464288661,15.5013127103991,-5.7990103730346,-9.70230233736451
2.26942425936277,-16.5557025295858,-18.3774981286369,-1.82179559905106,17.4666003291114,-7.36695346526739,-10.099646863844
2.27221911682504,-18.5456501546189,-20.0609451682639,-1.51529501364498,19.3032976614414,-8.51517757048695,-10.7881200909544
2.27501397428731,-20.0352393056079,-21.793834514338,-1.75859520873004,20.914536909973,-9.13832204843895,-11.776214861534
2.27780883174958,-21.1209170471005,-23.3920610812096,-2.27114403410908,22.256489064155,-9.4248865064957,-12.8316025576593
2.28060368921185,-21.9849586408271,-24.6303560792126,-2.64539743838557,23.3076573600199,-9.66978060122076,-13.6378767587991
2.28339854667412,-22.6862017649488,-25.3464544692311,-2.66025270428221,24.0163281170899,-10.0129745303333,-14.0033535867566
2.28619340413639,-23.0972674943551,-25.511469545433,-2.41420205107789,24.304368519894,-10.3415327216386,-13.9628357982554
2.28898826159866,-23.0556014133801,-25.2356583508223,-2.18005693744216,24.1456298821012,-10.437772237969,-13.7078576441322
2.29178311906093,-22.5881453908801,-24.717661373549,-2.12951598266892,23.6529033822145,-10.2293147041056,-13.423588678109
2.2945779765232,-21.9892131415036,-24.1727570960696,-2.183543954566,23.0809851187866,-9.90283459346881,-13.1781505253178
2.29737283398547,-21.6566102023096,-23.7741618058477,-2.1175516035381,22.7153860040786,-9.76952929938572,-12.9458567046929
2.30016769144774,-21.8109717827548,-23.6195443253511,-1.80857254259637,22.715258054053,-10.0011996200792,-12.7140584339738
2.30296254891001,-22.3366309666466,-23.7176435491427,-1.38101258249603,23.0271372578947,-10.4778091920753,-12.5493280658193
2.30575740637227,-22.8854380311939,-23.9909887419311,-1.10555071073713,23.4382133865625,-10.8899436602284,-12.5482697263341
2.30855226383454,-23.1612882752675,-24.3002298104489,-1.13894153518145,23.7307590428582,-11.011173370043,-12.7195856728152
2.31134712129681,-23.146338137914,-24.4942330900127,-1.34789495209873,23.8202856139634,-10.8992215929076,-12.9210640210557
2.31414197875908,-23.0796152273125,-24.4724928262332,-1.39287759892069,23.7760540267728,-10.8433688141959,-12.9326852125769
2.31693683622135,-23.2150735013836,-24.2284988815436,-1.01342538016007,23.7217861914636,-11.1008240606117,-12.6209621308519
2.31973169368362,-23.5774731365608,-23.8466231051122,-0.269149968551371,23.7120481208365,-11.6541615840047,-12.0578865368318
2.32252655114589,-23.9321828112504,-23.4542402592172,0.477942552033262,23.6932115352338,-12.2050626816418,-11.4881488535919
2.32532140860816,-23.9949574292286,-23.1619499989171,0.833007430311493,23.5784537140728,-12.41398242977,-11.1644712843028
2.32811626607043,-23.6967851810522,-23.0297039691566,0.667081211895606,23.3632445751044,-12.1819331964739,-11.1813113786305
2.3309111235327,-23.2689573696788,-23.0705688083716,0.198388561307215,23.1697630890252,-11.733672965493,-11.4360901235322
2.33370598099497,-23.0681963605147,-23.2710538672471,-0.202857506732325,23.1696251138809,-11.4326694268912,-11.7369556869897
2.33650083845724,-23.2861389239314,-23.5979379859798,-0.311799062048436,23.4420384549556,-11.4871699309415,-11.9548685240141
2.33929569591951,-23.7858718326622,-23.9824866005591,-0.196614767896843,23.8841792166107,-11.7946285323827,-12.089550684228
2.34209055338178,-24.1972034598942,-24.3005091533192,-0.103305693425039,24.2488563066067,-12.0469488832346,-12.2019074233721
2.34488541084405,-24.1814375195464,-24.3752893695055,-0.193851849959167,24.2783634445259,-11.9937928347936,-12.2845706097323
2.34768026830632,-23.6399456066273,-24.0172604013076,-0.377314794680295,23.8286030039674,-11.6313154059735,-12.1972875979939
2.35047512576859,-22.7066944754589,-23.0935653260642,-0.386870850605359,22.9001299007615,-11.1599118124268,-11.7402180883348
2.35326998323086,-21.5668437044565,-21.6027616200664,-0.0359179156099216,21.5848026622615,-10.7654628944233,-10.8193397678382
2.35606484069312,-20.2948603405468,-19.7186842956773,0.576176044869442,20.0067723181121,-10.4355181927081,-9.57125412540395
2.35885969815539,-18.8721755018054,-17.7710065821458,1.10116891965958,18.3215910419756,-9.9866722107325,-8.33491883124313
2.36165455561766,-17.3596157235266,-16.1554809462415,1.20413477728513,16.757548334884,-9.28187525040586,-7.47567308447817
2.36444941307993,-16.0336532145831,-15.2036477989996,0.830005415583503,15.6186505067913,-8.43182931508329,-7.18682119170803
2.3672442705422,-15.3092650931994,-15.0660109546618,0.243254138537617,15.1876380239306,-7.77625961586851,-7.41137840806209
2.37003912800447,-15.4662284170254,-15.659087634141,-0.192859217115586,15.5626580255832,-7.63668459995493,-7.92597342562831
2.37283398546674,-16.3946842256095,-16.6984778254178,-0.303793599808351,16.5465810255137,-8.04544531290057,-8.5011357126131
2.37562884292901,-17.5908738449311,-17.8021573121653,-0.211283467234185,17.6965155785482,-8.68979518884846,-9.00672038969974
2.37842370039128,-18.4420248012365,-18.6195569038142,-0.177532102577722,18.5307908525254,-9.13224634932939,-9.39854450319597
2.38121855785355,-18.6014558641037,-18.9360031024172,-0.334547238313533,18.7687294832604,-9.13345431289507,-9.63527517036537
2.38401341531582,-18.1734841475177,-18.7173992762924,-0.543915128774781,18.445441711905,-8.81478450937144,-9.63065720253361
2.38680827277809,-17.5748631873873,-18.0861431280353,-0.511279940648013,17.8305031577113,-8.53179162336963,-9.29871153434165
2.38960313024036,-17.1947029570914,-17.2478917718134,-0.0531888147220663,17.2212973644524,-8.57075707118466,-8.65054029326776
2.39239798770263,-17.1270030911384,-16.409820448241,0.717182642897367,16.7684117696897,-8.92209286701788,-7.84631890267183
2.3951928451649,-17.1762831762789,-15.7292696826518,1.44701349362709,16.4527764294653,-9.31164833495297,-7.14112809451234
2.39798770262717,-17.1024395026627,-15.3046674478679,1.79777205479482,16.2035534752653,-9.45010577872877,-6.75344769653654
2.40078256008944,-16.8739918401859,-15.1895319058905,1.68445993429542,16.0317618730382,-9.27922588724064,-6.75253598579752
2.4035774175517,-16.704704459253,-15.3992170960038,1.30548736324926,16.0519607776284,-9.00509591125114,-7.04686486637725
2.40637227501397,-16.8459722237094,-15.8942739827121,0.951698240997287,16.3701231032108,-8.89883523235336,-7.47128787085743
2.40916713247624,-17.3216129672529,-16.5530828663641,0.768530100888814,16.9373479168085,-9.04507153407088,-7.89227638273766
2.41196198993851,-17.841712951442,-17.1694939981092,0.672218953332834,17.5056034747756,-9.25696595238743,-8.24863752238817
2.41475684740078,-17.9796093632835,-17.5054511290825,0.474158234201063,17.742530246183,-9.22688379874229,-8.5156464474407
2.41755170486305,-17.4717479757628,-17.3894844314693,0.0822635442935429,17.4306162036161,-8.77700576002818,-8.65361044358787
2.42034656232532,-16.3978023808608,-16.8088777195143,-0.411075338653525,16.6033400501875,-7.99336352110363,-8.60997652908392
2.42314141978759,-15.1074758654824,-15.9360478301361,-0.828571964653694,15.5217618478092,-7.13945195041433,-8.38230989739487
2.42593627724986,-13.979537842257,-15.0671838474371,-1.08764600518003,14.523360844847,-6.4459459185385,-8.07741492630854
2.42873113471213,-13.2274595601712,-14.5024492209905,-1.27498966081925,13.8649543905808,-5.97623494967598,-7.88871944090485
2.4315259921744,-12.8929391503415,-14.4246292194222,-1.53169006908072,13.6587841848819,-5.6806245406304,-7.97815964425148
2.43432084963667,-12.9738102021529,-14.8275944558377,-1.85378425368476,13.9007023289953,-5.56001297423409,-8.34068935476124
2.43711570709894,-13.5088822996244,-15.5216695555035,-2.01278725587913,14.5152759275639,-5.74804752187261,-8.76722840569132
2.43991056456121,-14.5065463384512,-16.2121427166328,-1.70559637818156,15.359344527542,-6.40047498013484,-8.95886954740718
2.44270542202348,-15.7867034906592,-16.6158352403079,-0.829131749648679,16.2012693654836,-7.47878587050528,-8.7224834949783
2.44550027948575,-16.923809563494,-16.5627398370566,0.361069726437336,16.7432747002753,-8.64243964496564,-8.10083505530964
2.44829513694802,-17.411875383025,-16.0403779484658,1.3714974345592,16.7261266657454,-9.39168640879212,-7.33444025695332
2.45108999441028,-16.9700941307287,-15.1714382223672,1.79865590836152,16.0707661765479,-9.38437501954509,-6.68639115700282
2.45388485187255,-15.750952417164,-14.1453576339414,1.60559478322256,14.9481550255527,-8.67827360019327,-6.26988142535943
2.45667970933482,-14.2570785389306,-13.1365066854475,1.12057185348314,13.696792612189,-7.68882519620688,-6.00796741598217
2.45947456679709,-12.9996818817018,-12.23985773351,0.759824148191882,12.6197698076059,-6.87975301494686,-5.74001679265904
2.46226942425936,-12.1494418358245,-11.4459508354565,0.703491000367988,11.7976963356405,-6.42646641809623,-5.37122991754425
2.46506428172163,-11.4489125959383,-10.6618168125739,0.787095783364368,11.0553647042561,-6.11800418965134,-4.93736051460479
2.4678591391839,-10.4533677620888,-9.76761616694411,0.685751595144721,10.1104919645165,-5.56955967861677,-4.54093228589969
2.47065399664617,-8.90825364452277,-8.68641898411289,0.221834660409879,8.79733631431783,-4.56504415246633,-4.23229216185151
2.47344885410844,-6.96693560876023,-7.43791963564399,-0.47098402688376,7.20242762220211,-3.24797579093823,-3.95445183126387
2.47624371157071,-5.08724385065348,-6.14692757692748,-1.059683726274,5.61708571379048,-2.01378006218974,-3.60330565160074
2.47903856903298,-3.70441870111161,-4.99142194552483,-1.28700324441322,4.34792032331822,-1.2087077283492,-3.13921259496902
2.48183342649525,-2.94438665002394,-4.10629103252128,-1.16190438249734,3.52533884127261,-0.8912411337633,-2.63409770750931
2.48462828395752,-2.58555582219635,-3.49244203812123,-0.906886215924885,3.03899893015879,-0.83933480313573,-2.19966412702306
2.48742314141979,-2.26230500318619,-2.98917736465059,-0.726872361464403,2.62574118391839,-0.767716320860895,-1.8580248630575
2.49021799888206,-1.71786472650814,-2.33727114139439,-0.619406414886242,2.02756793395126,-0.549229155810951,-1.47833877814031
2.49301285634433,-0.907728519450258,-1.30753417528473,-0.399805655834471,1.10763134736749,-0.253961431807893,-0.8536699155596
2.4958077138066,0.0861555451981685,0.17169001647261,0.0855344712744417,-0.128922780835389,0.000310536961863395,0.128612243873526
2.49860257126887,1.19898939764761,1.95810800014783,0.759118602500213,-1.57854869889772,0.2199353975737,1.35861330132402
2.50139742873113,2.4217585994223,3.74246181070814,1.32070321128584,-3.08211020506522,0.550527694068228,2.53158251099699
2.5041922861934,3.70087671726296,5.17533992129307,1.47446320403012,-4.43810831927802,1.11320675661642,3.3249015626616
2.50698714365567,4.82739215041143,6.00963537406589,1.18224322365446,-5.41851376223866,1.82257446337849,3.59593929886018
2.50978200111794,5.47733668148233,6.19011045573972,0.712773774257384,-5.83372356861102,2.38228145361247,3.45144211499855
2.51257685858021,5.4240113446047,5.8528418611983,0.428830516593601,-5.6384266029015,2.49759041400555,3.14083618889595
2.51537171604248,4.75834704267584,5.24597820197513,0.48763115929929,-5.00216262232548,2.13535794168827,2.86680468063721
2.51816657350475,3.90656364282541,4.61947110585927,0.712907463033854,-4.26301737434234,1.59682808989578,2.66618928444656
2.52096143096702,3.38203907637693,4.13290315353419,0.750864077157267,-3.75747111495556,1.31558749960983,2.44188361534573
2.52375628842929,3.43138178635187,3.80586189521737,0.374480108865495,-3.61862184078462,1.52845083874319,2.09017100204143
2.52655114589156,3.8423501722354,3.51462367610495,-0.327726496130449,-3.67848692417018,2.08503833418292,1.59344858998725
2.52934600335383,4.07221897853702,3.03527885388041,-1.03694012465661,-3.55374891620872,2.55457955159682,0.999169364611898
2.5321408608161,3.60960687666576,2.13027808895779,-1.47932878770797,-2.86994248281177,2.54446783218686,0.325474650624912
2.53493571827837,2.30117695800814,0.656055668943816,-1.64512128906433,-1.47861631347598,1.97314912353624,-0.494532810060256
2.53773057574064,0.406827141926459,-1.3553828384327,-1.76220998035916,0.474277848253121,1.08451856114281,-1.55879640939593
2.54052543320291,-1.63418172276745,-3.68874736416686,-2.0545656413994,2.66146454346715,0.210191959315977,-2.87165650278313
2.54332029066518,-3.51799590194571,-6.02315501052641,-2.5051591085807,4.77057545623606,-0.506418396682507,-4.26415705955356
2.54611514812745,-5.21763700743256,-8.05811859922155,-2.84048159178898,6.63787780332706,-1.18857770782179,-5.44930009550527
2.54891000558971,-6.8666321302188,-9.62680012679445,-2.76016799657565,8.24671612850663,-2.05323206682158,-6.19348406168505
2.55170486305198,-8.53147419703099,-10.7465997072236,-2.2151255101926,9.63903695212729,-3.15817434341919,-6.4808626087081
2.55449972051425,-10.1034858233542,-11.5886266071715,-1.48514078381725,10.8460562152629,-4.3091725197685,-6.53688369549437
2.55729457797652,-11.4079876263026,-12.384212134978,-0.976224508675436,11.8960998806403,-5.21588155881358,-6.68021832182674
2.56008943543879,-12.4103554419362,-13.3147722873702,-0.904416845434099,12.8625638646532,-5.75296929825103,-7.10959456640217
2.56288429290106,-13.2998658783799,-14.4351314807889,-1.13526560240902,13.8674986795844,-6.08230013798544,-7.78519854159898
2.56567915036333,-14.34458736508,-15.6574447607755,-1.3128573956955,15.0010160629278,-6.51586498469227,-8.48515107823551
2.5684740078256,-15.629819589847,-16.7916691779001,-1.16184958805304,16.2107443838736,-7.233985000897,-8.97675938297657
2.57126886528787,-16.9160154430546,-17.6182994243073,-0.702283981252709,17.2671574336809,-8.10686573090092,-9.16029170277999
2.57406372275014,-17.7631763421191,-17.9639340370746,-0.200757694955417,17.8635551895969,-8.78120932358186,-9.08234586601499
2.57685858021241,-17.8411243019578,-17.7560587091089,0.0850655928488599,17.7985915055334,-8.96309494740332,-8.83549655813003
2.57965343767468,-17.1793471603661,-17.0448989908615,0.134448169504616,17.1121230756138,-8.65689766493536,-8.45522541067843
2.58244829513695,-16.1554630332791,-15.9917258601479,0.163737173131226,16.0735944467135,-8.15960010320518,-7.91399434350834
2.58524315259922,-15.2380490019368,-14.8317989736259,0.406250028310918,15.0349239877814,-7.82214951512386,-7.21277447265749
2.58803801006149,-14.6976009414814,-13.8256081826841,0.871992758797271,14.2616045620828,-7.78479685013934,-6.47680771194343
2.59083286752376,-14.5132884276425,-13.2124518572485,1.30083657039401,13.8628701424455,-7.90706249901826,-5.95580764342724
2.59362772498603,-14.528848262522,-13.1753013266508,1.35354693587116,13.8520747945864,-7.94119759919658,-5.91087719538984
2.59642258244829,-14.6987776040657,-13.8190236465222,0.879753957543484,14.258900625294,-7.78926578080461,-6.46963484448938
2.59921743991056,-15.1964539222068,-15.160403125485,0.0360507967217583,15.1784285238459,-7.61625235946427,-7.56217616438163
2.60201229737283,-16.2888623958131,-17.1309830768663,-0.84212068105316,16.7099227363397,-7.72337085737999,-8.98655187895973
2.6048071548351,-18.0982177894395,-19.5969793528617,-1.49876156342228,18.8475985711506,-8.29972811300859,-10.547870458142
2.60760201229737,-20.4693009325602,-22.3882013753209,-1.91890044276074,21.4287511539406,-9.27520024489973,-12.1535509090408
2.61039686975964,-23.0465708759137,-25.2965360171119,-2.24996514119819,24.1715534465128,-10.3983028673577,-13.773250579155
2.61319172722191,-25.4416811217887,-27.9889860803887,-2.54730495860002,26.7153336010887,-11.4471880815943,-15.2681455194944
2.61598658468418,-27.2595917536053,-29.8260861779999,-2.5664944243946,28.5428389658026,-12.3465486646054,-16.1962903011973
2.61878144214645,-27.8799043753274,-29.6753594156158,-1.79545504028833,28.7776318954716,-13.0422246675196,-15.7354072279521
2.62157629960872,-26.1621337370241,-25.8854775302026,0.276656206821464,26.0238056336133,-13.2193949719228,-12.8044106616906
2.62437115707099,-20.411176314911,-16.5626896176431,3.84848669726786,18.4869329662771,-12.1298315060894,-6.35710146018763
2.62716601453326,-8.82926891211649,-0.160137450959137,8.66913146115735,4.49470318153781,-8.74920018663692,4.25449700509911
2.62996087199553,9.64708957393034,23.7776155583319,14.1305259844015,-16.7123525661311,-2.24171820523561,18.9540707713667
2.6327557294578,34.5287673854006,53.9867839141248,19.4580165287242,-44.2577756497627,7.53537542833823,36.7224002214245
2.63555058692007,63.4254768030618,87.2518795532634,23.8264027502016,-75.3386781781626,19.7995370264301,55.5391411517325
2.63834544438234,92.3817565656339,118.748228141373,26.3664715757394,-105.564992353504,33.0076424949473,72.5573498585563
2.64114030184461,116.771008771323,142.968359856206,26.1973510848829,-129.869684313764,45.28682884322,84.5828554705444
2.64393515930688,132.400375676281,155.041152858808,22.6407771825277,-143.720764267545,54.8797992468765,88.8409650206681
2.64673001676914,136.473903286138,152.078958738867,15.6050554527285,-144.276431012503,60.4344239167049,83.8420070957976
2.64952487423141,128.202389260618,134.112480108804,5.91009084818589,-131.157434684711,61.1461492062162,70.0112854784951
2.65231973169368,108.993807985415,104.256593978973,-4.7372140064418,-106.625200982194,56.8655109959285,49.7596899862658
2.65511458915595,82.2183309938099,67.9934883936876,-14.2248426001223,-75.1059096937488,48.2215867969661,26.8843228967826
2.65790944661822,52.547226139464,31.7755804260047,-20.7716457134593,-42.1614032827343,36.6594359264616,5.50196735627268
2.66070430408049,24.9184504850052,1.39815707447937,-23.5202934105258,-13.1583037797423,24.2193719477655,-11.0610681680232
2.66349916154276,3.33442118892641,-19.3427552349931,-22.6771764239196,8.00416702303336,13.005798806423,-21.0099658294563
2.66629401900503,-10.1302533034635,-29.3252511963772,-19.1949978929137,19.7277522499203,4.53237229472511,-24.2601245446454
2.6690888764673,-15.7048145359286,-29.9807417800188,-14.2759272440902,22.8427781579737,-0.714443645919209,-22.1283345120545
2.67188373392957,-15.4939339798436,-24.5070967515734,-9.01316277172983,20.0005153657085,-3.24038560405687,-16.7601297616516
2.67467859139184,-12.4371607396358,-16.7207144362028,-4.28355369656694,14.5789375879193,-4.07680352153445,-10.5021340663849
2.67747344885411,-9.15260196957043,-9.9150167484042,-0.762414778833776,9.53380935898731,-4.19509359536833,-5.33871576361899
2.68026830631638,-7.18066212490195,-6.05287261528446,1.12778950961749,6.61676737009321,-4.15422581725972,-2.46254155283349
2.68306316377865,-6.86811879260014,-5.4982566830875,1.36986210951265,6.18318773784382,-4.11899045105639,-2.06419728678742
2.68585802124092,-7.75641280413237,-7.31050875178842,0.445904052343949,7.5334607779604,-4.10115842823816,-3.43230234972224
2.68865287870319,-9.11514000810051,-9.92705810498842,-0.811918096887917,9.52109905654446,-4.15161095560629,-5.36948810093817
2.69144773616546,-10.3140763385913,-11.9247523830418,-1.61067604445049,11.1194143608165,-4.35170014707039,-6.76771421374612
2.69424259362772,-10.9556166072585,-12.5512799799263,-1.59566337266783,11.7534482935924,-4.67997661729532,-7.07347167629707
2.69703745108999,-10.8798092105845,-11.8619059401584,-0.982096729573925,11.3708575753714,-4.94885624050528,-6.42200133486617
2.69983230855226,-10.1691813853825,-10.4951521627868,-0.325970777404249,10.3321667740847,-4.92160530398914,-5.41056147009551
2.70262716601453,-9.15876426295582,-9.26117328108287,-0.102409018127046,9.20996877201934,-4.52817762241439,-4.68179114960496
2.7054220234768,-8.35486468543893,-8.7478680059895,-0.393003320550566,8.55136634571421,-3.98093068244418,-4.57043566327003
2.70821688093907,-8.20753120174017,-9.09616943720355,-0.888638235463386,8.65185031947186,-3.65944648313839,-4.99240383633347
2.71101173840134,-8.83402169478215,-10.003775641864,-1.16975394708185,9.41889866832308,-3.83213387385015,-5.58676479447293
2.71380659586361,-9.89559115942999,-10.9195193362105,-1.0239281767805,10.4075552478202,-4.43583149132474,-5.97172375649549
2.71660145332588,-10.7618868279291,-11.3174038841577,-0.555517056228513,11.0396453560434,-5.10318488585031,-5.93646047019308
2.71939631078815,-10.8870010598129,-10.9185746455234,-0.031573585710488,10.9027878526682,-5.42771373705122,-5.47507411561695
2.72219116825042,-10.1389235756613,-9.77034955184411,0.368574023817194,9.95463656375271,-5.25374879973925,-4.70088776401346
2.72498602571269,-8.83984124014714,-8.17143805286231,0.668403187284827,8.50563964650472,-4.75412221371598,-3.75151743278874
