t,leadI,leadII,leadIII,aVR,aVL,aVF
0,389,408,19,-398.5,185,213.5
0.00279485746226942,373,370,-3,-371.5,188,183.5
0.00558971492453885,352,336,-16,-344,184,160
0.00838457238680827,330,304,-26,-317,178,139
0.0111794298490777,310,288,-22,-299,166,133
0.0139742873113471,291,284,-7,-287.5,149,138.5
0.0167691447736165,286,286,0,-286,143,143
0.019564002235886,294,293,-1,-293.5,147.5,146
0.0223588596981554,302,301,-1,-301.5,151.5,150
0.0251537171604248,310,303,-7,-306.5,158.5,148
0.0279485746226942,311,310,-1,-310.5,156,154.5
0.0307434320849637,302,310,8,-306,147,159
0.0335382895472331,296,305,9,-300.5,143.5,157
0.0363331470095025,295,302,7,-298.5,144,154.5
0.0391280044717719,300,303,3,-301.5,148.5,153
0.0419228619340414,306,302,-4,-304,155,149
0.0447177193963108,307,306,-1,-306.5,154,152.5
0.0475125768585802,306,310,4,-308,151,157
0.0503074343208496,300,310,10,-305,145,160
0.0531022917831191,296,306,10,-301,143,158
0.0558971492453885,301,305,4,-303,148.5,154.5
0.0586920067076579,307,306,-1,-306.5,154,152.5
0.0614868641699273,309,305,-4,-307,156.5,150.5
0.0642817216321968,305,303,-2,-304,153.5,150.5
0.0670765790944662,296,304,8,-300,144,156
0.0698714365567356,292,301,9,-296.5,141.5,155
0.072666294019005,296,301,5,-298.5,145.5,153
0.0754611514812745,304,309,5,-306.5,149.5,157
0.0782560089435439,312,312,0,-312,156,156
0.0810508664058133,313,312,-1,-312.5,157,155.5
0.0838457238680827,309,314,5,-311.5,152,159.5
0.0866405813303521,302,314,12,-308,145,163
0.0894354387926216,300,312,12,-306,144,162
0.092230296254891,309,310,1,-309.5,154,155.5
0.0950251537171604,313,314,1,-313.5,156,157.5
0.0978200111794298,315,314,-1,-314.5,158,156.5
0.100614868641699,316,316,0,-316,158,158
0.103409726103969,309,315,6,-312,151.5,160.5
0.106204583566238,303,313,10,-308,146.5,161.5
0.108999441028508,310,311,1,-310.5,154.5,156
0.111794298490777,313,314,1,-313.5,156,157.5
0.114589155953046,318,318,0,-318,159,159
0.117384013415316,320,321,1,-320.5,159.5,161
0.120178870877585,314,321,7,-317.5,153.5,164
0.122973728339855,309,321,12,-315,148.5,166.5
0.125768585802124,312,322,10,-317,151,166
0.128563443264394,319,322,3,-320.5,158,162.5
0.131358300726663,322,320,-2,-321,162,159
0.134153158188932,322,320,-2,-321,162,159
0.136948015651202,318,320,2,-319,158,161
0.139742873113471,310,321,11,-315.5,149.5,166
0.142537730575741,310,323,13,-316.5,148.5,168
0.14533258803801,317,323,6,-320,155.5,164.5
0.148127445500279,324,326,2,-325,161,164
0.150922302962549,330,330,0,-330,165,165
0.153717160424818,331,334,3,-332.5,164,168.5
0.156512017887088,322,333,11,-327.5,155.5,172
0.159306875349357,318,332,14,-325,152,173
0.162101732811627,324,331,7,-327.5,158.5,169
0.164896590273896,329,333,4,-331,162.5,168.5
0.167691447736165,335,334,-1,-334.5,168,166.5
0.170486305198435,339,340,1,-339.5,169,170.5
0.173281162660704,334,340,6,-337,164,173
0.176076020122974,330,342,12,-336,159,177
0.178870877585243,329,341,12,-335,158.5,176.5
0.181665735047513,336,340,4,-338,166,172
0.184460592509782,341,341,0,-341,170.5,170.5
0.187255449972051,344,345,1,-344.5,171.5,173
0.190050307434321,342,344,2,-343,170,173
0.19284516489659,335,345,10,-340,162.5,177.5
0.19564002235886,334,348,14,-341,160,181
0.198434879821129,342,353,11,-347.5,165.5,182
0.201229737283399,351,355,4,-353,173.5,179.5
0.204024594745668,355,354,-1,-354.5,178,176.5
0.206819452207937,358,358,0,-358,179,179
0.209614309670207,351,360,9,-355.5,171,184.5
0.212409167132476,343,356,13,-349.5,165,184.5
0.215204024594746,344,356,12,-350,166,184
0.217998882057015,351,354,3,-352.5,174,178.5
0.220793739519285,354,354,0,-354,177,177
0.223588596981554,357,353,-4,-355,180.5,174.5
0.226383454443823,351,353,2,-352,174.5,177.5
0.229178311906093,343,354,11,-348.5,166,182.5
0.231973169368362,339,350,11,-344.5,164,180.5
0.234768026830632,344,348,4,-346,170,176
0.237562884292901,348,347,-1,-347.5,174.5,173
0.24035774175517,346,344,-2,-345,174,171
0.24315259921744,345,342,-3,-343.5,174,169.5
0.245947456679709,336,340,4,-338,166,172
0.248742314141979,327,339,12,-333,157.5,175.5
0.251537171604248,328,333,5,-330.5,161.5,169
0.254332029066518,332,329,-3,-330.5,167.5,163
0.257126886528787,332,326,-6,-329,169,160
0.259921743991056,328,321,-7,-324.5,167.5,157
0.262716601453326,319,319,0,-319,159.5,159.5
0.265511458915595,307,314,7,-310.5,150,160.5
0.268306316377865,305,312,7,-308.5,149,159.5
0.271101173840134,308,309,1,-308.5,153.5,155
0.273896031302404,313,307,-6,-310,159.5,150.5
0.276690888764673,310,303,-7,-306.5,158.5,148
0.279485746226942,305,301,-4,-303,154.5,148.5
0.282280603689212,293,297,4,-295,144.5,150.5
0.285075461151481,288,301,13,-294.5,137.5,157
0.287870318613751,293,299,6,-296,143.5,152.5
0.29066517607602,299,297,-2,-298,150.5,147.5
0.29346003353829,302,298,-4,-300,153,147
0.296254891000559,300,297,-3,-298.5,151.5,147
0.299049748462828,290,297,7,-293.5,141.5,152
0.301844605925098,284,295,11,-289.5,136.5,153
0.304639463387367,286,295,9,-290.5,138.5,152
0.307434320849637,293,293,0,-293,146.5,146.5
0.310229178311906,295,294,-1,-294.5,148,146.5
0.313024035774175,297,294,-3,-295.5,150,145.5
0.315818893236445,291,293,2,-292,144.5,147.5
0.318613750698714,285,299,14,-292,135.5,156.5
0.321408608160984,287,299,12,-293,137.5,155.5
0.324203465623253,294,300,6,-297,144,153
0.326998323085523,299,302,3,-300.5,148,152.5
0.329793180547792,302,298,-4,-300,153,147
0.332588038010061,297,296,-1,-296.5,149,147.5
0.335382895472331,288,294,6,-291,141,150
0.3381777529346,281,292,11,-286.5,135,151.5
0.34097261039687,285,293,8,-289,138.5,150.5
0.343767467859139,293,294,1,-293.5,146,147.5
0.346562325321409,297,293,-4,-295,150.5,144.5
0.349357182783678,298,295,-3,-296.5,150.5,146
0.352152040245947,294,299,5,-296.5,144.5,152
0.354946897708217,287,301,14,-294,136.5,157.5
0.357741755170486,288,300,12,-294,138,156
0.360536612632756,294,297,3,-295.5,145.5,150
0.363331470095025,299,295,-4,-297,151.5,145.5
0.366126327557295,300,297,-3,-298.5,151.5,147
0.368921185019564,298,295,-3,-296.5,150.5,146
0.371716042481833,290,297,7,-293.5,141.5,152
0.374510899944103,288,298,10,-293,139,154
0.377305757406372,291,300,9,-295.5,141,154.5
0.380100614868642,299,299,0,-299,149.5,149.5
0.382895472330911,303,301,-2,-302,152.5,149.5
0.385690329793181,303,304,1,-303.5,151,152.5
0.38848518725545,296,304,8,-300,144,156
0.391280044717719,289,302,13,-295.5,138,157.5
0.394074902179989,291,300,9,-295.5,141,154.5
0.396869759642258,298,302,4,-300,147,153
0.399664617104528,304,302,-2,-303,153,150
0.402459474566797,304,302,-2,-303,153,150
0.405254332029067,301,304,3,-302.5,149,153.5
0.408049189491336,294,307,13,-300.5,140.5,160
0.410844046953605,293,305,12,-299,140.5,158.5
0.413638904415875,298,303,5,-300.5,146.5,154
0.416433761878144,302,299,-3,-300.5,152.5,148
0.419228619340414,304,298,-6,-301,155,146
0.422023476802683,300,297,-3,-298.5,151.5,147
0.424818334264952,292,298,6,-295,143,152
0.427613191727222,284,298,14,-291,135,156
0.430408049189491,290,300,10,-295,140,155
0.433202906651761,299,301,2,-300,148.5,151.5
0.43599776411403,304,303,-1,-303.5,152.5,151
0.4387926215763,306,305,-1,-305.5,153.5,152
0.441587479038569,301,306,5,-303.5,148,155.5
0.444382336500838,292,305,13,-298.5,139.5,159
0.447177193963108,290,303,13,-296.5,138.5,158
0.449972051425377,298,300,2,-299,148,151
0.452766908887647,301,297,-4,-299,152.5,146.5
0.455561766349916,304,301,-3,-302.5,153.5,149
0.458356623812186,302,303,1,-302.5,150.5,152
0.461151481274455,295,302,7,-298.5,144,154.5
0.463946338736724,289,304,15,-296.5,137,159.5
0.466741196198994,294,301,7,-297.5,143.5,154
0.469536053661263,301,302,1,-301.5,150,151.5
0.472330911123533,304,302,-2,-303,153,150
0.475125768585802,307,302,-5,-304.5,156,148.5
0.477920626048072,301,307,6,-304,147.5,156.5
0.480715483510341,294,305,11,-299.5,141.5,158
0.48351034097261,295,306,11,-300.5,142,158.5
0.48630519843488,300,306,6,-303,147,156
0.489100055897149,308,305,-3,-306.5,155.5,151
0.491894913359419,312,311,-1,-311.5,156.5,155
0.494689770821688,310,315,5,-312.5,152.5,160
0.497484628283958,303,314,11,-308.5,146,162.5
0.500279485746227,299,313,14,-306,142.5,163.5
0.503074343208496,304,309,5,-306.5,149.5,157
0.505869200670766,311,311,0,-311,155.5,155.5
0.508664058133035,317,315,-2,-316,159.5,156.5
0.511458915595305,318,321,3,-319.5,157.5,162
0.514253773057574,314,322,8,-318,153,165
0.517048630519844,309,324,15,-316.5,147,169.5
0.519843487982113,315,325,10,-320,152.5,167.5
0.522638345444382,320,322,2,-321,159,162
0.525433202906652,321,319,-2,-320,161.5,158.5
0.528228060368921,322,316,-6,-319,164,155
0.531022917831191,316,316,0,-316,158,158
0.53381777529346,308,322,14,-315,147,168
0.536612632755729,308,322,14,-315,147,168
0.539407490217999,314,318,4,-316,155,161
0.542202347680268,318,316,-2,-317,160,157
0.544997205142538,318,315,-3,-316.5,160.5,156
0.547792062604807,316,314,-2,-315,159,156
0.550586920067077,306,314,8,-310,149,161
0.553381777529346,301,315,14,-308,143.5,164.5
0.556176634991615,304,311,7,-307.5,148.5,159
0.558971492453885,310,309,-1,-309.5,155.5,154
0.561766349916154,312,306,-6,-309,159,150
0.564561207378424,309,305,-4,-307,156.5,150.5
0.567356064840693,302,304,2,-303,150,153
0.570150922302962,292,302,10,-297,141,156
0.572945779765232,291,301,10,-296,140.5,155.5
0.575740637227501,298,301,3,-299.5,147.5,152
0.578535494689771,305,301,-4,-303,154.5,148.5
0.58133035215204,305,301,-4,-303,154.5,148.5
0.58412520961431,299,300,1,-299.5,149,150.5
0.586920067076579,289,299,10,-294,139.5,154.5
0.589714924538849,287,298,11,-292.5,138,154.5
0.592509782001118,294,298,4,-296,145,151
0.595304639463387,302,302,0,-302,151,151
0.598099496925657,305,302,-3,-303.5,154,149.5
0.600894354387926,302,299,-3,-300.5,152.5,148
0.603689211850196,293,294,1,-293.5,146,147.5
0.606484069312465,283,296,13,-289.5,135,154.5
0.609278926774734,285,293,8,-289,138.5,150.5
0.612073784237004,290,294,4,-292,143,149
0.614868641699273,298,295,-3,-296.5,150.5,146
0.617663499161543,298,298,0,-298,149,149
0.620458356623812,293,297,4,-295,144.5,150.5
0.623253214086082,283,295,12,-289,135.5,153.5
0.626048071548351,279,293,14,-286,132.5,153.5
0.62884292901062,286,289,3,-287.5,141.5,146
0.63163778647289,292,290,-2,-291,147,144
0.634432643935159,295,291,-4,-293,149.5,143.5
0.637227501397429,295,295,0,-295,147.5,147.5
0.640022358859698,294,305,11,-299.5,141.5,158
0.642817216321968,305,329,24,-317,140.5,176.5
0.645612073784237,332,358,26,-345,153,192
0.648406931246506,368,392,24,-380,172,208
0.651201788708776,402,425,23,-413.5,189.5,224
0.653996646171045,431,456,25,-443.5,203,240.5
0.656791503633315,444,474,30,-459,207,252
0.659586361095584,443,473,30,-458,206.5,251.5
0.662381218557853,438,456,18,-447,210,237
0.665176076020123,425,426,1,-425.5,212,213.5
0.667970933482392,405,390,-15,-397.5,210,187.5
0.670765790944662,376,353,-23,-364.5,199.5,165
0.673560648406931,342,318,-24,-330,183,147
0.676355505869201,309,295,-14,-302,161.5,140.5
0.67915036333147,290,279,-11,-284.5,150.5,134
0.68194522079374,290,282,-8,-286,149,137
0.684740078256009,297,287,-10,-292,153.5,138.5
0.687534935718278,301,294,-7,-297.5,154,143.5
0.690329793180548,304,300,-4,-302,154,148
0.693124650642817,297,303,6,-300,145.5,154.5
0.695919508105087,290,304,14,-297,138,159
0.698714365567356,294,299,5,-296.5,144.5,152
0.701509223029625,299,299,0,-299,149.5,149.5
0.704304080491895,301,297,-4,-299,152.5,146.5
0.707098937954164,302,298,-4,-300,153,147
0.709893795416434,297,299,2,-298,147.5,150.5
0.712688652878703,289,303,14,-296,137.5,158.5
0.715483510340973,288,302,14,-295,137,158
0.718278367803242,297,301,4,-299,146.5,152.5
0.721073225265511,303,303,0,-303,151.5,151.5
0.723868082727781,305,303,-2,-304,153.5,150.5
0.72666294019005,304,305,1,-304.5,151.5,153
0.72945779765232,295,304,9,-299.5,143,156.5
0.732252655114589,292,304,12,-298,140,158
0.735047512576859,295,302,7,-298.5,144,154.5
0.737842370039128,304,301,-3,-302.5,153.5,149
0.740637227501397,311,309,-2,-310,156.5,153.5
0.743432084963667,315,312,-3,-313.5,159,154.5
0.746226942425936,307,311,4,-309,151.5,157.5
0.749021799888206,299,315,16,-307,141.5,165.5
0.751816657350475,299,310,11,-304.5,144,160.5
0.754611514812745,305,308,3,-306.5,151,155.5
0.757406372275014,310,310,0,-310,155,155
0.760201229737283,314,310,-4,-312,159,153
0.762996087199553,311,310,-1,-310.5,156,154.5
0.765790944661822,302,313,11,-307.5,145.5,162
0.768585802124092,299,315,16,-307,141.5,165.5
0.771380659586361,308,315,7,-311.5,150.5,161
0.774175517048631,316,316,0,-316,158,158
0.7769703745109,319,317,-2,-318,160.5,157.5
0.779765231973169,320,320,0,-320,160,160
0.782560089435439,313,319,6,-316,153.5,162.5
0.785354946897708,306,321,15,-313.5,145.5,168
0.788149804359978,308,318,10,-313,149,164
0.790944661822247,316,318,2,-317,157,160
0.793739519284516,320,317,-3,-318.5,161.5,157
0.796534376746786,324,321,-3,-322.5,163.5,159
0.799329234209055,319,323,4,-321,157.5,163.5
0.802124091671325,309,321,12,-315,148.5,166.5
0.804918949133594,309,322,13,-315.5,148,167.5
0.807713806595864,317,321,4,-319,156.5,162.5
0.810508664058133,327,326,-1,-326.5,164,162.5
0.813303521520402,330,329,-1,-329.5,165.5,164
0.816098378982672,330,332,2,-331,164,167
0.818893236444941,321,331,10,-326,155.5,170.5
0.821688093907211,315,329,14,-322,150.5,171.5
0.82448295136948,320,332,12,-326,154,172
0.82727780883175,328,331,3,-329.5,162.5,167
0.830072666294019,334,333,-1,-333.5,167.5,166
0.832867523756288,336,334,-2,-335,169,166
0.835662381218558,332,337,5,-334.5,163.5,171
0.838457238680827,326,340,14,-333,156,177
0.841252096143097,327,339,12,-333,157.5,175.5
0.844046953605366,337,341,4,-339,166.5,172.5
0.846841811067636,344,345,1,-344.5,171.5,173
0.849636668529905,345,343,-2,-344,173.5,170.5
0.852431525992174,343,347,4,-345,169.5,175.5
0.855226383454444,335,346,11,-340.5,162,178.5
0.858021240916713,333,346,13,-339.5,160,179.5
0.860816098378983,338,347,9,-342.5,164.5,178
0.863610955841252,346,344,-2,-345,174,171
0.866405813303522,350,349,-1,-349.5,175.5,174
0.869200670765791,353,353,0,-353,176.5,176.5
0.87199552822806,348,356,8,-352,170,182
0.87479038569033,344,357,13,-350.5,165.5,185
0.877585243152599,346,358,12,-352,167,185
0.880380100614869,352,357,5,-354.5,173.5,181
0.883174958077138,355,350,-5,-352.5,180,172.5
0.885969815539407,356,353,-3,-354.5,179.5,175
0.888764673001677,351,355,4,-353,173.5,179.5
0.891559530463946,343,357,14,-350,164.5,185.5
0.894354387926216,342,355,13,-348.5,164.5,184
0.897149245388485,348,351,3,-349.5,172.5,177
0.899944102850755,353,351,-2,-352,177.5,174.5
0.902738960313024,354,348,-6,-351,180,171
0.905533817775293,349,345,-4,-347,176.5,170.5
0.908328675237563,337,343,6,-340,165.5,174.5
0.911123532699832,328,338,10,-333,159,174
0.913918390162102,332,335,3,-333.5,164.5,169
0.916713247624371,335,332,-3,-333.5,169,164.5
0.919508105086641,338,333,-5,-335.5,171.5,164
0.92230296254891,333,329,-4,-331,168.5,162.5
0.925097820011179,324,324,0,-324,162,162
0.927892677473449,311,317,6,-314,152.5,161.5
0.930687534935718,307,312,5,-309.5,151,158.5
0.933482392397988,310,311,1,-310.5,154.5,156
0.936277249860257,314,309,-5,-311.5,159.5,152
0.939072107322527,314,307,-7,-310.5,160.5,150
0.941866964784796,309,305,-4,-307,156.5,150.5
0.944661822247065,297,306,9,-301.5,144,157.5
0.947456679709335,293,304,11,-298.5,141,157.5
0.950251537171604,299,301,2,-300,148.5,151.5
0.953046394633874,301,298,-3,-299.5,152,147.5
0.955841252096143,301,295,-6,-298,153.5,144.5
0.958636109558412,300,295,-5,-297.5,152.5,145
0.961430967020682,292,297,5,-294.5,143.5,151
0.964225824482951,286,300,14,-293,136,157
0.967020681945221,290,299,9,-294.5,140.5,154
0.96981553940749,296,298,2,-297,147,150
0.97261039686976,299,300,1,-299.5,149,150.5
0.975405254332029,302,301,-1,-301.5,151.5,150
0.978200111794298,296,300,4,-298,146,152
0.980994969256568,287,298,11,-292.5,138,154.5
0.983789826718837,286,297,11,-291.5,137.5,154
0.986584684181107,293,298,5,-295.5,144,151.5
0.989379541643376,299,295,-4,-297,151.5,145.5
0.992174399105646,301,295,-6,-298,153.5,144.5
0.994969256567915,299,297,-2,-298,150.5,147.5
0.997764114030184,289,298,9,-293.5,140,153.5
1.00055897149245,282,293,11,-287.5,135.5,152
1.00335382895472,287,293,6,-290,140.5,149.5
1.00614868641699,296,296,0,-296,148,148
1.00894354387926,299,295,-4,-297,151.5,145.5
1.01173840134153,301,301,0,-301,150.5,150.5
1.0145332588038,296,301,5,-298.5,145.5,153
1.01732811626607,288,302,14,-295,137,158
1.02012297372834,290,302,12,-296,139,157
1.02291783119061,298,299,1,-298.5,148.5,150
1.02571268865288,302,298,-4,-300,153,147
1.02850754611515,302,300,-2,-301,152,149
1.03130240357742,300,301,1,-300.5,149.5,151
1.03409726103969,290,299,9,-294.5,140.5,154
1.03689211850196,286,300,14,-293,136,157
1.03968697596423,295,301,6,-298,144.5,153.5
1.0424818334265,302,304,2,-303,150,153
1.04527669088876,306,304,-2,-305,154,151
1.04807154835103,305,303,-2,-304,153.5,150.5
1.0508664058133,296,303,7,-299.5,144.5,155
1.05366126327557,290,302,12,-296,139,157
1.05645612073784,292,302,10,-297,141,156
1.05925097820011,300,304,4,-302,148,154
1.06204583566238,305,305,0,-305,152.5,152.5
1.06484069312465,308,305,-3,-306.5,155.5,151
1.06763555058692,303,306,3,-304.5,150,154.5
1.07043040804919,294,307,13,-300.5,140.5,160
1.07322526551146,294,307,13,-300.5,140.5,160
1.07602012297373,302,306,4,-304,149,155
1.078814980436,308,306,-2,-307,155,152
1.08160983789827,311,308,-3,-309.5,157,152.5
1.08440469536054,310,309,-1,-309.5,155.5,154
1.08719955282281,299,307,8,-303,145.5,157.5
1.08999441028508,294,305,11,-299.5,141.5,158
1.09278926774734,295,302,7,-298.5,144,154.5
1.09558412520961,303,303,0,-303,151.5,151.5
1.09837898267188,308,306,-2,-307,155,152
1.10117384013415,310,308,-2,-309,156,153
1.10396869759642,304,308,4,-306,150,156
1.10676355505869,295,308,13,-301.5,141,160.5
1.10955841252096,294,306,12,-300,141,159
1.11235326998323,302,305,3,-303.5,149.5,154
1.1151481274455,308,306,-2,-307,155,152
1.11794298490777,313,310,-3,-311.5,158,153.5
1.12073784237004,309,309,0,-309,154.5,154.5
1.12353269983231,301,313,12,-307,144.5,162.5
1.12632755729458,299,311,12,-305,143.5,161.5
1.12912241475685,305,311,6,-308,149.5,158.5
1.13191727221912,312,311,-1,-311.5,156.5,155
1.13471212968139,315,311,-4,-313,159.5,153.5
1.13750698714366,314,312,-2,-313,158,155
1.14030184460592,307,315,8,-311,149.5,161.5
1.14309670206819,300,313,13,-306.5,143.5,163
1.14589155953046,303,314,11,-308.5,146,162.5
1.14868641699273,311,312,1,-311.5,155,156.5
1.151481274455,316,317,1,-316.5,157.5,159
1.15427613191727,320,318,-2,-319,161,158
1.15707098937954,316,319,3,-317.5,156.5,161
1.15986584684181,308,320,12,-314,148,166
1.16266070430408,309,323,14,-316,147.5,168.5
1.16545556176635,317,325,8,-321,154.5,166.5
1.16825041922862,327,325,-2,-326,164.5,161.5
1.17104527669089,329,329,0,-329,164.5,164.5
1.17384013415316,327,326,-1,-326.5,164,162.5
1.17663499161543,320,329,9,-324.5,155.5,169
1.1794298490777,317,330,13,-323.5,152,171.5
1.18222470653997,324,334,10,-329,157,172
1.18501956400224,328,328,0,-328,164,164
1.18781442146451,328,324,-4,-326,166,160
1.19060927892677,326,320,-6,-323,166,157
1.19340413638904,319,319,0,-319,159.5,159.5
1.19619899385131,310,319,9,-314.5,150.5,164
1.19899385131358,309,322,13,-315.5,148,167.5
1.20178870877585,318,321,3,-319.5,157.5,162
1.20458356623812,320,318,-2,-319,161,158
1.20737842370039,321,317,-4,-319,162.5,156.5
1.21017328116266,316,314,-2,-315,159,156
1.21296813862493,303,311,8,-307,147.5,159.5
1.2157629960872,299,308,9,-303.5,145,158.5
1.21855785354947,301,305,4,-303,148.5,154.5
1.22135271101174,305,305,0,-305,152.5,152.5
1.22414756847401,308,304,-4,-306,156,150
1.22694242593628,309,301,-8,-305,158.5,146.5
1.22973728339855,300,305,5,-302.5,147.5,155
1.23253214086082,292,307,15,-299.5,138.5,161
1.23532699832309,294,305,11,-299.5,141.5,158
1.23812185578535,299,300,1,-299.5,149,150.5
1.24091671324762,306,304,-2,-305,154,151
1.24371157070989,307,303,-4,-305,155.5,149.5
1.24650642817216,302,304,2,-303,150,153
1.24930128563443,292,302,10,-297,141,156
1.2520961430967,290,303,13,-296.5,138.5,158
1.25489100055897,295,299,4,-297,145.5,151.5
1.25768585802124,299,297,-2,-298,150.5,147.5
1.26048071548351,303,298,-5,-300.5,154,146.5
1.26327557294578,300,300,0,-300,150,150
1.26607043040805,294,302,8,-298,143,155
1.26886528787032,289,303,14,-296,137.5,158.5
1.27166014533259,290,298,8,-294,141,153
1.27445500279486,296,294,-2,-295,149,146
1.27724986025713,296,292,-4,-294,150,144
1.2800447177194,296,293,-3,-294.5,149.5,145
1.28283957518167,291,296,5,-293.5,143,150.5
1.28563443264394,284,296,12,-290,136,154
1.2884292901062,288,300,12,-294,138,156
1.29122414756847,303,311,8,-307,147.5,159.5
1.29401900503074,324,331,7,-327.5,158.5,169
1.29681386249301,347,358,11,-352.5,168,184.5
1.29960871995528,371,393,22,-382,174.5,207.5
1.30240357741755,393,429,36,-411,178.5,232.5
1.30519843487982,421,460,39,-440.5,191,249.5
1.30799329234209,448,481,33,-464.5,207.5,257
1.31078814980436,464,483,19,-473.5,222.5,251
1.31358300726663,463,470,7,-466.5,228,238.5
1.3163778647289,442,438,-4,-440,223,217
1.31917272219117,405,399,-6,-402,205.5,196.5
1.32196757965344,366,361,-5,-363.5,185.5,178
1.32476243711571,339,326,-13,-332.5,176,156.5
1.32755729457798,322,301,-21,-311.5,171.5,140
1.33035215204025,314,290,-24,-302,169,133
1.33314700950252,308,290,-18,-299,163,136
1.33594186696478,303,295,-8,-299,155.5,143.5
1.33873672442705,295,297,2,-296,146.5,149.5
1.34153158188932,295,301,6,-298,144.5,153.5
1.34432643935159,304,307,3,-305.5,150.5,155
1.34712129681386,312,309,-3,-310.5,157.5,153
1.34991615427613,311,307,-4,-309,157.5,151.5
1.3527110117384,308,306,-2,-307,155,152
1.35550586920067,298,306,8,-302,145,157
1.35830072666294,291,305,14,-298,138.5,159.5
1.36109558412521,295,303,8,-299,143.5,155.5
1.36389044158748,303,305,2,-304,150.5,153.5
1.36668529904975,306,306,0,-306,153,153
1.36948015651202,309,305,-4,-307,156.5,150.5
1.37227501397429,302,306,4,-304,149,155
1.37506987143656,297,307,10,-302,143.5,158.5
1.37786472889883,297,307,10,-302,143.5,158.5
1.3806595863611,304,307,3,-305.5,150.5,155
1.38345444382336,311,307,-4,-309,157.5,151.5
1.38624930128563,311,306,-5,-308.5,158,150.5
1.3890441587479,309,309,0,-309,154.5,154.5
1.39183901621017,300,309,9,-304.5,145.5,159
1.39463387367244,297,309,12,-303,142.5,160.5
1.39742873113471,304,313,9,-308.5,147.5,161
1.40022358859698,312,314,2,-313,155,158
1.40301844605925,318,314,-4,-316,161,155
1.40581330352152,317,316,-1,-316.5,159,157.5
1.40860816098379,309,316,7,-312.5,151,161.5
1.41140301844606,302,316,14,-309,144,165
1.41419787590833,303,312,9,-307.5,147,160.5
1.4169927333706,311,311,0,-311,155.5,155.5
1.41978759083287,316,314,-2,-315,159,156
1.42258244829514,315,312,-3,-313.5,159,154.5
1.42537730575741,312,316,4,-314,154,160
1.42817216321968,306,319,13,-312.5,146.5,166
1.43096702068195,308,322,14,-315,147,168
1.43376187814421,315,324,9,-319.5,153,166.5
1.43655673560648,321,320,-1,-320.5,161,159.5
1.43935159306875,324,321,-3,-322.5,163.5,159
1.44214645053102,322,322,0,-322,161,161
1.44494130799329,314,321,7,-317.5,153.5,164
1.44773616545556,311,324,13,-317.5,149,168.5
1.45053102291783,315,324,9,-319.5,153,166.5
1.4533258803801,323,326,3,-324.5,160,164.5
1.45612073784237,328,326,-2,-327,165,162
1.45891559530464,331,329,-2,-330,166.5,163.5
1.46171045276691,324,327,3,-325.5,160.5,165
1.46450531022918,315,328,13,-321.5,151,170.5
1.46730016769145,317,326,9,-321.5,154,167.5
1.47009502515372,326,329,3,-327.5,161.5,166
1.47288988261599,331,332,1,-331.5,165,166.5
1.47568474007826,334,332,-2,-333,168,165
1.47847959754053,333,336,3,-334.5,165,169.5
1.48127445500279,325,337,12,-331,156.5,174.5
1.48406931246506,321,336,15,-328.5,153,175.5
1.48686416992733,328,338,10,-333,159,174
1.4896590273896,337,337,0,-337,168.5,168.5
1.49245388485187,339,335,-4,-337,171.5,165.5
1.49524874231414,341,339,-2,-340,171.5,168.5
1.49804359977641,336,343,7,-339.5,164.5,175
1.50083845723868,331,347,16,-339,157.5,181.5
1.50363331470095,337,351,14,-344,161.5,182.5
1.50642817216322,347,349,2,-348,172.5,175.5
1.50922302962549,351,349,-2,-350,176.5,173.5
1.51201788708776,351,349,-2,-350,176.5,173.5
1.51481274455003,345,352,7,-348.5,169,179.5
1.5176076020123,339,353,14,-346,162.5,183.5
1.52040245947457,339,354,15,-346.5,162,184.5
1.52319731693684,349,356,7,-352.5,171,181.5
1.52599217439911,355,355,0,-355,177.5,177.5
1.52878703186137,357,352,-5,-354.5,181,173.5
1.53158188932364,354,352,-2,-353,178,175
1.53437674678591,345,355,10,-350,167.5,182.5
1.53717160424818,341,355,14,-348,163.5,184.5
1.53996646171045,346,355,9,-350.5,168.5,182
1.54276131917272,354,356,2,-355,176,179
1.54555617663499,360,357,-3,-358.5,181.5,177
1.54835103409726,358,356,-2,-357,180,177
1.55114589155953,349,352,3,-350.5,173,177.5
1.5539407490218,336,347,11,-341.5,162.5,179
1.55673560648407,332,342,10,-337,161,176
1.55953046394634,336,336,0,-336,168,168
1.56232532140861,337,333,-4,-335,170.5,164.5
1.56512017887088,339,329,-10,-334,174.5,159.5
1.56791503633315,333,331,-2,-332,167.5,164.5
1.57070989379542,320,326,6,-323,157,166
1.57350475125769,314,323,9,-318.5,152.5,166
1.57629960871996,318,321,3,-319.5,157.5,162
1.57909446618222,321,320,-1,-320.5,161,159.5
1.58188932364449,322,317,-5,-319.5,163.5,156
1.58468418110676,318,312,-6,-315,162,153
1.58747903856903,305,305,0,-305,152.5,152.5
1.5902738960313,293,303,10,-298,141.5,156.5
1.59306875349357,293,301,8,-297,142.5,154.5
1.59586361095584,299,297,-2,-298,150.5,147.5
1.59865846841811,304,299,-5,-301.5,154.5,147
1.60145332588038,305,299,-6,-302,155.5,146.5
1.60424818334265,298,297,-1,-297.5,149.5,148
1.60704304080492,288,299,11,-293.5,138.5,155
1.60983789826719,285,296,11,-290.5,137,153.5
1.61263275572946,288,293,5,-290.5,141.5,149
1.61542761319173,294,294,0,-294,147,147
1.618222470654,297,292,-5,-294.5,151,143.5
1.62101732811627,295,292,-3,-293.5,149,144.5
1.62381218557854,288,292,4,-290,142,148
1.6266070430408,282,296,14,-289,134,155
1.62940190050307,285,292,7,-288.5,139,149.5
1.63219675796534,292,290,-2,-291,147,144
1.63499161542761,294,292,-2,-293,148,145
1.63778647288988,295,292,-3,-293.5,149,144.5
1.64058133035215,291,296,5,-293.5,143,150.5
1.64337618781442,285,296,11,-290.5,137,153.5
1.64617104527669,284,296,12,-290,136,154
1.64896590273896,291,292,1,-291.5,145,146.5
1.65176076020123,296,291,-5,-293.5,150.5,143
1.6545556176635,297,294,-3,-295.5,150,145.5
1.65735047512577,296,297,1,-296.5,147.5,149
1.66014533258804,288,299,11,-293.5,138.5,155
1.66294019005031,286,298,12,-292,137,155
1.66573504751258,290,297,7,-293.5,141.5,152
1.66852990497485,296,296,0,-296,148,148
1.67132476243712,299,295,-4,-297,151.5,145.5
1.67411961989939,298,295,-3,-296.5,150.5,146
1.67691447736165,293,297,4,-295,144.5,150.5
1.67970933482392,285,295,10,-290,137.5,152.5
1.68250419228619,289,300,11,-294.5,139,155.5
1.68529904974846,297,297,0,-297,148.5,148.5
1.68809390721073,300,297,-3,-298.5,151.5,147
1.690888764673,301,297,-4,-299,152.5,146.5
1.69368362213527,294,295,1,-294.5,146.5,148
1.69647847959754,285,295,10,-290,137.5,152.5
1.69927333705981,287,296,9,-291.5,139,152.5
1.70206819452208,294,299,5,-296.5,144.5,152
1.70486305198435,300,301,1,-300.5,149.5,151
1.70765790944662,304,301,-3,-302.5,153.5,149
1.71045276690889,304,299,-5,-301.5,154.5,147
1.71324762437116,294,303,9,-298.5,142.5,156
1.71604248183343,287,297,10,-292,138.5,153.5
1.7188373392957,288,297,9,-292.5,139.5,153
1.72163219675797,297,299,2,-298,147.5,150.5
1.72442705422023,302,302,0,-302,151,151
1.7272219116825,304,302,-2,-303,153,150
1.73001676914477,297,302,5,-299.5,146,153.5
1.73281162660704,290,301,11,-295.5,139.5,156
1.73560648406931,291,304,13,-297.5,139,158.5
1.73840134153158,299,301,2,-300,148.5,151.5
1.74119619899385,304,299,-5,-301.5,154.5,147
1.74399105645612,303,298,-5,-300.5,154,146.5
1.74678591391839,301,301,0,-301,150.5,150.5
1.74958077138066,292,300,8,-296,142,154
1.75237562884293,288,301,13,-294.5,137.5,157
1.7551704863052,293,297,4,-295,144.5,150.5
1.75796534376747,300,300,0,-300,150,150
1.76076020122974,303,300,-3,-301.5,153,148.5
1.76355505869201,303,299,-4,-301,153.5,147.5
1.76634991615428,295,299,4,-297,145.5,151.5
1.76914477361655,288,301,13,-294.5,137.5,157
1.77193963107881,290,300,10,-295,140,155
1.77473448854108,296,300,4,-298,146,152
1.77752934600335,302,299,-3,-300.5,152.5,148
1.78032420346562,303,301,-2,-302,152.5,149.5
1.78311906092789,300,302,2,-301,149,152
1.78591391839016,290,303,13,-296.5,138.5,158
1.78870877585243,287,302,15,-294.5,136,158.5
1.7915036333147,295,302,7,-298.5,144,154.5
1.79429849077697,306,303,-3,-304.5,154.5,150
1.79709334823924,308,306,-2,-307,155,152
1.79988820570151,309,310,1,-309.5,154,155.5
1.80268306316378,303,309,6,-306,148.5,157.5
1.80547792062605,295,310,15,-302.5,140,162.5
1.80827277808832,297,306,9,-301.5,144,157.5
1.81106763555059,304,304,0,-304,152,152
1.81386249301286,310,310,0,-310,155,155
1.81665735047513,314,315,1,-314.5,156.5,158
1.8194522079374,310,318,8,-314,151,163
1.82224706539966,302,315,13,-308.5,144.5,164
1.82504192286193,303,314,11,-308.5,146,162.5
1.8278367803242,310,316,6,-313,152,161
1.83063163778647,318,319,1,-318.5,158.5,160
1.83342649524874,321,320,-1,-320.5,161,159.5
1.83622135271101,318,321,3,-319.5,157.5,162
1.83901621017328,310,322,12,-316,149,167
1.84181106763555,306,321,15,-313.5,145.5,168
1.84460592509782,311,320,9,-315.5,151,164.5
1.84740078256009,319,317,-2,-318,160.5,157.5
1.85019564002236,322,320,-2,-321,162,159
1.85299049748463,321,319,-2,-320,161.5,158.5
1.8557853549469,313,319,6,-316,153.5,162.5
1.85858021240917,303,316,13,-309.5,145,164.5
1.86137506987144,305,315,10,-310,147.5,162.5
1.86416992733371,313,317,4,-315,154.5,160.5
1.86696478479598,319,318,-1,-318.5,160,158.5
1.86975964225824,319,316,-3,-317.5,161,156.5
1.87255449972051,311,311,0,-311,155.5,155.5
1.87534935718278,301,310,9,-305.5,146,159.5
1.87814421464505,297,307,10,-302,143.5,158.5
1.88093907210732,300,304,4,-302,148,154
1.88373392956959,304,302,-2,-303,153,150
1.88652878703186,306,300,-6,-303,156,147
1.88932364449413,302,298,-4,-300,153,147
1.8921185019564,291,298,7,-294.5,142,152.5
1.89491335941867,287,298,11,-292.5,138,154.5
1.89770821688094,292,300,8,-296,142,154
1.90050307434321,299,297,-2,-298,150.5,147.5
1.90329793180548,302,299,-3,-300.5,152.5,148
1.90609278926775,301,297,-4,-299,152.5,146.5
1.90888764673002,294,296,2,-295,146,149
1.91168250419229,286,296,10,-291,138,153
1.91447736165456,285,297,12,-291,136.5,154.5
1.91727221911682,292,296,4,-294,144,150
1.92006707657909,298,297,-1,-297.5,149.5,148
1.92286193404136,302,297,-5,-299.5,153.5,146
1.92565679150363,302,299,-3,-300.5,152.5,148
1.9284516489659,292,299,7,-295.5,142.5,153
1.93124650642817,286,298,12,-292,137,155
1.93404136389044,290,293,3,-291.5,143.5,148
1.93683622135271,294,293,-1,-293.5,147.5,146
1.93963107881498,294,290,-4,-292,149,143
1.94242593627725,292,287,-5,-289.5,148.5,141
1.94522079373952,282,285,3,-283.5,139.5,144
1.94801565120179,275,283,8,-279,133.5,145.5
1.95081050866406,276,286,10,-281,133,148
1.95360536612633,284,286,2,-285,141,144
1.9564002235886,288,285,-3,-286.5,145.5,141
1.95919508105087,293,292,-1,-292.5,147,145.5
1.96198993851314,297,307,10,-302,143.5,158.5
1.96478479597541,310,332,22,-321,144,177
1.96757965343767,335,365,30,-350,152.5,197.5
1.97037451089994,371,401,30,-386,170.5,215.5
1.97316936836221,407,437,30,-422,188.5,233.5
1.97596422582448,437,462,25,-449.5,206,243.5
1.97875908328675,455,478,23,-466.5,216,250.5
1.98155394074902,449,471,22,-460,213.5,246.5
1.98434879821129,434,449,15,-441.5,209.5,232
1.98714365567356,412,414,2,-413,205,208
1.98993851313583,387,373,-14,-380,200.5,179.5
1.9927333705981,363,338,-25,-350.5,194,156.5
1.99552822806037,337,310,-27,-323.5,182,141.5
1.99832308552264,312,293,-19,-302.5,165.5,137
2.00111794298491,290,285,-5,-287.5,147.5,140
2.00391280044718,284,282,-2,-283,143,140
2.00670765790945,291,284,-7,-287.5,149,138.5
2.00950251537172,297,290,-7,-293.5,152,141.5
2.01229737283399,303,297,-6,-300,154.5,145.5
2.01509223029625,303,304,1,-303.5,151,152.5
2.01788708775852,297,306,9,-301.5,144,157.5
2.02068194522079,290,303,13,-296.5,138.5,158
2.02347680268306,292,300,8,-296,142,154
2.02627166014533,298,298,0,-298,149,149
2.0290665176076,301,298,-3,-299.5,152,147.5
2.03186137506987,301,298,-3,-299.5,152,147.5
2.03465623253214,294,298,4,-296,145,151
2.03745108999441,285,299,14,-292,135.5,156.5
2.04024594745668,285,294,9,-289.5,138,151.5
2.04304080491895,291,294,3,-292.5,144,148.5
2.04583566238122,297,296,-1,-296.5,149,147.5
2.04863051984349,301,298,-3,-299.5,152,147.5
2.05142537730576,297,298,1,-297.5,148,149.5
2.05422023476803,291,299,8,-295,141.5,153.5
2.0570150922303,288,302,14,-295,137,158
2.05980994969257,294,300,6,-297,144,153
2.06260480715483,301,302,1,-301.5,150,151.5
2.0653996646171,307,303,-4,-305,155.5,149.5
2.06819452207937,304,303,-1,-303.5,152.5,151
2.07098937954164,296,304,8,-300,144,156
2.07378423700391,288,301,13,-294.5,137.5,157
2.07657909446618,291,303,12,-297,139.5,157.5
2.07937395192845,299,302,3,-300.5,148,152.5
2.08216880939072,303,300,-3,-301.5,153,148.5
2.08496366685299,304,303,-1,-303.5,152.5,151
2.08775852431526,299,303,4,-301,147.5,153.5
2.09055338177753,294,304,10,-299,142,157
2.0933482392398,294,308,14,-301,140,161
2.09614309670207,303,310,7,-306.5,148,158.5
2.09893795416434,309,308,-1,-308.5,155,153.5
2.10173281162661,313,312,-1,-312.5,157,155.5
2.10452766908888,311,313,2,-312,154.5,157.5
2.10732252655115,303,312,9,-307.5,147,160.5
2.11011738401342,299,313,14,-306,142.5,163.5
2.11291224147568,305,314,9,-309.5,148,161.5
2.11570709893795,314,316,2,-315,156,159
2.11850195640022,317,315,-2,-316,159.5,156.5
2.12129681386249,318,313,-5,-315.5,161.5,154
2.12409167132476,309,312,3,-310.5,153,157.5
2.12688652878703,301,314,13,-307.5,144,163.5
2.1296813862493,304,316,12,-310,146,164
2.13247624371157,312,317,5,-314.5,153.5,161
2.13527110117384,319,315,-4,-317,161.5,155.5
2.13806595863611,320,319,-1,-319.5,160.5,159
2.14086081609838,318,321,3,-319.5,157.5,162
2.14365567356065,311,321,10,-316,150.5,165.5
2.14645053102292,310,324,14,-317,148,169
2.14924538848519,318,325,7,-321.5,155.5,166
2.15204024594746,326,326,0,-326,163,163
2.15483510340973,330,325,-5,-327.5,167.5,160
2.157629960872,330,330,0,-330,165,165
2.16042481833426,326,336,10,-331,158,173
2.16321967579653,323,336,13,-329.5,155,174.5
2.1660145332588,327,339,12,-333,157.5,175.5
2.16880939072107,335,340,5,-337.5,165,172.5
2.17160424818334,338,342,4,-340,167,173
2.17439910564561,340,338,-2,-339,171,168
2.17719396310788,334,339,5,-336.5,164.5,172
2.17998882057015,327,339,12,-333,157.5,175.5
2.18278367803242,326,337,11,-331.5,157.5,174
2.18557853549469,336,343,7,-339.5,164.5,175
2.18837339295696,343,343,0,-343,171.5,171.5
2.19116825041923,348,346,-2,-347,175,172
2.1939631078815,347,346,-1,-346.5,174,172.5
2.19675796534377,340,349,9,-344.5,165.5,179
2.19955282280604,338,353,15,-345.5,161.5,184
2.20234768026831,341,349,8,-345,166.5,178.5
2.20514253773058,349,348,-1,-348.5,175,173.5
2.20793739519284,351,348,-3,-349.5,177,172.5
2.21073225265511,350,348,-2,-349,176,173
2.21352711011738,343,347,4,-345,169.5,175.5
2.21632196757965,334,344,10,-339,162,177
2.21911682504192,336,347,11,-341.5,162.5,179
2.22191168250419,341,347,6,-344,167.5,176.5
2.22470653996646,347,341,-6,-344,176.5,167.5
2.22750139742873,347,344,-3,-345.5,175,170.5
2.230296254891,341,341,0,-341,170.5,170.5
2.23309111235327,327,334,7,-330.5,160,170.5
2.23588596981554,321,332,11,-326.5,155,171.5
2.23868082727781,325,328,3,-326.5,161,165.5
2.24147568474008,326,324,-2,-325,164,161
2.24427054220235,329,319,-10,-324,169.5,154.5
2.24706539966462,324,318,-6,-321,165,156
2.24986025712689,312,316,4,-314,154,160
2.25265511458916,301,309,8,-305,146.5,158.5
2.25544997205143,301,307,6,-304,147.5,156.5
2.25824482951369,306,304,-2,-305,154,151
2.26103968697596,308,302,-6,-305,157,148
2.26383454443823,308,301,-7,-304.5,157.5,147
2.2666294019005,299,299,0,-299,149.5,149.5
2.26942425936277,289,299,10,-294,139.5,154.5
2.27221911682504,285,298,13,-291.5,136,155.5
2.27501397428731,291,293,2,-292,144.5,147.5
2.27780883174958,296,293,-3,-294.5,149.5,145
2.28060368921185,296,291,-5,-293.5,150.5,143
2.28339854667412,293,288,-5,-290.5,149,141.5
2.28619340413639,285,293,8,-289,138.5,150.5
2.28898826159866,279,290,11,-284.5,134,150.5
2.29178311906093,286,293,7,-289.5,139.5,150
2.2945779765232,294,291,-3,-292.5,148.5,144
2.29737283398547,296,291,-5,-293.5,150.5,143
2.30016769144774,295,293,-2,-294,148.5,145.5
2.30296254891001,290,292,2,-291,144,147
2.30575740637227,279,293,14,-286,132.5,153.5
2.30855226383454,282,292,10,-287,136,151
2.31134712129681,290,290,0,-290,145,145
2.31414197875908,294,290,-4,-292,149,143
2.31693683622135,295,292,-3,-293.5,149,144.5
2.31973169368362,290,292,2,-291,144,147
2.32252655114589,283,294,11,-288.5,136,152.5
2.32532140860816,278,293,15,-285.5,131.5,154
2.32811626607043,286,291,5,-288.5,140.5,148
2.3309111235327,292,292,0,-292,146,146
2.33370598099497,294,292,-2,-293,148,145
2.33650083845724,295,293,-2,-294,148.5,145.5
2.33929569591951,284,292,8,-288,138,150
2.34209055338178,279,291,12,-285,133.5,151.5
2.34488541084405,283,291,8,-287,137.5,149.5
2.34768026830632,289,293,4,-291,142.5,148.5
2.35047512576859,294,291,-3,-292.5,148.5,144
2.35326998323086,296,293,-3,-294.5,149.5,145
2.35606484069312,292,295,3,-293.5,144.5,149
2.35885969815539,285,298,13,-291.5,136,155.5
2.36165455561766,285,300,15,-292.5,135,157.5
2.36444941307993,296,300,4,-298,146,152
2.3672442705422,302,302,0,-302,151,151
2.37003912800447,302,299,-3,-300.5,152.5,148
2.37283398546674,299,298,-1,-298.5,150,148.5
2.37562884292901,288,297,9,-292.5,139.5,153
2.37842370039128,284,297,13,-290.5,135.5,155
2.38121855785355,288,295,7,-291.5,140.5,151
2.38401341531582,296,296,0,-296,148,148
2.38680827277809,299,298,-1,-298.5,150,148.5
2.38960313024036,302,300,-2,-301,152,149
2.39239798770263,293,297,4,-295,144.5,150.5
2.3951928451649,286,300,14,-293,136,157
2.39798770262717,287,299,12,-293,137.5,155.5
2.40078256008944,294,299,5,-296.5,144.5,152
2.4035774175517,297,299,2,-298,147.5,150.5
2.40637227501397,302,300,-2,-301,152,149
2.40916713247624,298,301,3,-299.5,147.5,152
2.41196198993851,288,297,9,-292.5,139.5,153
2.41475684740078,285,297,12,-291,136.5,154.5
2.41755170486305,289,295,6,-292,141.5,150.5
2.42034656232532,297,298,1,-297.5,148,149.5
2.42314141978759,303,300,-3,-301.5,153,148.5
2.42593627724986,302,300,-2,-301,152,149
2.42873113471213,294,300,6,-297,144,153
2.4315259921744,290,301,11,-295.5,139.5,156
2.43432084963667,294,301,7,-297.5,143.5,154
2.43711570709894,299,299,0,-299,149.5,149.5
2.43991056456121,302,297,-5,-299.5,153.5,146
2.44270542202348,301,297,-4,-299,152.5,146.5
2.44550027948575,294,299,5,-296.5,144.5,152
2.44829513694802,284,299,15,-291.5,134.5,157
2.45108999441028,286,298,12,-292,137,155
2.45388485187255,295,302,7,-298.5,144,154.5
2.45667970933482,302,301,-1,-301.5,151.5,150
2.45947456679709,305,303,-2,-304,153.5,150.5
2.46226942425936,302,302,0,-302,151,151
2.46506428172163,295,305,10,-300,142.5,157.5
2.4678591391839,290,304,14,-297,138,159
2.47065399664617,297,306,9,-301.5,144,157.5
2.47344885410844,306,305,-1,-305.5,153.5,152
2.47624371157071,312,308,-4,-310,158,152
2.47903856903298,312,310,-2,-311,157,154
2.48183342649525,308,312,4,-310,152,158
2.48462828395752,300,311,11,-305.5,144.5,161
2.48742314141979,303,312,9,-307.5,147,160.5
2.49021799888206,308,311,3,-309.5,152.5,157
2.49301285634433,313,311,-2,-312,157.5,154.5
2.4958077138066,316,314,-2,-315,159,156
2.49860257126887,315,316,1,-315.5,157,158.5
2.50139742873113,306,319,13,-312.5,146.5,166
2.5041922861934,306,319,13,-312.5,146.5,166
2.50698714365567,314,323,9,-318.5,152.5,166
2.50978200111794,320,319,-1,-319.5,160.5,159
2.51257685858021,322,319,-3,-320.5,162.5,158
2.51537171604248,319,318,-1,-318.5,160,158.5
2.51816657350475,311,320,9,-315.5,151,164.5
2.52096143096702,305,319,14,-312,145.5,166.5
2.52375628842929,307,316,9,-311.5,149,162.5
2.52655114589156,316,318,2,-317,157,160
2.52934600335383,320,315,-5,-317.5,162.5,155
2.5321408608161,320,317,-3,-318.5,161.5,157
2.53493571827837,315,318,3,-316.5,156,160.5
2.53773057574064,304,311,7,-307.5,148.5,159
2.54052543320291,299,310,11,-304.5,144,160.5
2.54332029066518,304,307,3,-305.5,150.5,155
2.54611514812745,310,306,-4,-308,157,151
2.54891000558971,310,303,-7,-306.5,158.5,148
2.55170486305198,305,302,-3,-303.5,154,149.5
2.55449972051425,296,304,8,-300,144,156
2.55729457797652,289,302,13,-295.5,138,157.5
2.56008943543879,294,300,6,-297,144,153
2.56288429290106,299,299,0,-299,149.5,149.5
2.56567915036333,302,299,-3,-300.5,152.5,148
2.5684740078256,301,295,-6,-298,153.5,144.5
2.57126886528787,291,297,6,-294,142.5,151.5
2.57406372275014,283,295,12,-289,135.5,153.5
2.57685858021241,286,296,10,-291,138,153
2.57965343767468,293,296,3,-294.5,145,149.5
2.58244829513695,298,298,0,-298,149,149
2.58524315259922,301,299,-2,-300,151.5,148.5
2.58803801006149,298,299,1,-298.5,148.5,150
2.59083286752376,290,301,11,-295.5,139.5,156
2.59362772498603,287,300,13,-293.5,137,156.5
2.59642258244829,291,298,7,-294.5,142,152.5
2.59921743991056,298,300,2,-299,148,151
2.60201229737283,301,298,-3,-299.5,152,147.5
2.6048071548351,297,294,-3,-295.5,150,145.5
2.60760201229737,285,287,2,-286,141.5,144.5
2.61039686975964,276,285,9,-280.5,133.5,147
2.61319172722191,277,286,9,-281.5,134,147.5
2.61598658468418,286,286,0,-286,143,143
2.61878144214645,290,288,-2,-289,146,143
2.62157629960872,292,289,-3,-290.5,147.5,143
2.62437115707099,291,297,6,-294,142.5,151.5
2.62716601453326,292,310,18,-301,137,164
2.62996087199553,309,336,27,-322.5,141,181.5
2.6327557294578,341,364,23,-352.5,159,193.5
2.63555058692007,375,397,22,-386,176.5,209.5
2.63834544438234,405,430,25,-417.5,190,227.5
2.64114030184461,431,456,25,-443.5,203,240.5
2.64393515930688,441,472,31,-456.5,205,251.5
2.64673001676914,441,472,31,-456.5,205,251.5
2.64952487423141,437,452,15,-444.5,211,233.5
2.65231973169368,421,418,-3,-419.5,212,207.5
2.65511458915595,397,378,-19,-387.5,208,179.5
2.65790944661822,365,339,-26,-352,195.5,156.5
2.66070430408049,332,311,-21,-321.5,176.5,145
2.66349916154276,300,291,-9,-295.5,154.5,141
2.66629401900503,291,284,-7,-287.5,149,138.5
2.6690888764673,294,284,-10,-289,152,137
2.67188373392957,300,289,-11,-294.5,155.5,139
2.67467859139184,306,299,-7,-302.5,156.5,146
2.67747344885411,307,306,-1,-306.5,154,152.5
2.68026830631638,297,310,13,-303.5,142,161.5
2.68306316377865,293,309,16,-301,138.5,162.5
2.68585802124092,297,301,4,-299,146.5,152.5
2.68865287870319,301,297,-4,-299,152.5,146.5
2.69144773616546,303,300,-3,-301.5,153,148.5
2.69424259362772,303,300,-3,-301.5,153,148.5
2.69703745108999,298,304,6,-301,146,155
2.69983230855226,290,302,12,-296,139,157
2.70262716601453,296,305,9,-300.5,143.5,157
2.7054220234768,303,306,3,-304.5,150,154.5
2.70821688093907,305,304,-1,-304.5,153,151.5
2.71101173840134,307,301,-6,-304,156.5,147.5
2.71380659586361,301,301,0,-301,150.5,150.5
2.71660145332588,289,299,10,-294,139.5,154.5
2.71939631078815,289,301,12,-295,138.5,156.5
2.72219116825042,298,304,6,-301,146,155
2.72498602571269,306,306,0,-306,153,153
2.72778088317496,308,307,-1,-307.5,154.5,153
2.73057574063723,307,308,1,-307.5,153,154.5
2.7333705980995,299,307,8,-303,145.5,157.5
2.73616545556177,294,307,13,-300.5,140.5,160
2.73896031302404,300,310,10,-305,145,160
2.74175517048631,308,310,2,-309,153,156
2.74455002794857,313,309,-4,-311,158.5,152.5
2.74734488541084,312,309,-3,-310.5,157.5,153
2.75013974287311,305,307,2,-306,151.5,154.5
2.75293460033538,297,311,14,-304,141.5,162.5
2.75572945779765,300,310,10,-305,145,160
2.75852431525992,309,311,2,-310,153.5,156.5
2.76131917272219,314,315,1,-314.5,156.5,158
2.76411403018446,317,315,-2,-316,159.5,156.5
2.76690888764673,316,316,0,-316,158,158
2.769703745109,306,319,13,-312.5,146.5,166
2.77249860257127,305,321,16,-313,144.5,168.5
2.77529346003354,311,319,8,-315,151.5,163.5
2.77808831749581,317,319,2,-318,157.5,160.5
2.78088317495808,320,319,-1,-319.5,160.5,159
2.78367803242035,322,319,-3,-320.5,162.5,158
2.78647288988262,313,320,7,-316.5,153,163.5
2.78926774734489,305,318,13,-311.5,146,165.5
2.79206260480715,308,320,12,-314,148,166
2.79485746226942,318,323,5,-320.5,156.5,164
2.79765231973169,324,322,-2,-323,163,160
2.80044717719396,327,324,-3,-325.5,165,160.5
2.80324203465623,324,328,4,-326,160,166
2.8060368921185,314,327,13,-320.5,150.5,170
2.80883174958077,313,329,16,-321,148.5,172.5
2.81162660704304,322,326,4,-324,159,165
2.81442146450531,329,329,0,-329,164.5,164.5
2.81721632196758,332,329,-3,-330.5,167.5,163
2.82001117942985,333,333,0,-333,166.5,166.5
2.82280603689212,323,331,8,-327,157.5,169.5
2.82560089435439,321,333,12,-327,154.5,172.5
2.82839575181666,327,338,11,-332.5,158,174.5
2.83119060927893,336,338,2,-337,167,170
2.8339854667412,339,340,1,-339.5,169,170.5
2.83678032420347,344,341,-3,-342.5,173.5,169
2.83957518166573,337,342,5,-339.5,166,173.5
2.842370039128,332,347,15,-339.5,158.5,181
2.84516489659027,332,345,13,-338.5,159.5,179
2.84795975405254,341,346,5,-343.5,168,175.5
2.85075461151481,348,348,0,-348,174,174
2.85354946897708,352,351,-1,-351.5,176.5,175
2.85634432643935,350,351,1,-350.5,174.5,176
2.85913918390162,341,352,11,-346.5,165,181.5
2.86193404136389,336,349,13,-342.5,161.5,181
2.86472889882616,342,347,5,-344.5,168.5,176
2.86752375628843,348,345,-3,-346.5,175.5,171
2.8703186137507,351,348,-3,-349.5,177,172.5
2.87311347121297,351,351,0,-351,175.5,175.5
2.87590832867524,345,351,6,-348,169.5,178.5
2.87870318613751,337,349,12,-343,162.5,180.5
2.88149804359978,340,351,11,-345.5,164.5,181
2.88429290106205,347,351,4,-349,171.5,177.5
2.88708775852432,354,352,-2,-353,178,175
2.88988261598658,353,347,-6,-350,179.5,170.5
2.89267747344885,346,348,2,-347,172,175
2.89547233091112,334,341,7,-337.5,163.5,174
2.89826718837339,331,338,7,-334.5,162,172.5
2.90106204583566,334,337,3,-335.5,165.5,170
2.90385690329793,338,334,-4,-336,171,165
2.9066517607602,337,331,-6,-334,171.5,162.5
2.90944661822247,332,328,-4,-330,168,162
2.91224147568474,319,318,-1,-318.5,160,158.5
2.91503633314701,307,316,9,-311.5,149,162.5
2.91783119060928,309,311,2,-310,153.5,156.5
2.92062604807155,312,308,-4,-310,158,152
2.92342090553382,313,307,-6,-310,159.5,150.5
2.92621576299609,312,305,-7,-308.5,159.5,149
2.92901062045836,302,303,1,-302.5,150.5,152
2.93180547792063,291,300,9,-295.5,141,154.5
2.9346003353829,290,298,8,-294,141,153
2.93739519284516,298,301,3,-299.5,147.5,152
2.94019005030743,303,303,0,-303,151.5,151.5
2.9429849077697,305,299,-6,-302,155.5,146.5
2.94577976523197,303,299,-4,-301,153.5,147.5
2.94857462269424,291,297,6,-294,142.5,151.5
2.95136948015651,285,295,10,-290,137.5,152.5
2.95416433761878,287,292,5,-289.5,141,148.5
2.95695919508105,293,289,-4,-291,148.5,142.5
2.95975405254332,296,294,-2,-295,149,146
2.96254891000559,297,294,-3,-295.5,150,145.5
2.96534376746786,288,294,6,-291,141,150
2.96813862493013,279,292,13,-285.5,133,152.5
2.9709334823924,282,292,10,-287,136,151
2.97372833985467,291,290,-1,-290.5,146,144.5
2.97652319731694,297,297,0,-297,148.5,148.5
2.97931805477921,298,297,-1,-297.5,149.5,148
2.98211291224148,295,297,2,-296,146.5,149.5
2.98490776970374,286,296,10,-291,138,153
2.98770262716601,282,296,14,-289,134,155
2.99049748462828,290,294,4,-292,143,149
2.99329234209055,295,296,1,-295.5,147,148.5
2.99608719955282,301,299,-2,-300,151.5,148.5
2.99888205701509,299,297,-2,-298,150.5,147.5
3.00167691447736,292,300,8,-296,142,154
3.00447177193963,284,298,14,-291,135,156
3.0072666294019,287,298,11,-292.5,138,154.5
3.01006148686417,297,299,2,-298,147.5,150.5
3.01285634432644,302,301,-1,-301.5,151.5,150
3.01565120178871,303,301,-2,-302,152.5,149.5
3.01844605925098,297,302,5,-299.5,146,153.5
3.02124091671325,288,303,15,-295.5,136.5,159
3.02403577417552,289,297,8,-293,140.5,152.5
3.02683063163779,297,297,0,-297,148.5,148.5
3.02962548910006,302,300,-2,-301,152,149
3.03242034656233,303,301,-2,-302,152.5,149.5
3.03521520402459,302,303,1,-302.5,150.5,152
3.03801006148686,292,301,9,-296.5,141.5,155
3.04080491894913,286,300,14,-293,136,157
3.0435997764114,291,298,7,-294.5,142,152.5
3.04639463387367,299,298,-1,-298.5,150,148.5
3.04918949133594,301,301,0,-301,150.5,150.5
3.05198434879821,302,301,-1,-301.5,151.5,150
3.05477920626048,294,300,6,-297,144,153
3.05757406372275,288,300,12,-294,138,156
3.06036892118502,288,297,9,-292.5,139.5,153
3.06316377864729,295,298,3,-296.5,146,150.5
3.06595863610956,301,300,-1,-300.5,151,149.5
3.06875349357183,302,299,-3,-300.5,152.5,148
3.0715483510341,299,300,1,-299.5,149,150.5
3.07434320849637,290,302,12,-296,139,157
3.07713806595864,289,304,15,-296.5,137,159.5
3.07993292342091,295,301,6,-298,144.5,153.5
3.08272778088317,303,299,-4,-301,153.5,147.5
3.08552263834544,303,301,-2,-302,152.5,149.5
3.08831749580771,303,301,-2,-302,152.5,149.5
3.09111235326998,293,301,8,-297,142.5,154.5
3.09390721073225,286,298,12,-292,137,155
3.09670206819452,288,297,9,-292.5,139.5,153
3.09949692565679,297,299,2,-298,147.5,150.5
3.10229178311906,303,302,-1,-302.5,152,150.5
3.10508664058133,303,303,0,-303,151.5,151.5
3.1078814980436,297,303,6,-300,145.5,154.5
3.11067635550587,287,301,14,-294,136.5,157.5
3.11347121296814,288,300,12,-294,138,156
3.11626607043041,298,302,4,-300,147,153
3.11906092789268,304,305,1,-304.5,151.5,153
3.12185578535495,308,307,-1,-307.5,154.5,153
3.12465064281722,307,309,2,-308,152.5,155.5
3.12744550027949,298,308,10,-303,144,159
3.13024035774176,293,305,12,-299,140.5,158.5
3.13303521520402,296,303,7,-299.5,144.5,155
3.13583007266629,300,303,3,-301.5,148.5,153
3.13862493012856,306,301,-5,-303.5,155.5,148
3.14141978759083,307,304,-3,-305.5,155,150.5
3.1442146450531,303,310,7,-306.5,148,158.5
3.14700950251537,296,310,14,-303,141,162
3.14980435997764,299,310,11,-304.5,144,160.5
3.15259921743991,306,310,4,-308,151,157
3.15539407490218,314,312,-2,-313,158,155
3.15818893236445,315,315,0,-315,157.5,157.5
3.16098378982672,313,319,6,-316,153.5,162.5
3.16377864728899,307,322,15,-314.5,146,168.5
3.16657350475126,309,324,15,-316.5,147,169.5
3.16936836221353,317,324,7,-320.5,155,165.5
3.1721632196758,321,319,-2,-320,161.5,158.5
3.17495807713807,322,320,-2,-321,162,159
3.17775293460034,319,319,0,-319,159.5,159.5
3.1805477920626,311,320,9,-315.5,151,164.5
3.18334264952487,306,320,14,-313,146,167
3.18613750698714,309,315,6,-312,151.5,160.5
3.18893236444941,314,315,1,-314.5,156.5,158
3.19172722191168,318,313,-5,-315.5,161.5,154
3.19452207937395,317,313,-4,-315,160.5,154.5
3.19731693683622,311,313,2,-312,154.5,157.5
3.20011179429849,302,315,13,-308.5,144.5,164
3.20290665176076,301,311,10,-306,145.5,160.5
3.20570150922303,308,311,3,-309.5,152.5,157
3.2084963666853,309,305,-4,-307,156.5,150.5
3.21129122414757,309,304,-5,-306.5,157,149.5
3.21408608160984,305,303,-2,-304,153.5,150.5
3.21688093907211,293,301,8,-297,142.5,154.5
3.21967579653438,289,301,12,-295,138.5,156.5
3.22247065399665,293,298,5,-295.5,144,151.5
3.22526551145892,297,297,0,-297,148.5,148.5
3.22806036892118,300,295,-5,-297.5,152.5,145
3.23085522638345,297,293,-4,-295,150.5,144.5
3.23365008384572,289,294,5,-291.5,142,149.5
3.23644494130799,283,295,12,-289,135.5,153.5
3.23923979877026,285,294,9,-289.5,138,151.5
3.24203465623253,291,295,4,-293,143.5,149.5
3.2448295136948,293,291,-2,-292,147.5,144.5
3.24762437115707,297,293,-4,-295,150.5,144.5
3.25041922861934,294,296,2,-295,146,149
3.25321408608161,285,296,11,-290.5,137,153.5
3.25600894354388,283,294,11,-288.5,136,152.5
3.25880380100615,289,297,8,-293,140.5,152.5
3.26159865846842,298,294,-4,-296,151,145
3.26439351593069,300,296,-4,-298,152,146
3.26718837339296,298,296,-2,-297,150,147
3.26998323085523,287,293,6,-290,140.5,149.5
3.2727780883175,277,288,11,-282.5,133,149.5
3.27557294577977,279,281,2,-280,138.5,141.5
3.27836780324203,286,285,-1,-285.5,143.5,142
3.2811626607043,292,288,-4,-290,148,142
3.28395751816657,293,289,-4,-291,148.5,142.5
3.28675237562884,287,288,1,-287.5,143,144.5
3.28954723309111,281,295,14,-288,133.5,154.5
3.29234209055338,295,314,19,-304.5,138,166.5
3.29513694801565,322,341,19,-331.5,151.5,180
3.29793180547792,356,376,20,-366,168,198
3.30072666294019,387,408,21,-397.5,183,214.5
3.30352152040246,414,442,28,-428,193,235
3.30631637786473,428,465,37,-446.5,195.5,251
3.309111235327,436,471,35,-453.5,200.5,253
3.31190609278927,439,459,20,-449,209.5,239.5
3.31470095025154,427,426,-1,-426.5,214,212.5
3.31749580771381,403,390,-13,-396.5,208,188.5
3.32029066517608,374,352,-22,-363,198,165
3.32308552263835,338,317,-21,-327.5,179.5,148
3.32588038010061,305,292,-13,-298.5,159,139.5
3.32867523756288,290,279,-11,-284.5,150.5,134
3.33147009502515,293,275,-18,-284,155.5,128.5
3.33426495248742,295,283,-12,-289,153.5,135.5
3.33705980994969,300,288,-12,-294,156,138
3.33985466741196,299,297,-2,-298,150.5,147.5
3.34264952487423,289,298,9,-293.5,140,153.5
3.3454443823365,287,299,12,-293,137.5,155.5
3.34823923979877,292,297,5,-294.5,143.5,151
3.35103409726104,295,291,-4,-293,149.5,143.5
3.35382895472331,295,292,-3,-293.5,149,144.5
3.35662381218558,296,296,0,-296,148,148
3.35941866964785,289,299,10,-294,139.5,154.5
3.36221352711012,285,298,13,-291.5,136,155.5
3.36500838457239,291,302,11,-296.5,140,156.5
3.36780324203466,297,299,2,-298,147.5,150.5
3.37059809949693,301,299,-2,-300,151.5,148.5
3.37339295695919,302,299,-3,-300.5,152.5,148
3.37618781442146,296,299,3,-297.5,146.5,151
3.37898267188373,287,299,12,-293,137.5,155.5
3.381777529346,288,298,10,-293,139,154
3.38457238680827,294,297,3,-295.5,145.5,150
3.38736724427054,299,300,1,-299.5,149,150.5
3.39016210173281,303,301,-2,-302,152.5,149.5
3.39295695919508,301,301,0,-301,150.5,150.5
3.39575181665735,289,300,11,-294.5,139,155.5
3.39854667411962,287,300,13,-293.5,137,156.5
3.40134153158189,291,302,11,-296.5,140,156.5
3.40413638904416,302,305,3,-303.5,149.5,154
3.40693124650643,308,306,-2,-307,155,152
3.4097261039687,309,306,-3,-307.5,156,151.5
3.41252096143097,301,308,7,-304.5,147,157.5
3.41531581889324,294,308,14,-301,140,161
3.41811067635551,296,307,11,-301.5,142.5,159
3.42090553381778,303,307,4,-305,149.5,155.5
3.42370039128004,309,305,-4,-307,156.5,150.5
3.42649524874231,312,309,-3,-310.5,157.5,153
3.42929010620458,308,310,2,-309,153,156
3.43208496366685,298,311,13,-304.5,142.5,162
3.43487982112912,298,313,15,-305.5,141.5,164
3.43767467859139,305,310,5,-307.5,150,157.5
3.44046953605366,312,313,1,-312.5,155.5,157
3.44326439351593,314,312,-2,-313,158,155
3.4460592509782,313,314,1,-313.5,156,157.5
3.44885410844047,307,311,4,-309,151.5,157.5
3.45164896590274,301,313,12,-307,144.5,162.5
3.45444382336501,306,316,10,-311,148,163
3.45723868082728,316,319,3,-317.5,156.5,161
3.46003353828955,321,318,-3,-319.5,162,157.5
3.46282839575182,320,317,-3,-318.5,161.5,157
3.46562325321409,315,319,4,-317,155.5,161.5
3.46841811067636,305,317,12,-311,146.5,164.5
3.47121296813862,307,321,14,-314,146.5,167.5
3.47400782560089,316,320,4,-318,156,162
3.47680268306316,323,322,-1,-322.5,162,160.5
3.47959754052543,327,323,-4,-325,165.5,159.5
3.4823923979877,325,325,0,-325,162.5,162.5
3.48518725544997,319,332,13,-325.5,153,172.5
3.48798211291224,315,332,17,-323.5,149,174.5
3.49077697037451,323,333,10,-328,156.5,171.5
3.49357182783678,332,336,4,-334,164,170
3.49636668529905,339,337,-2,-338,170.5,167.5
3.49916154276132,339,336,-3,-337.5,171,166.5
3.50195640022359,332,338,6,-335,163,172
3.50475125768586,325,340,15,-332.5,155,177.5
3.50754611514813,328,339,11,-333.5,158.5,175
3.5103409726104,337,341,4,-339,166.5,172.5
3.51313583007267,342,343,1,-342.5,170.5,172
3.51593068753494,344,341,-3,-342.5,173.5,169
3.51872554499721,342,344,2,-343,170,173
3.52152040245947,335,345,10,-340,162.5,177.5
3.52431525992174,332,345,13,-338.5,159.5,179
3.52711011738401,339,345,6,-342,166.5,175.5
3.52990497484628,345,346,1,-345.5,172,173.5
3.53269983230855,348,347,-1,-347.5,174.5,173
3.53549468977082,348,348,0,-348,174,174
3.53828954723309,340,348,8,-344,166,178
3.54108440469536,333,347,14,-340,159.5,180.5
3.54387926215763,337,346,9,-341.5,164,177.5
3.5466741196199,344,342,-2,-343,173,170
3.54946897708217,345,342,-3,-343.5,174,169.5
3.55226383454444,343,339,-4,-341,173.5,167.5
3.55505869200671,337,339,2,-338,167.5,170.5
3.55785354946898,328,341,13,-334.5,157.5,177
3.56064840693125,326,337,11,-331.5,157.5,174
3.56344326439352,331,328,-3,-329.5,167,162.5
3.56623812185579,332,326,-6,-329,169,160
3.56903297931805,331,324,-7,-327.5,169,158.5
3.57182783678032,323,317,-6,-320,164.5,155.5
3.57462269424259,310,317,7,-313.5,151.5,162
3.57741755170486,302,313,11,-307.5,145.5,162
3.58021240916713,305,307,2,-306,151.5,154.5
3.5830072666294,307,302,-5,-304.5,156,148.5
3.58580212409167,308,300,-8,-304,158,146
3.58859698155394,305,301,-4,-303,154.5,148.5
3.59139183901621,298,300,2,-299,148,151
3.59418669647848,289,298,9,-293.5,140,153.5
3.59698155394075,289,298,9,-293.5,140,153.5
3.59977641140302,296,296,0,-296,148,148
3.60257126886529,297,292,-5,-294.5,151,143.5
3.60536612632756,296,292,-4,-294,150,144
3.60816098378983,289,293,4,-291,142.5,148.5
3.6109558412521,283,292,9,-287.5,137,150.5
3.61375069871437,278,290,12,-284,133,151
3.61654555617663,283,287,4,-285,139.5,145.5
3.6193404136389,291,286,-5,-288.5,148,140.5
3.62213527110117,294,288,-6,-291,150,141
3.62493012856344,291,291,0,-291,145.5,145.5
3.62772498602571,282,288,6,-285,138,147
3.63051984348798,275,287,12,-281,131.5,149.5
3.63331470095025,278,287,9,-282.5,134.5,148
3.63610955841252,286,288,2,-287,142,145
3.63890441587479,292,291,-1,-291.5,146.5,145
3.64169927333706,295,289,-6,-292,150.5,141.5
3.64449413079933,286,293,7,-289.5,139.5,150
3.6472889882616,282,293,11,-287.5,135.5,152
3.65008384572387,281,295,14,-288,133.5,154.5
3.65287870318614,285,291,6,-288,139.5,148.5
3.65567356064841,293,292,-1,-292.5,147,145.5
3.65846841811068,296,292,-4,-294,150,144
3.66126327557295,294,294,0,-294,147,147
3.66405813303522,285,292,7,-288.5,139,149.5
3.66685299049748,279,296,17,-287.5,131,156.5
3.66964784795975,286,294,8,-290,139,151
3.67244270542202,294,292,-2,-293,148,145
3.67523756288429,298,295,-3,-296.5,150.5,146
3.67803242034656,299,297,-2,-298,150.5,147.5
3.68082727780883,295,300,5,-297.5,145,152.5
3.6836221352711,284,297,13,-290.5,135.5,155
3.68641699273337,283,296,13,-289.5,135,154.5
3.68921185019564,292,293,1,-292.5,145.5,147
3.69200670765791,296,296,0,-296,148,148
3.69480156512018,300,295,-5,-297.5,152.5,145
3.69759642258245,295,296,1,-295.5,147,148.5
3.70039128004472,287,297,10,-292,138.5,153.5
3.70318613750699,284,296,12,-290,136,154
3.70598099496926,292,295,3,-293.5,144.5,149
3.70877585243153,298,297,-1,-297.5,149.5,148
3.7115707098938,301,300,-1,-300.5,151,149.5
3.71436556735606,301,302,1,-301.5,150,151.5
3.71716042481833,291,300,9,-295.5,141,154.5
3.7199552822806,286,300,14,-293,136,157
3.72275013974287,290,299,9,-294.5,140.5,154
3.72554499720514,298,300,2,-299,148,151
3.72833985466741,302,301,-1,-301.5,151.5,150
3.73113471212968,303,299,-4,-301,153.5,147.5
3.73392956959195,299,301,2,-300,148.5,151.5
3.73672442705422,288,299,11,-293.5,138.5,155
3.73951928451649,286,298,12,-292,137,155
3.74231414197876,291,296,5,-293.5,143,150.5
3.74510899944103,299,297,-2,-298,150.5,147.5
3.7479038569033,299,298,-1,-298.5,150,148.5
3.75069871436557,300,300,0,-300,150,150
3.75349357182784,290,301,11,-295.5,139.5,156
3.75628842929011,287,301,14,-294,136.5,157.5
3.75908328675238,294,304,10,-299,142,157
3.76187814421464,303,304,1,-303.5,151,152.5
3.76467300167691,306,304,-2,-305,154,151
3.76746785913918,305,304,-1,-304.5,153,151.5
3.77026271660145,299,302,3,-300.5,148,152.5
3.77305757406372,290,305,15,-297.5,137.5,160
3.77585243152599,294,304,10,-299,142,157
3.77864728898826,303,307,4,-305,149.5,155.5
3.78144214645053,311,311,0,-311,155.5,155.5
3.7842370039128,313,313,0,-313,156.5,156.5
3.78703186137507,309,312,3,-310.5,153,157.5
3.78982671883734,300,312,12,-306,144,162
3.79262157629961,298,312,14,-305,142,163
3.79541643376188,304,310,6,-307,149,158
3.79821129122415,310,310,0,-310,155,155
3.80100614868642,315,311,-4,-313,159.5,153.5
3.80380100614869,316,317,1,-316.5,157.5,159
3.80659586361096,309,319,10,-314,149.5,164.5
3.80939072107323,308,325,17,-316.5,145.5,171
3.81218557853549,314,324,10,-319,152,167
3.81498043599776,320,323,3,-321.5,158.5,163
3.81777529346003,324,322,-2,-323,163,160
3.8205701509223,322,320,-2,-321,162,159
3.82336500838457,318,317,-1,-317.5,159.5,158
3.82615986584684,306,318,12,-312,147,165
3.82895472330911,305,315,10,-310,147.5,162.5
3.83174958077138,313,315,2,-314,155.5,158.5
3.83454443823365,319,316,-3,-317.5,161,156.5
3.83733929569592,320,315,-5,-317.5,162.5,155
3.84013415315819,316,313,-3,-314.5,159.5,155
3.84292901062046,305,314,9,-309.5,148,161.5
3.84572386808273,301,313,12,-307,144.5,162.5
3.848518725545,303,306,3,-304.5,150,154.5
3.85131358300727,304,301,-3,-302.5,153.5,149
3.85410844046954,306,303,-3,-304.5,154.5,150
3.85690329793181,306,302,-4,-304,155,149
3.85969815539407,299,299,0,-299,149.5,149.5
3.86249301285634,290,302,12,-296,139,157
3.86528787031861,291,301,10,-296,140.5,155.5
3.86808272778088,298,300,2,-299,148,151
3.87087758524315,303,299,-4,-301,153.5,147.5
3.87367244270542,303,298,-5,-300.5,154,146.5
3.87646730016769,298,297,-1,-297.5,149.5,148
3.87926215762996,288,298,10,-293,139,154
3.88205701509223,286,298,12,-292,137,155
3.8848518725545,293,295,2,-294,145.5,148.5
3.88764673001677,297,295,-2,-296,149.5,146.5
3.89044158747904,298,294,-4,-296,151,145
3.89323644494131,297,297,0,-297,148.5,148.5
3.89603130240358,291,300,9,-295.5,141,154.5
3.89882615986585,287,303,16,-295,135.5,159.5
3.90162101732812,289,300,11,-294.5,139,155.5
3.90441587479039,297,299,2,-298,147.5,150.5
3.90721073225266,297,295,-2,-296,149.5,146.5
3.91000558971492,298,294,-4,-296,151,145
3.91280044717719,290,290,0,-290,145,145
3.91559530463946,279,288,9,-283.5,135,148.5
3.91839016210173,278,288,10,-283,134,149
3.921185019564,287,289,2,-288,142.5,145.5
3.92397987702627,293,293,0,-293,146.5,146.5
3.92677473448854,296,294,-2,-295,149,146
3.92956959195081,301,303,2,-302,149.5,152.5
3.93236444941308,304,320,16,-312,144,168
3.93515930687535,321,347,26,-334,147.5,186.5
3.93795416433762,353,379,26,-366,163.5,202.5
3.94074902179989,389,415,26,-402,181.5,220.5
3.94354387926216,421,446,25,-433.5,198,235.5
3.94633873672443,444,469,25,-456.5,209.5,247
3.9491335941867,451,475,24,-463,213.5,249.5
3.95192845164897,442,467,25,-454.5,208.5,246
3.95472330911124,429,442,13,-435.5,208,227.5
3.9575181665735,414,409,-5,-411.5,209.5,202
3.96031302403577,390,372,-18,-381,204,177
3.96310788149804,363,338,-25,-350.5,194,156.5
3.96590273896031,333,310,-23,-321.5,178,143.5
3.96869759642258,305,292,-13,-298.5,159,139.5
3.97149245388485,290,283,-7,-286.5,148.5,138
3.97428731134712,293,286,-7,-289.5,150,139.5
3.97708216880939,300,291,-9,-295.5,154.5,141
3.97987702627166,306,300,-6,-303,156,147
3.98267188373393,309,305,-4,-307,156.5,150.5
3.9854667411962,301,308,7,-304.5,147,157.5
3.98826159865847,292,304,12,-298,140,158
3.99105645612074,294,301,7,-297.5,143.5,154
3.99385131358301,299,300,1,-299.5,149,150.5
3.99664617104528,302,300,-2,-301,152,149
3.99944102850755,305,300,-5,-302.5,155,147.5
4.00223588596982,301,305,4,-303,148.5,154.5
4.00503074343208,292,306,14,-299,139,160
4.00782560089435,292,304,12,-298,140,158
4.01062045835662,300,306,6,-303,147,156
4.01341531581889,305,304,-1,-304.5,153,151.5
4.01621017328116,307,304,-3,-305.5,155,150.5
4.01900503074343,303,302,-1,-302.5,152,150.5
4.0217998882057,293,302,9,-297.5,142,155.5
4.02459474566797,288,301,13,-294.5,137.5,157
4.02738960313024,294,302,8,-298,143,155
4.03018446059251,303,305,2,-304,150.5,153.5
4.03297931805478,308,305,-3,-306.5,155.5,151
4.03577417551705,308,308,0,-308,154,154
4.03856903297932,303,310,7,-306.5,148,158.5
4.04136389044159,296,310,14,-303,141,162
4.04415874790386,299,310,11,-304.5,144,160.5
4.04695360536613,306,310,4,-308,151,157
4.0497484628284,312,311,-1,-311.5,156.5,155
4.05254332029067,314,311,-3,-312.5,158.5,154
4.05533817775293,310,312,2,-311,154,157
4.0581330352152,301,314,13,-307.5,144,163.5
4.06092789267747,297,310,13,-303.5,142,161.5
4.06372275013974,302,307,5,-304.5,148.5,156
4.06651760760201,310,309,-1,-309.5,155.5,154
4.06931246506428,318,314,-4,-316,161,155
4.07210732252655,321,320,-1,-320.5,161,159.5
4.07490217998882,313,322,9,-317.5,152,165.5
4.07769703745109,307,323,16,-315,145.5,169.5
4.08049189491336,308,318,10,-313,149,164
4.08328675237563,314,317,3,-315.5,155.5,160
4.0860816098379,321,319,-2,-320,161.5,158.5
4.08887646730017,321,319,-2,-320,161.5,158.5
4.09167132476244,316,319,3,-317.5,156.5,161
4.09446618222471,308,321,13,-314.5,147.5,167
4.09726103968698,308,319,11,-313.5,148.5,165
4.10005589714924,318,324,6,-321,156,165
4.10285075461151,325,326,1,-325.5,162,163.5
4.10564561207378,329,328,-1,-328.5,165,163.5
4.10844046953605,328,329,1,-328.5,163.5,165
4.11123532699832,323,333,10,-328,156.5,171.5
4.11403018446059,318,333,15,-325.5,151.5,174
4.11682504192286,323,330,7,-326.5,158,168.5
4.11961989938513,330,333,3,-331.5,163.5,168
4.1224147568474,335,333,-2,-334,168.5,165.5
4.12520961430967,338,336,-2,-337,170,167
4.12800447177194,332,338,6,-335,163,172
4.13079932923421,327,341,14,-334,156.5,177.5
4.13359418669648,329,341,12,-335,158.5,176.5
4.13638904415875,340,344,4,-342,168,174
4.13918390162102,345,344,-1,-344.5,173,171.5
4.14197875908329,349,346,-3,-347.5,176,171.5
4.14477361654556,344,346,2,-345,171,174
4.14756847400783,337,349,12,-343,162.5,180.5
4.15036333147009,336,352,16,-344,160,184
4.15315818893236,344,353,9,-348.5,167.5,181
4.15595304639463,350,352,2,-351,174,177
4.1587479038569,354,352,-2,-353,178,175
4.16154276131917,353,351,-2,-352,177.5,174.5
4.16433761878144,343,351,8,-347,167.5,179.5
4.16713247624371,340,352,12,-346,164,182
4.16992733370598,343,353,10,-348,166.5,181.5
4.17272219116825,352,355,3,-353.5,174.5,179
4.17551704863052,357,356,-1,-356.5,179,177.5
4.17831190609279,357,354,-3,-355.5,180,175.5
4.18110676355506,352,354,2,-353,175,178
4.18390162101733,341,352,11,-346.5,165,181.5
4.1866964784796,340,352,12,-346,164,182
4.18949133594187,346,351,5,-348.5,170.5,178
4.19228619340414,351,350,-1,-350.5,176,174.5
4.19508105086641,351,347,-4,-349,177.5,171.5
4.19787590832868,347,344,-3,-345.5,175,170.5
4.20067076579094,333,340,7,-336.5,163,173.5
4.20346562325321,326,336,10,-331,158,173
4.20626048071548,327,329,2,-328,162.5,165.5
4.20905533817775,330,325,-5,-327.5,167.5,160
4.21185019564002,330,322,-8,-326,169,157
4.21464505310229,325,319,-6,-322,165.5,156.5
4.21743991056456,316,316,0,-316,158,158
4.22023476802683,305,316,11,-310.5,147,163.5
4.2230296254891,305,314,9,-309.5,148,161.5
4.22582448295137,310,312,2,-311,154,157
4.22861934041364,315,309,-6,-312,160.5,151.5
4.23141419787591,314,309,-5,-311.5,159.5,152
4.23420905533818,309,308,-1,-308.5,155,153.5
4.23700391280045,298,304,6,-301,146,155
4.23979877026272,292,302,10,-297,141,156
4.24259362772499,295,301,6,-298,144.5,153.5
4.24538848518725,299,295,-4,-297,151.5,145.5
4.24818334264952,305,299,-6,-302,155.5,146.5
4.25097820011179,303,300,-3,-301.5,153,148.5
4.25377305757406,293,297,4,-295,144.5,150.5
4.25656791503633,286,299,13,-292.5,136.5,156
4.2593627724986,288,297,9,-292.5,139.5,153
4.26215762996087,296,295,-1,-295.5,148.5,147
4.26495248742314,300,298,-2,-299,151,148
4.26774734488541,304,302,-2,-303,153,150
4.27054220234768,297,301,4,-299,146.5,152.5
4.27333705980995,289,302,13,-295.5,138,157.5
4.27613191727222,288,298,10,-293,139,154
4.27892677473449,293,299,6,-296,143.5,152.5
4.28172163219676,299,297,-2,-298,150.5,147.5
4.28451648965903,302,298,-4,-300,153,147
4.2873113471213,299,300,1,-299.5,149,150.5
4.29010620458357,291,299,8,-295,141.5,153.5
4.29290106204584,284,296,12,-290,136,154
4.2956959195081,288,295,7,-291.5,140.5,151
4.29849077697037,295,295,0,-295,147.5,147.5
4.30128563443264,298,295,-3,-296.5,150.5,146
4.30408049189491,299,298,-1,-298.5,150,148.5
4.30687534935718,296,301,5,-298.5,145.5,153
4.30967020681945,288,302,14,-295,137,158
4.31246506428172,290,302,12,-296,139,157
4.31525992174399,297,297,0,-297,148.5,148.5
4.31805477920626,302,301,-1,-301.5,151.5,150
4.32084963666853,305,303,-2,-304,153.5,150.5
4.3236444941308,302,301,-1,-301.5,151.5,150
4.32643935159307,293,303,10,-298,141.5,156.5
4.32923420905534,289,303,14,-296,137.5,158.5
4.33202906651761,293,299,6,-296,143.5,152.5
4.33482392397988,300,301,1,-300.5,149.5,151
4.33761878144215,304,302,-2,-303,153,150
4.34041363890442,304,306,2,-305,151,154
4.34320849636669,300,307,7,-303.5,146.5,157
4.34600335382895,293,306,13,-299.5,140,159.5
4.34879821129122,295,304,9,-299.5,143,156.5
4.35159306875349,302,306,4,-304,149,155
4.35438792621576,309,307,-2,-308,155.5,152.5
4.35718278367803,310,308,-2,-309,156,153
4.3599776411403,305,307,2,-306,151.5,154.5
4.36277249860257,296,307,11,-301.5,142.5,159
4.36556735606484,291,303,12,-297,139.5,157.5
4.36836221352711,295,299,4,-297,145.5,151.5
4.37115707098938,304,303,-1,-303.5,152.5,151
4.37395192845165,307,305,-2,-306,154.5,151.5
4.37674678591392,309,309,0,-309,154.5,154.5
4.37954164337619,299,305,6,-302,146.5,155.5
4.38233650083846,294,307,13,-300.5,140.5,160
4.38513135830073,300,309,9,-304.5,145.5,159
4.387926215763,307,311,4,-309,151.5,157.5
4.39072107322527,313,311,-2,-312,157.5,154.5
4.39351593068753,316,316,0,-316,158,158
4.3963107881498,309,315,6,-312,151.5,160.5
4.39910564561207,302,314,12,-308,145,163
4.40190050307434,302,314,12,-308,145,163
4.40469536053661,310,313,3,-311.5,153.5,158
4.40749021799888,315,313,-2,-314,158.5,155.5
4.41028507546115,316,316,0,-316,158,158
4.41307993292342,314,314,0,-314,157,157
4.41587479038569,305,317,12,-311,146.5,164.5
4.41866964784796,304,317,13,-310.5,145.5,165
4.42146450531023,308,316,8,-312,150,162
4.4242593627725,316,317,1,-316.5,157.5,159
4.42705422023477,323,322,-1,-322.5,162,160.5
4.42984907769704,324,322,-2,-323,163,160
4.43264393515931,317,324,7,-320.5,155,165.5
4.43543879262158,311,325,14,-318,148.5,169.5
4.43823365008385,313,323,10,-318,151.5,166.5
4.44102850754611,321,325,4,-323,158.5,164.5
4.44382336500838,327,326,-1,-326.5,164,162.5
4.44661822247065,329,326,-3,-327.5,166,161.5
4.44941307993292,325,329,4,-327,160.5,166.5
4.45220793739519,316,325,9,-320.5,153.5,167
4.45500279485746,312,324,12,-318,150,168
4.45779765231973,317,318,1,-317.5,158,159.5
4.460592509782,321,318,-3,-319.5,162,157.5
4.46338736724427,323,320,-3,-321.5,163,158.5
4.46618222470654,322,318,-4,-320,163,157
4.46897708216881,311,318,7,-314.5,152,162.5
4.47177193963108,305,316,11,-310.5,147,163.5
4.47456679709335,308,313,5,-310.5,151.5,159
4.47736165455562,311,311,0,-311,155.5,155.5
4.48015651201789,313,310,-3,-311.5,158,153.5
4.48295136948016,313,307,-6,-310,159.5,150.5
4.48574622694243,303,306,3,-304.5,150,154.5
4.4885410844047,297,305,8,-301,144.5,156.5
4.49133594186696,297,305,8,-301,144.5,156.5
4.49413079932923,304,309,5,-306.5,149.5,157
4.4969256567915,308,306,-2,-307,155,152
4.49972051425377,311,307,-4,-309,157.5,151.5
4.50251537171604,307,309,2,-308,152.5,155.5
4.50531022917831,299,311,12,-305,143.5,161.5
4.50810508664058,293,305,12,-299,140.5,158.5
4.51089994410285,296,299,3,-297.5,146.5,151
4.51369480156512,302,297,-5,-299.5,153.5,146
4.51648965902739,306,300,-6,-303,156,147
4.51928451648966,304,300,-4,-302,154,148
4.52207937395193,297,300,3,-298.5,147,151.5
4.5248742314142,288,300,12,-294,138,156
4.52766908887647,292,301,9,-296.5,141.5,155
4.53046394633874,299,302,3,-300.5,148,152.5
4.53325880380101,303,299,-4,-301,153.5,147.5
4.53605366126328,305,302,-3,-303.5,154,149.5
4.53884851872554,298,298,0,-298,149,149
4.54164337618781,286,297,11,-291.5,137.5,154
4.54443823365008,286,297,11,-291.5,137.5,154
4.54723309111235,294,299,5,-296.5,144.5,152
4.55002794857462,298,299,1,-298.5,148.5,150
4.55282280603689,301,298,-3,-299.5,152,147.5
4.55561766349916,306,308,2,-307,152,155
4.55841252096143,311,330,19,-320.5,146,174.5
4.5612073784237,330,359,29,-344.5,150.5,194
4.56400223588597,365,396,31,-380.5,167,213.5
4.56679709334824,404,431,27,-417.5,188.5,229
4.56959195081051,437,466,29,-451.5,204,247.5
4.57238680827278,463,489,26,-476,218.5,257.5
4.57518166573505,467,492,25,-479.5,221,258.5
4.57797652319732,450,472,22,-461,214,247
4.58077138065959,431,440,9,-435.5,211,224.5
4.58356623812186,407,400,-7,-403.5,207,196.5
4.58636109558412,383,359,-24,-371,203.5,167.5
4.58915595304639,353,325,-28,-339,190.5,148.5
4.59195081050866,327,302,-25,-314.5,176,138.5
4.59474566797093,305,295,-10,-300,157.5,142.5
4.5975405254332,296,292,-4,-294,150,144
4.60033538289547,299,297,-2,-298,150.5,147.5
4.60313024035774,309,305,-4,-307,156.5,150.5
4.60592509782001,316,310,-6,-313,161,152
4.60871995528228,315,309,-6,-312,160.5,151.5
4.61151481274455,305,311,6,-308,149.5,158.5
4.61430967020682,296,306,10,-301,143,158
4.61710452766909,297,303,6,-300,145.5,154.5
4.61989938513136,302,305,3,-303.5,149.5,154
4.62269424259363,308,304,-4,-306,156,150
4.6254891000559,309,306,-3,-307.5,156,151.5
4.62828395751817,304,306,2,-305,151,154
4.63107881498044,296,309,13,-302.5,141.5,161
4.63387367244271,295,309,14,-302,140.5,161.5
4.63666852990497,301,308,7,-304.5,147,157.5
4.63946338736724,307,305,-2,-306,154.5,151.5
4.64225824482951,310,308,-2,-309,156,153
4.64505310229178,310,307,-3,-308.5,156.5,152
4.64784795975405,301,310,9,-305.5,146,159.5
4.65064281721632,295,306,11,-300.5,142,158.5
4.65343767467859,298,306,8,-302,145,157
4.65623253214086,306,307,1,-306.5,152.5,154
4.65902738960313,312,311,-1,-311.5,156.5,155
4.6618222470654,316,314,-2,-315,159,156
4.66461710452767,310,315,5,-312.5,152.5,160
4.66741196198994,300,312,12,-306,144,162
4.67020681945221,302,313,11,-307.5,145.5,162
4.67300167691448,308,313,5,-310.5,151.5,159
4.67579653437675,314,314,0,-314,157,157
4.67859139183902,317,314,-3,-315.5,160,155.5
4.68138624930129,314,316,2,-315,156,159
4.68418110676356,306,318,12,-312,147,165
4.68697596422582,303,318,15,-310.5,144,166.5
4.68977082168809,308,315,7,-311.5,150.5,161
4.69256567915036,317,320,3,-318.5,157,161.5
4.69536053661263,322,320,-2,-321,162,159
4.6981553940749,323,321,-2,-322,162.5,159.5
4.70095025153717,316,323,7,-319.5,154.5,165
4.70374510899944,309,321,12,-315,148.5,166.5
4.70653996646171,310,323,13,-316.5,148.5,168
4.70933482392398,318,324,6,-321,156,165
4.71212968138625,324,323,-1,-323.5,162.5,161
4.71492453884852,328,326,-2,-327,165,162
4.71771939631079,324,326,2,-325,161,164
4.72051425377306,313,324,11,-318.5,151,167.5
4.72330911123533,311,322,11,-316.5,150,166.5
4.7261039686976,320,325,5,-322.5,157.5,165
4.72889882615987,328,329,1,-328.5,163.5,165
4.73169368362213,331,330,-1,-330.5,166,164.5
4.7344885410844,333,330,-3,-331.5,168,163.5
4.73728339854667,326,333,7,-329.5,159.5,170
4.74007825600894,321,334,13,-327.5,154,173.5
4.74287311347121,326,337,11,-331.5,157.5,174
4.74566797093348,334,337,3,-335.5,165.5,170
4.74846282839575,337,333,-4,-335,170.5,164.5
4.75125768585802,338,336,-2,-337,170,167
4.75405254332029,332,339,7,-335.5,162.5,173
4.75684740078256,325,339,14,-332,155.5,176.5
4.75964225824483,328,342,14,-335,157,178
4.7624371157071,338,343,5,-340.5,166.5,174
4.76523197316937,348,348,0,-348,174,174
4.76802683063164,350,351,1,-350.5,174.5,176
4.77082168809391,347,349,2,-348,172.5,175.5
4.77361654555618,340,349,9,-344.5,165.5,179
4.77641140301845,336,352,16,-344,160,184
4.77920626048072,344,352,8,-348,168,180
4.78200111794298,352,352,0,-352,176,176
4.78479597540525,355,353,-2,-354,178.5,175.5
4.78759083286752,358,356,-2,-357,180,177
4.79038569032979,349,355,6,-352,171.5,180.5
4.79318054779206,341,355,14,-348,163.5,184.5
4.79597540525433,342,354,12,-348,165,183
4.7987702627166,350,354,4,-352,173,179
4.80156512017887,359,357,-2,-358,180.5,177.5
4.80435997764114,359,357,-2,-358,180.5,177.5
4.80715483510341,353,356,3,-354.5,175,179.5
4.80994969256568,342,353,11,-347.5,165.5,182
4.81274455002795,339,350,11,-344.5,164,180.5
4.81553940749022,344,348,4,-346,170,176
4.81833426495249,348,346,-2,-347,175,172
4.82112912241476,348,344,-4,-346,176,170
4.82392397987703,345,340,-5,-342.5,175,167.5
4.8267188373393,333,337,4,-335,164.5,170.5
4.82951369480157,323,331,8,-327,157.5,169.5
4.83230855226383,321,328,7,-324.5,157,167.5
4.8351034097261,327,324,-3,-325.5,165,160.5
4.83789826718837,328,322,-6,-325,167,158
4.84069312465064,325,321,-4,-323,164.5,158.5
4.84348798211291,318,320,2,-319,158,161
4.84628283957518,306,315,9,-310.5,148.5,162
4.84907769703745,303,312,9,-307.5,147,160.5
4.85187255449972,305,308,3,-306.5,151,155.5
4.85466741196199,312,306,-6,-309,159,150
4.85746226942426,310,302,-8,-306,159,147
4.86025712688653,306,302,-4,-304,155,149
4.8630519843488,295,302,7,-298.5,144,154.5
4.86584684181107,288,302,14,-295,137,158
4.86864169927334,291,297,6,-294,142.5,151.5
4.87143655673561,298,295,-3,-296.5,150.5,146
4.87423141419788,300,295,-5,-297.5,152.5,145
4.87702627166014,300,295,-5,-297.5,152.5,145
4.87982112912241,292,298,6,-295,143,152
4.88261598658468,285,299,14,-292,135.5,156.5
4.88541084404695,286,296,10,-291,138,153
4.88820570150922,295,296,1,-295.5,147,148.5
4.89100055897149,298,296,-2,-297,150,147
4.89379541643376,300,295,-5,-297.5,152.5,145
4.89659027389603,296,295,-1,-295.5,148.5,147
4.8993851313583,285,296,11,-290.5,137,153.5
4.90217998882057,282,296,14,-289,134,155
4.90497484628284,289,293,4,-291,142.5,148.5
4.90776970374511,294,296,2,-295,146,149
4.91056456120738,295,293,-2,-294,148.5,145.5
4.91335941866965,294,294,0,-294,147,147
4.91615427613192,287,296,9,-291.5,139,152.5
4.91894913359419,282,297,15,-289.5,133.5,156
4.92174399105646,287,298,11,-292.5,138,154.5
4.92453884851873,295,298,3,-296.5,146,150.5
4.92733370598099,300,297,-3,-298.5,151.5,147
4.93012856344326,300,297,-3,-298.5,151.5,147
4.93292342090553,293,295,2,-294,145.5,148.5
4.9357182783678,283,295,12,-289,135.5,153.5
4.93851313583007,286,296,10,-291,138,153
4.94130799329234,293,297,4,-295,144.5,150.5
4.94410285075461,301,301,0,-301,150.5,150.5
4.94689770821688,303,301,-2,-302,152.5,149.5
4.94969256567915,301,301,0,-301,150.5,150.5
4.95248742314142,291,300,9,-295.5,141,154.5
4.95528228060369,287,301,14,-294,136.5,157.5
4.95807713806596,293,299,6,-296,143.5,152.5
4.96087199552823,298,298,0,-298,149,149
4.9636668529905,302,298,-4,-300,153,147
4.96646171045277,303,299,-4,-301,153.5,147.5
4.96925656791504,293,297,4,-295,144.5,150.5
4.97205142537731,285,299,14,-292,135.5,156.5
4.97484628283958,288,301,13,-294.5,137.5,157
4.97764114030184,298,302,4,-300,147,153
4.98043599776411,302,303,1,-302.5,150.5,152
4.98323085522638,306,302,-4,-304,155,149
4.98602571268865,300,303,3,-301.5,148.5,153
4.98882057015092,291,303,12,-297,139.5,157.5
4.99161542761319,292,303,11,-297.5,140.5,157
4.99441028507546,296,303,7,-299.5,144.5,155
4.99720514253773,302,302,0,-302,151,151
5,305,304,-1,-304.5,153,151.5
5.00279485746227,305,303,-2,-304,153.5,150.5
5.00558971492454,296,303,7,-299.5,144.5,155
5.00838457238681,288,302,14,-295,137,158
5.01117942984908,294,303,9,-298.5,142.5,156
5.01397428731135,302,304,2,-303,150,153
5.01676914477362,308,307,-1,-307.5,154.5,153
5.01956400223589,309,307,-2,-308,155.5,152.5
5.02235885969815,307,309,2,-308,152.5,155.5
5.02515371716042,297,313,16,-305,140.5,164.5
5.02794857462269,298,310,12,-304,143,161
5.03074343208496,306,311,5,-308.5,150.5,158
5.03353828954723,309,311,2,-310,153.5,156.5
5.0363331470095,311,307,-4,-309,157.5,151.5
5.03912800447177,311,307,-4,-309,157.5,151.5
5.04192286193404,302,311,9,-306.5,146.5,160
5.04471771939631,297,309,12,-303,142.5,160.5
5.04751257685858,303,309,6,-306,148.5,157.5
5.05030743432085,312,314,2,-313,155,158
5.05310229178312,319,315,-4,-317,161.5,155.5
5.05589714924539,321,318,-3,-319.5,162,157.5
5.05869200670766,315,322,7,-318.5,154,164.5
5.06148686416993,309,323,14,-316,147.5,168.5
5.0642817216322,310,323,13,-316.5,148.5,168
5.06707657909447,317,320,3,-318.5,157,161.5
5.06987143655674,321,316,-5,-318.5,163,155.5
5.072666294019,322,319,-3,-320.5,162.5,158
5.07546115148127,318,319,1,-318.5,158.5,160
5.07825600894354,309,318,9,-313.5,150,163.5
5.08105086640581,303,316,13,-309.5,145,164.5
5.08384572386808,309,312,3,-310.5,153,157.5
5.08664058133035,314,313,-1,-313.5,157.5,156
5.08943543879262,318,314,-4,-316,161,155
5.09223029625489,318,316,-2,-317,160,157
5.09502515371716,308,314,6,-311,151,160
5.09782001117943,301,315,14,-308,143.5,164.5
5.1006148686417,304,314,10,-309,147,162
5.10340972610397,307,309,2,-308,152.5,155.5
5.10620458356624,310,307,-3,-308.5,156.5,152
5.10899944102851,306,301,-5,-303.5,155.5,148
5.11179429849078,298,299,1,-298.5,148.5,150
5.11458915595305,288,298,10,-293,139,154
5.11738401341532,286,298,12,-292,137,155
5.12017887087759,294,297,3,-295.5,145.5,150
5.12297372833985,301,299,-2,-300,151.5,148.5
5.12576858580212,304,300,-4,-302,154,148
5.12856344326439,299,297,-2,-298,150.5,147.5
5.13135830072666,289,298,9,-293.5,140,153.5
5.13415315818893,284,297,13,-290.5,135.5,155
5.1369480156512,287,294,7,-290.5,140,150.5
5.13974287311347,293,292,-1,-292.5,147,145.5
5.14253773057574,295,291,-4,-293,149.5,143.5
5.14533258803801,296,294,-2,-295,149,146
5.14812744550028,290,296,6,-293,142,151
5.15092230296255,284,297,13,-290.5,135.5,155
5.15371716042482,285,296,11,-290.5,137,153.5
5.15651201788709,292,297,5,-294.5,143.5,151
5.15930687534936,297,298,1,-297.5,148,149.5
5.16210173281163,298,294,-4,-296,151,145
5.1648965902739,291,292,1,-291.5,145,146.5
5.16769144773617,279,285,6,-282,136.5,145.5
5.17048630519843,276,285,9,-280.5,133.5,147
5.1732811626607,283,289,6,-286,138.5,147.5
5.17607602012297,291,292,1,-291.5,145,146.5
5.17887087758524,295,294,-1,-294.5,148,146.5
5.18166573504751,302,304,2,-303,150,153
5.18446059250978,306,323,17,-314.5,144.5,170
5.18725544997205,323,352,29,-337.5,147,190.5
5.19005030743432,352,385,33,-368.5,159.5,209
5.19284516489659,391,419,28,-405,181.5,223.5
5.19564002235886,428,454,26,-441,201,240
5.19843487982113,453,478,25,-465.5,214,251.5
5.2012297372834,459,483,24,-471,217.5,253.5
5.20402459474567,444,466,22,-455,211,244
5.20681945220794,423,433,10,-428,206.5,221.5
5.20961430967021,402,396,-6,-399,204,195
5.21240916713248,379,359,-20,-369,199.5,169.5
5.21520402459475,354,327,-27,-340.5,190.5,150
5.21799888205701,325,301,-24,-313,174.5,138.5
5.22079373951928,301,287,-14,-294,157.5,136.5
5.22358859698155,288,285,-3,-286.5,145.5,141
5.22638345444382,292,291,-1,-291.5,146.5,145
5.22917831190609,301,298,-3,-299.5,152,147.5
5.23197316936836,310,307,-3,-308.5,156.5,152
5.23476802683063,312,308,-4,-310,158,152
5.2375628842929,305,309,4,-307,150.5,156.5
5.24035774175517,291,303,12,-297,139.5,157.5
5.24315259921744,291,301,10,-296,140.5,155.5
5.24594745667971,294,294,0,-294,147,147
5.24874231414198,299,295,-4,-297,151.5,145.5
5.25153717160425,301,296,-5,-298.5,153,145.5
5.25433202906652,295,296,1,-295.5,147,148.5
5.25712688652879,287,296,9,-291.5,139,152.5
5.25992174399106,283,300,17,-291.5,133,158.5
5.26271660145333,293,300,7,-296.5,143,153.5
5.2655114589156,301,303,2,-302,149.5,152.5
5.26830631637786,303,302,-1,-302.5,152,150.5
5.27110117384013,301,299,-2,-300,151.5,148.5
5.2738960313024,295,298,3,-296.5,146,150.5
5.27669088876467,288,301,13,-294.5,137.5,157
5.27948574622694,290,303,13,-296.5,138.5,158
5.28228060368921,299,302,3,-300.5,148,152.5
5.28507546115148,306,303,-3,-304.5,154.5,150
5.28787031861375,307,304,-3,-305.5,155,150.5
5.29066517607602,302,304,2,-303,150,153
5.29346003353829,293,304,11,-298.5,141,157.5
5.29625489100056,290,304,14,-297,138,159
5.29904974846283,298,305,7,-301.5,145.5,156
5.3018446059251,308,308,0,-308,154,154
5.30463946338737,314,313,-1,-313.5,157.5,156
5.30743432084964,313,313,0,-313,156.5,156.5
5.31022917831191,303,313,10,-308,146.5,161.5
5.31302403577418,296,310,14,-303,141,162
5.31581889323644,300,309,9,-304.5,145.5,159
5.31861375069871,306,308,2,-307,152,155
5.32140860816098,312,311,-1,-311.5,156.5,155
5.32420346562325,316,313,-3,-314.5,159.5,155
5.32699832308552,309,312,3,-310.5,153,157.5
5.32979318054779,301,314,13,-307.5,144,163.5
5.33258803801006,304,316,12,-310,146,164
5.33538289547233,312,315,3,-313.5,154.5,159
5.3381777529346,317,317,0,-317,158.5,158.5
5.34097261039687,320,317,-3,-318.5,161.5,157
5.34376746785914,318,320,2,-319,158,161
5.34656232532141,309,323,14,-316,147.5,168.5
5.34935718278368,306,321,15,-313.5,145.5,168
5.35215204024595,314,323,9,-318.5,152.5,166
5.35494689770822,323,324,1,-323.5,161,162.5
5.35774175517049,327,323,-4,-325,165.5,159.5
5.36053661263276,327,323,-4,-325,165.5,159.5
5.36333147009502,322,328,6,-325,158,167
5.36612632755729,313,327,14,-320,149.5,170.5
5.36892118501956,317,327,10,-322,153.5,168.5
5.37171604248183,326,329,3,-327.5,161.5,166
5.3745108999441,333,332,-1,-332.5,167,165.5
5.37730575740637,335,332,-3,-333.5,169,164.5
5.38010061486864,330,335,5,-332.5,162.5,170
5.38289547233091,323,333,10,-328,156.5,171.5
5.38569032979318,321,335,14,-328,153.5,174.5
5.38848518725545,329,336,7,-332.5,161,171.5
5.39128004471772,336,338,2,-337,167,170
5.39407490217999,341,337,-4,-339,172.5,166.5
5.39686975964226,341,342,1,-341.5,170,171.5
5.39966461710453,333,343,10,-338,161.5,176.5
5.4024594745668,330,345,15,-337.5,157.5,180
5.40525433202907,335,346,11,-340.5,162,178.5
5.40804918949134,345,346,1,-345.5,172,173.5
5.41084404695361,351,349,-2,-350,176.5,173.5
5.41363890441587,353,352,-1,-352.5,177,175.5
5.41643376187814,345,353,8,-349,168.5,180.5
5.41922861934041,337,349,12,-343,162.5,180.5
5.42202347680268,338,352,14,-345,162,183
5.42481833426495,346,350,4,-348,171,177
5.42761319172722,352,351,-1,-351.5,176.5,175
5.43040804918949,351,351,0,-351,175.5,175.5
5.43320290665176,349,353,4,-351,172.5,178.5
5.43599776411403,341,348,7,-344.5,167,177.5
5.4387926215763,336,350,14,-343,161,182
5.44158747903857,341,347,6,-344,167.5,176.5
5.44438233650084,345,343,-2,-344,173.5,170.5
5.44717719396311,346,341,-5,-343.5,175.5,168
5.44997205142538,342,335,-7,-338.5,174.5,164
5.45276690888765,328,332,4,-330,162,168
5.45556176634992,317,327,10,-322,153.5,168.5
5.45835662381219,317,325,8,-321,154.5,166.5
5.46115148127446,323,324,1,-323.5,161,162.5
5.46394633873672,328,319,-9,-323.5,168.5,155
5.46674119619899,325,318,-7,-321.5,166,155.5
5.46953605366126,316,316,0,-316,158,158
5.47233091112353,305,313,8,-309,148.5,160.5
5.4751257685858,297,306,9,-301.5,144,157.5
5.47792062604807,302,303,1,-302.5,150.5,152
5.48071548351034,306,301,-5,-303.5,155.5,148
5.48351034097261,307,301,-6,-304,156.5,147.5
5.48630519843488,303,300,-3,-301.5,153,148.5
5.48910005589715,293,303,10,-298,141.5,156.5
5.49189491335942,289,302,13,-295.5,138,157.5
5.49468977082169,291,298,7,-294.5,142,152.5
5.49748462828396,297,296,-1,-296.5,149,147.5
5.50027948574623,300,296,-4,-298,152,146
5.5030743432085,301,296,-5,-298.5,153,145.5
5.50586920067077,292,295,3,-293.5,144.5,149
5.50866405813303,282,292,10,-287,136,151
5.5114589155953,281,293,12,-287,134.5,152.5
5.51425377305757,290,292,2,-291,144,147
5.51704863051984,293,290,-3,-291.5,148,143.5
5.51984348798211,295,289,-6,-292,150.5,141.5
5.52263834544438,292,291,-1,-291.5,146.5,145
5.52543320290665,285,293,8,-289,138.5,150.5
5.52822806036892,281,293,12,-287,134.5,152.5
5.53102291783119,284,293,9,-288.5,137.5,151
5.53381777529346,293,293,0,-293,146.5,146.5
5.53661263275573,296,293,-3,-294.5,149.5,145
5.539407490218,298,297,-1,-297.5,149.5,148
5.54220234768027,290,295,5,-292.5,142.5,150
5.54499720514254,281,295,14,-288,133.5,154.5
5.54779206260481,284,295,11,-289.5,136.5,153
5.55058692006708,292,294,2,-293,145,148
5.55338177752935,295,292,-3,-293.5,149,144.5
5.55617663499162,299,296,-3,-297.5,151,146.5
5.55897149245388,294,295,1,-294.5,146.5,148
5.56176634991615,284,296,12,-290,136,154
5.56456120737842,281,294,13,-287.5,134,153.5
5.56735606484069,289,296,7,-292.5,141,151.5
5.57015092230296,298,299,1,-298.5,148.5,150
5.57294577976523,303,299,-4,-301,153.5,147.5
5.5757406372275,299,297,-2,-298,150.5,147.5
5.57853549468977,290,296,6,-293,142,151
5.58133035215204,283,295,12,-289,135.5,153.5
5.58412520961431,288,299,11,-293.5,138.5,155
5.58692006707658,299,298,-1,-298.5,150,148.5
5.58971492453885,304,301,-3,-302.5,153.5,149
5.59250978200112,303,301,-2,-302,152.5,149.5
5.59530463946339,296,303,7,-299.5,144.5,155
5.59809949692566,286,298,12,-292,137,155
5.60089435438793,285,297,12,-291,136.5,154.5
5.6036892118502,294,298,4,-296,145,151
5.60648406931247,303,297,-6,-300,154.5,145.5
5.60927892677473,304,302,-2,-303,153,150
5.612073784237,300,301,1,-300.5,149.5,151
5.61486864169927,292,302,10,-297,141,156
5.61766349916154,286,301,15,-293.5,135.5,158
5.62045835662381,292,299,7,-295.5,142.5,153
5.62325321408608,299,297,-2,-298,150.5,147.5
5.62604807154835,302,298,-4,-300,153,147
5.62884292901062,302,300,-2,-301,152,149
5.63163778647289,293,300,7,-296.5,143,153.5
5.63443264393516,286,301,15,-293.5,135.5,158
5.63722750139743,289,300,11,-294.5,139,155.5
5.6400223588597,298,299,1,-298.5,148.5,150
5.64281721632197,304,301,-3,-302.5,153.5,149
5.64561207378424,304,301,-3,-302.5,153.5,149
5.64840693124651,301,303,2,-302,149.5,152.5
5.65120178870878,291,305,14,-298,138.5,159.5
5.65399664617104,289,302,13,-295.5,138,157.5
5.65679150363331,296,302,6,-299,145,154
5.65958636109558,304,302,-2,-303,153,150
5.66238121855785,308,306,-2,-307,155,152
5.66517607602012,308,309,1,-308.5,153.5,155
5.66797093348239,297,304,7,-300.5,145,155.5
5.67076579094466,290,303,13,-296.5,138.5,158
5.67356064840693,296,302,6,-299,145,154
5.6763555058692,306,305,-1,-305.5,153.5,152
5.67915036333147,309,306,-3,-307.5,156,151.5
5.68194522079374,311,306,-5,-308.5,158,150.5
5.68474007825601,306,312,6,-309,150,159
5.68753493571828,297,311,14,-304,141.5,162.5
5.69032979318055,299,312,13,-305.5,143,162.5
5.69312465064282,310,314,4,-312,153,159
5.69591950810509,314,314,0,-314,157,157
5.69871436556736,317,313,-4,-315,160.5,154.5
5.70150922302963,314,312,-2,-313,158,155
5.70430408049189,305,317,12,-311,146.5,164.5
5.70709893795416,305,318,13,-311.5,146,165.5
5.70989379541643,310,320,10,-315,150,165
5.7126886528787,320,322,2,-321,159,162
5.71548351034097,324,324,0,-324,162,162
5.71827836780324,325,324,-1,-324.5,163,161.5
5.72107322526551,314,324,10,-319,152,167
5.72386808272778,309,320,11,-314.5,149,165.5
5.72666294019005,309,319,10,-314,149.5,164.5
5.72945779765232,316,318,2,-317,157,160
5.73225265511459,321,318,-3,-319.5,162,157.5
5.73504751257686,321,318,-3,-319.5,162,157.5
5.73784237003913,318,316,-2,-317,160,157
5.7406372275014,307,315,8,-311,149.5,161.5
5.74343208496367,304,315,11,-309.5,146.5,163
5.74622694242594,311,315,4,-313,153.5,159.5
5.74902179988821,315,312,-3,-313.5,159,154.5
5.75181665735048,316,312,-4,-314,160,154
5.75461151481274,313,309,-4,-311,158.5,152.5
5.75740637227501,300,305,5,-302.5,147.5,155
5.76020122973728,293,305,12,-299,140.5,158.5
5.76299608719955,295,301,6,-298,144.5,153.5
5.76579094466182,302,301,-1,-301.5,151.5,150
5.76858580212409,306,301,-5,-303.5,155.5,148
5.77138065958636,306,303,-3,-304.5,154.5,150
5.77417551704863,298,301,3,-299.5,147.5,152
5.7769703745109,289,301,12,-295,138.5,156.5
5.77976523197317,288,298,10,-293,139,154
5.78256008943544,294,295,1,-294.5,146.5,148
5.78535494689771,299,294,-5,-296.5,152,144.5
5.78814980435998,299,298,-1,-298.5,150,148.5
5.79094466182225,298,298,0,-298,149,149
5.79373951928452,290,298,8,-294,141,153
5.79653437674679,287,295,8,-291,139.5,151.5
5.79932923420905,292,298,6,-295,143,152
5.80212409167132,299,299,0,-299,149.5,149.5
5.80491894913359,303,300,-3,-301.5,153,148.5
5.80771380659586,302,300,-2,-301,152,149
5.81050866405813,293,299,6,-296,143.5,152.5
5.8133035215204,284,296,12,-290,136,154
5.81609837898267,282,290,8,-286,137,149
5.81889323644494,285,285,0,-285,142.5,142.5
5.82168809390721,290,288,-2,-289,146,143
5.82448295136948,294,292,-2,-293,148,145
5.82727780883175,292,294,2,-293,145,148
5.83007266629402,283,294,11,-288.5,136,152.5
5.83286752375629,283,295,12,-289,135.5,153.5
5.83566238121856,297,305,8,-301,144.5,156.5
5.83845723868083,317,327,10,-322,153.5,168.5
5.8412520961431,341,353,12,-347,164.5,182.5
5.84404695360537,367,387,20,-377,173.5,203.5
5.84684181106764,388,419,31,-403.5,178.5,225
5.8496366685299,412,452,40,-432,186,246
5.85243152599217,438,472,34,-455,202,253
5.85522638345444,458,480,22,-469,218,251
5.85802124091671,456,465,9,-460.5,223.5,237
5.86081609837898,440,436,-4,-438,222,216
5.86361095584125,406,397,-9,-401.5,207.5,194
5.86640581330352,366,361,-5,-363.5,185.5,178
5.86920067076579,338,328,-10,-333,174,159
5.87199552822806,322,301,-21,-311.5,171.5,140
5.87479038569033,312,288,-24,-300,168,132
5.8775852431526,306,285,-21,-295.5,163.5,132
5.88038010061487,302,288,-14,-295,158,137
5.88317495807714,296,298,2,-297,147,150
5.88596981553941,296,305,9,-300.5,143.5,157
5.88876467300168,303,310,7,-306.5,148,158.5
5.89155953046395,310,310,0,-310,155,155
5.89435438792622,312,307,-5,-309.5,158.5,151
5.89714924538849,308,304,-4,-306,156,150
5.89994410285075,298,303,5,-300.5,146.5,154
5.90273896031302,289,302,13,-295.5,138,157.5
5.90553381777529,291,301,10,-296,140.5,155.5
5.90832867523756,299,303,4,-301,147.5,153.5
5.91112353269983,307,301,-6,-304,156.5,147.5
5.9139183901621,310,304,-6,-307,158,149
5.91671324762437,304,305,1,-304.5,151.5,153
5.91950810508664,294,307,13,-300.5,140.5,160
5.92230296254891,293,305,12,-299,140.5,158.5
5.92509782001118,300,305,5,-302.5,147.5,155
5.92789267747345,306,308,2,-307,152,155
5.93068753493572,312,308,-4,-310,158,152
5.93348239239799,310,309,-1,-309.5,155.5,154
5.93627724986026,301,307,6,-304,147.5,156.5
5.93907210732253,296,311,15,-303.5,140.5,163
5.9418669647848,303,310,7,-306.5,148,158.5
5.94466182224707,309,311,2,-310,153.5,156.5
5.94745667970933,311,307,-4,-309,157.5,151.5
5.9502515371716,313,310,-3,-311.5,158,153.5
5.95304639463387,309,311,2,-310,153.5,156.5
5.95584125209614,299,313,14,-306,142.5,163.5
5.95863610955841,301,313,12,-307,144.5,162.5
5.96143096702068,307,312,5,-309.5,151,158.5
5.96422582448295,314,316,2,-315,156,159
5.96702068194522,319,318,-1,-318.5,160,158.5
5.96981553940749,316,319,3,-317.5,156.5,161
5.97261039686976,310,318,8,-314,151,163
5.97540525433203,303,319,16,-311,143.5,167.5
5.9782001117943,309,317,8,-313,150.5,162.5
5.98099496925657,318,320,2,-319,158,161
5.98378982671884,323,321,-2,-322,162.5,159.5
5.98658468418111,323,322,-1,-322.5,162,160.5
5.98937954164338,317,322,5,-319.5,156,163.5
5.99217439910565,311,325,14,-318,148.5,169.5
5.99496925656791,311,325,14,-318,148.5,169.5
5.99776411403018,320,324,4,-322,158,164
6.00055897149245,325,324,-1,-324.5,163,161.5
6.00335382895472,329,327,-2,-328,165.5,162.5
6.00614868641699,324,328,4,-326,160,166
6.00894354387926,316,324,8,-320,154,166
6.01173840134153,312,325,13,-318.5,149.5,169
6.0145332588038,321,327,6,-324,157.5,166.5
6.01732811626607,330,329,-1,-329.5,165.5,164
6.02012297372834,334,332,-2,-333,168,165
6.02291783119061,334,334,0,-334,167,167
6.02571268865288,326,334,8,-330,159,171
6.02850754611515,323,336,13,-329.5,155,174.5
6.03130240357742,327,339,12,-333,157.5,175.5
6.03409726103969,338,342,4,-340,167,173
6.03689211850196,343,345,2,-344,170.5,173.5
6.03968697596423,344,342,-2,-343,173,170
6.0424818334265,340,346,6,-343,167,176
6.04527669088876,332,346,14,-339,159,180
6.04807154835103,334,349,15,-341.5,159.5,182
6.0508664058133,341,348,7,-344.5,167,177.5
6.05366126327557,347,347,0,-347,173.5,173.5
6.05645612073784,351,348,-3,-349.5,177,172.5
6.05925097820011,349,350,1,-349.5,174,175.5
6.06204583566238,341,353,12,-347,164.5,182.5
6.06484069312465,339,355,16,-347,161.5,185.5
6.06763555058692,345,353,8,-349,168.5,180.5
6.07043040804919,354,354,0,-354,177,177
6.07322526551146,357,355,-2,-356,179.5,176.5
6.07602012297373,359,357,-2,-358,180.5,177.5
6.078814980436,353,360,7,-356.5,173,183.5
6.08160983789827,344,358,14,-351,165,186
6.08440469536054,345,354,9,-349.5,168,181.5
6.08719955282281,351,351,0,-351,175.5,175.5
6.08999441028508,355,351,-4,-353,179.5,173.5
6.09278926774734,358,356,-2,-357,180,177
6.09558412520961,353,354,1,-353.5,176,177.5
6.09837898267188,344,354,10,-349,167,182
6.10117384013415,338,351,13,-344.5,162.5,182
6.10396869759642,342,345,3,-343.5,169.5,174
6.10676355505869,343,339,-4,-341,173.5,167.5
6.10955841252096,343,338,-5,-340.5,174,166.5
6.11235326998323,341,335,-6,-338,173.5,164.5
6.1151481274455,327,331,4,-329,161.5,167.5
6.11794298490777,318,326,8,-322,155,167
6.12073784237004,319,323,4,-321,157.5,163.5
6.12353269983231,323,320,-3,-321.5,163,158.5
6.12632755729458,325,317,-8,-321,166.5,154.5
6.12912241475685,323,315,-8,-319,165.5,153.5
6.13191727221912,313,311,-2,-312,157.5,154.5
6.13471212968139,302,310,8,-306,147,159
6.13750698714366,300,309,9,-304.5,145.5,159
6.14030184460592,304,305,1,-304.5,151.5,153
6.14309670206819,309,306,-3,-307.5,156,151.5
6.14589155953046,308,304,-4,-306,156,150
6.14868641699273,305,303,-2,-304,153.5,150.5
6.151481274455,292,298,6,-295,143,152
6.15427613191727,287,299,12,-293,137.5,155.5
6.15707098937954,293,298,5,-295.5,144,151.5
6.15986584684181,297,296,-1,-296.5,149,147.5
6.16266070430408,299,296,-3,-297.5,151,146.5
6.16545556176635,298,296,-2,-297,150,147
6.16825041922862,290,296,6,-293,142,151
6.17104527669089,280,294,14,-287,133,154
6.17384013415316,285,296,11,-290.5,137,153.5
6.17663499161543,291,294,3,-292.5,144,148.5
6.1794298490777,299,295,-4,-297,151.5,145.5
6.18222470653997,301,297,-4,-299,152.5,146.5
6.18501956400224,297,297,0,-297,148.5,148.5
6.18781442146451,289,301,12,-295,138.5,156.5
6.19060927892677,287,299,12,-293,137.5,155.5
6.19340413638904,293,302,9,-297.5,142,155.5
6.19619899385131,300,300,0,-300,150,150
6.19899385131358,304,299,-5,-301.5,154.5,147
6.20178870877585,299,297,-2,-298,150.5,147.5
6.20458356623812,290,297,7,-293.5,141.5,152
6.20737842370039,282,298,16,-290,133,157
6.21017328116266,289,298,9,-293.5,140,153.5
6.21296813862493,298,300,2,-299,148,151
6.2157629960872,304,301,-3,-302.5,153.5,149
6.21855785354947,305,301,-4,-303,154.5,148.5
6.22135271101174,297,303,6,-300,145.5,154.5
6.22414756847401,288,301,13,-294.5,137.5,157
6.22694242593628,289,302,13,-295.5,138,157.5
6.22973728339855,297,301,4,-299,146.5,152.5
6.23253214086082,304,302,-2,-303,153,150
6.23532699832309,305,300,-5,-302.5,155,147.5
6.23812185578536,301,300,-1,-300.5,151,149.5
6.24091671324762,291,300,9,-295.5,141,154.5
6.24371157070989,288,301,13,-294.5,137.5,157
6.24650642817216,292,299,7,-295.5,142.5,153
6.24930128563443,301,300,-1,-300.5,151,149.5
6.2520961430967,306,303,-3,-304.5,154.5,150
6.25489100055897,308,306,-2,-307,155,152
6.25768585802124,299,304,5,-301.5,147,154.5
6.26048071548351,290,303,13,-296.5,138.5,158
6.26327557294578,293,303,10,-298,141.5,156.5
6.26607043040805,302,306,4,-304,149,155
6.26886528787032,306,305,-1,-305.5,153.5,152
6.27166014533259,307,304,-3,-305.5,155,150.5
6.27445500279486,302,300,-2,-301,152,149
6.27724986025713,291,299,8,-295,141.5,153.5
6.2800447177194,287,300,13,-293.5,137,156.5
6.28283957518167,294,298,4,-296,145,151
6.28563443264393,300,300,0,-300,150,150
6.2884292901062,305,302,-3,-303.5,154,149.5
6.29122414756847,307,306,-1,-306.5,154,152.5
6.29401900503074,299,306,7,-302.5,146,156.5
6.29681386249301,292,305,13,-298.5,139.5,159
6.29960871995528,294,302,8,-298,143,155
6.30240357741755,299,301,2,-300,148.5,151.5
6.30519843487982,305,300,-5,-302.5,155,147.5
6.30799329234209,304,300,-4,-302,154,148
6.31078814980436,297,299,2,-298,147.5,150.5
6.31358300726663,289,301,12,-295,138.5,156.5
6.3163778647289,288,299,11,-293.5,138.5,155
6.31917272219117,299,304,5,-301.5,147,154.5
6.32196757965344,305,304,-1,-304.5,153,151.5
6.32476243711571,309,307,-2,-308,155.5,152.5
6.32755729457798,308,309,1,-308.5,153.5,155
6.33035215204025,298,312,14,-305,142,163
6.33314700950252,294,310,16,-302,139,163
6.33594186696478,299,309,10,-304,144.5,159.5
6.33873672442705,307,308,1,-307.5,153,154.5
6.34153158188932,311,308,-3,-309.5,157,152.5
6.34432643935159,310,309,-1,-309.5,155.5,154
6.34712129681386,303,310,7,-306.5,148,158.5
6.34991615427613,298,311,13,-304.5,142.5,162
6.3527110117384,299,313,14,-306,142.5,163.5
6.35550586920067,310,313,3,-311.5,153.5,158
6.35830072666294,318,316,-2,-317,160,157
6.36109558412521,322,320,-2,-321,162,159
6.36389044158748,318,317,-1,-317.5,159.5,158
6.36668529904975,307,318,11,-312.5,148,164.5
6.36948015651202,303,320,17,-311.5,143,168.5
6.37227501397429,312,318,6,-315,153,162
6.37506987143656,318,317,-1,-317.5,159.5,158
6.37786472889883,320,321,1,-320.5,159.5,161
6.3806595863611,322,322,0,-322,161,161
6.38345444382337,314,325,11,-319.5,151.5,168
6.38624930128563,309,324,15,-316.5,147,169.5
6.3890441587479,311,322,11,-316.5,150,166.5
6.39183901621017,320,323,3,-321.5,158.5,163
6.39463387367244,323,322,-1,-322.5,162,160.5
6.39742873113471,325,321,-4,-323,164.5,158.5
6.40022358859698,320,323,3,-321.5,158.5,163
6.40301844605925,307,320,13,-313.5,147,166.5
6.40581330352152,308,320,12,-314,148,166
6.40860816098379,314,317,3,-315.5,155.5,160
6.41140301844606,317,315,-2,-316,159.5,156.5
6.41419787590833,318,313,-5,-315.5,161.5,154
6.4169927333706,312,309,-3,-310.5,157.5,153
6.41978759083287,300,305,5,-302.5,147.5,155
6.42258244829514,294,306,12,-300,141,159
6.42537730575741,298,305,7,-301.5,145.5,156
6.42817216321968,305,303,-2,-304,153.5,150.5
6.43096702068194,307,301,-6,-304,156.5,147.5
6.43376187814421,306,301,-5,-303.5,155.5,148
6.43655673560648,296,300,4,-298,146,152
6.43935159306875,288,298,10,-293,139,154
6.44214645053102,288,298,10,-293,139,154
6.44494130799329,293,296,3,-294.5,145,149.5
6.44773616545556,300,296,-4,-298,152,146
6.45053102291783,302,298,-4,-300,153,147
6.4533258803801,300,300,0,-300,150,150
6.45612073784237,290,301,11,-295.5,139.5,156
6.45891559530464,285,299,14,-292,135.5,156.5
6.46171045276691,291,296,5,-293.5,143,150.5
6.46450531022918,296,294,-2,-295,149,146
6.46730016769145,297,293,-4,-295,150.5,144.5
6.47009502515372,297,293,-4,-295,150.5,144.5
6.47288988261599,290,298,8,-294,141,153
6.47568474007826,283,296,13,-289.5,135,154.5
6.47847959754053,285,294,9,-289.5,138,151.5
6.48127445500279,291,290,-1,-290.5,146,144.5
6.48406931246506,294,289,-5,-291.5,149.5,142
6.48686416992733,294,290,-4,-292,149,143
6.4896590273896,288,289,1,-288.5,143.5,145
6.49245388485187,280,293,13,-286.5,133.5,153
6.49524874231414,279,293,14,-286,132.5,153.5
6.49804359977641,294,301,7,-297.5,143.5,154
6.50083845723868,313,322,9,-317.5,152,165.5
6.50363331470095,337,349,12,-343,162.5,180.5
6.50642817216322,363,383,20,-373,171.5,201.5
6.50922302962549,385,421,36,-403,174.5,228.5
6.51201788708776,410,452,42,-431,184,247
6.51481274455003,437,469,32,-453,202.5,250.5
6.5176076020123,452,470,18,-461,217,244
6.52040245947457,449,455,6,-452,221.5,230.5
6.52319731693684,431,427,-4,-429,217.5,211.5
6.52599217439911,396,389,-7,-392.5,201.5,191
6.52878703186138,359,352,-7,-355.5,183,172.5
6.53158188932364,330,317,-13,-323.5,171.5,152
6.53437674678591,314,294,-20,-304,167,137
6.53717160424818,306,284,-22,-295,164,131
6.53996646171045,303,285,-18,-294,160.5,133.5
6.54276131917272,300,293,-7,-296.5,153.5,143
6.54555617663499,292,298,6,-295,143,152
6.54835103409726,292,301,9,-296.5,141.5,155
6.55114589155953,298,304,6,-301,146,155
6.5539407490218,304,301,-3,-302.5,153.5,149
6.55673560648407,308,305,-3,-306.5,155.5,151
6.55953046394634,307,306,-1,-306.5,154,152.5
6.56232532140861,297,306,9,-301.5,144,157.5
6.56512017887088,290,303,13,-296.5,138.5,158
6.56791503633315,294,304,10,-299,142,157
6.57070989379542,301,301,0,-301,150.5,150.5
6.57350475125769,304,301,-3,-302.5,153.5,149
6.57629960871996,305,298,-7,-301.5,156,145.5
6.57909446618222,297,299,2,-298,147.5,150.5
6.58188932364449,289,299,10,-294,139.5,154.5
6.58468418110676,290,303,13,-296.5,138.5,158
6.58747903856903,298,304,6,-301,146,155
6.5902738960313,306,308,2,-307,152,155
6.59306875349357,313,308,-5,-310.5,159,151.5
6.59586361095584,309,307,-2,-308,155.5,152.5
6.59865846841811,297,306,9,-301.5,144,157.5
6.60145332588038,292,303,11,-297.5,140.5,157
6.60424818334265,295,303,8,-299,143.5,155.5
6.60704304080492,303,304,1,-303.5,151,152.5
6.60983789826719,309,305,-4,-307,156.5,150.5
6.61263275572946,309,307,-2,-308,155.5,152.5
6.61542761319173,303,310,7,-306.5,148,158.5
6.618222470654,296,311,15,-303.5,140.5,163
6.62101732811627,299,314,15,-306.5,142,164.5
6.62381218557854,309,311,2,-310,153.5,156.5
6.6266070430408,315,312,-3,-313.5,159,154.5
6.62940190050307,316,313,-3,-314.5,159.5,155
6.63219675796534,313,315,2,-314,155.5,158.5
6.63499161542761,304,314,10,-309,147,162
6.63778647288988,302,313,11,-307.5,145.5,162
6.64058133035215,307,312,5,-309.5,151,158.5
6.64337618781442,317,317,0,-317,158.5,158.5
6.64617104527669,321,320,-1,-320.5,161,159.5
6.64896590273896,324,324,0,-324,162,162
6.65176076020123,316,326,10,-321,153,168
6.6545556176635,308,322,14,-315,147,168
6.65735047512577,310,322,12,-316,149,167
6.66014533258804,318,319,1,-318.5,158.5,160
6.66294019005031,322,320,-2,-321,162,159
6.66573504751258,324,320,-4,-322,164,158
6.66852990497485,319,323,4,-321,157.5,163.5
6.67132476243712,313,326,13,-319.5,150,169.5
6.67411961989939,312,327,15,-319.5,148.5,171
6.67691447736165,320,323,3,-321.5,158.5,163
6.67970933482392,327,330,3,-328.5,162,166.5
6.68250419228619,331,331,0,-331,165.5,165.5
6.68529904974846,329,330,1,-329.5,164,165.5
6.68809390721073,322,330,8,-326,157,169
6.690888764673,318,330,12,-324,153,171
6.69368362213527,324,334,10,-329,157,172
6.69647847959754,330,332,2,-331,164,167
6.69927333705981,337,333,-4,-335,170.5,164.5
6.70206819452208,339,337,-2,-338,170.5,167.5
6.70486305198435,333,340,7,-336.5,163,173.5
6.70765790944662,329,340,11,-334.5,159,175.5
6.71045276690889,331,342,11,-336.5,160,176.5
6.71324762437116,339,344,5,-341.5,167,174.5
6.71604248183343,346,346,0,-346,173,173
6.7188373392957,349,344,-5,-346.5,177,169.5
6.72163219675797,344,345,1,-344.5,171.5,173
6.72442705422023,338,348,10,-343,164,179
6.7272219116825,334,350,16,-342,159,183
6.73001676914477,343,353,10,-348,166.5,181.5
6.73281162660704,353,353,0,-353,176.5,176.5
6.73560648406931,356,355,-1,-355.5,178.5,177
6.73840134153158,357,353,-4,-355,180.5,174.5
6.74119619899385,346,352,6,-349,170,179
6.74399105645612,340,354,14,-347,163,184
6.74678591391839,343,354,11,-348.5,166,182.5
6.74958077138066,351,356,5,-353.5,173,180.5
6.75237562884293,354,350,-4,-352,179,173
6.7551704863052,352,349,-3,-350.5,177.5,173
6.75796534376747,345,345,0,-345,172.5,172.5
6.76076020122974,333,342,9,-337.5,162,175.5
6.76355505869201,331,344,13,-337.5,159,178.5
6.76634991615428,339,341,2,-340,168.5,171.5
6.76914477361655,343,337,-6,-340,174.5,165.5
6.77193963107881,341,337,-4,-339,172.5,166.5
6.77473448854108,334,330,-4,-332,169,163
6.77752934600335,321,324,3,-322.5,159,163.5
6.78032420346562,311,317,6,-314,152.5,161.5
6.78311906092789,311,312,1,-311.5,155,156.5
6.78591391839016,315,309,-6,-312,160.5,151.5
6.78870877585243,317,308,-9,-312.5,163,149.5
6.7915036333147,315,308,-7,-311.5,161,150.5
6.79429849077697,306,308,2,-307,152,155
6.79709334823924,297,306,9,-301.5,144,157.5
6.79988820570151,295,303,8,-299,143.5,155.5
6.80268306316378,300,302,2,-301,149,152
6.80547792062605,304,298,-6,-301,155,146
6.80827277808832,300,297,-3,-298.5,151.5,147
6.81106763555059,294,294,0,-294,147,147
6.81386249301286,284,293,9,-288.5,137.5,151
6.81665735047513,281,293,12,-287,134.5,152.5
6.8194522079374,287,293,6,-290,140.5,149.5
6.82224706539966,297,292,-5,-294.5,151,143.5
6.82504192286193,298,296,-2,-297,150,147
6.8278367803242,298,294,-4,-296,151,145
6.83063163778647,287,294,7,-290.5,140,150.5
6.83342649524874,279,292,13,-285.5,133,152.5
6.83622135271101,282,290,8,-286,137,149
6.83901621017328,292,291,-1,-291.5,146.5,145
6.84181106763555,297,293,-4,-295,150.5,144.5
6.84460592509782,299,293,-6,-296,152.5,143.5
6.84740078256009,294,293,-1,-293.5,147.5,146
6.85019564002236,284,295,11,-289.5,136.5,153
6.85299049748463,282,293,11,-287.5,135.5,152
6.8557853549469,287,291,4,-289,141.5,147.5
6.85858021240917,291,289,-2,-290,146.5,143.5
6.86137506987144,294,292,-2,-293,148,145
6.86416992733371,294,294,0,-294,147,147
6.86696478479598,287,297,10,-292,138.5,153.5
6.86975964225824,282,297,15,-289.5,133.5,156
6.87255449972051,289,301,12,-295,138.5,156.5
6.87534935718278,297,299,2,-298,147.5,150.5
6.87814421464505,301,298,-3,-299.5,152,147.5
6.88093907210732,300,298,-2,-299,151,148
6.88373392956959,292,298,6,-295,143,152
6.88652878703186,285,295,10,-290,137.5,152.5
6.88932364449413,285,293,8,-289,138.5,150.5
6.8921185019564,292,294,2,-293,145,148
6.89491335941867,297,294,-3,-295.5,150,145.5
6.89770821688094,298,295,-3,-296.5,150.5,146
6.90050307434321,295,299,4,-297,145.5,151.5
6.90329793180548,290,302,12,-296,139,157
6.90609278926775,287,301,14,-294,136.5,157.5
6.90888764673002,293,298,5,-295.5,144,151.5
6.91168250419229,297,298,1,-297.5,148,149.5
6.91447736165455,301,297,-4,-299,152.5,146.5
6.91727221911682,300,300,0,-300,150,150
6.92006707657909,291,300,9,-295.5,141,154.5
6.92286193404136,286,297,11,-291.5,137.5,154
6.92565679150363,288,297,9,-292.5,139.5,153
6.9284516489659,294,297,3,-295.5,145.5,150
6.93124650642817,299,296,-3,-297.5,151,146.5
6.93404136389044,299,297,-2,-298,150.5,147.5
6.93683622135271,294,298,4,-296,145,151
6.93963107881498,285,298,13,-291.5,136,155.5
6.94242593627725,286,299,13,-292.5,136.5,156
6.94522079373952,294,298,4,-296,145,151
6.94801565120179,301,300,-1,-300.5,151,149.5
6.95081050866406,307,304,-3,-305.5,155,150.5
6.95360536612633,303,303,0,-303,151.5,151.5
6.9564002235886,294,302,8,-298,143,155
6.95919508105087,286,299,13,-292.5,136.5,156
6.96198993851314,289,295,6,-292,141.5,150.5
6.96478479597541,294,294,0,-294,147,147
6.96757965343767,299,292,-7,-295.5,153,142.5
6.97037451089994,299,295,-4,-297,151.5,145.5
6.97316936836221,293,295,2,-294,145.5,148.5
6.97596422582448,285,295,10,-290,137.5,152.5
6.97875908328675,287,297,10,-292,138.5,153.5
6.98155394074902,297,300,3,-298.5,147,151.5
6.98434879821129,304,300,-4,-302,154,148
6.98714365567356,306,301,-5,-303.5,155.5,148
6.98993851313583,301,299,-2,-300,151.5,148.5
6.9927333705981,290,300,10,-295,140,155
6.99552822806037,288,300,12,-294,138,156
6.99832308552264,295,300,5,-297.5,145,152.5
7.00111794298491,302,304,2,-303,150,153
7.00391280044718,307,302,-5,-304.5,156,148.5
7.00670765790945,306,306,0,-306,153,153
7.00950251537172,300,307,7,-303.5,146.5,157
7.01229737283399,292,306,14,-299,139,160
7.01509223029626,295,307,12,-301,141.5,159.5
7.01788708775852,305,309,4,-307,150.5,156.5
7.02068194522079,309,310,1,-309.5,154,155.5
7.02347680268306,314,313,-1,-313.5,157.5,156
7.02627166014533,310,313,3,-311.5,153.5,158
7.0290665176076,300,314,14,-307,143,164
7.03186137506987,300,311,11,-305.5,144.5,161
7.03465623253214,307,310,3,-308.5,152,156.5
7.03745108999441,311,310,-1,-310.5,156,154.5
7.04024594745668,319,316,-3,-317.5,161,156.5
7.04304080491895,317,316,-1,-316.5,159,157.5
7.04583566238122,310,317,7,-313.5,151.5,162
7.04863051984349,305,321,16,-313,144.5,168.5
7.05142537730576,311,320,9,-315.5,151,164.5
7.05422023476803,318,321,3,-319.5,157.5,162
7.0570150922303,323,321,-2,-322,162.5,159.5
7.05980994969257,321,316,-5,-318.5,163,155.5
7.06260480715483,311,315,4,-313,153.5,159.5
7.0653996646171,303,316,13,-309.5,145,164.5
7.06819452207937,303,316,13,-309.5,145,164.5
7.07098937954164,312,316,4,-314,154,160
7.07378423700391,315,315,0,-315,157.5,157.5
7.07657909446618,316,313,-3,-314.5,159.5,155
7.07937395192845,309,309,0,-309,154.5,154.5
7.08216880939072,297,306,9,-301.5,144,157.5
7.08496366685299,291,301,10,-296,140.5,155.5
7.08775852431526,297,299,2,-298,147.5,150.5
7.09055338177753,300,300,0,-300,150,150
7.0933482392398,303,300,-3,-301.5,153,148.5
7.09614309670207,301,298,-3,-299.5,152,147.5
7.09893795416434,293,297,4,-295,144.5,150.5
7.10173281162661,283,299,16,-291,133.5,157.5
7.10452766908888,289,300,11,-294.5,139,155.5
7.10732252655115,298,300,2,-299,148,151
7.11011738401342,303,301,-2,-302,152.5,149.5
7.11291224147568,303,297,-6,-300,154.5,145.5
7.11570709893795,297,299,2,-298,147.5,150.5
7.11850195640022,287,299,12,-293,137.5,155.5
7.12129681386249,285,296,11,-290.5,137,153.5
7.12409167132476,294,296,2,-295,146,149
7.12688652878703,301,301,0,-301,150.5,150.5
7.1296813862493,306,303,-3,-304.5,154.5,150
7.13247624371157,303,300,-3,-301.5,153,148.5
7.13527110117384,291,297,6,-294,142.5,151.5
7.13806595863611,281,296,15,-288.5,133,155.5
7.14086081609838,284,291,7,-287.5,138.5,149
7.14365567356065,290,290,0,-290,145,145
7.14645053102292,294,289,-5,-291.5,149.5,142
7.14924538848519,296,290,-6,-293,151,142
7.15204024594746,287,289,2,-288,142.5,145.5
7.15483510340973,278,290,12,-284,133,151
7.157629960872,278,289,11,-283.5,133.5,150
7.16042481833427,287,291,4,-289,141.5,147.5
7.16321967579653,299,303,4,-301,147.5,153.5
7.1660145332588,319,326,7,-322.5,156,166.5
7.16880939072107,338,354,16,-346,161,185
7.17160424818334,356,387,31,-371.5,162.5,209
7.17439910564561,381,419,38,-400,171.5,228.5
7.17719396310788,414,449,35,-431.5,189.5,242
7.17998882057015,443,472,29,-457.5,207,250.5
7.18278367803242,458,474,16,-466,221,245
7.18557853549469,454,458,4,-456,225,231
7.18837339295696,426,428,2,-427,212,215
7.19116825041923,391,392,1,-391.5,195,196.5
7.1939631078815,365,356,-9,-360.5,187,173.5
7.19675796534377,343,323,-20,-333,181.5,151.5
7.19955282280604,324,296,-28,-310,176,134
7.20234768026831,311,284,-27,-297.5,169,128.5
7.20514253773058,298,284,-14,-291,156,135
7.20793739519284,287,289,2,-288,142.5,145.5
7.21073225265511,288,296,8,-292,140,152
7.21352711011738,300,304,4,-302,148,154
7.21632196757965,309,307,-2,-308,155.5,152.5
7.21911682504192,310,305,-5,-307.5,157.5,150
7.22191168250419,305,305,0,-305,152.5,152.5
7.22470653996646,295,301,6,-298,144.5,153.5
7.22750139742873,286,300,14,-293,136,157
7.230296254891,290,300,10,-295,140,155
7.23309111235327,298,300,2,-299,148,151
7.23588596981554,303,301,-2,-302,152.5,149.5
7.23868082727781,306,301,-5,-303.5,155.5,148
7.24147568474008,299,304,5,-301.5,147,154.5
7.24427054220235,290,303,13,-296.5,138.5,158
7.24706539966462,293,305,12,-299,140.5,158.5
7.24986025712689,301,306,5,-303.5,148,155.5
7.25265511458916,307,307,0,-307,153.5,153.5
7.25544997205142,306,302,-4,-304,155,149
7.25824482951369,304,305,1,-304.5,151.5,153
7.26103968697596,294,304,10,-299,142,157
7.26383454443823,289,303,14,-296,137.5,158.5
7.2666294019005,297,303,6,-300,145.5,154.5
7.26942425936277,305,304,-1,-304.5,153,151.5
7.27221911682504,309,306,-3,-307.5,156,151.5
7.27501397428731,309,306,-3,-307.5,156,151.5
7.27780883174958,302,308,6,-305,148,157
7.28060368921185,296,312,16,-304,140,164
7.28339854667412,300,311,11,-305.5,144.5,161
7.28619340413639,306,309,3,-307.5,151.5,156
7.28898826159866,311,311,0,-311,155.5,155.5
7.29178311906093,313,307,-6,-310,159.5,150.5
7.2945779765232,308,312,4,-310,152,158
7.29737283398547,301,312,11,-306.5,145,161.5
7.30016769144774,301,315,14,-308,143.5,164.5
7.30296254891001,307,313,6,-310,150.5,159.5
7.30575740637228,315,314,-1,-314.5,158,156.5
7.30855226383454,318,316,-2,-317,160,157
7.31134712129681,317,317,0,-317,158.5,158.5
7.31414197875908,309,317,8,-313,150.5,162.5
7.31693683622135,303,318,15,-310.5,144,166.5
7.31973169368362,310,323,13,-316.5,148.5,168
7.32252655114589,320,324,4,-322,158,164
7.32532140860816,324,323,-1,-323.5,162.5,161
7.32811626607043,325,321,-4,-323,164.5,158.5
7.3309111235327,318,323,5,-320.5,156.5,164
7.33370598099497,310,323,13,-316.5,148.5,168
7.33650083845724,310,321,11,-315.5,149.5,166
7.33929569591951,319,320,1,-319.5,159,160.5
7.34209055338178,326,326,0,-326,163,163
7.34488541084405,331,329,-2,-330,166.5,163.5
7.34768026830632,330,334,4,-332,163,169
7.35047512576859,322,333,11,-327.5,155.5,172
7.35326998323086,317,330,13,-323.5,152,171.5
7.35606484069312,322,329,7,-325.5,157.5,168
7.35885969815539,330,332,2,-331,164,167
7.36165455561766,335,334,-1,-334.5,168,166.5
7.36444941307993,337,338,1,-337.5,168,169.5
7.3672442705422,331,342,11,-336.5,160,176.5
7.37003912800447,328,344,16,-336,156,180
7.37283398546674,332,344,12,-338,160,178
7.37562884292901,340,343,3,-341.5,168.5,173
7.37842370039128,346,345,-1,-345.5,173.5,172
7.38121855785355,347,349,2,-348,172.5,175.5
7.38401341531582,346,349,3,-347.5,171.5,176
7.38680827277809,341,355,14,-348,163.5,184.5
7.38960313024036,340,354,14,-347,163,184
7.39239798770263,347,354,7,-350.5,170,180.5
7.3951928451649,352,352,0,-352,176,176
7.39798770262717,354,351,-3,-352.5,178.5,174
7.40078256008943,353,354,1,-353.5,176,177.5
7.4035774175517,345,355,10,-350,167.5,182.5
7.40637227501397,337,352,15,-344.5,161,183.5
7.40916713247624,339,350,11,-344.5,164,180.5
7.41196198993851,347,345,-2,-346,174.5,171.5
7.41475684740078,353,352,-1,-352.5,177,175.5
7.41755170486305,357,355,-2,-356,179.5,176.5
7.42034656232532,348,352,4,-350,172,178
7.42314141978759,339,352,13,-345.5,163,182.5
7.42593627724986,337,349,12,-343,162.5,180.5
7.42873113471213,342,343,1,-342.5,170.5,172
7.4315259921744,345,345,0,-345,172.5,172.5
7.43432084963667,348,346,-2,-347,175,172
7.43711570709894,340,339,-1,-339.5,170.5,169
7.43991056456121,327,333,6,-330,160.5,169.5
7.44270542202348,315,327,12,-321,151.5,169.5
7.44550027948575,318,320,2,-319,158,161
7.44829513694802,322,317,-5,-319.5,163.5,156
7.45108999441028,322,315,-7,-318.5,164.5,154
7.45388485187255,319,312,-7,-315.5,163,152.5
7.45667970933482,308,313,5,-310.5,151.5,159
7.45947456679709,298,310,12,-304,143,161
7.46226942425936,300,309,9,-304.5,145.5,159
7.46506428172163,307,304,-3,-305.5,155,150.5
7.4678591391839,310,308,-2,-309,156,153
7.47065399664617,312,307,-5,-309.5,158.5,151
7.47344885410844,305,306,1,-305.5,152,153.5
7.47624371157071,293,303,10,-298,141.5,156.5
7.47903856903298,291,301,10,-296,140.5,155.5
7.48183342649525,296,300,4,-298,146,152
7.48462828395752,304,302,-2,-303,153,150
7.48742314141979,304,302,-2,-303,153,150
7.49021799888206,300,298,-2,-299,151,148
7.49301285634433,288,293,5,-290.5,141.5,149
7.4958077138066,280,293,13,-286.5,133.5,153
7.49860257126887,288,298,10,-293,139,154
7.50139742873113,301,305,4,-303,148.5,154.5
7.5041922861934,308,308,0,-308,154,154
7.50698714365567,310,307,-3,-308.5,156.5,152
7.50978200111794,304,309,5,-306.5,149.5,157
7.51257685858021,291,303,12,-297,139.5,157.5
7.51537171604248,292,304,12,-298,140,158
7.51816657350475,299,302,3,-300.5,148,152.5
7.52096143096702,303,299,-4,-301,153.5,147.5
7.52375628842929,303,299,-4,-301,153.5,147.5
7.52655114589156,298,297,-1,-297.5,149.5,148
7.52934600335383,289,303,14,-296,137.5,158.5
7.5321408608161,291,308,17,-299.5,137,162.5
7.53493571827837,303,309,6,-306,148.5,157.5
7.53773057574064,313,313,0,-313,156.5,156.5
7.54052543320291,317,314,-3,-315.5,160,155.5
7.54332029066518,316,313,-3,-314.5,159.5,155
7.54611514812744,308,316,8,-312,150,162
7.54891000558971,300,315,15,-307.5,142.5,165
7.55170486305198,302,312,10,-307,146,161
7.55449972051425,308,312,4,-310,152,158
7.55729457797652,317,315,-2,-316,159.5,156.5
7.56008943543879,321,320,-1,-320.5,161,159.5
7.56288429290106,318,323,5,-320.5,156.5,164
7.56567915036333,311,323,12,-317,149.5,167.5
7.5684740078256,308,321,13,-314.5,147.5,167
7.57126886528787,316,323,7,-319.5,154.5,165
7.57406372275014,320,320,0,-320,160,160
7.57685858021241,322,319,-3,-320.5,162.5,158
7.57965343767468,322,323,1,-322.5,160.5,162
7.58244829513695,316,326,10,-321,153,168
7.58524315259922,313,330,17,-321.5,148,173.5
7.58803801006149,321,331,10,-326,155.5,170.5
7.59083286752376,329,333,4,-331,162.5,168.5
7.59362772498603,335,334,-1,-334.5,168,166.5
7.59642258244829,334,333,-1,-333.5,167.5,166
7.59921743991056,326,330,4,-328,161,167
7.60201229737283,318,333,15,-325.5,151.5,174
7.6048071548351,316,329,13,-322.5,151.5,171
7.60760201229737,322,324,2,-323,160,163
7.61039686975964,329,330,1,-329.5,164,165.5
7.61319172722191,336,334,-2,-335,169,166
7.61598658468418,334,335,1,-334.5,166.5,168
7.61878144214645,326,338,12,-332,157,175
7.62157629960872,325,342,17,-333.5,154,179.5
7.62437115707099,338,348,10,-343,164,179
7.62716601453326,350,357,7,-353.5,171.5,182
7.62996087199553,353,354,1,-353.5,176,177.5
7.6327557294578,347,349,2,-348,172.5,175.5
7.63555058692007,337,343,6,-340,165.5,174.5
7.63834544438234,330,348,18,-339,156,183
7.64114030184461,339,353,14,-346,162.5,183.5
7.64393515930688,351,358,7,-354.5,172,182.5
7.64673001676914,362,363,1,-362.5,180.5,182
7.64952487423141,365,367,2,-366,181.5,184.5
7.65231973169368,363,370,7,-366.5,178,188.5
7.65511458915595,359,376,17,-367.5,171,196.5
7.65790944661822,355,374,19,-364.5,168,196.5
7.66070430408049,358,366,8,-362,175,187
7.66349916154276,363,365,2,-364,180.5,183.5
7.66629401900503,366,365,-1,-365.5,183.5,182
7.6690888764673,370,375,5,-372.5,182.5,190
7.67188373392957,369,383,14,-376,177.5,198.5
7.67467859139184,373,394,21,-383.5,176,207.5
7.67747344885411,385,398,13,-391.5,186,205.5
7.68026830631638,392,400,8,-396,192,204
7.68306316377865,396,398,2,-397,197,200
