-1.22
-2.90
-4.79
-7.39
-10.95
-15.38
-20.26
-24.70
-28.41
-32.07
-36.25
-40.98
-45.94
-50.26
-53.47
-56.29
-59.46
-63.19
-67.18
-70.63
-72.93
-74.62
-76.63
-79.24
-82.25
-84.94
-86.50
-87.25
-88.26
-89.93
-92.13
-94.26
-95.32
-95.44
-95.75
-96.75
-98.39
-100.11
-100.86
-100.62
-100.46
-100.95
-102.12
-103.45
-103.94
-103.42
-102.89
-103.01
-103.84
-104.94
-105.28
-104.60
-103.83
-103.68
-104.27
-105.21
-105.48
-104.72
-103.77
-103.44
-103.89
-104.72
-104.98
-104.20
-103.13
-102.63
-102.93
-103.66
-103.94
-103.18
-102.04
-101.44
-101.63
-102.29
-102.59
-101.86
-100.65
-99.95
-100.05
-100.68
-101.07
-100.42
-99.18
-98.38
-98.35
-98.93
-99.46
-98.96
-97.68
-96.73
-96.55
-97.06
-97.68
-97.35
-96.10
-95.02
-94.67
-95.06
-95.69
-95.52
-94.39
-93.25
-92.77
-93.05
-93.70
-93.74
-92.73
-91.50
-90.86
-91.02
-91.62
-91.80
-90.94
-89.65
-88.91
-88.97
-89.57
-89.96
-89.32
-88.02
-87.14
-87.07
-87.64
-88.20
-87.75
-86.47
-85.49
-85.30
-85.80
-86.46
-86.20
-85.00
-83.94
-83.60
-84.00
-84.67
-84.60
-83.54
-82.40
-81.90
-82.18
-82.86
-83.01
-82.11
-80.91
-80.28
-80.43
-81.08
-81.40
-80.69
-79.45
-78.69
-78.73
-79.34
-79.82
-79.27
-78.00
-77.10
-76.99
-77.58
-78.24
-77.93
-76.72
-75.76
-75.56
-76.05
-76.70
-76.50
-75.35
-74.26
-73.88
-74.28
-74.98
-75.02
-74.04
-72.89
-72.37
-72.64
-73.35
-73.57
-72.74
-71.53
-70.86
-70.98
-71.64
-72.01
-71.34
-70.10
-69.34
-69.37
-70.00
-70.56
-70.10
-68.86
-67.96
-67.86
-68.45
-69.16
-68.93
-67.78
-66.82
-66.61
-67.14
-67.89
-67.82
-66.78
-65.73
-65.37
-65.76
-66.48
-66.59
-65.67
-64.55
-64.05
-64.32
-65.03
-65.30
-64.54
-63.38
-62.75
-62.89
-63.59
-64.03
-63.43
-62.22
-61.44
-61.48
-62.13
-62.77
-62.39
-61.19
-60.30
-60.19
-60.78
-61.52
-61.33
-60.22
-59.24
-59.01
-59.51
-60.27
-60.26
-59.27
-58.24
-57.88
-58.29
-59.06
-59.27
-58.43
-57.33
-56.82
-57.11
-57.86
-58.23
-57.54
-56.37
-55.72
-55.88
-56.58
-57.12
-56.62
-55.45
-54.66
-54.68
-55.36
-56.09
-55.82
-54.69
-53.84
-53.78
-54.41
-55.18
-55.05
-54.00
-53.02
-52.78
-53.29
-54.10
-54.20
-53.29
-52.27
-51.90
-52.29
-53.08
-53.35
-52.57
-51.47
-50.94
-51.22
-51.99
-52.44
-51.84
-50.72
-50.08
-50.25
-50.98
-51.62
-51.24
-50.10
-49.34
-49.36
-50.05
-50.82
-50.62
-49.52
-48.66
-48.56
-49.17
-49.97
-49.95
-48.96
-48.00
-47.74
-48.23
-49.05
-49.22
-48.37
-47.32
-46.90
-47.25
-48.05
-48.38
-47.68
-46.59
-46.04
-46.28
-47.04
-47.56
-47.05
-45.94
-45.28
-45.40
-46.13
-46.82
-46.51
-45.40
-44.60
-44.58
-45.26
-46.08
-45.98
-44.95
-44.09
-43.96
-44.55
-45.40
-45.46
-44.53
-43.56
-43.26
-43.72
-44.56
-44.83
-44.06
-43.02
-42.59
-42.96
-43.78
-44.19
-43.58
-42.50
-41.94
-42.17
-42.97
-43.61
-43.21
-42.14
-41.46
-41.58
-42.34
-43.14
-42.95
-41.88
Sampling Rate: 373.00 Hz
-41.25
-41.40
-42.16
-42.88
-42.59
-41.48
-40.68
-40.66
-41.33
-42.15
-42.05
-41.02
-40.13
-39.98
-40.57
-41.44
-41.55
-40.65
-39.70
-39.41
-39.88
-40.71
-40.97
-40.20
-39.18
-38.74
-39.08
-39.89
-40.33
-39.76
-38.71
-38.16
-38.41
-39.21
-39.83
-39.43
-38.34
-37.65
-37.74
-38.48
-39.27
-39.07
-37.99
-37.19
-37.16
-37.84
-38.70
-38.68
-37.70
-36.80
-36.62
-37.19
-38.04
-38.21
-37.36
-36.40
-36.10
-36.57
-37.45
-37.80
-37.13
-36.11
-35.65
-35.99
-36.82
-37.32
-36.79
-35.72
-35.13
-35.36
-36.16
-36.86
-36.54
-35.45
-34.74
-34.81
-35.58
-36.45
-36.36
-35.36
-34.58
-34.54
-35.21
-36.09
-36.13
-35.22
-34.34
-34.14
-34.69
-35.56
-35.78
-34.97
-33.99
-33.64
-34.07
-34.93
-35.32
-34.65
-33.61
-33.11
-33.41
-34.22
-34.77
-34.29
-33.23
-32.61
-32.79
-33.59
-34.34
-34.07
-32.98
-32.22
-32.26
-32.99
-33.84
-33.75
-32.75
-31.92
-31.84
-32.51
-33.40
-33.52
-32.64
-31.76
-31.53
-32.07
-32.96
-33.25
-32.50
-31.52
-31.13
-31.54
-32.40
-32.84
-32.25
-31.23
-30.70
-30.96
-31.76
-32.35
-31.92
-30.86
-30.23
-30.40
-31.18
-31.99
-31.79
-30.74
-29.99
-30.00
-30.70
-31.55
-31.52
-30.56
-29.70
-29.56
-30.18
-31.08
-31.26
-30.44
-29.54
-29.28
-29.78
-30.69
-31.04
-30.34
-29.35
-28.95
-29.34
-30.20
-30.71
-30.20
-29.19
-28.67
-28.94
-29.77
-30.47
-30.14
-29.09
-28.39
-28.50
-29.28
-30.12
-29.99
-28.97
-28.19
-28.17
-28.86
-29.73
-29.77
-28.85
-27.98
-27.82
-28.41
-29.33
-29.57
-28.80
-27.87
-27.55
-28.00
-28.87
-29.28
-28.66
-27.66
-27.20
-27.54
-28.39
-28.98
-28.54
-27.50
-26.90
-27.09
-27.90
-28.69
-28.46
-27.42
-26.69
-26.74
-27.49
-28.40
-28.37
-27.40
-26.59
-26.52
-27.18
-28.09
-28.24
-27.42
-26.54
-26.30
-26.84
-27.76
-28.12
-27.42
-26.45
-26.05
-26.45
-27.32
-27.79
-27.23
-26.20
-25.66
-25.93
-26.75
-27.41
-27.05
-25.97
-25.30
-25.41
-26.19
-27.02
-26.87
-25.84
-25.08
-25.07
-25.77
-26.64
-26.67
-25.73
-24.86
-24.70
-25.28
-26.18
-26.41
-25.64
-24.74
-24.46
-24.95
-25.86
-26.28
-25.65
-24.67
-24.24
-24.58
-25.44
-26.03
-25.58
-24.54
-23.96
-24.18
-25.00
-25.79
-25.56
-24.53
-23.84
-23.93
-24.70
-25.59
-25.52
-24.53
-23.72
-23.64
-24.30
-25.20
-25.31
-24.44
-23.57
-23.36
-23.93
-24.86
-25.19
-24.48
-23.54
-23.18
-23.62
-24.50
-24.95
-24.37
-23.36
-22.86
-23.14
-23.97
-24.60
-24.20
-23.15
-22.51
-22.68
-23.50
-24.34
-24.20
-23.19
-22.46
-22.51
-23.26
-24.16
-24.18
-23.27
-22.45
-22.35
-22.98
-23.90
-24.12
-23.33
-22.43
-22.18
-22.69
-23.60
-23.99
-23.32
-22.33
-21.90
-22.25
-23.11
-23.63
-23.14
-22.11
-21.55
-21.78
-22.61
-23.36
-23.07
-22.02
-21.34
-21.45
-22.23
-23.11
-22.99
-21.99
-21.19
-21.15
-21.84
-22.73
-22.79
-21.89
-21.03
-20.87
-21.46
-22.40
-22.68
-21.95
-21.02
-20.70
Sampling Rate: 372.00 Hz
-21.17
-22.00
-22.17
-21.35
-20.42
-20.14
-20.65
-21.59
-22.03
-21.42
-20.47
-20.09
-20.50
-21.40
-21.99
-21.54
-20.53
-19.98
-20.23
-21.06
-21.81
-21.54
-20.50
-19.82
-19.91
-20.69
-21.57
-21.51
-20.55
-19.77
-19.75
-20.45
-21.38
-21.53
-20.69
-19.82
-19.63
-20.21
-21.14
-21.46
-20.75
-19.81
-19.49
-19.95
-20.87
-21.38
-20.83
-19.85
-19.39
-19.74
-20.62
-21.28
-20.92
-19.90
-19.29
-19.48
-20.30
-21.13
-20.98
-19.97
-19.25
-19.30
-20.06
-20.97
-20.99
-20.06
-19.25
-19.16
-19.80
-20.74
-20.95
-20.15
-19.24
-18.98
-19.50
-20.42
-20.81
-20.17
-19.21
-18.81
-19.21
-20.11
-20.67
-20.18
-19.15
-18.61
-18.86
-19.69
-20.42
-20.12
-19.08
-18.39
-18.49
-19.28
-20.16
-20.06
-19.06
-18.27
-18.24
-18.91
-19.80
-19.85
-18.94
-18.06
-17.88
-18.46
-19.37
-19.63
-18.88
-17.93
-17.59
-18.05
-18.95
-19.41
-18.84
-17.85
-17.40
-17.74
-18.61
-19.25
-18.85
-17.83
-17.24
-17.45
-18.29
-19.14
-18.98
-17.95
-17.23
-17.28
-18.02
-18.93
-18.92
-17.99
-17.17
-17.07
-17.70
-18.62
-18.80
-18.00
-17.11
-16.85
-17.37
-18.30
-18.68
-18.03
-17.07
-16.70
-17.10
-18.01
-18.56
-18.07
-17.06
-16.55
-16.81
-17.68
-18.43
-18.16
-17.15
-16.50
-16.64
-17.43
-18.33
-18.24
-17.24
-16.49
-16.47
-17.17
-18.06
-18.09
-17.16
-16.28
-16.10
-16.68
-17.61
-17.91
-17.18
-16.26
-15.97
-16.48
-17.42
-17.89
-17.31
-16.34
-15.92
-16.29
-17.20
-17.83
-17.42
-16.43
-15.88
-16.13
-17.00
-17.84
-17.64
-16.62
-15.94
-16.04
-16.83
-17.75
-17.74
-16.79
-16.01
-15.97
-16.67
-17.62
-17.81
-17.01
-16.17
-15.96
-16.54
-17.47
-17.81
-17.11
-16.16
-15.81
-16.25
-17.14
-17.65
-17.11
-16.11
-15.61
-15.93
-16.82
-17.51
-17.18
-16.17
-15.57
-15.78
-16.64
-17.52
-17.41
-16.42
-15.70
-15.74
-16.50
-17.42
-17.48
-16.58
-15.77
-15.67
-16.31
-17.25
-17.50
-16.75
-15.86
-15.62
-16.16
-17.10
-17.53
-16.92
-15.96
-15.56
-15.94
-16.81
-17.38
-16.92
-15.90
-15.34
-15.60
-16.46
-17.23
-16.97
-15.95
-15.29
-15.41
-16.24
-17.16
-17.12
-16.19
-15.46
-15.47
-16.20
-17.14
-17.27
-16.42
-15.56
-15.39
-15.98
-16.93
-17.26
-16.55
-15.60
-15.26
-15.71
-16.62
-17.10
-16.53
-15.54
-15.09
-15.44
-16.33
-16.99
-16.63
-15.62
-15.03
-15.22
-16.06
-16.92
-16.77
-15.76
-15.04
-15.10
-15.85
-16.76
-16.79
-15.87
-15.06
-14.99
-15.66
-16.61
-16.83
-16.05
-15.18
-14.97
-15.52
-16.45
-16.86
-16.23
-15.29
-14.91
-15.30
-16.20
-16.78
-16.32
-15.34
-14.83
-15.10
-15.96
-16.70
-16.42
-15.41
-14.76
-14.92
-15.74
-16.65
-16.59
-15.62
-14.89
-14.90
-15.63
-16.54
-16.61
-15.70
-14.84
-14.68
-15.28
-16.21
-16.52
-15.80
-14.88
-14.58
-15.06
-15.97
-16.42
-15.84
-14.86
-14.42
-14.75
-15.62
-16.25
-15.85
-14.84
-14.27
-14.49
-15.35
-16.18
-16.01
-15.00
-14.31
-14.39
-15.19
-16.12
Sampling Rate: 373.00 Hz
-15.96
-15.02
-14.40
-14.56
-15.37
-16.29
-16.23
-15.25
-14.47
-14.45
-15.15
-16.08
-16.18
-15.31
-14.45
-14.26
-14.82
-15.74
-16.05
-15.32
-14.37
-14.03
-14.49
-15.40
-15.87
-15.32
-14.32
-13.85
-14.19
-15.06
-15.73
-15.36
-14.33
-13.71
-13.88
-14.70
-15.54
-15.39
-14.38
-13.66
-13.72
-14.49
-15.41
-15.43
-14.52
-13.70
-13.59
-14.21
-15.14
-15.36
-14.58
-13.69
-13.45
-14.00
-14.94
-15.37
-14.76
-13.80
-13.39
-13.78
-14.67
-15.27
-14.82
-13.82
-13.28
-13.54
-14.41
-15.20
-14.96
-13.94
-13.27
-13.40
-14.21
-15.13
-15.09
-14.13
-13.35
-13.32
-14.02
-14.95
-15.05
-14.19
-13.34
-13.19
-13.79
-14.72
-15.02
-14.30
-13.37
-13.03
-13.49
-14.40
-14.88
-14.30
-13.30
-12.83
-13.14
-14.01
-14.67
-14.31
-13.30
-12.71
-12.90
-13.73
-14.58
-14.42
-13.41
-12.69
-12.73
-13.47
-14.36
-14.35
-13.42
-12.62
-12.54
-13.19
-14.12
-14.33
-13.53
-12.65
-12.42
-12.96
-13.91
-14.30
-13.65
-12.71
-12.33
-12.74
-13.65
-14.21
-13.72
-12.72
-12.19
-12.46
-13.31
-14.03
-13.74
-12.72
-12.07
-12.21
-13.03
-13.96
-13.91
-12.95
-12.22
-12.23
-12.97
-13.90
-14.00
-13.13
-12.30
-12.15
-12.78
-13.75
-14.07
-13.38
-12.48
-12.21
-12.70
-13.62
-14.09
-13.52
-12.55
-12.11
-12.47
-13.37
-14.03
-13.65
-12.67
-12.13
-12.37
-13.24
-14.08
-13.92
-12.91
-12.22
-12.30
-13.08
-14.00
-14.00
-13.08
-12.28
-12.19
-12.85
-13.79
-13.99
-13.22
-12.37
-12.18
-12.74
-13.70
-14.10
-13.45
-12.50
-12.12
-12.52
-13.42
-13.98
-13.49
-12.50
-11.98
-12.25
-13.11
-13.88
-13.62
-12.61
-11.97
-12.11
-12.92
-13.82
-13.74
-12.76
-12.01
-12.01
-12.74
-13.67
-13.75
-12.87
-12.04
-11.89
-12.50
-13.47
-13.80
-13.11
-12.20
-11.89
-12.37
-13.31
-13.80
-13.24
-12.28
-11.84
-12.21
-13.11
-13.77
-13.40
-12.39
-11.81
-12.04
-12.89
-13.73
-13.57
-12.54
-11.82
-11.87
-12.63
-13.54
-13.53
-12.60
-11.80
-11.74
-12.43
-13.38
-13.60
-12.84
-11.97
-11.73
-12.27
-13.20
-13.62
-12.99
-12.05
-11.68
-12.10
-13.00
-13.59
-13.15
-12.16
-11.66
-11.95
-12.83
-13.63
-13.39
-12.37
-11.72
-11.88
-12.71
-13.63
-13.57
-12.60
-11.84
-11.83
-12.54
-13.45
-13.53
-12.66
-11.80
-11.62
-12.22
-13.17
-13.49
-12.78
-11.84
-11.52
-11.96
-12.85
-13.31
-12.74
-11.74
-11.26
-11.59
-12.45
-13.11
-12.73
-11.71
-11.11
-11.32
-12.16
-13.01
-12.85
-11.84
-11.12
-11.18
-11.94
-12.84
-12.82
-11.87
-11.02
-10.90
-11.51
-12.41
-12.61
-11.81
-10.92
-10.68
-11.20
-12.11
-12.49
-11.85
-10.89
-10.51
-10.92
-11.80
-12.35
-11.87
-10.87
-10.35
-10.62
-11.48
-12.23
-11.95
-10.91
-10.23
-10.32
-11.10
-11.99
-11.92
-10.94
-10.19
-10.20
-10.95
-11.90
-12.02
-11.18
-10.36
-10.21
-10.82
-11.78
-12.10
-11.39
-10.48
-10.18
-10.66
-11.59
-12.08
-11.54
-10.57
-10.13
-10.49
-11.40
-12.07
-11.71
-10.72
Sampling Rate: 373.00 Hz
-10.30
-10.66
-11.54
-12.15
-11.73
-10.74
-10.21
-10.47
-11.35
-12.17
-11.98
-10.98
-10.32
-10.42
-11.21
-12.11
-12.05
-11.09
-10.30
-10.25
-10.93
-11.86
-12.00
-11.18
-10.31
-10.10
-10.66
-11.60
-11.93
-11.21
-10.24
-9.87
-10.29
-11.19
-11.71
-11.18
-10.17
-9.67
-9.95
-10.82
-11.58
-11.33
-10.32
-9.68
-9.80
-10.60
-11.51
-11.47
-10.50
-9.70
-9.64
-10.31
-11.24
-11.45
-10.67
-9.81
-9.60
-10.14
-11.09
-11.54
-10.96
-10.02
-9.62
-10.00
-10.91
-11.52
-11.10
-10.09
-9.51
-9.70
-10.53
-11.37
-11.24
-10.24
-9.52
-9.58
-10.35
-11.28
-11.36
-10.47
-9.64
-9.51
-10.12
-11.07
-11.38
-10.67
-9.75
-9.45
-9.93
-10.86
-11.38
-10.89
-9.92
-9.44
-9.74
-10.63
-11.42
-11.19
-10.20
-9.56
-9.70
-10.50
-11.42
-11.38
-10.44
-9.65
-9.58
-10.27
-11.20
-11.37
-10.54
-9.67
-9.43
-9.98
-10.92
-11.35
-10.73
-9.76
-9.34
-9.70
-10.58
-11.21
-10.82
-9.78
-9.16
-9.32
-10.14
-11.02
-10.91
-9.93
-9.18
-9.18
-9.91
-10.86
-11.01
-10.19
-9.35
-9.16
-9.72
-10.69
-11.10
-10.46
-9.50
-9.08
-9.45
-10.32
-10.93
-10.50
-9.47
-8.87
-9.07
-9.92
-10.82
-10.71
-9.71
-8.96
-8.96
-9.67
-10.60
-10.72
-9.86
-9.00
-8.81
-9.39
-10.36
-10.79
-10.16
-9.21
-8.80
-9.17
-10.07
-10.71
-10.30
-9.28
-8.70
-8.91
-9.76
-10.66
-10.53
-9.51
-8.74
-8.75
-9.48
-10.44
-10.56
-9.67
-8.77
-8.54
-9.08
-10.01
-10.38
-9.69
-8.65
-8.19
-8.55
-9.42
-10.03
-9.55
-8.41
-7.67
-7.75
-8.50
-9.34
-9.14
-8.01
-7.08
-6.93
-7.56
-8.46
-8.63
-7.74
-6.72
-6.37
-6.84
-7.78
-8.28
-7.69
-6.64
-6.13
-6.49
-7.45
-8.32
-8.11
-7.02
-6.31
-6.46
-7.39
-8.51
-8.63
-7.66
-6.73
-6.57
-7.27
-8.40
-8.86
-8.09
-6.92
-6.39
-6.79
-7.82
-8.61
-8.16
-6.89
-6.10
-6.24
-7.16
-8.23
-8.18
-7.05
-6.08
-5.93
-6.63
-7.72
-8.03
-7.16
-6.01
-5.59
-6.09
-7.16
-7.84
-7.32
-6.11
-5.42
-5.67
-6.67
-7.68
-7.54
-6.39
-5.52
-5.54
-6.38
-7.48
-7.69
-6.76
-5.74
-5.47
-6.11
-7.23
-7.80
-7.16
-6.03
-5.52
-5.93
-6.98
-7.92
-7.66
-6.49
-5.72
-5.85
-6.81
-7.94
-8.03
-7.02
-6.09
-5.99
-6.77
-7.96
-8.47
-7.78
-6.73
-6.35
-6.88
-7.98
-8.75
-8.30
-7.10
-6.39
-6.60
-7.57
-8.63
-8.58
-7.48
-6.60
-6.56
-7.38
-8.50
-8.78
-7.90
-6.84
-6.51
-7.09
-8.16
-8.74
-8.11
-6.91
-6.29
-6.60
-7.61
-8.55
-8.31
-7.11
-6.29
-6.38
-7.29
-8.42
-8.57
-7.60
-6.64
-6.46
-7.16
-8.30
-8.81
-8.12
-7.03
-6.58
-7.02
-8.10
-8.93
-8.57
-7.40
-6.68
-6.89
-7.90
-9.04
-9.05
-8.00
-7.12
-7.06
-7.84
-8.98
-9.35
-8.55
-7.49
-7.13
-7.68
-8.77
-9.45
-8.91
-7.75
-7.11
-7.39
-8.39
-9.39
-9.24
-8.07
-7.20
-7.23
Sampling Rate: 377.00 Hz
-8.06
-9.01
-8.86
-7.70
-6.80
-6.78
-7.59
-8.71
-9.00
-8.11
-7.06
-6.75
-7.34
-8.45
-9.10
-8.55
-7.42
-6.88
-7.26
-8.31
-9.29
-9.10
-7.95
-7.14
-7.24
-8.15
-9.28
-9.44
-8.49
-7.55
-7.37
-8.08
-9.23
-9.77
-9.09
-7.99
-7.55
-8.01
-9.06
-9.88
-9.50
-8.31
-7.55
-7.71
-8.66
-9.75
-9.74
-8.66
-7.72
-7.62
-8.36
-9.47
-9.81
-8.97
-7.88
-7.49
-8.01
-9.07
-9.75
-9.23
-8.09
-7.46
-7.78
-8.81
-9.84
-9.71
-8.56
-7.70
-7.71
-8.54
-9.65
-9.85
-8.90
-7.89
-7.61
-8.23
-9.32
-9.86
-9.19
-8.04
-7.51
-7.88
-8.88
-9.75
-9.42
-8.21
-7.41
-7.51
-8.43
-9.54
-9.62
-8.61
-7.67
-7.54
-8.26
-9.39
-9.84
-9.10
-8.01
-7.58
-8.04
-9.09
-9.84
-9.41
-8.27
-7.62
-7.88
-8.88
-9.97
-9.93
-8.85
-7.98
-7.98
-8.81
-9.93
-10.22
-9.33
-8.31
-8.02
-8.61
-9.71
-10.29
-9.64
-8.48
-7.90
-8.23
-9.24
-10.11
-9.78
-8.55
-7.73
-7.84
-8.73
-9.81
-9.86
-8.80
-7.80
-7.61
-8.32
-9.44
-9.88
-9.13
-8.04
-7.61
-8.08
-9.13
-9.88
-9.44
-8.24
-7.53
-7.74
-8.72
-9.78
-9.70
-8.58
-7.68
-7.62
-8.41
-9.53
-9.80
-8.90
-7.84
-7.49
-8.05
-9.13
-9.74
-9.15
-7.97
-7.36
-7.66
-8.68
-9.63
-9.41
-8.23
-7.40
-7.46
-8.34
-9.43
-9.52
-8.52
-7.51
-7.28
-7.94
-9.04
-9.51
-8.79
-7.68
-7.19
-7.63
-8.68
-9.48
-9.09
-7.89
-7.15
-7.34
-8.32
-9.42
-9.41
-8.32
-7.37
-7.24
-7.98
-9.07
-9.39
-8.51
-7.38
-6.98
-7.49
-8.54
-9.17
-8.61
-7.42
-6.77
-7.03
-8.02
-9.02
-8.85
-7.70
-6.84
-6.89
-7.79
-8.94
-9.16
-8.22
-7.20
-6.94
-7.58
-8.68
-9.21
-8.56
-7.43
-6.91
-7.33
-8.38
-9.26
-8.93
-7.73
-6.93
-7.06
-7.97
-9.04
-9.07
-8.02
-7.09
-6.96
-7.71
-8.85
-9.28
-8.51
-7.42
-7.00
-7.48
-8.53
-9.24
-8.77
-7.58
-6.88
-7.12
-8.11
-9.18
-9.13
-8.02
-7.12
-7.07
-7.87
-8.96
-9.22
-8.29
-7.20
-6.85
-7.40
-8.45
-9.03
-8.38
-7.20
-6.60
-6.90
-7.89
-8.82
-8.61
-7.43
-6.60
-6.67
-7.55
-8.65
-8.78
-7.79
-6.78
-6.56
-7.24
-8.37
-8.85
-8.13
-7.03
-6.53
-6.96
-8.01
-8.84
-8.46
-7.27
-6.51
-6.68
-7.64
-8.73
-8.74
-7.68
-6.78
-6.72
-7.54
-8.71
-9.11
-8.31
-7.24
-6.89
-7.44
-8.53
-9.23
-8.73
-7.55
-6.91
-7.20
-8.20
-9.22
-9.09
-7.91
-7.03
-7.03
-7.86
-8.97
-9.20
-8.27
-7.22
-6.92
-7.51
-8.59
-9.13
-8.46
-7.29
-6.73
-7.11
-8.14
-9.03
-8.74
-7.55
-6.74
-6.86
-7.75
-8.82
-8.87
-7.83
-6.84
-6.66
-7.36
-8.47
-8.92
-8.17
-7.06
-6.60
-7.08
-8.16
-8.93
-8.49
-7.30
-6.59
-6.79
-7.75
-8.82
-8.76
-7.66
-6.76
-6.70
-7.51
-8.63
-8.94
-8.08
-7.03
-6.67
-7.22
-8.29
Sampling Rate: 379.00 Hz
-8.62
-7.76
-6.63
-6.18
-6.65
-7.68
-8.33
-7.79
-6.60
-5.95
-6.21
-7.22
-8.25
-8.13
-6.99
-6.11
-6.11
-6.94
-8.04
-8.24
-7.30
-6.23
-5.90
-6.47
-7.54
-8.07
-7.43
-6.28
-5.70
-6.06
-7.08
-8.01
-7.76
-6.59
-5.79
-5.89
-6.80
-7.88
-7.95
-6.93
-5.96
-5.80
-6.52
-7.67
-8.16
-7.44
-6.34
-5.91
-6.40
-7.48
-8.26
-7.84
-6.67
-5.97
-6.19
-7.16
-8.24
-8.20
-7.10
-6.17
-6.11
-6.91
-8.05
-8.37
-7.53
-6.46
-6.09
-6.62
-7.69
-8.29
-7.70
-6.50
-5.84
-6.11
-7.08
-8.03
-7.83
-6.64
-5.77
-5.80
-6.65
-7.75
-7.90
-6.91
-5.87
-5.59
-6.19
-7.27
-7.77
-7.06
-5.89
-5.35
-5.73
-6.75
-7.59
-7.23
-6.02
-5.24
-5.35
-6.26
-7.32
-7.33
-6.25
-5.27
-5.09
-5.81
-6.93
-7.36
-6.59
-5.49
-5.05
-5.53
-6.61
-7.38
-6.93
-5.75
-5.05
-5.26
-6.24
-7.33
-7.26
-6.15
-5.24
-5.18
-5.97
-7.09
-7.39
-6.52
-5.47
-5.15
-5.74
-6.85
-7.50
-6.95
-5.79
-5.20
-5.50
-6.51
-7.48
-7.29
-6.09
-5.24
-5.25
-6.09
-7.17
-7.31
-6.33
-5.32
-5.09
-5.75
-6.86
-7.37
-6.66
-5.50
-4.95
-5.30
-6.33
-7.18
-6.85
-5.64
-4.85
-4.98
-5.90
-6.96
-6.98
-5.90
-4.93
-4.77
-5.49
-6.59
-6.97
-6.16
-5.02
-4.59
-5.08
-6.13
-6.81
-6.31
-5.10
-4.38
-4.56
-5.49
-6.49
-6.35
-5.21
-4.30
-4.28
-5.10
-6.21
-6.45
-5.52
-4.47
-4.15
-4.74
-5.83
-6.43
-5.81
-4.67
-4.10
-4.45
-5.49
-6.45
-6.20
-4.99
-4.15
-4.21
-5.08
-6.16
-6.25
-5.22
-4.21
-4.00
-4.67
-5.79
-6.29
-5.60
-4.51
-4.06
-4.51
-5.57
-6.39
-6.02
-4.86
-4.16
-4.35
-5.32
-6.41
-6.39
-5.33
-4.42
-4.34
-5.14
-6.27
-6.61
-5.76
-4.67
-4.30
-4.83
-5.91
-6.57
-6.05
-4.87
-4.23
-4.51
-5.51
-6.54
-6.41
-5.25
-4.38
-4.38
-5.22
-6.30
-6.50
-5.52
-4.47
-4.16
-4.75
-5.83
-6.37
-5.72
-4.57
-4.02
-4.41
-5.46
-6.41
-6.16
-4.98
-4.17
-4.29
-5.24
-6.38
-6.49
-5.50
-4.58
-4.47
-5.22
-6.40
-6.87
-6.13
-5.01
-4.57
-5.05
-6.12
-6.92
-6.50
-5.32
-4.63
-4.86
-5.85
-6.95
-6.93
-5.84
-4.93
-4.85
-5.64
-6.75
-7.07
-6.22
-5.16
-4.82
-5.37
-6.44
-7.07
-6.51
-5.34
-4.73
-5.04
-6.05
-7.05
-6.89
-5.74
-4.93
-4.98
-5.85
-6.95
-7.10
-6.10
-5.07
-4.81
-5.45
-6.56
-7.09
-6.41
-5.27
-4.76
-5.17
-6.20
-7.05
-6.73
-5.52
-4.73
-4.84
-5.78
-6.85
-6.90
-5.88
-4.94
-4.81
-5.54
-6.65
-7.08
-6.30
-5.19
-4.75
-5.23
-6.31
-7.07
-6.63
-5.42
-4.69
-4.90
-5.86
-6.92
-6.86
-5.74
-4.81
-4.75
-5.55
-6.68
-6.98
-6.11
-5.04
-4.68
-5.21
-6.27
-6.89
-6.30
-5.12
-4.48
-4.76
-5.73
-6.67
-6.45
-5.24
-4.37
-4.39
-5.23
-6.30
-6.44
-5.44
Sampling Rate: 380.00 Hz
-4.68
-4.74
-5.60
-6.70
-6.89
-5.92
-4.82
-4.50
-5.06
-6.12
-6.66
-6.00
-4.82
-4.21
-4.52
-5.53
-6.44
-6.14
-4.92
-4.08
-4.14
-5.03
-6.10
-6.18
-5.14
-4.14
-3.95
-4.66
-5.78
-6.24
-5.47
-4.35
-3.88
-4.32
-5.38
-6.13
-5.68
-4.47
-3.74
-3.95
-4.94
-6.04
-6.01
-4.92
-4.02
-3.95
-4.75
-5.89
-6.22
-5.35
-4.25
-3.87
-4.42
-5.49
-6.14
-5.59
-4.42
-3.79
-4.08
-5.10
-6.10
-5.96
-4.78
-3.92
-3.95
-4.81
-5.91
-6.10
-5.16
-4.14
-3.87
-4.48
-5.57
-6.08
-5.41
-4.25
-3.69
-4.07
-5.10
-5.99
-5.68
-4.48
-3.68
-3.77
-4.67
-5.72
-5.74
-4.64
-3.62
-3.41
-4.06
-5.11
-5.48
-4.65
-3.51
-3.03
-3.49
-4.55
-5.30
-4.85
-3.66
-2.93
-3.13
-4.10
-5.17
-5.09
-3.98
-3.08
-3.01
-3.79
-4.88
-5.13
-4.21
-3.13
-2.78
-3.34
-4.43
-5.05
-4.45
-3.28
-2.68
-3.01
-4.02
-4.99
-4.79
-3.61
-2.76
-2.80
-3.66
-4.73
-4.85
-3.84
-2.84
-2.63
-3.31
-4.44
-4.98
-4.29
-3.15
-2.65
-3.04
-4.05
-4.86
-4.46
-3.21
-2.39
-2.49
-3.40
-4.45
-4.43
-3.34
-2.37
-2.25
-3.00
-4.15
-4.54
-3.73
-2.63
-2.23
-2.77
-3.87
-4.59
-4.11
-2.93
-2.27
-2.51
-3.48
-4.52
-4.41
-3.27
-2.39
-2.39
-3.23
-4.33
-4.57
-3.63
-2.55
-2.22
-2.78
-3.84
-4.39
-3.71
-2.50
-1.86
-2.16
-3.16
-4.11
-3.89
-2.70
-1.88
-1.96
-2.87
-3.98
-4.10
-3.09
-2.08
-1.84
-2.50
-3.59
-4.06
-3.31
-2.15
-1.62
-2.02
-3.06
-3.89
-3.51
-2.28
-1.48
-1.62
-2.55
-3.62
-3.61
-2.51
-1.53
-1.39
-2.11
-3.24
-3.63
-2.81
-1.68
-1.24
-1.73
-2.79
-3.49
-2.99
-1.79
-1.10
-1.33
-2.33
-3.41
-3.35
-2.25
-1.37
-1.35
-2.19
-3.31
-3.60
-2.70
-1.65
-1.35
-1.95
-3.06
-3.69
-3.11
-2.00
-1.44
-1.80
-2.86
-3.85
-3.65
-2.47
-1.65
-1.72
-2.61
-3.71
-3.82
-2.81
-1.80
-1.58
-2.28
-3.42
-3.91
-3.21
-2.08
-1.57
-2.01
-3.07
-3.89
-3.51
-2.29
-1.52
-1.63
-2.56
-3.61
-3.60
-2.51
-1.53
-1.39
-2.14
-3.28
-3.69
-2.90
-1.83
-1.45
-1.96
-3.03
-3.75
-3.25
-2.07
-1.41
-1.67
-2.68
-3.73
-3.63
-2.51
-1.63
-1.62
-2.45
-3.59
-3.86
-2.97
-1.93
-1.62
-2.22
-3.31
-3.89
-3.29
-2.15
-1.59
-1.94
-2.97
-3.93
-3.74
-2.60
-1.80
-1.86
-2.72
-3.78
-3.90
-2.93
-1.98
-1.78
-2.45
-3.54
-4.02
-3.36
-2.29
-1.82
-2.24
-3.25
-4.05
-3.70
-2.56
-1.85
-2.00
-2.91
-3.95
-3.96
-2.97
-2.09
-2.00
-2.72
-3.82
-4.21
-3.49
-2.51
-2.17
-2.66
-3.68
-4.34
-3.91
-2.86
-2.28
-2.55
-3.49
-4.47
-4.43
-3.45
-2.71
-2.74
-3.51
-4.55
-4.80
-3.98
-3.04
-2.76
-3.29
-4.29
-4.83
-4.27
-3.24
-2.74
-3.07
-4.00
-4.86
-4.65
-3.58
-2.85
-2.92
Sampling Rate: 380.00 Hz
-3.69
-4.50
-4.30
-3.21
-2.44
-2.50
-3.30
-4.34
-4.54
-3.73
-2.86
-2.66
-3.27
-4.30
-4.82
-4.25
-3.26
-2.80
-3.17
-4.11
-4.90
-4.64
-3.58
-2.88
-3.00
-3.84
-4.83
-4.89
-3.97
-3.12
-2.99
-3.65
-4.66
-5.03
-4.34
-3.33
-2.94
-3.37
-4.34
-5.02
-4.62
-3.54
-2.90
-3.06
-3.93
-4.88
-4.81
-3.79
-2.95
-2.89
-3.60
-4.58
-4.81
-4.00
-3.02
-2.70
-3.19
-4.15
-4.69
-4.16
-3.12
-2.57
-2.85
-3.77
-4.66
-4.51
-3.49
-2.75
-2.80
-3.60
-4.60
-4.73
-3.87
-3.00
-2.80
-3.39
-4.39
-4.88
-4.27
-3.25
-2.78
-3.14
-4.05
-4.82
-4.52
-3.46
-2.76
-2.87
-3.71
-4.67
-4.71
-3.75
-2.87
-2.71
-3.32
-4.31
-4.65
-3.94
-2.93
-2.54
-2.98
-3.92
-4.56
-4.13
-3.06
-2.44
-2.63
-3.47
-4.38
-4.30
-3.30
-2.49
-2.44
-3.15
-4.13
-4.36
-3.56
-2.62
-2.32
-2.84
-3.81
-4.37
-3.84
-2.80
-2.26
-2.56
-3.50
-4.38
-4.21
-3.18
-2.45
-2.51
-3.31
-4.30
-4.43
-3.56
-2.68
-2.50
-3.11
-4.10
-4.56
-3.96
-2.97
-2.56
-2.97
-3.94
-4.71
-4.42
-3.40
-2.75
-2.90
-3.76
-4.76
-4.79
-3.85
-3.03
-2.94
-3.64
-4.65
-5.00
-4.31
-3.36
-3.03
-3.50
-4.47
-5.09
-4.65
-3.62
-3.05
-3.27
-4.14
-5.06
-4.98
-3.98
-3.23
-3.22
-3.95
-4.94
-5.14
-4.31
-3.37
-3.09
-3.60
-4.56
-5.04
-4.46
-3.42
-2.89
-3.16
-4.05
-4.85
-4.60
-3.52
-2.78
-2.83
-3.62
-4.56
-4.63
-3.73
-2.84
-2.65
-3.24
-4.21
-4.61
-3.94
-2.93
-2.48
-2.85
-3.75
-4.43
-4.05
-2.98
-2.31
-2.43
-3.23
-4.14
-4.08
-3.10
-2.25
-2.16
-2.84
-3.85
-4.17
-3.44
-2.49
-2.14
-2.60
-3.55
-4.16
-3.70
-2.67
-2.09
-2.33
-3.20
-4.09
-3.96
-2.93
-2.14
-2.13
-2.87
-3.84
-4.04
-3.20
-2.28
-2.01
-2.54
-3.50
-4.00
-3.43
-2.39
-1.87
-2.18
-3.07
-3.85
-3.57
-2.49
-1.76
-1.83
-2.62
-3.57
-3.63
-2.73
-1.89
-1.77
-2.40
-3.38
-3.76
-3.06
-2.06
-1.64
-2.05
-2.98
-3.68
-3.31
-2.25
-1.61
-1.78
-2.64
-3.61
-3.57
-2.59
-1.77
-1.71
-2.40
-3.40
-3.68
-2.91
-1.95
-1.62
-2.08
-3.02
-3.59
-3.07
-2.02
-1.42
-1.66
-2.53
-3.40
-3.26
-2.23
-1.47
-1.48
-2.25
-3.24
-3.41
-2.57
-1.66
-1.43
-1.98
-2.96
-3.44
-2.86
-1.85
-1.35
-1.67
-2.56
-3.31
-3.03
-1.96
-1.25
-1.34
-2.16
-3.11
-3.16
-2.24
-1.40
-1.26
-1.88
-2.89
-3.28
-2.62
-1.67
-1.28
-1.71
-2.66
-3.35
-2.97
-1.93
-1.29
-1.47
-2.34
-3.27
-3.21
-2.22
-1.39
-1.30
-1.97
-2.96
-3.23
-2.45
-1.49
-1.16
-1.65
-2.60
-3.17
-2.69
-1.67
-1.12
-1.37
-2.24
-3.11
-2.94
-1.91
-1.15
-1.19
-1.96
-2.96
-3.12
-2.27
-1.39
-1.18
-1.76
-2.73
-3.21
-2.63
-1.62
-1.16
-1.50
-2.43
-3.24
Sampling Rate: 380.00 Hz
-2.91
-2.02
-1.58
-1.92
-2.86
-3.75
-3.55
-2.49
-1.73
-1.76
-2.52
-3.45
-3.52
-2.61
-1.69
-1.47
-2.02
-2.96
-3.36
-2.70
-1.68
-1.21
-1.57
-2.47
-3.19
-2.87
-1.82
-1.16
-1.28
-2.11
-3.07
-3.09
-2.14
-1.28
-1.16
-1.80
-2.79
-3.14
-2.43
-1.46
-1.09
-1.53
-2.45
-3.07
-2.61
-1.54
-0.93
-1.10
-1.95
-2.87
-2.78
-1.77
-0.98
-0.95
-1.68
-2.66
-2.89
-2.11
-1.19
-0.91
-1.43
-2.39
-2.92
-2.40
-1.37
-0.84
-1.13
-2.02
-2.87
-2.70
-1.66
-0.93
-0.97
-1.73
-2.67
-2.77
-1.90
-1.00
-0.79
-1.38
-2.35
-2.82
-2.22
-1.23
-0.78
-1.14
-2.06
-2.81
-2.51
-1.47
-0.79
-0.92
-1.75
-2.71
-2.74
-1.79
-0.95
-0.83
-1.48
-2.46
-2.81
-2.10
-1.10
-0.71
-1.14
-2.08
-2.73
-2.32
-1.29
-0.68
-0.87
-1.73
-2.66
-2.58
-1.60
-0.77
-0.71
-1.41
-2.41
-2.67
-1.89
-0.94
-0.64
-1.13
-2.09
-2.65
-2.13
-1.08
-0.53
-0.81
-1.73
-2.61
-2.46
-1.43
-0.70
-0.74
-1.50
-2.47
-2.61
-1.74
-0.85
-0.65
-1.24
-2.23
-2.70
-2.09
-1.10
-0.63
-0.96
-1.87
-2.63
-2.33
-1.27
-0.59
-0.73
-1.58
-2.58
-2.64
-1.74
-0.92
-0.81
-1.46
-2.46
-2.82
-2.13
-1.15
-0.75
-1.16
-2.08
-2.71
-2.27
-1.20
-0.58
-0.77
-1.63
-2.56
-2.50
-1.51
-0.72
-0.71
-1.43
-2.42
-2.66
-1.86
-0.92
-0.63
-1.12
-2.06
-2.58
-2.04
-1.00
-0.46
-0.72
-1.60
-2.45
-2.29
-1.25
-0.50
-0.53
-1.28
-2.24
-2.36
-1.51
-0.61
-0.42
-1.01
-2.01
-2.52
-1.96
-0.99
-0.57
-0.96
-1.93
-2.72
-2.47
-1.43
-0.76
-0.91
-1.77
-2.76
-2.82
-1.92
-1.08
-0.96
-1.63
-2.64
-3.02
-2.33
-1.34
-0.93
-1.33
-2.24
-2.88
-2.44
-1.35
-0.69
-0.82
-1.66
-2.59
-2.52
-1.53
-0.72
-0.67
-1.38
-2.40
-2.68
-1.92
-0.99
-0.70
-1.21
-2.20
-2.79
-2.29
-1.27
-0.74
-1.01
-1.90
-2.76
-2.59
-1.55
-0.80
-0.85
-1.63
-2.62
-2.79
-1.93
-1.04
-0.81
-1.37
-2.35
-2.81
-2.19
-1.15
-0.66
-0.98
-1.90
-2.68
-2.41
-1.32
-0.61
-0.71
-1.53
-2.50
-2.57
-1.65
-0.78
-0.63
-1.26
-2.26
-2.66
-1.99
-1.02
-0.62
-1.03
-1.96
-2.61
-2.20
-1.13
-0.47
-0.65
-1.52
-2.51
-2.48
-1.52
-0.72
-0.68
-1.40
-2.40
-2.67
-1.90
-0.95
-0.64
-1.13
-2.10
-2.67
-2.17
-1.13
-0.59
-0.86
-1.77
-2.64
-2.48
-1.43
-0.68
-0.71
-1.48
-2.48
-2.66
-1.80
-0.89
-0.66
-1.24
-2.24
-2.73
-2.14
-1.14
-0.70
-1.06
-2.00
-2.80
-2.54
-1.48
-0.77
-0.88
-1.70
-2.66
-2.69
-1.76
-0.90
-0.76
-1.38
-2.37
-2.73
-2.02
-1.02
-0.62
-1.03
-1.96
-2.59
-2.16
-1.08
-0.44
-0.61
-1.48
-2.43
-2.36
-1.36
-0.55
-0.51
-1.21
-2.18
-2.45
-1.68
-0.72
-0.40
-0.89
-1.84
-2.38
-1.85
-0.80
Sampling Rate: 380.00 Hz
-0.40
-0.82
-1.75
-2.36
-1.90
-0.86
-0.26
-0.46
-1.32
-2.25
-2.16
-1.17
-0.42
-0.42
-1.18
-2.18
-2.40
-1.59
-0.66
-0.38
-0.89
-1.87
-2.39
-1.83
-0.80
-0.30
-0.63
-1.55
-2.39
-2.16
-1.08
-0.35
-0.41
-1.18
-2.14
-2.22
-1.30
-0.38
-0.16
-0.75
-1.74
-2.19
-1.55
-0.55
-0.11
-0.48
-1.40
-2.14
-1.81
-0.74
-0.05
-0.15
-0.98
-1.93
-1.93
-0.97
-0.13
-0.01
-0.70
-1.72
-2.10
-1.42
-0.47
-0.10
-0.54
-1.48
-2.10
-1.67
-0.61
0.03
-0.14
-1.00
-1.95
-1.88
-0.87
-0.04
0.00
-0.70
-1.70
-1.97
-1.20
-0.23
0.09
-0.40
-1.38
-1.96
-1.49
-0.47
0.07
-0.19
-1.09
-1.99
-1.87
-0.84
-0.08
-0.08
-0.84
-1.81
-1.97
-1.11
-0.20
0.06
-0.49
-1.47
-1.98
-1.41
-0.40
0.08
-0.25
-1.16
-1.96
-1.71
-0.63
0.11
0.05
-0.72
-1.66
-1.74
-0.84
0.02
0.19
-0.42
-1.43
-1.88
-1.24
-0.24
0.21
-0.18
-1.11
-1.82
-1.47
-0.40
0.28
0.13
-0.73
-1.71
-1.73
-0.79
0.06
0.16
-0.50
-1.48
-1.82
-1.10
-0.11
0.25
-0.20
-1.17
-1.84
-1.45
-0.42
0.17
-0.07
-0.97
-1.93
-1.89
-0.91
-0.14
-0.11
-0.83
-1.82
-2.05
-1.25
-0.30
-0.01
-0.50
-1.45
-1.96
-1.39
-0.32
0.25
-0.01
-0.90
-1.76
-1.59
-0.54
0.21
0.16
-0.61
-1.59
-1.74
-0.89
-0.00
0.20
-0.40
-1.39
-1.87
-1.28
-0.27
0.20
-0.16
-1.09
-1.88
-1.59
-0.52
0.20
0.12
-0.69
-1.65
-1.70
-0.77
0.11
0.26
-0.37
-1.37
-1.78
-1.11
-0.11
0.32
-0.06
-0.99
-1.67
-1.31
-0.23
0.47
0.33
-0.49
-1.41
-1.35
-0.35
0.50
0.63
0.01
-0.96
-1.25
-0.47
0.55
0.94
0.52
-0.40
-1.00
-0.53
0.54
1.15
0.93
0.06
-0.88
-0.81
0.18
0.98
1.02
0.29
-0.69
-0.93
-0.15
0.79
1.09
0.60
-0.36
-0.91
-0.40
0.63
1.17
0.91
0.01
-0.87
-0.71
0.33
1.08
1.05
0.29
-0.71
-0.89
-0.05
0.87
1.12
0.57
-0.42
-0.94
-0.37
0.65
1.15
0.82
-0.11
-0.95
-0.73
0.32
1.06
1.01
0.24
-0.72
-0.82
0.06
0.94
1.14
0.54
-0.46
-0.92
-0.28
0.73
1.19
0.83
-0.09
-0.82
-0.52
0.54
1.23
1.11
0.29
-0.66
-0.68
0.27
1.15
1.30
0.66
-0.33
-0.72
-0.05
0.93
1.32
0.90
-0.05
-0.76
-0.40
0.65
1.31
1.14
0.29
-0.67
-0.66
0.29
1.11
1.19
0.49
-0.53
-0.89
-0.17
0.77
1.11
0.63
-0.35
-0.97
-0.52
0.51
1.11
0.90
0.03
-0.89
-0.81
0.17
0.93
0.92
0.17
-0.85
-1.12
-0.34
0.57
0.83
0.27
-0.73
-1.32
-0.81
0.22
0.75
0.48
-0.40
-1.25
-1.09
-0.05
0.70
0.67
-0.11
-1.09
-1.27
-0.43
0.46
0.67
0.08
-0.93
-1.42
-0.86
0.14
0.61
0.28
-0.65
-1.44
-1.16
-0.10
0.60
0.50
Sampling Rate: 380.00 Hz
-0.28
-1.07
-0.86
0.22
0.96
0.91
0.13
-0.87
-1.06
-0.23
0.63
0.82
0.21
-0.83
-1.34
-0.76
0.23
0.70
0.34
-0.58
-1.37
-1.11
-0.06
0.65
0.57
-0.23
-1.17
-1.21
-0.26
0.63
0.79
0.18
-0.81
-1.23
-0.59
0.40
0.82
0.42
-0.50
-1.20
-0.85
0.22
0.88
0.74
-0.10
-1.06
-1.06
-0.12
0.69
0.79
0.12
-0.90
-1.26
-0.55
0.41
0.76
0.28
-0.69
-1.32
-0.89
0.16
0.76
0.54
-0.34
-1.28
-1.22
-0.25
0.50
0.50
-0.24
-1.25
-1.53
-0.77
0.16
0.45
-0.04
-1.01
-1.58
-1.09
-0.05
0.48
0.21
-0.71
-1.60
-1.46
-0.42
0.33
0.33
-0.40
-1.37
-1.51
-0.64
0.30
0.57
0.05
-0.90
-1.38
-0.78
0.26
0.78
0.48
-0.41
-1.20
-0.97
0.10
0.84
0.77
-0.00
-0.95
-1.01
-0.10
0.80
1.02
0.46
-0.51
-0.92
-0.28
0.74
1.20
0.86
-0.05
-0.76
-0.44
0.62
1.30
1.16
0.32
-0.66
-0.67
0.27
1.10
1.20
0.53
-0.48
-0.87
-0.21
0.76
1.14
0.71
-0.23
-0.89
-0.51
0.53
1.16
0.99
0.12
-0.84
-0.81
0.17
0.98
1.06
0.36
-0.64
-0.94
-0.19
0.76
1.06
0.56
-0.42
-1.00
-0.51
0.53
1.09
0.83
-0.08
-1.01
-0.91
0.09
0.85
0.82
0.08
-0.91
-1.13
-0.32
0.59
0.83
0.27
-0.74
-1.30
-0.79
0.21
0.70
0.38
-0.56
-1.43
-1.27
-0.24
0.48
0.39
-0.41
-1.39
-1.51
-0.64
0.22
0.40
-0.22
-1.25
-1.71
-1.11
-0.13
0.32
-0.06
-1.00
-1.78
-1.50
-0.45
0.22
0.09
-0.76
-1.74
-1.81
-0.90
-0.06
0.06
-0.61
-1.63
-2.04
-1.38
-0.41
-0.03
-0.46
-1.39
-2.06
-1.68
-0.63
-0.00
-0.18
-1.04
-1.99
-1.95
-0.98
-0.16
-0.11
-0.80
-1.79
-2.05
-1.26
-0.28
0.07
-0.38
-1.31
-1.88
-1.39
-0.36
0.19
-0.06
-0.95
-1.85
-1.74
-0.74
-0.02
-0.06
-0.85
-1.86
-2.06
-1.22
-0.31
-0.07
-0.64
-1.64
-2.15
-1.58
-0.58
-0.13
-0.49
-1.41
-2.23
-1.98
-0.92
-0.19
-0.28
-1.10
-2.08
-2.15
-1.23
-0.37
-0.25
-0.90
-1.93
-2.37
-1.72
-0.74
-0.36
-0.80
-1.79
-2.53
-2.18
-1.12
-0.46
-0.64
-1.52
-2.51
-2.52
-1.55
-0.72
-0.68
-1.42
-2.46
-2.78
-2.00
-1.01
-0.68
-1.17
-2.16
-2.76
-2.26
-1.15
-0.51
-0.74
-1.65
-2.58
-2.45
-1.39
-0.60
-0.63
-1.45
-2.49
-2.67
-1.80
-0.83
-0.59
-1.20
-2.26
-2.80
-2.19
-1.10
-0.58
-0.94
-1.95
-2.84
-2.59
-1.43
-0.65
-0.72
-1.59
-2.64
-2.69
-1.63
-0.63
-0.43
-1.11
-2.20
-2.64
-1.90
-0.76
-0.27
-0.68
-1.70
-2.48
-2.05
-0.83
-0.06
-0.23
-1.20
-2.31
-2.33
-1.26
-0.32
-0.22
-1.00
-2.16
-2.53
-1.71
-0.61
-0.20
-0.70
-1.78
-2.46
-1.94
-0.74
-0.06
-0.30
-1.29
-2.34
-2.26
-1.13
-0.25
-0.24
-1.10
-2.23
Sampling Rate: 380.00 Hz
-2.24
-1.17
-0.28
-0.21
-0.99
-2.12
-2.44
-1.59
-0.53
-0.18
-0.74
-1.84
-2.50
-1.99
-0.81
-0.19
-0.50
-1.52
-2.55
-2.43
-1.31
-0.47
-0.50
-1.37
-2.51
-2.73
-1.77
-0.71
-0.41
-1.00
-2.09
-2.65
-2.00
-0.84
-0.26
-0.62
-1.62
-2.52
-2.23
-1.00
-0.14
-0.18
-1.05
-2.13
-2.24
-1.21
-0.21
-0.01
-0.68
-1.79
-2.25
-1.52
-0.39
0.09
-0.36
-1.43
-2.26
-1.88
-0.66
0.14
0.02
-0.93
-2.03
-2.06
-1.01
-0.08
0.02
-0.75
-1.92
-2.34
-1.56
-0.47
-0.06
-0.56
-1.64
-2.33
-1.83
-0.62
0.09
-0.13
-1.12
-2.18
-2.09
-0.96
-0.07
-0.03
-0.86
-2.00
-2.28
-1.37
-0.30
0.04
-0.52
-1.60
-2.19
-1.59
-0.41
0.19
-0.14
-1.18
-2.17
-1.97
-0.78
0.05
-0.03
-0.96
-2.08
-2.26
-1.31
-0.31
-0.06
-0.71
-1.79
-2.31
-1.62
-0.48
0.05
-0.34
-1.38
-2.26
-1.93
-0.71
0.08
-0.06
-0.97
-2.05
-2.09
-1.02
-0.04
0.14
-0.57
-1.71
-2.15
-1.38
-0.27
0.18
-0.28
-1.35
-2.10
-1.67
-0.47
0.26
0.06
-0.91
-2.01
-2.00
-0.92
-0.02
0.01
-0.81
-1.95
-2.28
-1.42
-0.31
0.06
-0.48
-1.55
-2.18
-1.60
-0.41
0.25
-0.03
-1.03
-2.01
-1.84
-0.66
0.20
0.16
-0.71
-1.84
-2.05
-1.10
-0.08
0.18
-0.47
-1.59
-2.19
-1.56
-0.43
0.08
-0.34
-1.41
-2.38
-2.14
-0.96
-0.16
-0.26
-1.17
-2.25
-2.33
-1.33
-0.35
-0.19
-0.92
-2.06
-2.53
-1.80
-0.68
-0.18
-0.61
-1.65
-2.44
-2.04
-0.84
-0.07
-0.22
-1.17
-2.24
-2.24
-1.18
-0.25
-0.14
-0.92
-2.05
-2.42
-1.59
-0.50
-0.11
-0.62
-1.68
-2.37
-1.85
-0.67
-0.02
-0.31
-1.33
-2.40
-2.32
-1.20
-0.33
-0.32
-1.15
-2.27
-2.53
-1.61
-0.55
-0.24
-0.84
-1.95
-2.56
-1.96
-0.82
-0.24
-0.58
-1.59
-2.54
-2.33
-1.14
-0.31
-0.37
-1.25
-2.33
-2.43
-1.42
-0.43
-0.21
-0.88
-2.00
-2.48
-1.76
-0.65
-0.18
-0.62
-1.67
-2.48
-2.10
-0.90
-0.14
-0.32
-1.29
-2.39
-2.41
-1.36
-0.44
-0.37
-1.15
-2.31
-2.70
-1.89
-0.79
-0.41
-0.95
-2.06
-2.79
-2.28
-1.09
-0.40
-0.63
-1.61
-2.67
-2.56
-1.42
-0.52
-0.49
-1.29
-2.39
-2.65
-1.76
-0.73
-0.45
-1.06
-2.15
-2.76
-2.13
-0.98
-0.40
-0.76
-1.80
-2.77
-2.56
-1.38
-0.55
-0.63
-1.52
-2.60
-2.69
-1.65
-0.63
-0.42
-1.09
-2.21
-2.70
-1.99
-0.87
-0.36
-0.77
-1.81
-2.60
-2.20
-0.96
-0.17
-0.31
-1.24
-2.32
-2.30
-1.20
-0.23
-0.12
-0.87
-2.00
-2.38
-1.55
-0.44
-0.04
-0.54
-1.60
-2.29
-1.78
-0.58
0.13
-0.07
-1.03
-2.07
-1.98
-0.87
0.04
0.10
-0.67
-1.75
-2.00
-1.09
-0.04
0.30
-0.26
-1.33
-1.93
-1.34
-0.19
0.41
0.10
-0.91
-1.88
-1.67
-0.49
0.34
0.30
-0.58
-1.69
-1.86
-0.89
Sampling Rate: 380.00 Hz
-0.12
-0.19
-1.08
-2.23
-2.49
-1.57
-0.49
-0.13
-0.70
-1.78
-2.37
-1.75
-0.59
0.01
-0.31
-1.31
-2.23
-1.99
-0.77
0.06
-0.02
-0.93
-2.03
-2.15
-1.16
-0.16
0.06
-0.60
-1.72
-2.23
-1.53
-0.40
0.10
-0.30
-1.36
-2.25
-1.93
-0.74
0.06
-0.06
-0.97
-2.06
-2.09
-1.04
-0.08
0.09
-0.62
-1.74
-2.20
-1.46
-0.37
0.04
-0.47
-1.56
-2.32
-1.89
-0.69
0.06
-0.12
-1.09
-2.17
-2.12
-1.00
-0.05
0.04
-0.72
-1.83
-2.17
-1.30
-0.18
0.23
-0.28
-1.34
-1.99
-1.44
-0.22
0.45
0.19
-0.80
-1.79
-1.63
-0.45
0.42
0.43
-0.38
-1.47
-1.67
-0.72
0.35
0.65
0.05
-1.04
-1.61
-0.98
0.20
0.78
0.44
-0.58
-1.53
-1.30
-0.11
0.70
0.62
-0.26
-1.34
-1.45
-0.41
0.61
0.85
0.20
-0.89
-1.35
-0.59
0.59
1.11
0.71
-0.35
-1.20
-0.86
0.35
1.12
0.99
0.03
-1.07
-1.12
-0.09
0.86
1.01
0.28
-0.85
-1.30
-0.54
0.56
0.98
0.48
-0.63
-1.41
-0.98
0.20
0.91
0.71
-0.26
-1.35
-1.34
-0.26
0.64
0.71
-0.08
-1.20
-1.53
-0.67
0.43
0.82
0.30
-0.75
-1.42
-0.89
0.31
0.99
0.74
-0.23
-1.24
-1.10
0.08
0.99
1.04
0.25
-0.81
-1.02
-0.04
1.08
1.45
0.93
-0.13
-0.68
-0.03
1.19
1.85
1.56
0.56
-0.36
-0.13
1.08
1.93
1.90
1.03
-0.06
-0.18
0.84
1.87
2.12
1.48
0.37
-0.13
0.57
1.74
2.29
1.92
0.89
0.02
0.33
1.53
2.35
2.26
1.37
0.30
0.25
1.30
2.30
2.47
1.78
0.67
0.23
1.01
2.15
2.64
2.21
1.17
0.39
0.78
2.00
2.74
2.57
1.61
0.50
0.50
1.56
2.49
2.60
1.82
0.67
0.26
1.05
2.15
2.55
2.04
0.96
0.23
0.71
1.92
2.65
2.46
1.50
0.48
0.57
1.73
2.67
2.75
1.97
0.89
0.61
1.50
2.58
2.93
2.37
1.29
0.67
1.26
2.43
3.06
2.75
1.73
0.71
0.85
2.02
2.89
2.90
2.07
1.00
0.83
1.82
2.93
3.29
2.78
1.76
1.30
2.06
3.32
3.98
3.72
2.77
1.92
2.26
3.53
4.42
4.41
3.56
2.54
2.50
3.59
4.68
4.97
4.38
3.33
2.88
3.64
4.81
5.34
4.93
3.90
3.10
3.49
4.72
5.53
5.43
4.53
3.48
3.48
4.57
5.53
5.66
4.93
3.82
3.44
4.25
5.37
5.81
5.33
4.26
3.51
3.97
5.16
5.86
5.65
4.66
3.58
3.63
4.71
5.58
5.58
4.74
3.58
3.25
4.09
5.13
5.43
4.82
3.66
2.95
3.44
4.55
5.11
4.75
3.66
2.60
2.72
3.83
4.64
4.57
3.66
2.50
2.26
3.17
4.15
4.38
3.72
2.58
1.99
2.60
3.73
4.28
3.90
2.86
1.92
2.18
3.37
4.18
4.09
3.19
2.08
1.97
2.98
3.95
4.13
3.41
2.24
1.71
2.37
3.44
3.85
Sampling Rate: 380.00 Hz
3.31
2.24
1.69
2.32
3.44
3.95
3.54
2.45
1.45
1.64
2.77
3.54
3.40
2.43
1.28
1.15
2.13
3.09
3.27
2.54
1.37
0.85
1.56
2.69
3.18
2.75
1.70
0.89
1.30
2.54
3.34
3.20
2.25
1.18
1.18
2.26
3.22
3.33
2.55
1.40
0.97
1.76
2.85
3.24
2.71
1.59
0.80
1.22
2.37
3.04
2.79
1.79
0.69
0.71
1.79
2.67
2.69
1.85
0.71
0.37
1.23
2.29
2.65
2.10
1.01
0.35
0.91
2.11
2.77
2.53
1.58
0.61
0.79
1.97
2.85
2.84
1.99
0.89
0.68
1.62
2.67
2.97
2.37
1.26
0.68
1.31
2.46
3.03
2.68
1.64
0.70
0.96
2.16
2.99
2.92
2.03
0.90
0.77
1.78
2.78
3.00
2.33
1.20
0.66
1.36
2.47
2.95
2.49
1.39
0.50
0.81
2.00
2.77
2.63
1.68
0.58
0.53
1.59
2.57
2.72
1.98
0.82
0.38
1.14
2.24
2.70
2.23
1.15
0.37
0.77
1.94
2.66
2.45
1.46
0.36
0.36
1.45
2.36
2.42
1.62
0.50
0.15
1.01
2.10
2.47
1.93
0.83
0.14
0.64
1.79
2.42
2.11
1.06
-0.02
0.07
1.17
2.02
1.97
1.08
-0.09
-0.39
0.49
1.52
1.81
1.20
0.09
-0.54
0.06
1.22
1.81
1.50
0.48
-0.51
-0.31
0.85
1.67
1.59
0.68
-0.44
-0.59
0.38
1.38
1.60
0.91
-0.21
-0.73
-0.06
1.06
1.58
1.17
0.11
-0.77
-0.44
0.78
1.59
1.48
0.57
-0.51
-0.54
0.51
1.46
1.59
0.86
-0.29
-0.71
0.06
1.15
1.57
1.08
0.01
-0.76
-0.32
0.88
1.61
1.41
0.42
-0.68
-0.65
0.44
1.34
1.41
0.64
-0.49
-0.83
0.04
1.15
1.57
1.05
-0.03
-0.71
-0.17
1.01
1.66
1.40
0.41
-0.63
-0.52
0.62
1.47
1.45
0.59
-0.55
-0.78
0.15
1.19
1.49
0.89
-0.23
-0.81
-0.20
0.93
1.49
1.11
0.07
-0.92
-0.73
0.44
1.25
1.16
0.25
-0.87
-1.00
-0.00
1.02
1.24
0.56
-0.56
-1.07
-0.38
0.73
1.23
0.80
-0.27
-1.16
-0.86
0.33
1.09
0.96
-0.00
-1.11
-1.20
-0.17
0.76
0.90
0.17
-0.97
-1.42
-0.68
0.41
0.86
0.39
-0.69
-1.48
-1.07
0.12
0.83
0.61
-0.39
-1.52
-1.52
-0.46
0.42
0.48
-0.34
-1.50
-1.88
-1.07
-0.01
0.35
-0.22
-1.34
-2.03
-1.52
-0.37
0.23
-0.09
-1.15
-2.23
-2.16
-1.06
-0.25
-0.29
-1.16
-2.28
-2.51
-1.58
-0.56
-0.29
-0.94
-2.07
-2.66
-2.06
-0.92
-0.38
-0.76
-1.82
-2.75
-2.50
-1.32
-0.53
-0.63
-1.53
-2.64
-2.75
-1.72
-0.73
-0.53
-1.21
-2.35
-2.85
-2.14
-1.04
-0.57
-1.03
-2.11
-2.91
-2.54
-1.35
-0.64
-0.84
-1.83
-2.94
-2.94
-1.86
-0.94
-0.85
-1.62
-2.73
-3.06
-2.21
-1.12
-0.74
-1.27
-2.33
-2.99
-2.45
-1.27
-0.63
-0.90
-1.90
Sampling Rate: 380.00 Hz
-2.59
-2.08
-0.87
-0.15
-0.36
-1.33
-2.40
-2.33
-1.21
-0.31
-0.30
-1.12
-2.26
-2.58
-1.71
-0.68
-0.37
-0.98
-2.11
-2.77
-2.21
-1.09
-0.52
-0.87
-1.91
-2.91
-2.75
-1.59
-0.77
-0.85
-1.75
-2.88
-3.06
-2.09
-1.11
-0.90
-1.57
-2.71
-3.23
-2.55
-1.43
-0.93
-1.34
-2.39
-3.27
-2.96
-1.77
-0.99
-1.11
-2.03
-3.11
-3.12
-2.05
-1.08
-0.91
-1.63
-2.77
-3.17
-2.39
-1.29
-0.87
-1.37
-2.47
-3.21
-2.75
-1.56
-0.87
-1.11
-2.10
-3.17
-3.12
-2.00
-1.11
-1.05
-1.87
-2.99
-3.30
-2.41
-1.33
-0.95
-1.52
-2.61
-3.24
-2.66
-1.48
-0.85
-1.17
-2.18
-3.15
-2.95
-1.74
-0.89
-0.91
-1.77
-2.85
-2.98
-1.98
-0.97
-0.71
-1.34
-2.43
-2.92
-2.22
-1.08
-0.57
-0.96
-1.99
-2.85
-2.52
-1.32
-0.56
-0.70
-1.66
-2.75
-2.78
-1.73
-0.77
-0.64
-1.39
-2.51
-2.89
-2.10
-0.98
-0.57
-1.07
-2.14
-2.86
-2.38
-1.19
-0.51
-0.74
-1.71
-2.74
-2.63
-1.49
-0.60
-0.58
-1.41
-2.53
-2.79
-1.87
-0.79
-0.45
-1.02
-2.09
-2.64
-2.00
-0.79
-0.18
-0.49
-1.47
-2.39
-2.15
-0.93
-0.07
-0.10
-0.95
-2.04
-2.15
-1.12
-0.10
0.13
-0.54
-1.66
-2.14
-1.42
-0.27
0.24
-0.16
-1.19
-2.02
-1.67
-0.46
0.31
0.16
-0.80
-1.88
-1.91
-0.84
0.14
0.29
-0.44
-1.58
-2.01
-1.24
-0.15
0.25
-0.26
-1.34
-2.07
-1.57
-0.34
0.41
0.25
-0.69
-1.71
-1.60
-0.44
0.51
0.60
-0.18
-1.28
-1.58
-0.68
0.40
0.76
0.21
-0.86
-1.45
-0.86
0.36
1.04
0.81
-0.14
-1.09
-0.89
0.33
1.24
1.27
0.44
-0.63
-0.80
0.18
1.24
1.54
0.92
-0.17
-0.73
-0.07
1.09
1.66
1.29
0.24
-0.70
-0.44
0.74
1.54
1.44
0.54
-0.55
-0.65
0.35
1.33
1.53
0.83
-0.31
-0.82
-0.10
1.03
1.53
1.10
0.05
-0.79
-0.43
0.76
1.50
1.32
0.35
-0.77
-0.81
0.26
1.23
1.38
0.64
-0.51
-0.93
-0.14
0.95
1.37
0.89
-0.18
-0.94
-0.50
0.66
1.34
1.10
0.08
-1.06
-1.07
-0.03
0.84
0.87
0.05
-1.10
-1.46
-0.63
0.41
0.75
0.18
-0.92
-1.62
-1.10
0.03
0.65
0.34
-0.69
-1.71
-1.59
-0.44
0.40
0.35
-0.53
-1.64
-1.84
-0.89
0.16
0.45
-0.16
-1.27
-1.84
-1.18
-0.00
0.55
0.18
-0.84
-1.76
-1.50
-0.30
0.53
0.44
-0.48
-1.60
-1.72
-0.73
0.24
0.43
-0.26
-1.40
-1.92
-1.25
-0.14
0.34
-0.11
-1.18
-2.02
-1.66
-0.49
0.26
0.08
-0.87
-1.98
-1.97
-0.87
0.09
0.21
-0.57
-1.73
-2.13
-1.34
-0.25
0.16
-0.35
-1.44
-2.18
-1.73
-0.59
0.06
-0.22
-1.26
-2.36
-2.32
-1.24
-0.40
-0.42
-1.29
-2.44
-2.76
-1.89
-0.89
-0.62
-1.23
-2.36
-3.00
-2.44
-1.31
-0.73
-1.09
-2.15
-3.16
-2.96
Sampling Rate: 380.00 Hz
-2.03
-1.57
-1.98
-3.08
-4.14
-4.01
-2.85
-1.97
-1.96
-2.80
-3.90
-4.07
-3.08
-2.03
-1.73
-2.34
-3.42
-3.94
-3.26
-2.07
-1.49
-1.85
-2.88
-3.77
-3.48
-2.29
-1.50
-1.62
-2.55
-3.64
-3.71
-2.68
-1.70
-1.54
-2.23
-3.35
-3.78
-2.99
-1.87
-1.40
-1.85
-2.89
-3.62
-3.14
-1.91
-1.16
-1.35
-2.32
-3.40
-3.36
-2.27
-1.38
-1.33
-2.12
-3.25
-3.56
-2.68
-1.59
-1.24
-1.79
-2.87
-3.48
-2.89
-1.70
-1.05
-1.31
-2.29
-3.25
-3.04
-1.83
-0.96
-1.00
-1.88
-2.97
-3.12
-2.12
-1.09
-0.83
-1.48
-2.59
-3.12
-2.43
-1.28
-0.77
-1.18
-2.22
-3.08
-2.75
-1.55
-0.76
-0.90
-1.86
-2.97
-3.02
-1.97
-1.05
-0.94
-1.68
-2.83
-3.26
-2.48
-1.37
-0.96
-1.48
-2.56
-3.31
-2.86
-1.67
-0.96
-1.17
-2.13
-3.17
-3.08
-1.94
-1.00
-0.93
-1.71
-2.80
-3.08
-2.16
-1.04
-0.66
-1.19
-2.25
-2.83
-2.22
-1.04
-0.42
-0.71
-1.72
-2.67
-2.47
-1.28
-0.45
-0.52
-1.43
-2.54
-2.67
-1.69
-0.67
-0.42
-1.07
-2.17
-2.65
-1.92
-0.78
-0.27
-0.68
-1.72
-2.56
-2.21
-1.02
-0.25
-0.41
-1.36
-2.46
-2.46
-1.37
-0.41
-0.28
-1.04
-2.17
-2.55
-1.75
-0.66
-0.26
-0.78
-1.87
-2.58
-2.09
-0.93
-0.27
-0.52
-1.53
-2.60
-2.53
-1.41
-0.53
-0.50
-1.33
-2.44
-2.73
-1.86
-0.81
-0.50
-1.10
-2.19
-2.80
-2.20
-1.01
-0.37
-0.67
-1.66
-2.60
-2.35
-1.11
-0.23
-0.26
-1.13
-2.21
-2.34
-1.32
-0.30
-0.07
-0.71
-1.81
-2.31
-1.60
-0.45
0.06
-0.35
-1.39
-2.25
-1.90
-0.71
0.06
-0.06
-1.00
-2.07
-2.09
-1.01
-0.04
0.11
-0.61
-1.73
-2.14
-1.34
-0.23
0.20
-0.28
-1.35
-2.09
-1.64
-0.47
0.24
0.01
-0.97
-2.04
-1.99
-0.87
0.04
0.12
-0.66
-1.77
-2.06
-1.18
-0.11
0.25
-0.29
-1.37
-2.01
-1.45
-0.28
0.33
0.01
-1.02
-2.03
-1.87
-0.71
0.11
0.07
-0.81
-1.92
-2.08
-1.10
-0.07
0.18
-0.46
-1.58
-2.10
-1.41
-0.25
0.29
-0.11
-1.13
-2.00
-1.68
-0.47
0.33
0.24
-0.68
-1.79
-1.84
-0.79
0.18
0.33
-0.41
-1.56
-2.01
-1.28
-0.20
0.20
-0.32
-1.43
-2.21
-1.78
-0.58
0.14
-0.06
-1.04
-2.15
-2.13
-1.04
-0.13
-0.07
-0.84
-1.95
-2.25
-1.38
-0.29
0.09
-0.43
-1.50
-2.16
-1.62
-0.45
0.16
-0.14
-1.18
-2.20
-2.06
-0.91
-0.07
-0.10
-0.96
-2.08
-2.30
-1.34
-0.31
-0.05
-0.66
-1.78
-2.32
-1.64
-0.46
0.13
-0.18
-1.15
-2.01
-1.68
-0.42
0.45
0.39
-0.48
-1.55
-1.61
-0.57
0.41
0.59
-0.12
-1.26
-1.71
-0.95
0.20
0.69
0.26
-0.78
-1.57
-1.17
0.04
0.79
0.61
-0.35
-1.44
-1.42
-0.31
0.63
0.73
-0.04
-1.19
-1.54
-0.70
0.38
0.76
0.24
-0.82
-1.47
-0.91
0.28
0.94
Sampling Rate: 380.00 Hz
0.61
-0.36
-1.05
-0.56
0.68
1.41
1.21
0.24
-0.86
-0.84
0.22
1.11
1.18
0.39
-0.74
-1.06
-0.19
0.92
1.32
0.80
-0.26
-0.91
-0.36
0.83
1.48
1.21
0.21
-0.81
-0.68
0.49
1.39
1.40
0.56
-0.54
-0.78
0.13
1.17
1.49
0.92
-0.17
-0.74
-0.09
1.11
1.73
1.40
0.37
-0.59
-0.39
0.80
1.65
1.58
0.69
-0.41
-0.58
0.39
1.38
1.59
0.91
-0.22
-0.75
-0.09
1.04
1.55
1.13
0.08
-0.81
-0.51
0.69
1.49
1.37
0.45
-0.62
-0.66
0.40
1.40
1.57
0.87
-0.24
-0.66
0.12
1.24
1.69
1.20
0.13
-0.64
-0.20
1.04
1.79
1.62
0.66
-0.42
-0.39
0.71
1.63
1.71
0.93
-0.23
-0.63
0.16
1.24
1.64
1.12
0.03
-0.68
-0.21
0.97
1.63
1.38
0.39
-0.66
-0.56
0.58
1.48
1.48
0.63
-0.49
-0.76
0.15
1.21
1.54
0.95
-0.17
-0.80
-0.21
0.97
1.58
1.27
0.24
-0.73
-0.52
0.68
1.53
1.50
0.63
-0.47
-0.65
0.29
1.29
1.53
0.85
-0.29
-0.85
-0.20
0.91
1.41
1.01
-0.04
-0.94
-0.65
0.56
1.39
1.30
0.40
-0.67
-0.72
0.34
1.33
1.52
0.82
-0.33
-0.81
-0.07
1.04
1.50
1.02
-0.07
-0.92
-0.56
0.61
1.33
1.15
0.18
-0.93
-0.94
0.11
1.04
1.14
0.36
-0.79
-1.20
-0.41
0.65
1.03
0.51
-0.58
-1.31
-0.84
0.34
1.00
0.76
-0.27
-1.36
-1.33
-0.23
0.62
0.60
-0.27
-1.44
-1.79
-0.96
0.08
0.39
-0.21
-1.30
-1.93
-1.37
-0.22
0.38
0.04
-1.00
-2.01
-1.84
-0.67
0.19
0.15
-0.71
-1.82
-2.00
-1.04
-0.03
0.23
-0.40
-1.50
-2.04
-1.36
-0.19
0.36
-0.04
-1.08
-1.97
-1.67
-0.48
0.32
0.20
-0.73
-1.84
-1.89
-0.83
0.16
0.33
-0.38
-1.51
-1.96
-1.19
-0.06
0.40
-0.08
-1.13
-1.92
-1.49
-0.28
0.47
0.29
-0.67
-1.75
-1.73
-0.63
0.31
0.38
-0.40
-1.55
-1.93
-1.12
-0.04
0.36
-0.16
-1.23
-1.91
-1.40
-0.20
0.47
0.21
-0.79
-1.84
-1.73
-0.59
0.29
0.32
-0.50
-1.62
-1.89
-1.00
0.03
0.34
-0.26
-1.36
-1.98
-1.40
-0.22
0.41
0.10
-0.90
-1.87
-1.66
-0.48
0.35
0.30
-0.57
-1.68
-1.83
-0.85
0.16
0.39
-0.25
-1.36
-1.86
-1.15
-0.00
0.53
0.16
-0.85
-1.70
-1.37
-0.16
0.65
0.54
-0.37
-1.42
-1.43
-0.34
0.64
0.79
0.07
-1.07
-1.51
-0.75
0.35
0.76
0.24
-0.85
-1.63
-1.19
-0.03
0.67
0.46
-0.52
-1.61
-1.58
-0.50
0.38
0.43
-0.39
-1.53
-1.84
-0.95
0.13
0.49
-0.06
-1.13
-1.79
-1.26
-0.12
0.47
0.12
-0.93
-1.96
-1.81
-0.65
0.19
0.14
-0.73
-1.83
-1.99
-1.01
-0.01
0.23
-0.41
-1.55
-2.09
-1.42
-0.28
0.24
-0.16
-1.22
-2.12
-1.84
-0.66
0.11
-0.05
-0.98
Sampling Rate: 380.00 Hz
-1.87
-1.60
-0.37
0.48
0.41
-0.46
-1.54
-1.69
-0.70
0.29
0.52
-0.15
-1.28
-1.81
-1.13
-0.01
0.46
0.00
-1.09
-2.02
-1.75
-0.58
0.14
-0.04
-1.02
-2.14
-2.19
-1.15
-0.19
-0.04
-0.79
-1.93
-2.37
-1.60
-0.51
-0.11
-0.64
-1.74
-2.51
-2.08
-0.91
-0.22
-0.45
-1.46
-2.55
-2.50
-1.41
-0.52
-0.49
-1.32
-2.48
-2.80
-1.95
-0.93
-0.63
-1.24
-2.36
-3.00
-2.45
-1.29
-0.69
-1.01
-2.03
-3.00
-2.79
-1.58
-0.71
-0.74
-1.62
-2.73
-2.91
-1.94
-0.94
-0.71
-1.39
-2.52
-3.05
-2.36
-1.24
-0.74
-1.15
-2.17
-2.99
-2.63
-1.44
-0.67
-0.81
-1.75
-2.81
-2.82
-1.73
-0.76
-0.62
-1.36
-2.49
-2.90
-2.10
-1.00
-0.58
-1.10
-2.19
-2.95
-2.50
-1.32
-0.63
-0.85
-1.82
-2.86
-2.77
-1.64
-0.73
-0.69
-1.50
-2.58
-2.82
-1.89
-0.82
-0.48
-1.04
-2.11
-2.70
-2.08
-0.89
-0.27
-0.60
-1.63
-2.62
-2.45
-1.27
-0.44
-0.52
-1.41
-2.52
-2.67
-1.68
-0.69
-0.49
-1.20
-2.35
-2.89
-2.20
-1.07
-0.56
-0.98
-2.04
-2.90
-2.58
-1.41
-0.63
-0.76
-1.70
-2.79
-2.81
-1.73
-0.76
-0.61
-1.33
-2.42
-2.80
-1.98
-0.84
-0.39
-0.87
-1.93
-2.67
-2.20
-1.00
-0.28
-0.48
-1.46
-2.54
-2.47
-1.37
-0.48
-0.45
-1.28
-2.42
-2.71
-1.84
-0.79
-0.48
-1.07
-2.19
-2.83
-2.26
-1.11
-0.50
-0.82
-1.85
-2.84
-2.66
-1.48
-0.64
-0.67
-1.54
-2.62
-2.75
-1.74
-0.73
-0.51
-1.19
-2.32
-2.86
-2.19
-1.07
-0.57
-0.98
-2.04
-2.92
-2.60
-1.40
-0.63
-0.76
-1.70
-2.80
-2.83
-1.77
-0.83
-0.72
-1.49
-2.64
-3.06
-2.26
-1.15
-0.72
-1.23
-2.33
-3.07
-2.62
-1.44
-0.73
-0.96
-1.95
-3.04
-2.98
-1.87
-0.98
-0.94
-1.75
-2.88
-3.15
-2.23
-1.16
-0.81
-1.36
-2.45
-3.06
-2.46
-1.30
-0.70
-1.05
-2.11
-3.11
-2.93
-1.75
-0.93
-1.01
-1.93
-3.06
-3.22
-2.25
-1.26
-1.05
-1.74
-2.88
-3.40
-2.71
-1.59
-1.09
-1.53
-2.59
-3.43
-3.08
-1.88
-1.12
-1.27
-2.23
-3.33
-3.38
-2.34
-1.38
-1.24
-1.96
-3.08
-3.46
-2.64
-1.49
-1.03
-1.50
-2.54
-3.24
-2.72
-1.50
-0.79
-1.02
-2.00
-3.04
-2.93
-1.79
-0.90
-0.89
-1.73
-2.86
-3.14
-2.22
-1.16
-0.80
-1.34
-2.41
-2.98
-2.34
-1.12
-0.46
-0.73
-1.71
-2.64
-2.40
-1.19
-0.34
-0.39
-1.24
-2.32
-2.46
-1.47
-0.45
-0.20
-0.83
-1.93
-2.43
-1.72
-0.57
-0.06
-0.46
-1.52
-2.39
-2.06
-0.84
-0.03
-0.15
-1.07
-2.14
-2.14
-1.03
-0.04
0.11
-0.61
-1.71
-2.09
-1.25
-0.10
0.36
-0.11
-1.17
-1.90
-1.44
-0.24
0.48
0.29
-0.68
-1.72
-1.64
-0.48
0.48
0.58
-0.20
-1.32
-1.64
-0.76
0.34
0.71
0.18
-0.89
-1.51
-0.92
0.30
0.99
0.75
-0.22
-1.19
-0.99
Sampling Rate: 380.00 Hz
0.04
0.65
0.39
-0.62
-1.67
-1.55
-0.37
0.61
0.71
-0.04
-1.09
-1.30
-0.33
0.82
1.24
0.74
-0.26
-0.81
-0.13
1.13
1.83
1.61
0.68
-0.22
0.04
1.31
2.26
2.30
1.49
0.43
0.29
1.30
2.38
2.69
2.10
1.03
0.52
1.23
2.42
3.03
2.71
1.69
0.76
1.03
2.24
3.09
3.02
2.14
1.07
0.97
1.99
3.00
3.22
2.53
1.41
0.91
1.62
2.78
3.29
2.86
1.78
0.89
1.19
2.38
3.15
3.00
2.05
0.92
0.84
1.86
2.81
2.92
2.15
0.97
0.49
1.25
2.35
2.78
2.29
1.20
0.39
0.79
1.97
2.67
2.43
1.41
0.28
0.28
1.35
2.28
2.36
1.58
0.45
0.08
0.89
1.99
2.39
1.88
0.79
0.06
0.54
1.70
2.35
2.09
1.08
-0.01
0.07
1.20
2.11
2.15
1.33
0.20
-0.12
0.75
1.79
2.10
1.49
0.36
-0.32
0.21
1.33
1.89
1.54
0.48
-0.55
-0.39
0.77
1.58
1.49
0.56
-0.62
-0.88
0.01
0.96
1.15
0.45
-0.72
-1.31
-0.69
0.41
0.91
0.49
-0.57
-1.48
-1.20
-0.02
0.76
0.65
-0.30
-1.40
-1.47
-0.43
0.55
0.71
-0.02
-1.16
-1.61
-0.84
0.29
0.75
0.29
-0.78
-1.55
-1.13
0.06
0.78
0.59
-0.38
-1.47
-1.43
-0.31
0.64
0.74
-0.04
-1.15
-1.47
-0.60
0.52
0.90
0.38
-0.68
-1.33
-0.77
0.45
1.15
0.90
-0.09
-1.12
-0.98
0.21
1.12
1.16
0.36
-0.73
-0.94
0.03
1.13
1.50
0.94
-0.13
-0.68
-0.02
1.22
1.91
1.67
0.72
-0.20
0.07
1.33
2.24
2.25
1.44
0.40
0.31
1.38
2.48
2.79
2.21
1.17
0.71
1.46
2.68
3.28
2.94
1.95
1.14
1.53
2.82
3.71
3.68
2.81
1.78
1.80
2.91
3.95
4.19
3.55
2.48
2.10
2.95
4.14
4.66
4.24
3.22
2.47
2.92
4.14
4.91
4.77
3.80
2.71
2.76
3.87
4.83
4.91
4.13
2.99
2.63
3.47
4.57
4.96
4.40
3.27
2.54
3.01
4.14
4.71
4.35
3.24
2.09
2.09
3.11
3.84
3.67
2.63
1.29
0.83
1.53
2.39
2.50
1.66
0.32
-0.54
-0.17
0.75
1.09
0.50
-0.77
-1.98
-2.01
-1.04
-0.45
-0.77
-1.92
-3.27
-3.66
-2.91
-2.14
-2.14
-3.04
-4.40
-5.17
-4.73
-3.81
-3.50
-4.12
-5.37
-6.40
-6.23
-5.18
-4.52
-4.75
-5.77
-6.94
-7.05
-6.06
-5.16
-5.07
-5.84
-6.98
-7.39
-6.59
-5.50
-5.07
-5.54
-6.57
-7.25
-6.71
-5.46
-4.72
-4.91
-5.82
-6.82
-6.67
-5.48
-4.50
-4.37
-5.10
-6.14
-6.31
-5.33
-4.20
-3.80
-4.32
-5.35
-5.91
-5.27
-4.07
-3.46
-3.76
-4.75
-5.65
-5.35
-4.10
-3.18
-3.17
-3.97
-4.97
-5.00
-3.89
-2.78
-2.45
-3.02
-4.04
-4.43
-3.61
-2.40
-1.82
-2.16
-3.12
-3.85
-3.40
-2.12
-1.25
-1.28
-2.10
-3.05
-2.94
-1.75
-0.70
Sampling Rate: 380.00 Hz
-0.57
-1.27
-2.15
-2.04
-0.84
0.31
0.66
0.10
-0.89
-1.24
-0.40
0.82
1.40
1.07
0.13
-0.57
-0.08
1.23
2.13
2.15
1.38
0.47
0.64
1.88
3.01
3.33
2.77
1.80
1.53
2.44
3.64
4.19
3.84
2.89
2.30
2.89
4.18
5.01
4.97
4.17
3.26
3.45
4.66
5.69
5.90
5.26
4.30
4.10
5.02
6.13
6.55
6.10
5.13
4.58
5.16
6.36
7.08
6.93
6.13
5.34
5.61
6.81
7.74
7.86
7.21
6.28
6.14
7.04
8.03
8.35
7.84
6.87
6.37
6.96
8.02
8.52
8.18
7.22
6.35
6.53
7.54
8.19
8.04
7.17
6.11
5.95
6.79
7.60
7.71
7.00
5.89
5.35
5.90
6.81
7.17
6.69
5.64
4.80
5.04
6.01
6.61
6.39
5.45
4.37
4.22
5.05
5.79
5.80
5.05
3.97
3.52
4.12
5.01
5.32
4.83
3.83
3.09
3.40
4.34
4.88
4.59
3.65
2.60
2.52
3.35
4.01
3.93
3.10
2.00
1.59
2.20
2.99
3.15
2.51
1.41
0.68
1.00
1.88
2.31
1.95
0.95
-0.06
-0.09
0.77
1.38
1.25
0.39
-0.72
-1.05
-0.39
0.37
0.49
-0.18
-1.26
-1.90
-1.49
-0.63
-0.28
-0.73
-1.76
-2.70
-2.63
-1.75
-1.17
-1.36
-2.27
-3.34
-3.56
-2.82
-2.12
-2.11
-2.87
-3.99
-4.53
-4.03
-3.20
-2.90
-3.37
-4.38
-5.17
-4.93
-4.01
-3.49
-3.73
-4.63
-5.63
-5.68
-4.80
-4.05
-4.02
-4.73
-5.74
-6.09
-5.40
-4.48
-4.17
-4.64
-5.58
-6.18
-5.74
-4.75
-4.22
-4.46
-5.34
-6.23
-6.13
-5.15
-4.41
-4.41
-5.13
-6.08
-6.25
-5.44
-4.53
-4.26
-4.77
-5.70
-6.15
-5.58
-4.57
-4.06
-4.33
-5.16
-5.91
-5.62
-4.56
-3.81
-3.83
-4.53
-5.41
-5.44
-4.51
-3.63
-3.44
-4.01
-4.94
-5.30
-4.62
-3.63
-3.19
-3.55
-4.44
-5.09
-4.72
-3.67
-3.03
-3.15
-3.94
-4.81
-4.74
-3.76
-2.93
-2.81
-3.41
-4.28
-4.49
-3.66
-2.61
-2.15
-2.45
-3.20
-3.61
-3.00
-1.83
-1.10
-1.15
-1.78
-2.42
-2.08
-0.88
0.08
0.30
-0.16
-0.83
-0.72
0.40
1.66
2.31
2.22
1.74
1.72
2.72
4.18
5.13
5.23
4.73
4.24
4.73
5.97
6.86
6.93
6.27
5.41
5.36
6.27
7.18
7.45
6.95
6.09
5.72
6.39
7.42
7.90
7.61
6.78
6.11
6.46
7.55
8.28
8.23
7.49
6.62
6.63
7.58
8.45
8.63
8.05
7.12
6.78
7.45
8.40
8.75
8.32
7.40
6.74
7.11
8.11
8.71
8.51
7.62
6.64
6.64
7.55
8.30
8.31
7.57
6.55
6.23
6.93
7.81
8.07
7.53
6.51
5.87
6.28
7.22
7.69
7.37
6.42
5.47
5.52
6.42
7.07
6.96
6.12
5.04
4.72
5.41
6.21
6.40
5.80
4.79
4.24
4.73
5.66
6.10
5.76
4.84
3.99
4.18
5.16
5.84
5.74
4.95
3.98
3.84
4.68
5.48
5.63
4.99
Sampling Rate: 380.00 Hz
4.10
3.96
4.78
5.65
5.85
5.26
4.27
3.74
4.27
5.20
5.60
5.20
4.23
3.38
3.56
4.52
5.16
5.03
4.20
3.19
3.07
3.91
4.70
4.83
4.18
3.17
2.73
3.32
4.25
4.61
4.20
3.26
2.55
2.85
3.88
4.51
4.33
3.46
2.47
2.44
3.33
4.12
4.19
3.51
2.50
2.12
2.78
3.68
4.00
3.54
2.60
1.94
2.33
3.34
3.91
3.70
2.85
1.92
1.95
2.89
3.65
3.68
2.98
2.00
1.74
2.49
3.41
3.72
3.23
2.27
1.70
2.16
3.16
3.68
3.42
2.53
1.64
1.74
2.71
3.44
3.41
2.67
1.68
1.47
2.26
3.14
3.36
2.80
1.83
1.32
1.83
2.81
3.29
2.97
2.06
1.25
1.45
2.49
3.20
3.12
2.34
1.38
1.26
2.09
2.92
3.11
2.53
1.58
1.14
1.74
2.71
3.16
2.81
1.91
1.18
1.49
2.54
3.25
3.15
2.35
1.42
1.40
2.34
3.19
3.31
2.67
1.69
1.33
2.00
2.95
3.32
2.92
1.99
1.33
1.69
2.70
3.29
3.08
2.23
1.28
1.27
2.20
2.98
3.03
2.34
1.37
1.08
1.79
2.70
3.00
2.52
1.57
0.96
1.36
2.32
2.86
2.60
1.69
0.78
0.85
1.80
2.53
2.50
1.75
0.75
0.49
1.24
2.12
2.35
1.82
0.88
0.36
0.87
1.86
2.38
2.11
1.24
0.41
0.58
1.60
2.33
2.31
1.57
0.63
0.49
1.33
2.21
2.44
1.91
0.98
0.55
1.15
2.17
2.66
2.36
1.48
0.72
0.97
2.00
2.70
2.63
1.87
0.96
0.91
1.81
2.66
2.81
2.20
1.24
0.82
1.45
2.39
2.79
2.39
1.48
0.78
1.09
2.09
2.71
2.54
1.72
0.77
0.75
1.66
2.45
2.53
1.86
0.87
0.53
1.22
2.16
2.52
2.10
1.18
0.56
0.99
2.00
2.59
2.39
1.54
0.61
0.66
1.59
2.35
2.36
1.64
0.65
0.35
1.06
1.95
2.25
1.75
0.78
0.17
0.60
1.58
2.10
1.84
0.95
0.04
0.13
1.08
1.78
1.75
0.99
-0.02
-0.25
0.52
1.39
1.63
1.09
0.13
-0.38
0.13
1.10
1.57
1.25
0.36
-0.45
-0.24
0.79
1.51
1.47
0.73
-0.21
-0.32
0.53
1.39
1.59
1.02
0.04
-0.43
0.16
1.12
1.55
1.20
0.29
-0.48
-0.21
0.80
1.45
1.35
0.54
-0.39
-0.44
0.46
1.29
1.43
0.83
-0.13
-0.52
0.13
1.06
1.43
1.00
0.08
-0.58
-0.22
0.81
1.44
1.28
0.45
-0.49
-0.48
0.44
1.20
1.25
0.55
-0.44
-0.77
-0.07
0.85
1.18
0.71
-0.23
-0.83
-0.41
0.59
1.15
0.91
0.04
-0.87
-0.79
0.17
0.92
0.93
0.21
-0.76
-1.01
-0.24
0.63
0.88
0.35
-0.62
-1.15
-0.64
0.34
0.85
0.57
-0.33
-1.18
-1.03
-0.05
0.65
0.62
-0.12
-1.06
-1.19
-0.34
0.54
0.75
0.18
-0.77
-1.22
-0.65
0.31
0.74
0.36
-0.56
-1.33
-1.09
Sampling Rate: 381.00 Hz
-0.29
0.10
-0.26
-1.17
-2.04
-1.87
-0.84
-0.12
-0.14
-0.86
-1.77
-1.88
-1.04
-0.17
0.03
-0.52
-1.46
-1.89
-1.27
-0.26
0.20
-0.13
-1.01
-1.73
-1.42
-0.39
0.28
0.17
-0.63
-1.55
-1.55
-0.64
0.20
0.33
-0.27
-1.21
-1.54
-0.84
0.11
0.48
0.05
-0.86
-1.48
-1.08
-0.07
0.53
0.33
-0.51
-1.44
-1.40
-0.47
0.28
0.29
-0.42
-1.41
-1.70
-1.00
-0.14
0.12
-0.40
-1.37
-1.97
-1.54
-0.57
-0.09
-0.41
-1.35
-2.27
-2.19
-1.25
-0.60
-0.70
-1.52
-2.55
-2.79
-2.04
-1.26
-1.12
-1.75
-2.79
-3.34
-2.86
-2.00
-1.66
-2.11
-3.10
-3.95
-3.80
-2.90
-2.35
-2.58
-3.50
-4.56
-4.73
-3.95
-3.26
-3.26
-4.00
-5.08
-5.56
-5.03
-4.21
-3.95
-4.46
-5.45
-6.17
-5.86
-4.96
-4.46
-4.74
-5.68
-6.66
-6.66
-5.77
-5.10
-5.17
-5.96
-6.99
-7.27
-6.58
-5.78
-5.60
-6.20
-7.21
-7.80
-7.35
-6.45
-6.04
-6.43
-7.38
-8.27
-8.14
-7.19
-6.55
-6.69
-7.52
-8.54
-8.74
-7.97
-7.22
-7.13
-7.81
-8.86
-9.36
-8.82
-7.92
-7.57
-8.00
-8.99
-9.75
-9.49
-8.55
-7.98
-8.19
-9.08
-10.08
-10.13
-9.28
-8.58
-8.59
-9.35
-10.40
-10.71
-10.02
-9.20
-9.00
-9.58
-10.58
-11.13
-10.63
-9.73
-9.35
-9.75
-10.67
-11.42
-11.14
-10.20
-9.64
-9.86
-10.73
-11.66
-11.62
-10.69
-10.02
-10.08
-10.85
-11.80
-11.93
-11.09
-10.28
-10.17
-10.79
-11.73
-12.02
-11.31
-10.41
-10.14
-10.65
-11.57
-12.02
-11.44
-10.49
-10.08
-10.47
-11.38
-12.03
-11.66
-10.68
-10.14
-10.39
-11.26
-12.11
-11.95
-10.98
-10.33
-10.44
-11.24
-12.18
-12.19
-11.31
-10.56
-10.54
-11.25
-12.20
-12.39
-11.60
-10.78
-10.59
-11.16
-12.10
-12.47
-11.84
-10.93
-10.61
-11.09
-12.02
-12.60
-12.14
-11.19
-10.72
-11.03
-11.93
-12.68
-12.42
-11.44
-10.82
-11.00
-11.82
-12.72
-12.63
-11.65
-10.92
-10.94
-11.67
-12.58
-12.64
-11.75
-10.91
-10.76
-11.37
-12.31
-12.58
-11.84
-10.93
-10.67
-11.18
-12.11
-12.55
-11.96
-11.00
-10.58
-10.94
-11.82
-12.44
-12.04
-11.03
-10.45
-10.66
-11.49
-12.29
-12.09
-11.07
-10.37
-10.45
-11.22
-12.12
-12.10
-11.16
-10.36
-10.29
-10.96
-11.89
-12.07
-11.27
-10.41
-10.20
-10.75
-11.69
-12.06
-11.41
-10.45
-10.06
-10.44
-11.29
-11.77
-11.22
-10.16
-9.60
-9.83
-10.65
-11.41
-11.13
-10.08
-9.36
-9.44
-10.19
-11.05
-10.99
-10.00
-9.15
-9.01
-9.60
-10.50
-10.70
-9.87
-8.91
-8.56
-9.01
-9.89
-10.34
-9.76
-8.72
-8.16
-8.37
-9.16
-9.89
-9.61
-8.54
-7.77
-7.77
-8.49
-9.37
-9.40
-8.47
-7.57
-7.36
-7.92
-8.86
-9.22
-8.55
-7.54
-7.09
-7.43
-8.30
-8.94
-8.57
-7.51
-6.81
-6.90
-7.68
-8.58
-8.55
-7.60
-6.79
-6.69
-7.32
-8.26
-8.55
-7.85
-6.92
-6.58
-7.02
-7.93
-8.49
-8.03
-7.03
-6.48
Sampling Rate: 377.00 Hz
-6.78
-7.62
-8.18
-7.74
-6.71
-6.12
-6.31
-7.15
-8.07
-8.03
-7.11
-6.36
-6.35
-7.06
-8.04
-8.28
-7.52
-6.60
-6.29
-6.77
-7.69
-8.19
-7.67
-6.67
-6.14
-6.42
-7.29
-8.11
-7.93
-6.90
-6.18
-6.22
-6.95
-7.87
-7.96
-7.09
-6.22
-5.99
-6.52
-7.45
-7.85
-7.23
-6.22
-5.73
-6.04
-6.88
-7.54
-7.20
-6.14
-5.44
-5.53
-6.30
-7.20
-7.18
-6.24
-5.38
-5.22
-5.81
-6.76
-7.12
-6.46
-5.53
-5.17
-5.58
-6.48
-7.09
-6.67
-5.64
-5.02
-5.21
-6.06
-6.99
-6.95
-6.02
-5.27
-5.25
-5.95
-6.91
-7.13
-6.35
-5.41
-5.08
-5.55
-6.47
-6.99
-6.49
-5.49
-4.96
-5.22
-6.07
-6.87
-6.67
-5.65
-4.93
-4.97
-5.72
-6.66
-6.77
-5.91
-5.06
-4.85
-5.42
-6.36
-6.76
-6.14
-5.17
-4.75
-5.13
-6.02
-6.72
-6.39
-5.36
-4.69
-4.81
-5.62
-6.54
-6.54
-5.60
-4.75
-4.61
-5.24
-6.20
-6.52
-5.81
-4.84
-4.43
-4.83
-5.71
-6.30
-5.86
-4.84
-4.24
-4.43
-5.25
-6.12
-6.03
-5.05
-4.28
-4.25
-4.93
-5.86
-6.06
-5.26
-4.35
-4.05
-4.53
-5.45
-5.96
-5.44
-4.43
-3.90
-4.17
-5.01
-5.78
-5.56
-4.53
-3.79
-3.82
-4.54
-5.46
-5.52
-4.63
-3.77
-3.56
-4.13
-5.05
-5.47
-4.86
-3.91
-3.50
-3.86
-4.73
-5.42
-5.08
-4.04
-3.38
-3.50
-4.30
-5.23
-5.24
-4.32
-3.51
-3.41
-4.03
-4.97
-5.28
-4.56
-3.61
-3.23
-3.64
-4.54
-5.11
-4.66
-3.64
-3.06
-3.27
-4.11
-4.99
-4.89
-3.92
-3.16
-3.14
-3.84
-4.79
-5.00
-4.22
-3.33
-3.08
-3.58
-4.51
-5.01
-4.48
-3.47
-2.94
-3.22
-4.09
-4.89
-4.67
-3.64
-2.91
-2.95
-3.69
-4.60
-4.68
-3.82
-2.98
-2.80
-3.37
-4.33
-4.74
-4.12
-3.14
-2.71
-3.06
-3.94
-4.64
-4.31
-3.28
-2.62
-2.73
-3.53
-4.43
-4.43
-3.50
-2.66
-2.52
-3.15
-4.09
-4.39
-3.66
-2.69
-2.30
-2.71
-3.62
-4.23
-3.84
-2.85
-2.28
-2.49
-3.33
-4.23
-4.15
-3.19
-2.40
-2.35
-3.01
-3.93
-4.15
-3.38
-2.46
-2.15
-2.60
-3.51
-4.02
-3.49
-2.48
-1.95
-2.22
-3.07
-3.89
-3.70
-2.67
-1.93
-1.95
-2.67
-3.59
-3.68
-2.82
-1.93
-1.71
-2.25
-3.16
-3.57
-2.95
-1.97
-1.51
-1.85
-2.73
-3.42
-3.12
-2.09
-1.40
-1.48
-2.24
-3.12
-3.12
-2.18
-1.32
-1.16
-1.74
-2.66
-2.99
-2.29
-1.32
-0.94
-1.32
-2.19
-2.78
-2.34
-1.29
-0.65
-0.82
-1.63
-2.51
-2.41
-1.41
-0.58
-0.50
-1.12
-2.03
-2.24
-1.45
-0.49
-0.17
-0.61
-1.51
-2.00
-1.49
-0.46
0.10
-0.14
-1.00
-1.86
-1.74
-0.76
-0.04
-0.07
-0.81
-1.75
-1.92
-1.08
-0.20
0.05
-0.47
-1.40
-1.85
-1.27
-0.26
0.23
-0.07
-0.92
-1.66
-1.38
-0.33
0.38
0.32
-0.44
-1.34
-1.38
-0.50
0.36
0.53
-0.05
-0.98
-1.36
-0.72
0.26
0.70
0.36
-0.51
Sampling Rate: 380.00 Hz
-0.94
-0.34
0.65
1.13
0.81
-0.07
-0.84
-0.60
0.43
1.14
1.08
0.32
-0.59
-0.63
0.26
1.12
1.28
0.68
-0.30
-0.70
-0.09
0.86
1.25
0.87
-0.04
-0.77
-0.47
0.53
1.16
1.03
0.23
-0.69
-0.70
0.21
1.02
1.15
0.53
-0.43
-0.77
-0.10
0.86
1.23
0.82
-0.09
-0.74
-0.37
0.64
1.26
1.08
0.23
-0.72
-0.72
0.18
0.92
0.95
0.24
-0.74
-1.06
-0.34
0.59
0.91
0.47
-0.44
-1.00
-0.55
0.45
1.01
0.78
-0.05
-0.93
-0.83
0.12
0.87
0.89
0.20
-0.74
-0.94
-0.14
0.78
1.08
0.61
-0.29
-0.78
-0.25
0.78
1.35
1.12
0.29
-0.51
-0.33
0.68
1.39
1.35
0.61
-0.33
-0.46
0.40
1.29
1.54
1.02
0.10
-0.32
0.27
1.26
1.72
1.41
0.54
-0.21
0.04
1.06
1.77
1.72
0.96
0.05
-0.00
0.89
1.76
1.97
1.41
0.46
0.06
0.67
1.65
2.09
1.73
0.85
0.15
0.45
1.47
2.13
2.04
1.25
0.33
0.33
1.25
2.08
2.22
1.62
0.69
0.36
1.03
1.98
2.37
1.96
1.05
0.40
0.78
1.80
2.42
2.28
1.47
0.58
0.63
1.56
2.36
2.43
1.77
0.82
0.54
1.28
2.24
2.58
2.13
1.21
0.64
1.08
2.07
2.63
2.42
1.59
0.73
0.84
1.82
2.59
2.60
1.90
0.98
0.79
1.59
2.52
2.81
2.35
1.45
0.95
1.48
2.47
2.99
2.70
1.81
0.97
1.11
2.11
2.82
2.78
2.03
1.10
0.97
1.82
2.70
2.95
2.43
1.51
1.09
1.69
2.70
3.21
2.94
2.12
1.43
1.76
2.85
3.61
3.59
2.87
2.00
1.99
2.91
3.77
3.96
3.40
2.49
2.13
2.80
3.78
4.19
3.82
2.92
2.26
2.61
3.64
4.29
4.17
3.37
2.45
2.47
3.40
4.22
4.34
3.72
2.78
2.45
3.15
4.08
4.44
4.01
3.09
2.49
2.91
3.93
4.53
4.34
3.49
2.59
2.64
3.57
4.32
4.34
3.64
2.69
2.46
3.23
4.12
4.40
3.89
2.94
2.40
2.88
3.87
4.38
4.11
3.23
2.39
2.52
3.49
4.19
4.13
3.35
2.36
2.16
2.92
3.76
3.96
3.40
2.44
1.94
2.45
3.39
3.83
3.49
2.59
1.78
1.99
2.97
3.63
3.52
2.73
1.76
1.66
2.50
3.31
3.47
2.89
1.93
1.52
2.15
3.12
3.55
3.20
2.30
1.61
1.94
2.97
3.65
3.55
2.78
1.89
1.93
2.87
3.71
3.83
3.21
2.26
1.90
2.56
3.47
3.80
3.35
2.43
1.79
2.17
3.16
3.75
3.55
2.73
1.82
1.87
2.80
3.58
3.64
2.97
2.01
1.74
2.47
3.37
3.68
3.23
2.31
1.78
2.28
3.30
3.85
3.64
2.79
1.95
2.08
3.05
3.78
3.76
3.03
2.06
1.88
2.68
3.55
3.80
3.29
2.36
1.88
2.41
3.38
3.87
3.55
2.66
1.84
2.02
3.00
3.67
3.58
2.80
1.86
1.74
2.57
Sampling Rate: 381.00 Hz
3.20
3.11
2.34
1.37
1.19
1.99
2.88
3.14
2.65
1.74
1.29
1.86
2.87
3.37
3.08
2.20
1.38
1.59
2.62
3.34
3.29
2.54
1.61
1.51
2.36
3.23
3.44
2.87
1.91
1.46
2.05
3.03
3.47
3.12
2.21
1.46
1.72
2.74
3.39
3.26
2.44
1.48
1.43
2.32
3.14
3.29
2.67
1.72
1.33
1.97
2.91
3.30
2.89
2.00
1.35
1.73
2.78
3.45
3.34
2.52
1.59
1.64
2.59
3.41
3.50
2.85
1.90
1.61
2.34
3.27
3.58
3.10
2.15
1.51
1.90
2.85
3.39
3.14
2.27
1.34
1.39
2.35
3.09
3.10
2.39
1.42
1.17
1.94
2.85
3.15
2.68
1.77
1.25
1.75
2.74
3.26
3.01
2.15
1.33
1.51
2.54
3.29
3.27
2.55
1.61
1.47
2.31
3.20
3.44
2.91
1.97
1.53
2.13
3.14
3.62
3.32
2.45
1.69
1.94
2.96
3.66
3.58
2.80
1.88
1.80
2.66
3.51
3.70
3.12
2.16
1.74
2.35
3.31
3.72
3.35
2.46
1.77
2.10
3.15
3.85
3.76
2.99
2.12
2.14
3.08
3.93
4.07
3.47
2.53
2.20
2.88
3.81
4.18
3.78
2.87
2.23
2.62
3.62
4.22
4.04
3.19
2.28
2.33
3.26
4.05
4.12
3.47
2.54
2.30
3.07
4.02
4.39
3.97
3.09
2.56
3.07
4.13
4.74
4.57
3.77
2.94
3.09
4.10
4.87
4.88
4.19
3.25
3.06
3.86
4.77
5.02
4.51
3.58
3.10
3.66
4.67
5.19
4.90
4.05
3.27
3.49
4.52
5.24
5.19
4.45
3.52
3.39
4.23
5.07
5.27
4.68
3.71
3.25
3.82
4.79
5.24
4.91
4.04
3.31
3.59
4.61
5.30
5.20
4.41
3.50
3.47
4.37
5.22
5.37
4.75
3.77
3.40
4.06
5.01
5.40
4.99
4.08
3.43
3.79
4.80
5.43
5.28
4.45
3.52
3.54
4.47
5.27
5.36
4.70
3.74
3.44
4.16
5.08
5.40
4.95
4.02
3.44
3.87
4.85
5.39
5.16
4.29
3.41
3.51
4.49
5.24
5.24
4.53
3.58
3.37
4.13
5.00
5.25
4.72
3.75
3.22
3.74
4.72
5.22
4.92
4.04
3.22
3.40
4.40
5.09
5.00
4.22
3.24
3.06
3.86
4.69
4.87
4.29
3.33
2.88
3.45
4.41
4.86
4.49
3.58
2.82
3.05
4.03
4.68
4.56
3.74
2.80
2.74
3.61
4.42
4.55
3.93
2.95
2.57
3.23
4.16
4.53
4.12
3.22
2.56
2.93
3.95
4.56
4.38
3.53
2.60
2.63
3.58
4.36
4.43
3.75
2.79
2.53
3.27
4.21
4.54
4.09
3.19
2.64
3.12
4.16
4.76
4.56
3.73
2.88
3.02
4.03
4.79
4.82
4.14
3.23
3.05
3.87
4.79
5.07
4.60
3.69
3.22
3.78
4.82
5.33
5.07
4.22
3.43
3.64
4.68
5.41
5.37
4.62
3.68
3.56
4.40
5.23
5.40
4.81
3.85
3.43
4.04
5.02
5.48
Sampling Rate: 380.00 Hz
5.12
4.29
3.89
4.50
5.52
6.04
5.77
4.93
4.14
4.35
5.36
6.07
5.99
5.22
4.26
4.13
4.96
5.80
5.98
5.41
4.44
4.00
4.59
5.56
5.98
5.59
4.67
3.92
4.21
5.22
5.86
5.73
4.91
3.97
3.91
4.76
5.54
5.63
4.99
4.01
3.65
4.32
5.24
5.57
5.11
4.17
3.49
3.84
4.82
5.39
5.17
4.29
3.33
3.33
4.23
4.99
5.02
4.32
3.32
2.99
3.67
4.55
4.84
4.35
3.40
2.83
3.28
4.29
4.87
4.65
3.82
3.01
3.15
4.16
4.88
4.88
4.16
3.23
3.07
3.89
4.79
5.04
4.51
3.57
3.11
3.67
4.68
5.18
4.89
4.04
3.26
3.47
4.48
5.18
5.11
4.35
3.40
3.30
4.15
5.00
5.18
4.59
3.62
3.17
3.73
4.66
5.06
4.66
3.71
2.94
3.19
4.17
4.83
4.74
3.96
3.04
3.02
3.92
4.73
4.83
4.19
3.21
2.84
3.49
4.42
4.80
4.37
3.45
2.78
3.12
4.14
4.77
4.62
3.79
2.86
2.88
3.81
4.59
4.67
4.00
3.03
2.71
3.41
4.32
4.62
4.15
3.23
2.62
3.06
4.04
4.60
4.37
3.51
2.60
2.66
3.59
4.33
4.34
3.61
2.65
2.43
3.21
4.10
4.38
3.89
2.97
2.47
2.98
3.96
4.47
4.20
3.32
2.51
2.70
3.71
4.44
4.41
3.68
2.77
2.66
3.51
4.34
4.51
3.91
2.93
2.48
3.07
4.05
4.49
4.14
3.25
2.52
2.80
3.82
4.49
4.37
3.57
2.64
2.60
3.49
4.29
4.41
3.76
2.77
2.39
3.05
3.99
4.36
3.93
3.01
2.36
2.74
3.73
4.33
4.13
3.28
2.34
2.35
3.28
4.05
4.10
3.42
2.44
2.13
2.86
3.79
4.10
3.63
2.70
2.10
2.53
3.52
4.06
3.82
2.95
2.06
2.16
3.13
3.88
3.88
3.17
2.21
2.00
2.80
3.71
3.97
3.45
2.51
1.98
2.50
3.49
3.98
3.68
2.80
1.98
2.16
3.15
3.83
3.75
2.97
2.00
1.86
2.69
3.53
3.72
3.16
2.21
1.79
2.40
3.38
3.84
3.51
2.63
1.90
2.19
3.23
3.93
3.84
3.05
2.14
2.11
3.01
3.83
3.96
3.35
2.38
2.00
2.63
3.56
3.92
3.50
2.57
1.89
2.23
3.23
3.84
3.67
2.85
1.91
1.90
2.82
3.58
3.64
2.96
1.99
1.66
2.36
3.25
3.55
3.09
2.15
1.57
1.99
2.98
3.52
3.28
2.42
1.52
1.63
2.59
3.32
3.29
2.53
1.55
1.33
2.11
2.98
3.22
2.68
1.73
1.20
1.70
2.66
3.13
2.81
1.89
1.03
1.19
2.18
2.88
2.81
2.03
1.07
0.93
1.76
2.61
2.80
2.22
1.25
0.79
1.37
2.35
2.81
2.48
1.61
0.90
1.19
2.24
2.95
2.89
2.15
1.24
1.18
2.06
2.89
3.04
2.44
1.48
1.09
1.71
2.68
3.10
2.74
1.84
1.15
1.49
2.52
3.18
3.05
2.23
Sampling Rate: 380.00 Hz
1.51
1.78
2.82
3.52
3.46
2.69
1.74
1.64
2.48
3.29
3.41
2.80
1.81
1.37
1.97
2.91
3.32
2.92
2.00
1.28
1.57
2.56
3.17
2.98
2.13
1.16
1.13
2.02
2.81
2.91
2.27
1.31
0.96
1.64
2.55
2.86
2.40
1.46
0.82
1.20
2.20
2.77
2.55
1.67
0.72
0.74
1.65
2.38
2.40
1.69
0.73
0.46
1.19
2.09
2.37
1.88
0.95
0.40
0.89
1.91
2.47
2.24
1.41
0.58
0.75
1.76
2.53
2.55
1.88
0.97
0.83
1.66
2.57
2.84
2.33
1.42
0.99
1.58
2.60
3.11
2.84
1.99
1.25
1.50
2.54
3.24
3.16
2.40
1.48
1.41
2.29
3.15
3.32
2.74
1.77
1.36
1.97
2.93
3.35
2.96
2.02
1.29
1.57
2.57
3.19
3.02
2.18
1.23
1.20
2.12
2.94
3.06
2.42
1.47
1.14
1.82
2.76
3.11
2.67
1.74
1.10
1.48
2.48
3.08
2.88
2.01
1.08
1.12
2.06
2.84
2.87
2.17
1.18
0.90
1.63
2.54
2.83
2.35
1.42
0.86
1.34
2.35
2.88
2.62
1.77
0.93
1.07
2.06
2.75
2.71
1.96
0.99
0.80
1.58
2.45
2.66
2.12
1.16
0.65
1.17
2.13
2.60
2.28
1.37
0.55
0.72
1.70
2.35
2.24
1.41
0.40
0.22
0.96
1.71
1.76
1.05
-0.05
-0.61
-0.14
0.70
1.01
0.53
-0.50
-1.36
-1.20
-0.31
0.22
-0.04
-0.97
-2.03
-2.17
-1.37
-0.68
-0.69
-1.46
-2.55
-3.02
-2.45
-1.60
-1.35
-1.88
-2.89
-3.60
-3.25
-2.32
-1.80
-2.08
-3.00
-3.99
-3.98
-3.09
-2.38
-2.41
-3.16
-4.14
-4.41
-3.66
-2.76
-2.49
-2.98
-3.93
-4.47
-3.97
-2.98
-2.48
-2.75
-3.62
-4.43
-4.25
-3.24
-2.53
-2.58
-3.32
-4.25
-4.36
-3.50
-2.63
-2.42
-2.97
-3.90
-4.32
-3.70
-2.71
-2.22
-2.51
-3.36
-4.06
-3.74
-2.69
-1.99
-2.08
-2.86
-3.77
-3.79
-2.88
-2.05
-1.92
-2.54
-3.50
-3.85
-3.16
-2.21
-1.83
-2.24
-3.15
-3.77
-3.34
-2.32
-1.70
-1.86
-2.67
-3.55
-3.47
-2.50
-1.74
-1.70
-2.39
-3.35
-3.59
-2.81
-1.89
-1.60
-2.09
-3.01
-3.52
-2.99
-1.98
-1.45
-1.70
-2.56
-3.36
-3.15
-2.12
-1.37
-1.40
-2.16
-3.10
-3.23
-2.38
-1.52
-1.32
-1.88
-2.82
-3.24
-2.62
-1.62
-1.18
-1.53
-2.42
-3.14
-2.83
-1.80
-1.13
-1.24
-2.02
-2.91
-2.89
-1.93
-1.07
-0.94
-1.55
-2.48
-2.75
-2.00
-1.01
-0.63
-1.04
-1.92
-2.45
-1.95
-0.88
-0.26
-0.43
-1.25
-2.11
-2.01
-1.01
-0.22
-0.20
-0.93
-1.92
-2.15
-1.39
-0.53
-0.30
-0.87
-1.89
-2.49
-2.05
-1.16
-0.77
-1.19
-2.20
-3.13
-3.05
-2.19
-1.64
-1.89
-2.85
-3.99
-4.28
-3.62
-2.99
-3.02
-3.82
-5.02
-5.67
-5.28
-4.55
-4.34
-4.89
-5.97
-6.83
-6.70
-5.87
-5.39
-5.66
-6.56
-7.57
-7.65
Sampling Rate: 380.00 Hz
-6.88
-6.36
-6.54
-7.33
-8.24
-8.27
-7.38
-6.52
-6.32
-6.85
-7.71
-8.00
-7.28
-6.28
-5.83
-6.13
-6.92
-7.43
-6.97
-5.88
-5.19
-5.26
-5.98
-6.78
-6.66
-5.65
-4.80
-4.65
-5.22
-6.04
-6.20
-5.36
-4.35
-3.92
-4.25
-5.02
-5.43
-4.84
-3.75
-3.11
-3.26
-3.99
-4.71
-4.44
-3.35
-2.53
-2.47
-3.10
-3.93
-4.01
-3.14
-2.21
-1.93
-2.41
-3.28
-3.68
-3.06
-2.03
-1.50
-1.74
-2.52
-3.18
-2.83
-1.75
-0.99
-1.01
-1.70
-2.52
-2.48
-1.53
-0.63
-0.41
-0.93
-1.79
-2.09
-1.37
-0.37
0.10
-0.21
-1.04
-1.66
-1.29
-0.26
0.38
0.27
-0.50
-1.41
-1.38
-0.47
0.31
0.38
-0.26
-1.21
-1.53
-0.84
0.07
0.38
-0.08
-1.01
-1.62
-1.22
-0.27
0.26
0.03
-0.85
-1.75
-1.69
-0.76
-0.04
-0.06
-0.80
-1.77
-2.01
-1.28
-0.43
-0.20
-0.73
-1.68
-2.21
-1.73
-0.78
-0.31
-0.61
-1.50
-2.31
-2.13
-1.15
-0.48
-0.56
-1.34
-2.30
-2.44
-1.62
-0.79
-0.63
-1.24
-2.24
-2.72
-2.16
-1.25
-0.88
-1.29
-2.24
-2.99
-2.75
-1.80
-1.23
-1.44
-2.31
-3.30
-3.38
-2.54
-1.82
-1.79
-2.49
-3.51
-3.90
-3.28
-2.40
-2.11
-2.60
-3.57
-4.21
-3.84
-2.88
-2.36
-2.60
-3.48
-4.40
-4.34
-3.40
-2.67
-2.70
-3.45
-4.43
-4.68
-3.94
-3.08
-2.84
-3.39
-4.38
-4.91
-4.41
-3.43
-2.95
-3.27
-4.20
-5.05
-4.90
-3.92
-3.23
-3.32
-4.13
-5.13
-5.29
-4.47
-3.64
-3.49
-4.13
-5.14
-5.64
-5.09
-4.17
-3.80
-4.22
-5.20
-5.99
-5.75
-4.77
-4.15
-4.33
-5.21
-6.21
-6.30
-5.44
-4.69
-4.63
-5.34
-6.40
-6.81
-6.19
-5.30
-4.99
-5.50
-6.50
-7.18
-6.81
-5.83
-5.28
-5.55
-6.49
-7.49
-7.52
-6.62
-5.91
-5.95
-6.72
-7.74
-8.04
-7.32
-6.44
-6.20
-6.76
-7.76
-8.34
-7.87
-6.90
-6.44
-6.79
-7.74
-8.64
-8.50
-7.52
-6.85
-6.97
-7.81
-8.83
-8.99
-8.16
-7.33
-7.20
-7.85
-8.88
-9.36
-8.80
-7.88
-7.52
-7.97
-8.94
-9.73
-9.46
-8.46
-7.85
-8.04
-8.93
-9.94
-9.99
-9.07
-8.27
-8.20
-8.90
-9.90
-10.22
-9.48
-8.49
-8.10
-8.52
-9.43
-10.01
-9.50
-8.42
-7.83
-8.07
-8.95
-9.82
-9.65
-8.58
-7.80
-7.80
-8.55
-9.51
-9.64
-8.72
-7.74
-7.45
-7.97
-8.90
-9.29
-8.59
-7.47
-6.89
-7.15
-7.97
-8.64
-8.24
-7.05
-6.27
-6.30
-7.03
-7.91
-7.82
-6.75
-5.76
-5.53
-6.12
-7.06
-7.39
-6.63
-5.59
-5.21
-5.69
-6.74
-7.51
-7.19
-6.21
-5.70
-6.05
-7.12
-8.31
-8.49
-7.75
-7.20
-7.48
-8.55
-9.93
-10.61
-10.24
-9.77
-9.99
-11.09
-12.67
-13.78
-13.82
-13.47
-13.72
-14.85
-16.55
-17.97
-18.26
-17.84
-17.84
-18.67
-20.13
-21.55
-21.89
-21.33
-21.11
-21.70
-23.00
-24.41
-24.80
-24.16
-23.59
-23.74
-24.66
-25.81
-26.15
-25.36
-24.45
Sampling Rate: 379.00 Hz
-24.31
-24.94
-25.82
-25.83
-24.80
-23.73
-23.40
-23.88
-24.73
-24.93
-24.00
-22.82
-22.27
-22.55
-23.35
-23.69
-22.93
-21.69
-21.00
-21.17
-21.93
-22.48
-21.94
-20.68
-19.86
-19.93
-20.71
-21.53
-21.29
-20.10
-19.22
-19.20
-19.94
-20.87
-20.83
-19.76
-18.79
-18.58
-19.18
-20.12
-20.30
-19.38
-18.31
-17.94
-18.41
-19.33
-19.71
-18.96
-17.83
-17.32
-17.68
-18.59
-19.17
-18.64
-17.48
-16.84
-17.08
-17.99
-18.85
-18.60
-17.49
-16.76
-16.90
-17.82
-18.84
-18.80
-17.76
-16.91
-16.90
-17.68
-18.72
-18.89
-17.97
-17.03
-16.86
-17.55
-18.63
-19.03
-18.29
-17.28
-16.95
-17.51
-18.60
-19.21
-18.68
-17.63
-17.18
-17.65
-18.75
-19.63
-19.36
-18.33
-17.75
-18.08
-19.14
-20.24
-20.22
-19.20
-18.51
-18.72
-19.73
-20.92
-21.11
-20.23
-19.45
-19.48
-20.36
-21.59
-21.99
-21.24
-20.35
-20.22
-21.02
-22.26
-22.90
-22.33
-21.34
-20.98
-21.53
-22.63
-23.34
-22.79
-21.55
-20.83
-21.01
-21.83
-22.50
-21.91
-20.36
-19.20
-18.97
-19.52
-20.17
-19.68
-18.11
-16.76
-16.33
-16.79
-17.52
-17.29
-15.87
-14.42
-13.77
-14.00
-14.61
-14.45
-13.01
-11.23
-10.21
-10.13
-10.57
-10.48
-9.10
-7.18
-5.91
-5.70
-6.27
-6.82
-6.19
-4.64
-3.60
-3.59
-4.51
-5.67
-5.79
-4.73
-3.71
-3.56
-4.40
-5.69
-6.30
-5.61
-4.48
-4.13
-4.84
-6.27
-7.47
-7.40
-6.42
-5.95
-6.50
-7.92
-9.42
-9.70
-8.74
-7.89
-7.95
-8.98
-10.39
-10.96
-10.21
-9.25
-9.13
-10.06
-11.57
-12.53
-12.13
-11.12
-10.76
-11.37
-12.57
-13.42
-12.81
-11.28
-10.24
-10.17
-10.88
-11.58
-10.95
-9.16
-7.72
-7.23
-7.61
-8.23
-7.79
-6.07
-4.28
-3.36
-3.43
-4.00
-3.93
-2.55
-0.66
0.52
0.66
0.10
-0.28
0.68
2.61
4.07
4.48
3.99
3.30
3.72
5.35
6.89
7.52
7.16
6.31
6.16
7.32
8.89
9.71
9.51
8.66
8.09
8.81
10.43
11.51
11.54
10.71
9.80
10.13
11.60
12.80
13.06
12.43
11.58
11.77
13.20
14.60
15.12
14.68
13.79
13.68
14.88
16.38
17.12
16.87
16.06
15.76
16.80
18.42
19.38
19.33
18.57
17.98
18.70
20.28
21.31
21.29
20.43
19.47
19.74
21.09
22.09
22.09
21.17
19.98
19.83
20.84
21.75
21.74
20.77
19.36
18.75
19.40
20.24
20.26
19.25
17.68
16.63
16.86
17.59
17.62
16.60
14.90
13.45
13.30
13.95
14.02
13.11
11.36
9.59
9.07
9.63
9.90
9.21
7.63
5.77
4.83
5.17
5.64
5.32
4.02
2.22
1.01
1.12
1.85
1.96
1.10
-0.49
-2.00
-2.21
-1.36
-0.84
-1.27
-2.57
-4.07
-4.50
-3.71
-2.88
-2.85
-3.78
-5.19
-5.91
-5.30
-4.18
-3.74
-4.28
-5.50
-6.49
-6.18
-4.89
-4.05
-4.23
-5.26
-6.42
-6.42
-5.24
-4.17
-4.00
-4.76
-5.93
-6.34
-5.43
-4.18
-3.71
-4.24
-5.39
-6.18
-5.67
-4.37
-3.63
-3.94
-5.10
Sampling Rate: 376.00 Hz
-6.08
-5.79
-4.63
-4.03
-4.52
-5.96
-7.62
-8.18
-7.63
-7.36
-8.14
-10.02
-12.39
-13.94
-14.22
-14.35
-15.38
-17.51
-20.19
-22.23
-22.90
-23.08
-23.99
-25.97
-28.62
-30.88
-31.77
-31.85
-32.49
-34.18
-36.67
-39.10
-40.12
-40.02
-40.33
-41.68
-43.91
-46.23
-47.24
-47.01
-46.92
-47.78
-49.57
-51.62
-52.59
-52.18
-51.64
-51.96
-53.25
-55.00
-55.94
-55.46
-54.56
-54.43
-55.36
-56.89
-57.88
-57.49
-56.46
-56.13
-56.85
-58.34
-59.60
-59.46
-58.37
-57.85
-58.41
-59.84
-61.33
-61.46
-60.43
-59.80
-60.22
-61.57
-63.12
-63.46
-62.51
-61.67
-61.79
-62.90
-64.36
-64.86
-63.98
-62.92
-62.71
-63.53
-64.89
-65.50
-64.71
-63.45
-62.98
-63.57
-64.82
-65.65
-65.07
-63.71
-63.02
-63.40
-64.58
-65.61
-65.24
-63.83
-62.91
-63.07
-64.14
-65.31
-65.17
-63.83
-62.77
-62.71
-63.58
-64.63
-64.57
-63.20
-61.81
-61.33
-61.81
-62.71
-62.78
-61.50
-59.91
-59.11
-59.31
-60.01
-60.11
-58.82
-56.89
-55.58
-55.21
-55.48
-55.49
-54.23
-52.20
-50.71
-50.21
-50.54
-50.90
-50.09
-48.26
-46.82
-46.39
-46.84
-47.52
-47.13
-45.62
-44.27
-43.84
-44.33
-45.18
-45.19
-43.99
-42.66
-42.13
-42.53
-43.42
-43.67
-42.68
-41.31
-40.64
-40.95
-41.87
-42.38
-41.67
-40.33
-39.59
-39.83
-40.81
-41.68
-41.34
-40.10
-39.30
-39.47
-40.44
-41.52
-41.44
-40.28
-39.38
-39.35
-40.17
-41.22
-41.29
-40.20
-39.12
-38.88
-39.54
-40.61
-40.90
-39.96
-38.76
-38.32
-38.81
-39.81
-40.25
-39.47
-38.18
-37.51
-37.78
-38.69
-39.30
-38.70
-37.35
-36.51
-36.61
-37.45
-38.28
-37.91
-36.53
-35.52
-35.45
-36.20
-37.08
-36.87
-35.58
-34.45
-34.20
-34.84
-35.83
-35.94
-34.88
-33.77
-33.49
-34.17
-35.36
-35.91
-35.24
-34.25
-34.00
-34.73
-36.05
-36.94
-36.62
-35.69
-35.38
-36.07
-37.48
-38.73
-38.72
-37.87
-37.53
-38.18
-39.65
-41.22
-41.61
-40.94
-40.56
-41.12
-42.55
-44.23
-44.83
-44.24
-43.73
-44.09
-45.36
-47.03
-47.82
-47.37
-46.70
-46.81
-47.86
-49.44
-50.39
-50.05
-49.23
-49.08
-49.87
-51.29
-52.33
-52.07
-51.11
-50.69
-51.27
-52.56
-53.77
-53.67
-52.59
-51.92
-52.22
-53.27
-54.47
-54.49
-53.37
-52.46
-52.48
-53.31
-54.42
-54.56
-53.48
-52.40
-52.18
-52.83
-53.96
-54.35
-53.43
-52.21
-51.83
-52.34
-53.47
-54.10
-53.31
-51.93
-51.32
-51.65
-52.64
-53.37
-52.68
-51.05
-50.02
-50.06
-50.85
-51.74
-51.23
-49.52
-48.23
-48.02
-48.64
-49.51
-49.17
-47.52
-46.01
-45.51
-45.94
-46.80
-46.72
-45.20
-43.50
-42.68
-42.92
-43.71
-43.81
-42.46
-40.61
-39.48
-39.38
-39.92
-40.05
-38.85
-36.88
-35.46
-35.02
-35.35
-35.63
-34.64
-32.64
-31.06
-30.45
-30.70
-31.13
-30.43
-28.64
-27.05
-26.39
-26.64
-27.21
-26.83
-25.25
-23.63
-22.83
-22.98
-23.62
-23.57
-22.27
-20.63
-19.72
-19.78
-20.42
-20.61
-19.54
-17.90
-16.86
-16.79
-17.42
-17.88
-17.08
Sampling Rate: 373.00 Hz
-15.68
-14.86
-14.97
-15.71
-16.11
-15.26
-13.64
-12.53
-12.38
-12.98
-13.57
-12.95
-11.32
-10.08
-9.76
-10.30
-11.02
-10.63
-9.10
-7.71
-7.19
-7.59
-8.39
-8.41
-7.19
-5.67
-4.88
-5.08
-5.89
-6.29
-5.42
-3.81
-2.73
-2.61
-3.26
-3.92
-3.32
-1.60
-0.22
0.11
-0.57
-1.58
-1.58
-0.28
1.12
1.62
1.03
-0.14
-0.66
0.26
1.81
2.64
2.37
1.32
0.43
0.96
2.65
3.91
4.08
3.30
2.33
2.58
4.16
5.73
6.36
5.92
4.99
4.84
6.12
7.90
8.91
8.81
7.97
7.38
8.19
10.01
11.27
11.38
10.54
9.58
9.95
11.55
12.91
13.24
12.55
11.53
11.60
13.03
14.54
15.14
14.65
13.67
13.49
14.73
16.38
17.19
16.88
15.89
15.40
16.35
18.01
18.98
18.82
17.85
17.06
17.69
19.34
20.47
20.51
19.59
18.56
18.88
20.44
21.73
21.97
21.22
20.15
20.22
21.61
23.03
23.52
22.95
21.90
21.70
22.92
24.50
25.21
24.80
23.75
23.24
24.14
25.72
26.59
26.34
25.32
24.51
25.11
26.70
27.75
27.70
26.73
25.66
25.96
27.48
28.67
28.80
27.93
26.80
26.83
28.19
29.53
29.92
29.23
28.06
27.77
28.91
30.36
30.97
30.47
29.33
28.80
29.69
31.20
31.97
31.65
30.57
29.75
30.34
31.87
32.87
32.77
31.79
30.73
31.00
32.44
33.52
33.57
32.67
31.56
31.56
32.79
33.91
34.08
33.19
31.86
31.38
32.21
33.25
33.44
32.56
31.07
30.19
30.69
31.72
32.01
31.24
29.78
28.66
28.94
30.05
30.62
30.11
28.75
27.41
27.42
28.57
29.34
29.11
27.95
26.63
26.51
27.64
28.63
28.63
27.62
26.22
25.81
26.78
27.94
28.22
27.45
26.15
25.57
26.42
27.77
28.37
27.85
26.65
25.86
26.52
27.96
28.79
28.54
27.48
26.54
27.06
28.73
29.97
30.16
29.42
28.53
28.93
30.60
32.07
32.52
31.97
31.08
31.23
32.72
34.29
34.95
34.51
33.55
33.36
34.59
36.21
37.03
36.74
35.76
35.25
36.13
37.71
38.62
38.40
37.39
36.55
37.13
38.73
39.81
39.78
38.83
37.76
38.02
39.49
40.68
40.79
39.92
38.76
38.73
40.03
41.29
41.62
40.87
39.66
39.29
40.32
41.65
42.13
41.51
40.29
39.65
40.41
41.74
42.35
41.88
40.65
39.70
40.12
41.39
42.08
41.69
40.36
38.98
38.91
39.95
40.60
40.20
38.86
37.30
36.88
37.74
38.52
38.40
37.31
35.83
35.24
36.01
37.05
37.29
36.52
35.22
34.54
35.22
36.47
37.04
36.58
35.45
34.63
35.15
36.51
37.32
37.08
36.00
34.90
35.08
36.36
37.28
37.21
36.24
35.07
35.07
36.28
37.37
37.54
36.73
35.53
35.22
36.20
37.34
37.65
36.97
35.76
35.21
35.99
37.22
37.73
37.20
36.01
35.21
35.74
37.03
37.73
37.41
36.29
35.24
35.48
36.76
37.63
37.49
36.46
35.27
35.30
36.53
37.58
Sampling Rate: 374.00 Hz
37.55
36.59
35.49
35.63
36.94
37.97
37.98
37.05
35.83
35.70
36.88
38.05
38.29
37.51
36.24
35.79
36.73
37.97
38.37
37.69
36.42
35.69
36.39
37.68
38.27
37.78
36.55
35.59
36.04
37.43
38.26
38.02
36.87
35.65
35.80
37.13
38.12
38.06
37.05
35.79
35.72
36.95
38.10
38.28
37.45
36.20
35.84
36.86
38.11
38.49
37.77
36.48
35.84
36.61
37.88
38.40
37.84
36.59
35.65
36.14
37.49
38.27
37.98
36.88
35.83
36.16
37.66
38.74
38.81
37.96
36.92
37.12
38.59
39.88
40.19
39.50
38.44
38.34
39.61
41.01
41.49
40.92
39.80
39.37
40.36
41.77
42.41
41.98
40.91
40.28
41.05
42.57
43.48
43.33
42.41
41.63
42.23
43.86
44.99
45.08
44.26
43.32
43.65
45.11
46.29
46.49
45.73
44.70
44.70
45.93
47.13
47.43
46.78
45.67
45.36
46.32
47.56
48.00
47.44
46.34
45.74
46.43
47.68
48.26
47.84
46.73
45.82
46.19
47.43
48.13
47.83
46.71
45.55
45.61
46.74
47.54
47.39
46.40
45.20
45.05
46.06
46.99
47.08
46.24
45.01
44.59
45.39
46.43
46.68
45.99
44.80
44.18
44.82
45.95
46.42
45.93
44.80
43.98
44.39
45.58
46.23
45.93
44.90
43.82
43.94
45.06
45.80
45.61
44.61
43.45
43.34
44.35
45.24
45.26
44.40
43.21
42.82
43.64
44.61
44.78
44.05
42.86
42.26
42.89
43.94
44.32
43.75
42.59
41.78
42.19
43.25
43.76
43.32
42.19
41.13
41.24
42.31
42.96
42.67
41.57
40.37
40.29
41.27
42.05
41.94
40.97
39.73
39.38
40.18
41.01
41.08
40.26
39.01
38.42
39.04
40.00
40.24
39.58
38.38
37.60
38.03
39.06
39.51
39.04
37.91
36.90
37.07
38.14
38.78
38.51
37.45
36.31
36.27
37.27
38.02
37.91
36.98
35.82
35.60
36.48
37.33
37.37
36.53
35.31
34.80
35.50
36.47
36.73
36.10
34.97
34.30
34.82
35.83
36.22
35.68
34.54
33.61
33.89
34.95
35.53
35.18
34.09
32.93
32.95
33.98
34.67
34.51
33.55
32.41
32.28
33.23
34.07
34.08
33.23
32.05
31.65
32.44
33.40
33.63
32.97
31.84
31.29
31.92
32.98
33.40
32.93
31.86
31.10
31.55
32.68
33.30
33.02
32.05
31.10
31.30
32.45
33.22
33.08
32.16
31.10
31.09
32.15
33.04
33.08
32.28
31.18
30.94
31.82
32.80
33.02
32.38
31.31
30.86
31.59
32.68
33.09
32.59
31.54
30.86
31.35
32.45
33.02
32.67
31.65
30.72
30.98
32.11
32.81
32.60
31.64
30.58
30.61
31.67
32.51
32.47
31.64
30.55
30.35
31.28
32.22
32.37
31.64
30.53
30.09
30.83
31.83
32.12
31.54
30.45
29.85
30.41
31.49
31.97
31.55
30.52
29.69
30.04
31.19
31.87
31.64
30.68
29.64
29.75
30.84
31.62
31.53
30.64
29.56
29.43
30.37
31.23
31.29
30.50
Sampling Rate: 373.00 Hz
29.51
29.49
30.48
31.33
31.31
30.47
29.31
28.97
29.77
30.65
30.80
30.06
28.88
28.30
28.89
29.84
30.13
29.54
28.40
27.59
27.95
28.94
29.39
28.93
27.82
26.79
26.92
27.95
28.56
28.31
27.30
26.19
26.15
27.13
27.93
27.90
27.04
25.94
25.71
26.59
27.50
27.65
26.94
25.83
25.38
26.09
27.08
27.41
26.85
25.79
25.15
25.67
26.72
27.21
26.78
25.72
24.79
25.02
26.07
26.69
26.42
25.40
24.27
24.24
25.22
25.92
25.75
24.80
23.63
23.38
24.20
25.00
25.04
24.22
23.03
22.53
23.17
24.05
24.24
23.53
22.32
21.54
21.90
22.72
22.92
22.21
20.85
19.64
19.52
20.09
20.13
19.20
17.50
15.68
14.90
15.03
14.82
13.74
11.87
9.81
8.70
8.66
8.64
7.89
6.31
4.38
3.09
2.99
3.31
3.07
2.02
0.43
-0.92
-1.11
-0.45
-0.17
-0.70
-1.93
-3.24
-3.50
-2.70
-1.99
-2.03
-2.84
-3.97
-4.40
-3.66
-2.64
-2.25
-2.70
-3.65
-4.24
-3.68
-2.44
-1.69
-1.77
-2.53
-3.32
-3.02
-1.75
-0.71
-0.48
-1.03
-1.87
-1.91
-0.87
0.32
0.81
0.44
-0.42
-0.81
-0.08
1.16
1.85
1.63
0.75
-0.11
0.13
1.24
1.98
1.85
0.92
-0.23
-0.54
0.13
0.75
0.58
-0.51
-2.12
-3.29
-3.47
-3.40
-4.08
-5.75
-8.13
-10.47
-11.82
-12.49
-13.66
-15.73
-18.53
-21.40
-23.21
-24.05
-25.14
-27.00
-29.56
-32.23
-33.91
-34.48
-35.03
-36.24
-38.18
-40.38
-41.78
-42.02
-41.99
-42.56
-43.91
-45.65
-46.82
-46.83
-46.37
-46.46
-47.34
-48.74
-49.81
-49.76
-49.04
-48.77
-49.31
-50.47
-51.53
-51.48
-50.54
-49.93
-50.14
-51.05
-52.03
-52.00
-50.98
-50.12
-50.00
-50.65
-51.53
-51.61
-50.66
-49.64
-49.30
-49.76
-50.59
-50.81
-49.96
-48.81
-48.27
-48.53
-49.27
-49.60
-48.84
-47.57
-46.81
-46.88
-47.53
-48.01
-47.42
-46.09
-45.13
-44.98
-45.49
-46.04
-45.56
-44.15
-42.99
-42.59
-42.92
-43.42
-43.01
-41.59
-40.23
-39.60
-39.75
-40.21
-39.96
-38.68
-37.21
-36.39
-36.36
-36.75
-36.62
-35.41
-33.82
-32.78
-32.56
-32.86
-32.84
-31.72
-29.95
-28.60
-28.05
-28.09
-28.06
-26.96
-25.01
-23.40
-22.60
-22.51
-22.54
-21.61
-19.76
-18.09
-17.21
-17.10
-17.27
-16.66
-15.07
-13.45
-12.54
-12.46
-12.79
-12.55
-11.27
-9.73
-8.81
-8.72
-9.15
-9.33
-8.45
-6.95
-5.91
-5.73
-6.23
-6.80
-6.38
-5.04
-3.91
-3.56
-3.96
-4.64
-4.58
-3.47
-2.23
-1.63
-1.87
-2.58
-2.84
-2.02
-0.70
0.11
0.08
-0.57
-1.17
-0.74
0.57
1.57
1.77
1.22
0.46
0.53
1.60
2.73
3.17
2.82
2.05
1.79
2.60
3.84
4.53
4.40
3.70
3.13
3.61
4.88
5.80
5.92
5.32
4.55
4.68
5.80
6.84
7.18
6.72
5.90
5.67
6.52
7.70
8.29
8.06
7.30
6.76
7.29
8.53
9.37
9.40
8.72
7.91
8.08
Sampling Rate: 376.00 Hz
9.13
9.88
9.87
9.16
8.32
8.41
9.48
10.48
10.78
10.30
9.49
9.32
10.20
11.34
11.84
11.53
10.73
10.35
11.02
12.17
12.78
12.56
11.77
11.14
11.57
12.74
13.50
13.43
12.67
11.84
12.03
13.14
13.98
14.01
13.33
12.46
12.46
13.44
14.37
14.57
14.00
13.09
12.85
13.65
14.65
15.01
14.56
13.67
13.24
13.88
14.93
15.42
15.08
14.18
13.51
13.92
14.99
15.62
15.44
14.62
13.79
13.99
15.06
15.81
15.75
14.97
14.04
14.03
14.98
15.79
15.82
15.07
14.02
13.66
14.34
15.12
15.24
14.56
13.45
12.86
13.32
14.12
14.34
13.75
12.63
11.80
12.02
12.82
13.16
12.65
11.52
10.44
10.42
11.25
11.72
11.40
10.36
9.21
9.01
9.77
10.43
10.37
9.55
8.43
7.96
8.57
9.41
9.65
9.08
8.03
7.33
7.71
8.70
9.22
8.94
8.00
7.03
7.07
8.03
8.77
8.76
7.99
6.98
6.75
7.54
8.45
8.73
8.20
7.22
6.68
7.23
8.26
8.78
8.48
7.56
6.72
6.95
8.05
8.79
8.72
7.93
6.94
6.84
7.72
8.61
8.80
8.22
7.24
6.82
7.49
8.54
9.03
8.70
7.85
7.19
7.60
8.75
9.53
9.50
8.75
7.85
7.90
8.91
9.83
10.01
9.43
8.51
8.24
9.03
10.07
10.48
10.07
9.18
8.65
9.21
10.33
10.96
10.75
9.92
9.14
9.40
10.53
11.34
11.33
10.61
9.74
9.81
10.80
11.70
11.87
11.25
10.31
10.08
10.90
11.88
12.18
11.67
10.74
10.30
10.92
11.94
12.40
12.06
11.17
10.53
10.95
12.01
12.61
12.39
11.54
10.68
10.87
11.93
12.67
12.61
11.83
10.90
10.88
11.81
12.64
12.72
12.03
11.05
10.81
11.62
12.51
12.75
12.19
11.22
10.77
11.39
12.33
12.68
12.23
11.26
10.61
11.04
12.04
12.55
12.26
11.35
10.52
10.75
11.79
12.47
12.35
11.53
10.59
10.62
11.58
12.36
12.37
11.64
10.67
10.51
11.35
12.21
12.38
11.77
10.79
10.44
11.15
12.12
12.48
12.00
11.06
10.51
11.03
12.03
12.51
12.18
11.28
10.54
10.85
11.88
12.52
12.32
11.44
10.49
10.56
11.54
12.25
12.17
11.36
10.37
10.27
11.15
11.98
12.08
11.43
10.45
10.14
10.89
11.83
12.12
11.59
10.62
10.12
10.69
11.67
12.09
11.69
10.74
10.04
10.40
11.41
11.96
11.70
10.80
9.89
10.00
11.02
11.73
11.64
10.83
9.84
9.71
10.57
11.38
11.46
10.76
9.72
9.36
10.05
10.98
11.27
10.75
9.77
9.20
9.69
10.71
11.24
10.94
10.03
9.21
9.45
10.49
11.18
11.04
10.17
9.20
9.18
10.11
10.91
10.97
10.26
9.25
8.93
9.66
10.58
10.83
10.29
9.28
8.72
9.22
10.20
10.65
10.28
9.32
8.53
8.77
9.81
10.49
10.36
9.52
8.55
8.51
9.43
10.24
10.31
9.60
8.57
8.21
8.93
9.85
Sampling Rate: 375.00 Hz
10.05
9.44
8.48
8.14
8.85
9.83
10.16
9.68
8.70
8.06
8.50
9.52
10.09
9.82
8.89
7.91
7.95
8.89
9.61
9.58
8.80
7.75
7.48
8.24
9.14
9.37
8.78
7.75
7.18
7.68
8.66
9.12
8.77
7.82
6.92
7.06
8.08
8.78
8.68
7.86
6.87
6.75
7.60
8.46
8.63
8.02
7.02
6.55
7.15
8.15
8.57
8.17
7.23
6.45
6.75
7.80
8.46
8.29
7.43
6.43
6.37
7.26
8.06
8.14
7.45
6.41
5.99
6.64
7.56
7.89
7.40
6.42
5.76
6.16
7.20
7.79
7.57
6.69
5.73
5.77
6.74
7.52
7.55
6.83
5.85
5.58
6.35
7.28
7.58
7.07
6.10
5.55
6.05
7.08
7.62
7.34
6.41
5.53
5.66
6.68
7.40
7.34
6.55
5.56
5.37
6.18
7.05
7.26
6.69
5.71
5.21
5.77
6.78
7.24
6.88
5.95
5.14
5.40
6.47
7.17
7.07
6.25
5.26
5.16
6.05
6.88
6.99
6.31
5.27
4.83
5.45
6.41
6.77
6.32
5.34
4.58
4.89
5.89
6.50
6.28
5.39
4.39
4.36
5.28
6.08
6.13
5.40
4.36
3.99
4.68
5.61
5.92
5.42
4.43
3.78
4.18
5.21
5.79
5.55
4.65
3.67
3.71
4.67
5.44
5.43
4.68
3.67
3.41
4.20
5.14
5.41
4.87
3.89
3.30
3.78
4.78
5.28
4.95
3.98
3.06
3.17
4.16
4.85
4.77
3.97
2.97
2.81
3.64
4.51
4.72
4.11
3.10
2.62
3.21
4.21
4.67
4.31
3.37
2.55
2.79
3.84
4.53
4.42
3.59
2.63
2.58
3.50
4.34
4.49
3.86
2.87
2.47
3.13
4.09
4.44
3.99
3.03
2.31
2.65
3.68
4.28
4.06
3.16
2.17
2.17
3.09
3.87
3.91
3.19
2.15
1.81
2.52
3.46
3.76
3.25
2.27
1.64
2.08
3.10
3.64
3.38
2.47
1.52
1.60
2.58
3.35
3.33
2.58
1.58
1.36
2.17
3.08
3.32
2.77
1.81
1.29
1.85
2.88
3.40
3.09
2.19
1.35
1.54
2.59
3.32
3.24
2.45
1.48
1.37
2.26
3.15
3.35
2.78
1.80
1.34
1.95
2.95
3.39
3.01
2.06
1.29
1.58
2.63
3.30
3.15
2.28
1.29
1.24
2.17
3.01
3.14
2.49
1.51
1.14
1.84
2.85
3.24
2.79
1.84
1.15
1.52
2.58
3.20
3.00
2.11
1.12
1.11
2.06
2.85
2.90
2.21
1.19
0.87
1.60
2.55
2.86
2.35
1.36
0.74
1.19
2.22
2.80
2.55
1.64
0.70
0.80
1.78
2.55
2.54
1.79
0.80
0.57
1.38
2.31
2.57
2.03
1.04
0.49
1.01
2.01
2.53
2.23
1.33
0.47
0.66
1.72
2.48
2.43
1.65
0.66
0.51
1.36
2.25
2.47
1.90
0.93
0.50
1.12
2.16
2.64
2.29
1.36
0.58
0.86
1.92
2.61
2.48
1.65
0.67
0.62
1.54
2.40
2.54
1.91
0.91
0.52
1.19
2.18
2.58
2.17
Sampling Rate: 380.00 Hz
1.29
0.91
1.57
2.60
3.05
2.68
1.73
0.92
1.17
2.20
2.85
2.70
1.85
0.86
0.79
1.69
2.53
2.67
2.02
1.01
0.60
1.27
2.25
2.64
2.23
1.29
0.59
0.96
2.01
2.66
2.47
1.58
0.59
0.57
1.48
2.24
2.26
1.51
0.46
0.11
0.81
1.75
2.05
1.54
0.54
-0.11
0.31
1.33
1.91
1.67
0.77
-0.18
-0.13
0.86
1.63
1.63
0.88
-0.13
-0.39
0.39
1.30
1.59
1.07
0.11
-0.41
0.13
1.19
1.72
1.44
0.55
-0.31
-0.13
0.94
1.68
1.63
0.84
-0.13
-0.26
0.63
1.57
1.81
1.28
0.32
-0.14
0.48
1.51
1.99
1.65
0.74
-0.03
0.24
1.31
2.02
1.89
1.08
0.11
0.04
0.97
1.82
1.97
1.34
0.35
-0.06
0.61
1.60
2.01
1.59
0.64
-0.09
0.26
1.30
1.94
1.74
0.86
-0.12
-0.13
0.80
1.61
1.69
1.02
0.03
-0.29
0.43
1.41
1.76
1.31
0.37
-0.28
0.15
1.20
1.81
1.60
0.71
-0.25
-0.18
0.81
1.59
1.60
0.84
-0.17
-0.44
0.34
1.29
1.57
1.06
0.09
-0.50
-0.03
0.99
1.50
1.17
0.23
-0.72
-0.63
0.35
1.05
0.98
0.19
-0.80
-1.00
-0.17
0.72
0.94
0.37
-0.63
-1.14
-0.59
0.42
0.90
0.57
-0.37
-1.22
-1.01
0.04
0.73
0.63
-0.20
-1.21
-1.34
-0.49
0.34
0.47
-0.18
-1.19
-1.63
-1.00
-0.01
0.43
0.05
-0.86
-1.59
-1.24
-0.16
0.53
0.42
-0.40
-1.33
-1.31
-0.33
0.54
0.68
0.04
-0.94
-1.29
-0.58
0.41
0.78
0.33
-0.62
-1.26
-0.86
0.21
0.82
0.62
-0.25
-1.21
-1.17
-0.22
0.55
0.55
-0.18
-1.18
-1.45
-0.66
0.27
0.53
-0.00
-1.00
-1.60
-1.14
-0.14
0.38
0.06
-0.86
-1.76
-1.63
-0.62
0.08
0.01
-0.80
-1.82
-2.02
-1.19
-0.30
-0.09
-0.67
-1.65
-2.09
-1.47
-0.43
0.05
-0.29
-1.20
-1.98
-1.71
-0.63
0.09
0.01
-0.77
-1.71
-1.76
-0.84
0.05
0.21
-0.40
-1.38
-1.78
-1.10
-0.08
0.36
-0.03
-0.97
-1.68
-1.33
-0.27
0.37
0.17
-0.71
-1.68
-1.67
-0.70
0.12
0.21
-0.47
-1.47
-1.77
-1.02
-0.04
0.31
-0.14
-1.07
-1.68
-1.23
-0.19
0.40
0.17
-0.72
-1.66
-1.59
-0.61
0.14
0.12
-0.62
-1.61
-1.83
-1.03
-0.12
0.15
-0.38
-1.35
-1.85
-1.30
-0.28
0.22
-0.12
-1.06
-1.93
-1.74
-0.68
0.02
-0.09
-0.93
-1.96
-2.12
-1.27
-0.40
-0.24
-0.86
-1.86
-2.30
-1.66
-0.65
-0.19
-0.58
-1.52
-2.28
-2.00
-0.97
-0.32
-0.48
-1.35
-2.33
-2.37
-1.45
-0.64
-0.57
-1.28
-2.33
-2.70
-2.02
-1.06
-0.73
-1.19
-2.17
-2.84
-2.44
-1.42
-0.84
-1.10
-2.01
-2.98
-2.92
-1.95
-1.21
-1.22
-1.98
-3.00
-3.24
-2.47
-1.58
-1.34
-1.90
-2.89
-3.44
-2.90
-1.88
-1.37
-1.69
-2.59
-3.41
Sampling Rate: 380.00 Hz
-3.09
-2.14
-1.63
-1.90
-2.79
-3.66
-3.51
-2.46
-1.69
-1.70
-2.45
-3.43
-3.58
-2.71
-1.79
-1.54
-2.08
-3.05
-3.50
-2.88
-1.84
-1.37
-1.71
-2.63
-3.41
-3.14
-2.08
-1.38
-1.48
-2.28
-3.23
-3.26
-2.32
-1.48
-1.36
-2.04
-3.08
-3.51
-2.86
-1.92
-1.58
-2.07
-3.08
-3.83
-3.53
-2.54
-1.99
-2.26
-3.25
-4.33
-4.41
-3.55
-2.86
-2.94
-3.77
-4.88
-5.25
-4.56
-3.71
-3.52
-4.15
-5.27
-6.01
-5.67
-4.78
-4.41
-4.88
-5.98
-7.07
-7.09
-6.22
-5.66
-5.96
-6.98
-8.23
-8.62
-7.98
-7.33
-7.41
-8.31
-9.64
-10.43
-10.10
-9.38
-9.26
-9.99
-11.28
-12.29
-12.19
-11.41
-11.10
-11.68
-12.93
-14.16
-14.29
-13.52
-13.10
-13.54
-14.74
-16.07
-16.40
-15.73
-15.22
-15.52
-16.64
-18.05
-18.65
-18.16
-17.60
-17.76
-18.75
-20.16
-20.96
-20.61
-19.96
-19.96
-20.86
-22.27
-23.28
-23.12
-22.42
-22.28
-23.03
-24.42
-25.65
-25.72
-24.99
-24.70
-25.29
-26.61
-27.98
-28.21
-27.45
-26.96
-27.30
-28.46
-29.81
-30.20
-29.49
-28.87
-29.04
-30.05
-31.43
-32.08
-31.56
-30.86
-30.91
-31.91
-33.40
-34.39
-34.19
-33.59
-33.65
-34.66
-36.32
-37.69
-37.86
-37.32
-37.37
-38.42
-40.23
-42.02
-42.62
-42.27
-42.39
-43.48
-45.45
-47.59
-48.60
-48.51
-48.66
-49.77
-51.83
-54.20
-55.59
-55.79
-55.97
-57.00
-59.02
-61.51
-63.25
-63.64
-63.69
-64.55
-66.47
-68.94
-70.89
-71.47
-71.42
-72.05
-73.75
-76.16
-78.35
-79.14
-78.95
-79.34
-80.84
-83.21
-85.64
-86.67
-86.55
-86.82
-88.21
-90.55
-93.14
-94.49
-94.54
-94.75
-95.96
-98.22
-100.90
-102.54
-102.74
-102.85
-103.95
-105.99
-108.54
-110.21
-110.39
-110.38
-111.38
-113.18
-115.50
-117.06
-117.16
-116.92
-117.70
-119.18
-121.12
-122.46
-122.31
-121.70
-122.09
-123.17
-124.70
-125.79
-125.36
-124.29
-124.20
-124.85
-126.00
-126.91
-126.27
-124.81
-124.31
-124.62
-125.48
-126.28
-125.53
-123.79
-122.97
-123.01
-123.66
-124.45
-123.68
-121.75
-120.70
-120.56
-121.07
-121.81
-120.99
-118.88
-117.51
-117.16
-117.51
-118.18
-117.37
-115.24
-113.74
-113.30
-113.60
-114.32
-113.64
-111.50
-109.87
-109.35
-109.62
-110.41
-109.94
-107.88
-106.07
-105.44
-105.64
-106.41
-106.06
-103.98
-101.93
-101.15
-101.28
-102.02
-101.74
-99.67
-97.38
-96.46
-96.52
-97.25
-97.30
-95.48
-92.98
-91.75
-91.62
-92.25
-92.71
-91.28
-88.68
-87.14
-86.82
-87.37
-88.11
-87.00
-84.43
-82.66
-82.22
-82.71
-83.64
-82.96
-80.62
-78.76
-78.28
-78.78
-79.94
-79.76
-77.65
-75.49
-74.82
-75.20
-76.31
-76.42
-74.44
-71.82
-70.58
-70.60
-71.50
-71.86
-70.09
-67.13
-65.34
-65.02
-65.74
-66.44
-65.01
-62.06
-60.02
-59.59
-60.30
-61.26
-60.33
-57.67
-55.55
-55.10
-55.83
-57.10
-56.87
-54.70
-52.58
-52.02
-52.71
-54.20
-54.53
-52.78
-50.61
-49.91
-50.50
-52.00
-52.77
-51.43
-49.11
-48.04
-48.39
-49.73
-50.87
-49.85
-47.34
Sampling Rate: 373.00 Hz
-46.15
-46.42
-47.71
-48.64
-47.36
-44.68
-43.06
-43.06
-44.19
-45.27
-44.16
-41.32
-39.17
-38.66
-39.50
-40.52
-39.66
-36.89
-34.41
-33.43
-33.90
-34.86
-34.31
-31.69
-28.87
-27.53
-27.73
-28.61
-28.37
-26.05
-23.12
-21.53
-21.60
-22.64
-23.05
-21.32
-18.54
-16.97
-17.10
-18.45
-19.61
-18.58
-16.03
-14.48
-14.71
-16.27
-17.93
-17.51
-15.23
-13.55
-13.47
-14.83
-16.56
-16.56
-14.49
-12.44
-11.88
-12.86
-14.38
-14.45
-12.40
-9.90
-8.74
-9.16
-10.45
-10.92
-9.16
-6.26
-4.46
-4.28
-5.26
-6.11
-4.77
-1.68
0.88
1.93
1.68
1.18
2.43
5.70
9.19
11.51
12.49
13.00
14.77
18.69
23.41
27.18
29.71
31.65
34.33
39.14
45.16
50.50
54.65
57.97
61.54
67.02
73.92
80.30
85.52
89.77
93.92
99.57
106.68
113.51
119.17
123.74
127.98
133.37
140.14
146.73
152.23
156.60
160.46
165.26
171.37
177.47
182.49
186.34
189.64
193.64
198.94
204.36
208.78
212.04
214.64
217.81
222.21
226.89
230.65
233.27
235.20
237.53
241.11
245.10
248.28
250.34
251.66
253.24
256.01
259.37
261.99
263.52
264.26
265.15
267.22
269.99
272.13
273.21
273.48
273.74
275.19
277.46
279.16
279.82
279.63
279.36
280.27
282.11
283.45
283.81
283.31
282.67
283.14
284.62
285.72
285.87
285.16
284.27
284.42
285.60
286.54
286.55
285.71
284.60
284.45
285.38
286.16
286.07
285.09
283.77
283.34
284.01
284.63
284.40
283.28
281.76
281.02
281.41
281.91
281.61
280.39
278.75
277.79
278.01
278.45
278.15
276.91
275.18
274.02
274.06
274.43
274.10
272.82
270.99
269.64
269.47
269.74
269.35
268.05
266.14
264.59
264.23
264.43
264.04
262.71
260.73
259.03
258.53
258.71
258.32
256.97
254.93
253.03
252.33
252.48
252.15
250.84
248.78
246.72
245.86
245.96
245.64
244.38
242.28
240.09
239.11
239.17
238.87
237.61
235.52
233.27
232.14
232.12
231.87
230.72
228.70
226.43
225.22
225.17
224.98
223.92
221.96
219.68
218.35
218.19
218.01
216.98
215.06
212.75
211.29
211.07
210.96
210.07
208.24
205.96
204.39
204.11
204.10
203.32
201.58
199.34
197.69
197.32
197.35
196.66
195.00
192.78
191.02
190.52
190.58
189.97
188.40
186.21
184.38
183.80
183.89
183.38
181.90
179.75
177.79
177.12
177.26
176.86
175.50
173.41
171.41
170.68
170.87
170.59
169.35
167.31
165.21
164.36
164.54
164.34
163.19
161.20
159.09
158.18
158.35
158.23
157.19
155.30
153.23
152.26
152.42
152.41
151.50
149.72
147.67
146.61
146.72
146.76
145.94
144.23
142.17
140.99
141.03
141.12
140.39
138.76
136.71
135.46
135.45
135.63
135.01
133.46
131.46
130.15
130.10
130.35
129.86
128.42
126.45
125.06
124.93
125.22
124.84
123.51
121.59
120.12
119.94
120.29
120.03
118.83
116.99
115.45
115.19
115.62
115.50
114.41
112.63
111.01
110.63
111.09
111.05
110.08
Sampling Rate: 369.00 Hz
108.43
107.15
107.07
107.57
107.43
106.32
104.55
103.03
102.77
103.26
103.20
102.18
100.43
98.80
98.43
98.99
99.09
98.27
96.63
94.87
94.28
94.78
95.04
94.39
92.87
91.10
90.31
90.72
91.13
90.70
89.35
87.59
86.55
86.75
87.26
87.04
85.88
84.17
82.95
83.00
83.59
83.57
82.60
80.95
79.53
79.34
79.99
80.16
79.37
77.79
76.17
75.76
76.39
76.68
76.05
74.59
72.95
72.37
72.91
73.36
72.94
71.62
69.93
69.07
69.42
69.94
69.68
68.50
66.82
65.78
65.97
66.58
66.53
65.53
63.92
62.66
62.65
63.34
63.46
62.60
61.05
59.58
59.35
60.09
60.38
59.73
58.26
56.67
56.24
56.90
57.33
56.85
55.49
53.87
53.20
53.71
54.21
53.88
52.62
50.98
50.07
50.42
51.07
50.97
49.92
48.35
47.29
47.49
48.21
48.28
47.38
45.82
44.50
44.42
45.16
45.42
44.73
43.24
41.69
41.35
42.07
42.45
41.88
40.47
38.86
38.35
38.97
39.47
39.07
37.78
36.15
35.40
35.88
36.49
36.32
35.20
33.58
32.60
32.88
33.56
33.54
32.55
30.99
29.84
29.95
30.73
30.92
30.12
28.59
27.20
27.07
27.90
28.28
27.68
26.24
24.68
24.31
25.06
25.56
25.14
23.83
22.21
21.58
22.14
22.70
22.41
21.17
19.50
18.59
18.96
19.62
19.50
18.42
16.78
15.64
15.80
16.52
16.59
15.65
14.04
12.63
12.53
13.31
13.56
12.82
11.25
9.63
9.25
9.95
10.38
9.84
8.39
6.66
5.89
6.35
6.91
6.62
5.34
3.50
2.23
2.28
2.89
2.82
1.71
-0.14
-1.90
-2.36
-1.76
-1.63
-2.52
-4.31
-6.30
-7.19
-6.85
-6.60
-7.27
-8.94
-11.07
-12.42
-12.41
-12.11
-12.65
-14.25
-16.48
-18.15
-18.45
-18.19
-18.67
-20.24
-22.57
-24.64
-25.31
-25.08
-25.51
-27.05
-29.50
-32.02
-33.15
-33.11
-33.56
-35.14
-37.73
-40.54
-42.07
-42.30
-42.80
-44.41
-47.09
-50.17
-52.18
-52.72
-53.20
-54.68
-57.33
-60.52
-62.84
-63.58
-63.91
-65.20
-67.66
-70.82
-73.40
-74.36
-74.57
-75.61
-77.91
-81.03
-83.90
-85.09
-85.15
-85.90
-87.93
-90.98
-94.14
-95.68
-95.85
-96.50
-98.44
-101.49
-104.76
-106.61
-106.91
-107.52
-109.39
-112.47
-115.86
-117.87
-118.24
-118.74
-120.45
-123.42
-126.82
-128.94
-129.30
-129.55
-130.98
-133.66
-136.85
-138.91
-139.13
-139.07
-140.13
-142.49
-145.45
-147.37
-147.41
-147.01
-147.70
-149.78
-152.58
-154.52
-154.53
-153.88
-154.32
-156.18
-158.85
-160.85
-160.87
-160.05
-160.31
-162.08
-164.77
-166.99
-167.24
-166.39
-166.56
-168.29
-171.09
-173.63
-174.10
-173.23
-173.30
-174.93
-177.73
-180.45
-181.09
-180.23
-180.25
-181.90
-184.80
-187.68
-188.48
-187.66
-187.59
-189.19
-192.12
-195.19
-196.24
-195.54
-195.45
-197.05
-200.09
-203.38
-204.77
-204.23
-204.16
-205.80
-208.96
-212.51
-214.21
-213.85
-213.77
-215.33
-218.43
-222.13
-224.17
-224.01
-223.91
-225.52
-228.40
-232.05
-234.14
Sampling Rate: 372.00 Hz
-234.08
-234.46
-236.23
-238.92
-241.98
-243.01
-241.80
-240.84
-241.46
-243.15
-245.41
-245.83
-243.89
-241.93
-241.71
-242.70
-244.46
-244.59
-242.29
-239.85
-239.21
-239.84
-241.33
-241.42
-239.00
-236.18
-235.24
-235.62
-236.88
-236.81
-233.89
-229.97
-227.67
-227.11
-227.76
-227.58
-224.64
-220.57
-218.39
-217.96
-218.75
-219.00
-216.22
-211.73
-208.82
-207.95
-208.50
-208.86
-206.22
-201.59
-198.47
-197.52
-198.10
-198.86
-196.87
-192.92
-190.45
-190.00
-190.97
-192.17
-190.74
-187.29
-185.06
-184.79
-185.87
-187.31
-186.23
-182.73
-179.98
-179.35
-180.18
-181.52
-180.49
-176.92
-173.81
-172.74
-173.29
-174.37
-173.15
-169.12
-165.08
-163.08
-163.08
-163.81
-162.60
-158.58
-154.33
-152.19
-152.19
-153.08
-152.21
-148.40
-144.07
-141.73
-141.69
-142.71
-142.25
-139.00
-135.12
-133.17
-133.49
-135.17
-135.78
-133.61
-130.50
-129.11
-129.83
-131.85
-132.96
-130.97
-127.36
-125.05
-124.73
-125.62
-125.75
-122.83
-118.04
-114.44
-112.89
-112.79
-112.38
-109.07
-103.80
-99.71
-97.73
-97.33
-96.97
-94.04
-88.97
-84.80
-82.64
-82.24
-82.13
-79.83
-75.08
-70.54
-67.86
-67.03
-66.75
-64.56
-59.74
-54.66
-51.39
-50.10
-49.76
-48.05
-43.69
-38.58
-35.21
-34.08
-34.28
-33.82
-30.62
-25.96
-22.87
-22.04
-22.84
-23.57
-21.39
-17.16
-14.10
-13.16
-13.95
-14.88
-13.17
-9.06
-5.58
-4.03
-4.37
-5.26
-4.16
-0.34
3.89
6.31
6.64
5.87
6.22
9.41
14.03
17.06
17.78
16.86
16.00
18.03
22.02
24.72
25.04
23.53
21.74
22.43
25.40
27.53
27.47
25.36
22.56
21.74
23.42
24.89
24.24
21.36
17.47
15.10
15.47
16.34
15.31
12.11
7.74
4.27
3.74
4.78
4.27
0.98
-4.21
-9.51
-12.11
-12.61
-13.95
-17.26
-22.20
-27.20
-29.62
-29.45
-29.48
-31.33
-34.91
-38.99
-41.03
-40.34
-39.29
-40.03
-42.71
-46.34
-48.50
-47.96
-46.73
-47.43
-50.51
-55.02
-58.74
-59.20
-57.95
-57.99
-60.08
-63.66
-66.95
-67.27
-65.48
-64.95
-66.56
-69.83
-73.18
-73.88
-72.22
-71.31
-72.52
-75.57
-79.01
-79.97
-78.09
-76.19
-76.52
-78.85
-82.19
-83.77
-82.75
-81.41
-82.08
-84.52
-87.99
-90.06
-88.88
-86.64
-86.07
-87.54
-90.31
-92.37
-91.19
-87.84
-85.67
-85.54
-86.91
-87.94
-85.94
-81.44
-77.75
-76.23
-76.47
-76.78
-74.30
-68.95
-64.17
-61.55
-61.00
-61.16
-59.31
-54.60
-49.63
-46.48
-45.30
-44.96
-42.88
-37.81
-31.83
-27.59
-25.65
-25.05
-23.66
-19.22
-13.29
-9.05
-7.22
-7.13
-7.02
-3.95
1.37
5.62
7.53
7.42
6.71
8.26
12.55
16.76
18.82
18.60
17.34
17.66
20.91
24.67
26.43
25.83
23.89
22.89
24.86
28.21
29.81
29.00
26.55
24.40
25.46
28.73
30.61
30.14
27.89
25.55
26.16
29.21
31.35
31.20
29.08
26.40
26.11
28.58
30.82
30.87
28.72
25.75
24.59
26.37
28.67
28.94
26.97
23.79
21.74
22.69
24.90
25.37
23.46
19.97
16.85
16.68
18.41
Sampling Rate: 371.00 Hz
18.18
15.43
11.13
7.30
6.32
7.18
6.42
3.19
-1.80
-6.87
-9.29
-9.23
-9.78
-12.51
-17.27
-22.57
-25.50
-25.37
-24.88
-26.39
-30.03
-34.53
-37.18
-36.64
-35.11
-35.43
-37.88
-41.51
-44.01
-43.27
-40.85
-39.99
-41.55
-44.72
-47.56
-47.13
-44.45
-43.20
-44.43
-47.50
-50.57
-50.76
-48.46
-47.02
-47.85
-50.63
-53.83
-54.56
-52.45
-50.56
-50.77
-53.16
-56.33
-57.48
-55.65
-53.40
-53.22
-55.30
-58.56
-60.47
-59.46
-57.39
-57.20
-59.19
-62.65
-65.71
-65.77
-64.12
-64.16
-66.16
-69.50
-72.78
-73.06
-71.01
-70.00
-71.13
-73.74
-76.54
-76.58
-73.83
-71.28
-70.65
-71.85
-73.35
-72.38
-68.22
-63.55
-60.58
-59.54
-59.28
-57.20
-51.95
-45.73
-41.28
-39.11
-38.26
-36.41
-31.40
-24.84
-20.00
-17.68
-17.22
-16.66
-13.09
-7.34
-3.00
-1.26
-1.57
-2.23
-0.37
4.17
8.34
10.34
10.08
9.04
10.04
14.17
19.09
22.12
22.98
22.24
21.98
23.93
26.71
27.49
25.80
22.58
19.83
20.40
23.26
24.77
23.95
21.39
18.83
19.32
22.33
24.40
24.07
21.60
18.52
17.87
19.95
21.77
21.29
18.46
14.63
12.67
13.78
15.40
14.85
11.79
7.53
4.57
4.81
6.59
6.51
3.76
-0.85
-5.24
-6.31
-4.80
-4.45
-6.56
-10.71
-15.15
-16.71
-15.26
-14.15
-15.45
-19.03
-23.40
-25.24
-23.63
-21.53
-21.70
-24.40
-28.31
-30.24
-28.67
-25.91
-25.12
-26.80
-29.91
-32.19
-31.02
-27.92
-26.58
-27.87
-31.10
-34.11
-33.67
-30.78
-29.13
-30.07
-33.02
-36.16
-36.16
-33.39
-31.41
-31.87
-34.53
-37.76
-38.39
-35.84
-33.26
-33.07
-35.25
-38.34
-39.34
-36.98
-33.90
-32.97
-34.45
-37.13
-38.45
-36.26
-32.52
-30.68
-31.44
-33.88
-35.80
-34.25
-30.41
-28.19
-28.71
-31.16
-33.48
-32.45
-28.83
-26.42
-26.72
-29.24
-32.11
-32.15
-29.23
-26.84
-26.97
-29.39
-32.53
-33.32
-30.83
-28.05
-27.67
-29.71
-32.87
-34.22
-32.20
-29.17
-28.34
-30.03
-33.27
-35.49
-34.22
-31.02
-29.65
-30.88
-33.96
-36.73
-35.87
-32.43
-30.42
-31.08
-33.72
-36.47
-36.03
-32.73
-30.27
-30.44
-32.75
-35.59
-35.80
-32.82
-29.91
-29.50
-31.42
-34.27
-35.09
-32.52
-29.37
-28.54
-30.15
-33.11
-34.66
-32.79
-29.55
-28.34
-29.69
-32.79
-35.39
-34.47
-31.20
-29.68
-30.77
-33.66
-36.48
-35.83
-32.48
-30.20
-30.49
-32.82
-35.40
-35.06
-31.61
-28.57
-27.94
-29.53
-31.81
-31.73
-28.44
-24.89
-23.70
-25.00
-27.44
-28.20
-25.67
-22.10
-20.56
-21.65
-24.25
-25.99
-24.29
-20.70
-18.90
-19.69
-22.35
-24.75
-23.66
-20.08
-17.82
-18.13
-20.52
-23.05
-22.43
-18.96
-16.24
-16.04
-18.00
-20.60
-20.68
-17.62
-14.62
-13.99
-15.67
-18.35
-19.06
-16.54
-13.31
-12.28
-13.77
-16.58
-18.11
-16.18
-12.75
-11.15
-12.09
-14.69
-16.85
-15.61
-12.05
-10.09
-10.81
-13.44
-15.98
-15.25
-11.83
-9.42
-9.55
-11.82
-14.52
-14.55
-11.53
-8.69
-8.08
Sampling Rate: 373.00 Hz
-9.77
-12.07
-11.90
-8.81
-5.81
-5.14
-6.94
-9.74
-10.75
-8.53
-5.33
-4.13
-5.45
-8.34
-10.56
-9.35
-5.95
-4.20
-5.07
-7.78
-10.48
-10.00
-6.80
-4.41
-4.43
-6.71
-9.64
-10.19
-7.62
-4.77
-4.12
-5.89
-8.82
-10.36
-8.46
-5.07
-3.54
-4.56
-7.33
-9.76
-8.75
-5.32
-3.16
-3.55
-5.93
-8.62
-8.53
-5.43
-2.56
-1.92
-3.65
-6.32
-7.07
-4.63
-1.22
0.12
-1.10
-3.82
-5.80
-4.33
-0.67
1.35
0.81
-1.71
-4.31
-3.93
-0.80
1.64
1.61
-0.82
-4.02
-5.04
-2.88
-0.20
0.30
-1.78
-5.25
-7.60
-6.55
-3.62
-2.45
-3.85
-7.14
-10.31
-10.06
-7.16
-5.27
-5.91
-8.67
-11.80
-12.15
-9.47
-6.83
-6.39
-8.29
-11.06
-11.91
-9.43
-6.11
-4.80
-5.98
-8.70
-10.63
-9.12
-5.51
-3.57
-4.31
-7.02
-9.73
-9.28
-6.09
-3.77
-3.88
-6.28
-9.30
-9.93
-7.44
-4.66
-4.08
-5.89
-8.89
-10.55
-8.77
-5.54
-4.12
-5.31
-8.22
-10.88
-10.02
-6.72
-4.73
-5.35
-7.92
-10.78
-10.71
-7.73
-5.17
-4.98
-7.01
-9.85
-10.61
-8.13
-5.00
-3.93
-5.25
-7.90
-9.57
-7.86
-4.22
-2.28
-2.87
-5.38
-7.76
-6.82
-3.09
-0.28
0.03
-1.84
-4.28
-4.23
-1.06
2.36
3.50
2.17
-0.37
-1.51
0.61
4.22
5.94
5.06
2.31
-0.19
0.72
4.14
6.43
6.11
3.68
0.83
0.61
3.49
6.30
6.70
4.60
1.40
-0.07
1.85
5.09
6.35
4.96
1.90
-0.62
0.42
3.98
6.18
5.78
3.34
0.64
0.89
4.11
7.03
7.48
5.47
2.52
1.52
3.93
7.22
8.42
6.98
3.96
1.68
2.85
6.28
8.03
7.10
4.11
1.05
1.13
4.12
6.44
6.29
3.78
0.49
-0.53
1.80
4.72
5.46
3.75
0.75
-1.16
0.47
4.06
5.92
5.10
2.45
-0.08
0.76
4.40
7.07
7.27
5.20
2.53
2.40
5.56
9.11
10.39
9.20
6.91
6.12
8.72
12.87
15.09
14.64
12.42
10.63
12.36
16.46
18.98
18.78
16.58
14.37
15.38
19.10
21.76
21.88
19.73
17.01
16.91
19.85
22.56
22.85
20.70
17.53
16.45
18.60
21.36
21.87
19.77
16.38
14.32
15.69
18.63
19.66
18.01
14.69
11.93
12.78
16.01
17.62
16.62
13.69
10.87
11.34
14.51
16.66
16.23
13.61
10.54
10.21
12.97
15.41
15.51
13.28
10.21
9.39
11.89
14.85
15.61
13.83
10.76
9.07
10.87
14.15
15.50
14.17
11.06
8.46
9.44
12.84
14.66
13.77
10.75
7.63
7.73
10.65
12.71
12.16
9.32
5.87
4.87
7.19
9.77
10.00
7.74
4.34
2.49
4.19
7.48
8.88
7.67
4.69
1.98
2.89
6.46
8.88
8.68
6.31
3.49
3.45
6.65
9.81
10.49
8.71
5.81
4.80
7.15
10.59
11.91
10.52
7.50
5.09
6.25
9.68
11.35
10.24
7.00
3.70
3.69
6.48
8.39
7.78
4.82
1.12
-0.19
1.92
4.51
4.78
2.45
-1.07
Sampling Rate: 378.00 Hz
-2.32
-0.13
2.80
3.55
1.75
-1.49
-3.69
-2.23
1.40
3.24
2.31
-0.57
-3.42
-2.95
0.35
2.76
2.65
0.26
-2.80
-3.50
-0.88
2.09
2.64
0.66
-2.59
-4.56
-3.07
0.12
1.36
-0.14
-3.56
-6.78
-6.38
-3.26
-1.32
-2.06
-5.05
-8.56
-9.25
-6.74
-4.19
-3.99
-6.24
-9.61
-11.19
-9.27
-6.30
-5.47
-7.28
-10.74
-13.45
-12.62
-9.54
-8.16
-9.53
-12.85
-16.01
-15.75
-12.79
-10.84
-11.54
-14.39
-17.61
-17.97
-15.22
-12.86
-12.91
-15.28
-18.52
-19.41
-17.04
-14.26
-13.76
-15.72
-18.84
-20.33
-18.35
-15.12
-13.90
-15.35
-18.32
-20.49
-19.08
-15.52
-13.89
-15.05
-18.14
-21.05
-20.27
-16.76
-14.49
-15.04
-17.69
-20.67
-20.47
-17.25
-14.76
-14.96
-17.37
-20.63
-21.38
-18.81
-16.23
-16.29
-18.56
-22.16
-23.93
-22.38
-20.02
-20.07
-22.27
-25.94
-28.61
-27.74
-25.16
-24.62
-26.32
-29.55
-32.63
-32.06
-29.03
-27.72
-28.82
-31.57
-34.42
-33.99
-30.64
-28.08
-28.04
-30.00
-32.46
-32.12
-28.51
-24.88
-23.57
-24.65
-26.59
-26.41
-22.87
-18.66
-16.70
-17.21
-18.95
-19.23
-16.05
-11.36
-8.55
-8.35
-9.75
-10.73
-8.16
-3.19
0.26
1.09
-0.08
-1.49
-0.08
4.11
7.80
9.19
8.31
6.56
6.64
9.90
13.93
16.06
15.90
14.54
14.22
17.16
21.85
25.03
25.96
25.36
25.02
27.84
32.86
36.74
38.33
38.18
37.89
40.29
45.19
49.42
51.44
51.49
50.93
52.42
56.59
60.71
62.76
62.66
61.69
62.30
65.63
69.53
71.55
71.39
70.09
69.82
72.39
76.30
78.70
78.86
77.52
76.47
78.27
82.06
84.52
84.78
83.42
82.02
83.20
86.60
89.21
89.71
88.42
86.67
87.06
90.04
92.88
93.81
92.86
91.15
91.09
93.72
96.73
97.94
97.09
95.19
94.46
96.48
99.57
101.06
100.42
98.51
97.12
98.53
101.62
103.32
102.99
101.17
99.51
100.62
103.73
105.61
105.43
103.68
101.94
102.80
105.76
107.75
107.74
106.10
104.24
104.89
107.70
109.77
109.90
108.30
106.30
106.52
109.03
111.09
111.26
109.57
107.35
107.04
109.24
111.38
111.69
110.12
107.78
107.21
109.13
111.23
111.58
110.00
107.62
106.75
108.49
110.73
111.24
109.83
107.50
106.37
107.86
110.12
110.71
109.36
106.91
105.35
106.39
108.48
109.01
107.47
104.74
102.64
103.30
105.42
106.13
104.69
101.83
99.36
99.61
101.62
102.36
101.00
98.05
95.16
94.88
96.66
97.51
96.28
93.37
90.27
89.54
91.21
92.50
91.89
89.53
86.58
85.48
87.02
88.79
88.82
86.93
84.20
82.85
84.16
86.22
86.64
85.09
82.38
80.39
81.12
83.35
84.11
82.80
80.01
77.29
77.33
79.31
80.14
78.87
76.01
72.96
72.43
74.14
75.24
74.37
71.75
68.66
67.64
69.15
70.63
70.33
68.16
65.23
63.93
65.23
67.09
67.24
65.39
62.51
60.65
61.59
63.73
64.42
62.96
60.12
57.68
57.96
Sampling Rate: 373.00 Hz
59.42
59.46
57.50
54.33
51.70
51.93
53.90
54.54
52.95
49.77
46.67
46.28
48.04
48.76
47.28
44.03
40.53
39.39
40.71
41.55
40.41
37.39
33.74
32.07
33.10
34.38
33.75
31.13
27.65
25.65
26.53
28.26
28.33
26.24
22.93
20.42
20.82
22.81
23.33
21.71
18.58
15.59
15.59
17.79
18.92
17.89
15.10
12.20
11.82
13.86
15.36
14.83
12.38
9.39
8.38
10.14
12.14
12.18
10.13
7.13
5.53
6.83
9.26
10.08
8.66
5.83
3.44
4.09
6.95
8.64
8.11
5.79
3.34
3.42
6.19
8.65
9.10
7.51
5.18
4.55
6.92
10.13
11.49
10.62
8.52
7.22
8.99
12.55
14.53
14.12
11.92
9.80
10.64
13.70
15.61
15.20
12.74
9.78
9.23
11.24
12.76
11.97
9.01
5.23
3.27
4.19
5.69
5.22
2.43
-1.62
-4.86
-4.98
-3.09
-2.56
-4.28
-7.62
-10.80
-10.90
-8.41
-6.56
-6.78
-8.94
-11.54
-11.74
-9.03
-6.23
-5.50
-6.93
-9.35
-10.23
-7.98
-4.67
-3.08
-3.79
-6.04
-7.95
-6.67
-3.23
-1.09
-1.37
-3.51
-5.93
-5.70
-2.87
-0.46
-0.22
-2.16
-5.01
-6.06
-4.11
-1.45
-0.80
-2.54
-5.64
-8.03
-7.22
-4.44
-3.20
-4.36
-7.33
-10.33
-10.37
-7.77
-5.94
-6.28
-8.68
-11.61
-12.17
-9.71
-7.08
-6.49
-8.04
-10.58
-11.64
-9.54
-6.27
-4.86
-5.84
-8.43
-10.62
-9.53
-6.22
-4.36
-4.99
-7.61
-10.54
-10.71
-8.18
-6.28
-6.72
-9.39
-12.83
-14.10
-12.26
-10.03
-9.91
-12.19
-15.59
-17.43
-16.02
-13.44
-12.69
-14.41
-17.60
-20.03
-19.02
-16.00
-14.61
-15.76
-18.70
-21.39
-20.65
-17.39
-15.26
-15.58
-17.83
-20.20
-19.65
-16.25
-13.37
-12.68
-14.14
-16.20
-15.93
-12.56
-8.95
-7.55
-8.50
-10.49
-10.89
-7.99
-3.95
-1.86
-2.18
-4.07
-5.56
-3.94
-0.17
2.13
2.02
0.05
-2.15
-1.64
1.62
4.46
5.02
3.41
0.94
0.30
2.68
5.73
6.77
5.52
2.84
0.89
2.20
5.57
7.30
6.53
3.92
1.27
1.47
4.35
6.61
6.67
4.55
1.69
0.89
3.08
5.81
6.51
4.86
1.99
-0.01
1.28
4.39
5.88
4.87
2.07
-0.64
-0.32
2.56
4.58
4.22
1.76
-1.21
-1.95
0.39
2.94
3.42
1.69
-1.07
-2.49
-0.66
2.59
4.06
3.08
0.52
-1.78
-0.86
2.49
4.74
4.60
2.52
0.06
0.05
2.95
5.88
6.69
5.26
2.79
1.84
4.06
7.39
8.79
7.76
5.15
2.89
3.93
7.21
9.12
8.59
6.05
3.25
3.14
5.88
8.32
8.47
6.40
3.46
2.32
4.37
7.28
8.23
6.74
3.80
1.50
2.55
5.83
7.59
6.84
4.22
1.48
1.64
4.58
6.86
6.91
4.80
1.94
1.13
3.43
6.27
7.08
5.53
2.76
0.95
2.46
5.74
7.27
6.25
3.38
0.59
0.89
3.73
5.67
5.21
2.68
-0.44
-1.23
1.06
3.57
4.02
2.12
-0.84
-2.47
-0.78
2.35
3.72
Sampling Rate: 378.00 Hz
2.49
-0.10
-1.66
0.03
3.43
5.11
4.32
1.70
-0.86
-0.26
2.84
4.95
4.66
2.37
-0.46
-0.91
1.61
4.23
4.75
2.91
0.07
-1.40
0.30
3.45
4.79
3.77
1.09
-1.29
-0.41
2.82
4.92
4.72
2.63
0.28
0.46
3.51
6.46
7.31
6.01
3.80
3.27
5.92
9.55
11.18
10.23
7.75
5.79
6.98
10.17
11.58
10.50
7.51
4.44
4.24
6.56
8.03
7.14
4.15
0.62
-0.64
1.10
3.26
3.50
1.51
-1.62
-3.54
-2.24
0.76
2.23
1.38
-1.14
-3.48
-2.66
0.64
3.00
3.06
1.15
-1.20
-1.22
1.75
4.91
6.00
4.86
2.66
1.76
4.00
7.62
9.48
9.07
7.13
5.40
6.67
10.15
12.48
12.42
10.38
8.06
8.44
11.49
14.11
14.40
12.50
9.76
9.08
11.42
14.15
14.71
12.84
9.79
7.94
9.23
11.93
12.82
11.23
7.98
5.10
5.38
7.90
9.26
8.23
5.22
1.89
1.09
3.18
5.00
4.56
1.81
-1.99
-3.97
-2.84
-0.72
-0.39
-2.38
-5.81
-8.70
-8.33
-5.85
-4.88
-6.23
-9.35
-12.59
-12.94
-10.64
-9.05
-9.75
-12.45
-15.70
-16.70
-14.72
-12.70
-12.85
-15.26
-18.55
-20.14
-18.56
-16.14
-15.67
-17.52
-20.61
-22.55
-21.15
-18.17
-16.88
-18.00
-20.70
-23.11
-22.20
-18.97
-17.28
-18.12
-20.74
-23.38
-22.93
-19.86
-17.79
-18.06
-20.38
-23.18
-23.40
-20.75
-18.31
-18.14
-20.21
-23.06
-23.85
-21.50
-18.79
-18.20
-20.02
-22.92
-24.38
-22.61
-19.60
-18.51
-19.83
-22.64
-24.72
-23.43
-20.07
-18.34
-19.07
-21.59
-23.98
-23.04
-19.51
-17.08
-17.14
-19.19
-21.52
-21.04
-17.69
-14.91
-14.50
-16.30
-18.87
-19.23
-16.46
-13.56
-12.97
-14.73
-17.55
-18.61
-16.49
-13.46
-12.43
-13.80
-16.57
-18.36
-16.82
-13.49
-11.90
-12.86
-15.57
-17.99
-16.95
-13.54
-11.51
-11.95
-14.38
-16.91
-16.38
-13.14
-10.78
-10.80
-13.04
-15.78
-16.08
-13.28
-10.57
-10.18
-12.13
-14.92
-15.75
-13.38
-10.35
-9.36
-10.82
-13.56
-15.13
-13.31
-10.00
-8.47
-9.46
-12.19
-14.66
-13.67
-10.27
-8.34
-8.88
-11.40
-14.09
-13.82
-10.71
-8.35
-8.33
-10.43
-13.12
-13.50
-10.70
-7.82
-7.20
-8.93
-11.67
-12.85
-10.73
-7.52
-6.26
-7.49
-10.32
-12.60
-11.40
-7.96
-6.17
-6.92
-9.55
-12.19
-11.60
-8.25
-5.80
-5.77
-7.96
-10.81
-11.20
-8.46
-5.62
-5.11
-6.98
-9.96
-11.42
-9.57
-6.49
-5.34
-6.71
-9.77
-12.46
-11.70
-8.58
-7.00
-8.03
-11.06
-14.13
-14.14
-11.34
-9.30
-9.62
-12.15
-15.33
-16.14
-13.72
-11.21
-11.00
-13.16
-16.33
-17.59
-15.49
-12.50
-11.69
-13.40
-16.51
-18.46
-16.88
-13.56
-12.16
-13.46
-16.50
-19.19
-18.25
-14.85
-13.05
-13.93
-16.80
-19.58
-19.04
-15.67
-13.22
-13.32
-15.64
-18.47
-18.58
-15.65
-12.92
-12.69
-14.87
-17.97
-18.95
-16.71
-13.95
-13.52
-15.69
-19.06
-20.99
-19.40
-16.50
-15.53
-17.19
-20.45
Sampling Rate: 376.00 Hz
-22.02
-20.18
-17.20
-16.22
-17.75
-20.80
-22.91
-21.41
-17.92
-16.25
-17.23
-20.04
-22.62
-21.59
-18.05
-15.93
-16.49
-19.05
-21.71
-21.21
-17.70
-14.88
-14.53
-16.44
-18.91
-18.64
-15.10
-11.55
-10.38
-11.57
-13.71
-13.78
-10.45
-6.44
-4.57
-5.29
-7.35
-8.49
-6.15
-1.82
0.69
0.45
-1.74
-3.87
-2.73
1.23
4.24
4.70
2.90
0.38
0.20
3.32
6.80
8.03
6.72
4.14
2.76
4.78
8.57
10.43
9.62
6.89
4.31
5.22
8.85
11.32
11.14
8.81
6.13
6.27
9.63
12.90
13.76
12.23
9.74
9.13
11.85
15.44
16.76
15.42
12.67
10.96
12.71
16.20
17.80
16.65
13.59
10.73
11.32
14.43
16.10
15.10
12.03
8.91
8.90
11.78
14.06
13.95
11.62
8.65
8.16
10.85
13.80
14.46
12.69
9.83
8.68
10.94
14.37
15.70
14.46
11.58
9.40
10.74
14.30
16.19
15.47
12.72
10.06
10.72
14.04
16.22
15.74
13.06
9.99
9.66
12.43
14.86
14.78
12.28
8.92
7.61
9.56
12.23
12.69
10.55
6.95
4.44
5.39
8.26
9.23
7.52
3.86
0.27
0.09
2.61
4.11
3.10
-0.23
-4.19
-5.66
-3.87
-1.92
-2.37
-5.29
-9.40
-12.07
-11.36
-9.26
-9.11
-11.64
-15.85
-19.66
-19.82
-17.55
-16.95
-19.08
-23.14
-27.06
-27.61
-25.39
-24.20
-25.66
-29.33
-33.40
-34.69
-32.84
-31.32
-32.31
-35.79
-40.17
-42.18
-40.90
-39.18
-39.81
-43.03
-47.42
-50.16
-49.31
-47.27
-47.38
-50.12
-54.35
-57.66
-57.12
-54.44
-53.59
-55.40
-59.02
-62.23
-61.57
-58.09
-55.77
-55.92
-57.86
-59.65
-58.03
-53.28
-48.98
-46.82
-46.61
-46.80
-44.43
-38.94
-33.37
-29.87
-28.47
-27.92
-25.55
-20.16
-14.08
-9.85
-7.86
-7.05
-5.40
-0.69
5.73
10.61
13.08
13.88
14.67
18.37
24.16
28.78
31.02
31.25
31.03
33.24
37.81
41.79
43.51
43.17
42.07
42.89
46.32
49.90
51.46
50.87
49.23
48.97
51.58
55.05
56.75
56.18
54.29
53.17
55.01
58.53
60.51
60.25
58.42
56.74
57.97
61.26
63.39
63.35
61.51
59.53
60.11
63.04
65.27
65.39
63.62
61.29
61.00
63.29
65.56
65.72
63.78
60.85
59.44
60.75
62.61
62.44
60.02
56.31
53.54
53.60
54.96
54.50
51.60
46.99
42.53
41.11
41.85
41.01
37.67
32.42
27.04
24.61
24.71
23.88
20.65
15.27
9.37
5.98
5.64
5.29
2.57
-2.60
-8.81
-13.40
-14.52
-14.41
-16.27
-20.60
-26.24
-30.94
-31.98
-30.80
-31.18
-33.96
-38.39
-42.41
-42.87
-40.64
-39.58
-41.06
-44.48
-47.88
-48.17
-45.53
-43.52
-43.89
-46.41
-49.41
-49.78
-46.88
-43.93
-43.22
-44.81
-47.36
-47.97
-45.24
-41.66
-40.14
-41.00
-43.13
-43.99
-41.41
-37.25
-34.86
-34.98
-36.67
-37.84
-35.45
-30.72
-27.77
-27.62
-29.45
-31.22
-29.65
-25.39
-22.35
-22.03
-23.83
-26.12
-25.66
-22.33
-19.41
-18.98
-20.82
-23.45
-23.80
-20.84
Sampling Rate: 375.00 Hz
-18.26
-17.93
-19.78
-22.16
-22.02
-18.60
-14.95
-13.57
-14.70
-16.83
-17.17
-14.17
-10.37
-8.71
-9.58
-11.91
-13.38
-11.34
-7.43
-5.32
-5.89
-8.48
-11.03
-10.26
-6.91
-4.75
-5.13
-7.78
-10.95
-11.33
-8.56
-6.01
-5.82
-8.00
-11.17
-12.38
-10.06
-6.94
-5.98
-7.64
-10.74
-12.82
-11.20
-7.53
-5.60
-6.27
-8.88
-11.22
-10.09
-6.19
-3.39
-3.14
-5.17
-7.72
-7.61
-4.28
-0.84
0.37
-0.82
-3.15
-3.83
-1.09
2.86
4.76
3.91
1.28
-1.00
0.28
3.97
6.21
5.64
2.89
-0.09
-0.20
2.85
5.61
5.84
3.58
0.41
-0.76
1.53
4.78
5.87
4.27
1.11
-1.37
-0.16
3.45
5.31
4.29
1.12
-2.09
-2.11
0.94
3.27
2.93
0.18
-3.43
-4.65
-2.44
0.34
0.87
-1.29
-4.93
-7.46
-6.32
-3.17
-1.89
-3.35
-6.77
-10.05
-9.63
-7.04
-5.99
-7.79
-11.97
-16.70
-18.55
-16.99
-15.36
-16.10
-19.21
-23.10
-24.66
-22.56
-19.70
-18.98
-20.82
-23.89
-25.40
-23.33
-19.75
-18.25
-19.44
-22.37
-24.64
-23.32
-19.71
-17.82
-18.64
-21.47
-24.09
-23.26
-19.68
-17.38
-17.80
-20.45
-23.43
-23.45
-20.36
-17.74
-17.59
-19.85
-22.89
-23.55
-20.80
-17.71
-16.94
-18.75
-21.67
-22.78
-20.41
-16.95
-15.67
-17.03
-19.92
-21.84
-20.06
-16.15
-14.03
-14.54
-16.97
-19.10
-17.60
-13.41
-10.62
-10.54
-12.54
-14.69
-13.68
-9.80
-6.68
-6.04
-7.82
-10.39
-10.58
-7.50
-4.12
-3.06
-4.59
-7.37
-8.79
-6.62
-2.76
-0.90
-1.79
-4.55
-7.00
-5.81
-2.00
0.65
0.71
-1.48
-4.18
-4.15
-0.93
2.19
2.99
1.28
-1.55
-2.71
-0.45
2.98
4.22
2.64
-0.76
-3.72
-3.16
-0.22
1.18
-0.32
-4.08
-8.06
-8.98
-6.78
-4.95
-5.67
-8.81
-12.83
-14.52
-12.70
-10.27
-10.20
-12.70
-16.46
-18.71
-17.35
-14.51
-13.77
-15.74
-19.40
-22.46
-21.82
-18.70
-17.31
-18.70
-22.09
-25.26
-24.84
-21.66
-19.66
-20.38
-23.20
-26.32
-26.32
-23.21
-20.54
-20.34
-22.50
-25.38
-25.66
-22.44
-18.96
-17.98
-19.72
-22.73
-24.00
-21.67
-18.23
-17.10
-18.81
-22.10
-24.45
-23.10
-19.81
-18.47
-20.07
-23.65
-27.06
-26.97
-24.34
-23.13
-24.70
-28.54
-32.54
-33.39
-31.32
-30.03
-31.37
-35.04
-39.41
-41.06
-39.33
-37.54
-38.16
-41.20
-45.04
-46.66
-44.74
-41.97
-41.38
-43.39
-46.73
-48.71
-47.13
-43.94
-42.67
-43.99
-46.93
-49.20
-47.77
-43.89
-41.53
-41.64
-43.61
-45.37
-43.76
-39.37
-35.94
-34.90
-35.73
-36.76
-34.98
-30.26
-25.81
-23.47
-23.29
-23.77
-22.02
-17.16
-12.01
-8.92
-8.08
-8.30
-7.21
-2.96
2.61
6.42
7.82
7.52
7.34
10.24
15.43
19.41
21.00
20.62
19.88
21.79
26.24
30.02
31.52
30.82
29.38
30.02
33.47
37.04
38.52
37.73
35.91
35.60
38.31
41.86
43.47
42.81
40.85
39.70
41.66
45.19
47.09
46.64
44.46
42.35
43.32
46.53
48.41
Sampling Rate: 375.00 Hz
47.88
45.73
43.81
45.02
48.35
50.29
49.89
47.68
45.34
45.91
48.91
50.97
50.71
48.29
45.35
44.87
47.15
49.24
49.12
46.78
43.64
42.44
44.38
46.96
47.57
45.95
43.32
42.12
44.24
47.83
49.65
49.09
47.07
45.70
47.75
52.11
54.93
55.32
53.94
52.65
54.51
58.94
62.28
63.14
61.85
60.10
61.01
64.74
67.99
68.78
67.33
65.03
64.92
67.91
71.10
71.97
70.42
67.71
66.50
68.56
71.66
72.71
71.15
68.05
65.67
66.71
69.75
71.05
69.69
66.47
63.37
63.76
66.75
68.51
67.59
64.61
61.32
61.02
63.72
65.70
65.06
62.12
58.43
57.20
59.19
61.22
60.72
57.57
53.06
49.66
49.19
49.26
46.88
41.85
35.34
29.95
28.19
28.45
26.89
22.70
16.85
11.45
9.84
10.93
10.75
7.94
3.15
-1.70
-3.50
-2.07
-0.92
-2.07
-5.56
-9.86
-11.99
-10.67
-8.59
-8.59
-11.15
-15.01
-17.58
-16.58
-13.76
-12.81
-14.53
-17.91
-20.86
-20.18
-16.95
-15.31
-16.29
-19.24
-22.21
-21.90
-18.81
-16.66
-17.13
-19.76
-22.86
-23.22
-20.42
-17.80
-17.58
-19.75
-22.66
-23.31
-20.59
-17.32
-16.25
-17.72
-20.39
-21.48
-19.08
-15.43
-13.85
-14.87
-17.58
-19.57
-17.97
-14.22
-12.27
-13.03
-15.74
-18.30
-17.44
-13.97
-11.86
-12.46
-15.24
-18.37
-18.47
-15.63
-13.46
-13.86
-16.58
-20.05
-20.98
-18.57
-15.99
-15.73
-17.91
-21.17
-22.56
-20.39
-17.23
-16.13
-17.68
-20.64
-22.44
-20.56
-16.83
-15.01
-15.81
-18.47
-20.85
-19.56
-15.71
-13.34
-13.69
-16.08
-18.52
-17.75
-14.10
-11.34
-11.12
-13.18
-15.80
-15.68
-12.46
-9.37
-8.69
-10.47
-13.22
-14.06
-11.59
-8.38
-7.40
-9.01
-12.02
-14.03
-12.40
-8.87
-7.21
-8.25
-11.11
-13.78
-12.97
-9.51
-7.23
-7.57
-10.03
-12.87
-12.80
-9.64
-6.73
-6.19
-8.12
-10.92
-11.64
-8.99
-5.62
-4.53
-6.03
-8.96
-11.04
-9.53
-5.94
-4.14
-5.07
-8.01
-10.89
-10.48
-7.31
-5.27
-5.83
-8.66
-12.06
-12.85
-10.33
-7.76
-7.49
-9.64
-12.78
-14.15
-12.09
-9.04
-8.13
-9.75
-12.87
-15.22
-13.93
-10.51
-8.89
-10.03
-13.14
-16.08
-15.54
-12.51
-10.79
-11.86
-15.11
-18.64
-19.25
-16.84
-15.07
-15.93
-19.11
-23.07
-24.53
-22.70
-20.70
-21.03
-23.77
-27.57
-29.48
-27.88
-25.16
-24.60
-26.55
-29.84
-32.01
-30.53
-27.10
-25.47
-26.39
-28.93
-31.02
-29.42
-25.22
-22.43
-22.09
-23.48
-24.72
-22.65
-17.80
-13.73
-11.88
-11.99
-12.48
-10.41
-5.41
-0.37
2.56
3.43
3.42
5.06
9.73
15.45
19.46
21.25
21.71
22.87
27.04
33.04
37.48
39.68
40.16
40.71
44.11
49.65
54.03
56.12
56.30
56.12
58.28
62.80
66.75
68.58
68.37
67.50
68.57
72.29
76.07
77.89
77.63
76.43
76.60
79.53
83.16
85.07
84.80
83.29
82.53
84.66
88.31
90.45
90.43
88.92
87.52
88.99
92.45
94.71
94.82
93.25
Sampling Rate: 374.00 Hz
91.93
93.41
96.75
98.67
98.39
96.47
94.47
95.05
97.78
99.59
99.32
97.18
94.59
94.15
96.19
97.98
97.73
95.51
92.58
91.36
92.82
94.63
94.60
92.45
89.36
87.49
88.39
90.32
90.66
88.84
85.73
83.18
83.49
85.63
86.34
84.88
81.87
79.01
78.99
81.14
82.28
81.30
78.59
75.62
74.99
76.85
78.23
77.56
75.00
71.79
70.55
72.03
73.74
73.49
71.16
67.91
66.05
66.99
68.81
68.88
66.81
63.48
60.90
61.22
63.21
63.69
62.02
58.73
55.58
55.40
57.35
58.19
56.86
53.84
50.65
50.06
51.94
53.32
52.65
50.17
47.17
46.29
48.13
50.07
50.11
48.14
45.29
43.97
45.48
47.73
48.13
46.45
43.57
41.56
42.50
44.89
45.70
44.27
41.27
38.45
38.56
40.75
41.62
40.19
37.02
33.80
33.23
35.02
36.06
34.95
31.90
28.36
27.02
28.42
29.74
29.06
26.36
22.81
20.99
22.08
23.78
23.60
21.29
17.81
15.30
15.84
17.83
18.24
16.37
12.98
9.91
9.97
12.24
13.24
11.98
8.99
5.86
5.38
7.45
9.05
8.51
6.00
2.72
1.38
3.00
5.24
5.60
3.79
0.77
-1.45
-0.61
2.06
3.14
1.89
-1.01
-3.87
-3.82
-1.31
0.34
-0.20
-2.81
-6.06
-7.28
-5.65
-3.75
-3.88
-6.31
-9.85
-12.29
-11.61
-9.48
-9.07
-11.05
-14.59
-17.82
-17.77
-15.51
-14.71
-16.26
-19.56
-22.80
-23.08
-20.78
-19.32
-20.21
-23.10
-26.49
-27.41
-25.51
-23.82
-24.44
-27.26
-30.90
-32.57
-31.21
-29.44
-29.75
-32.28
-35.89
-37.96
-36.86
-34.51
-34.03
-35.94
-39.26
-41.84
-41.01
-38.17
-36.88
-38.09
-41.03
-43.72
-43.13
-40.03
-38.08
-38.56
-40.91
-43.40
-43.13
-40.09
-37.57
-37.31
-39.19
-41.65
-41.89
-39.15
-36.24
-35.42
-36.82
-39.20
-39.83
-37.34
-34.06
-32.86
-34.05
-36.49
-37.95
-36.15
-32.73
-31.15
-32.01
-34.54
-36.84
-35.90
-32.66
-30.87
-31.62
-34.24
-36.82
-36.33
-33.32
-31.29
-31.62
-34.02
-36.90
-37.23
-34.70
-32.41
-32.26
-34.28
-37.08
-37.74
-35.27
-32.37
-31.47
-32.90
-35.37
-36.37
-34.21
-30.90
-29.51
-30.58
-33.07
-34.87
-33.41
-29.97
-28.15
-28.83
-31.21
-33.39
-32.38
-29.03
-26.90
-27.22
-29.48
-31.94
-31.55
-28.45
-25.97
-25.79
-27.69
-30.11
-30.30
-27.51
-24.52
-23.62
-24.88
-26.96
-27.32
-24.64
-21.12
-19.45
-20.00
-21.78
-22.63
-20.36
-16.54
-14.41
-14.64
-16.51
-18.13
-16.54
-12.81
-10.48
-10.58
-12.48
-14.41
-13.43
-9.95
-7.33
-7.03
-8.76
-11.06
-11.10
-8.29
-5.38
-4.48
-5.82
-8.17
-9.12
-7.06
-3.73
-2.12
-2.80
-5.06
-7.02
-5.79
-2.37
-0.09
-0.12
-1.97
-4.09
-3.78
-0.75
2.05
2.68
1.16
-1.20
-1.85
0.49
3.68
5.04
4.02
1.60
-0.28
0.96
4.29
6.15
5.64
3.30
0.86
1.06
3.83
6.15
6.39
4.62
2.12
1.49
3.79
6.80
7.90
6.73
4.37
2.75
4.27
Sampling Rate: 375.00 Hz
6.93
7.99
6.98
4.70
3.04
4.54
8.12
10.39
10.42
8.69
6.92
7.80
11.13
13.79
14.30
12.86
10.79
10.79
13.53
16.32
17.14
15.87
13.72
13.13
15.39
18.37
19.51
18.46
16.15
14.79
16.45
19.66
21.25
20.57
18.23
16.07
16.92
19.93
21.63
21.03
18.66
16.20
16.55
19.38
21.46
21.42
19.44
16.91
16.65
19.08
21.52
21.90
20.16
17.56
16.67
18.72
21.41
22.21
20.77
18.13
16.49
17.91
20.72
21.90
20.80
18.17
15.79
16.52
19.37
20.76
19.87
17.25
14.61
14.73
17.27
18.99
18.59
16.24
13.38
12.85
15.08
17.26
17.33
15.33
12.48
11.39
13.18
15.47
15.80
13.87
10.85
8.91
10.03
12.66
13.58
12.19
9.19
6.41
6.74
9.30
10.74
9.84
7.15
4.17
3.72
6.04
8.17
8.20
6.16
3.27
2.00
3.71
6.31
7.13
5.60
2.61
0.14
0.81
3.63
4.98
3.98
1.18
-1.84
-2.21
0.09
1.91
1.47
-1.15
-4.58
-6.04
-4.41
-2.07
-1.76
-3.74
-7.02
-9.46
-8.63
-5.82
-4.59
-5.68
-8.49
-11.26
-10.93
-7.94
-5.92
-6.31
-8.75
-11.76
-12.29
-9.79
-7.25
-6.91
-8.85
-11.80
-13.11
-11.29
-8.53
-7.72
-9.45
-12.76
-15.43
-14.67
-11.77
-10.61
-12.00
-15.30
-18.48
-18.28
-15.60
-14.12
-15.19
-18.38
-21.81
-22.33
-19.86
-17.86
-18.20
-20.66
-23.77
-24.44
-21.86
-18.98
-18.36
-20.05
-22.79
-23.69
-21.16
-17.66
-16.21
-17.21
-19.57
-20.97
-18.94
-15.06
-12.89
-13.39
-15.63
-17.60
-16.05
-12.00
-9.27
-9.02
-10.76
-12.63
-11.50
-7.43
-3.88
-2.64
-3.70
-5.54
-5.14
-1.50
2.72
4.77
4.37
2.71
2.00
4.77
9.55
12.58
13.02
11.53
10.17
12.11
16.58
19.80
20.52
19.21
17.65
18.95
23.16
26.83
28.10
27.17
25.55
26.27
30.19
33.95
35.06
33.54
30.88
29.86
32.04
35.25
36.48
35.26
32.58
30.78
32.41
35.96
37.81
37.12
34.61
32.26
33.25
36.64
38.67
38.22
35.74
33.09
33.31
36.32
38.58
38.53
36.36
33.54
33.12
35.73
38.43
38.91
37.17
34.52
33.72
36.13
39.27
40.37
39.19
36.77
35.47
37.52
41.11
42.91
42.29
40.00
38.05
39.48
43.26
45.55
45.37
43.36
41.36
42.41
46.00
48.76
49.10
47.37
45.12
45.30
48.38
51.36
52.18
50.82
48.61
48.12
50.49
53.37
54.27
52.89
50.34
48.99
50.78
53.94
55.43
54.70
52.50
50.79
52.31
55.94
58.10
57.91
56.00
54.17
55.29
58.84
61.45
61.85
60.31
58.32
58.75
61.90
64.80
65.61
64.35
62.27
62.07
64.77
67.80
68.92
67.79
65.61
64.78
66.98
70.28
71.84
71.17
69.06
67.59
69.18
72.69
74.79
74.64
72.84
71.12
72.36
75.88
78.34
78.53
76.93
75.03
75.72
78.97
81.72
82.34
80.95
78.95
79.01
81.83
84.78
85.72
84.57
82.44
81.83
84.12
87.20
88.41
Sampling Rate: 375.00 Hz
87.41
85.44
85.03
87.46
90.46
91.55
90.51
88.28
87.10
88.89
92.06
93.59
92.88
90.68
88.78
89.84
93.00
94.83
94.44
92.36
90.21
90.84
93.80
95.86
95.77
93.80
91.36
91.12
93.47
95.56
95.69
93.83
91.25
90.49
92.45
94.81
95.39
93.93
91.53
90.41
92.23
95.19
96.57
95.81
93.81
92.40
93.94
97.36
99.32
99.08
97.19
95.27
96.16
99.15
101.03
100.56
98.22
95.60
95.49
97.72
99.26
98.66
96.12
92.96
91.85
93.43
95.02
94.66
92.29
89.01
87.37
88.55
90.45
90.62
88.69
85.65
83.64
84.53
86.90
87.76
86.48
83.76
81.35
81.87
84.48
85.74
84.81
82.21
79.52
79.49
81.71
83.12
82.36
79.71
76.63
75.81
77.55
79.09
78.68
76.29
73.12
71.77
73.13
74.95
74.89
72.74
69.57
67.68
68.68
70.86
71.43
69.91
67.15
64.98
65.74
68.32
69.48
68.49
65.93
63.46
63.79
66.27
67.70
66.88
64.24
61.32
60.80
62.71
64.11
63.44
60.83
57.62
56.30
57.53
58.95
58.51
56.13
52.85
50.96
51.71
53.28
53.18
51.11
47.93
45.49
45.80
47.66
48.11
46.51
43.48
40.67
40.67
42.70
43.58
42.42
39.61
36.70
36.26
38.05
39.11
38.13
35.37
32.09
30.92
32.31
33.60
32.95
30.34
26.90
25.06
25.90
27.26
26.85
24.42
21.00
18.60
19.07
20.86
21.17
19.40
16.27
13.54
13.70
15.84
16.67
15.34
12.39
9.41
9.05
11.00
12.30
11.56
9.04
5.98
5.01
6.68
8.53
8.48
6.38
3.30
1.45
2.44
4.64
5.29
3.77
0.79
-2.05
-2.06
0.07
1.28
0.41
-2.23
-5.18
-5.93
-4.11
-2.30
-2.32
-4.27
-7.07
-8.38
-6.95
-4.63
-3.94
-5.27
-7.90
-10.13
-9.50
-7.04
-5.89
-6.80
-9.39
-12.17
-12.61
-10.90
-9.93
-11.00
-14.01
-17.63
-19.37
-18.73
-18.16
-19.51
-22.80
-26.86
-29.42
-29.44
-28.86
-29.89
-32.82
-36.70
-39.65
-39.90
-38.90
-39.31
-41.65
-45.20
-48.30
-48.62
-46.97
-46.35
-47.49
-49.78
-51.79
-51.18
-48.32
-45.92
-45.07
-45.52
-46.06
-44.51
-40.74
-37.09
-34.97
-34.43
-34.44
-33.00
-29.47
-25.73
-23.57
-23.19
-23.73
-23.33
-20.84
-17.60
-15.68
-15.45
-16.19
-16.43
-14.34
-10.85
-8.44
-7.69
-8.20
-8.67
-7.04
-3.75
-1.17
-0.24
-0.81
-1.87
-1.43
1.02
3.53
4.51
3.91
2.50
2.01
3.66
6.21
7.55
7.18
5.60
4.13
4.84
7.13
8.59
8.38
6.83
4.99
4.88
6.70
8.46
8.68
7.33
5.35
4.49
5.79
7.75
8.41
7.47
5.48
3.84
4.43
6.52
7.58
6.97
5.03
2.97
2.82
4.54
5.95
5.75
3.98
1.56
0.47
1.51
2.93
2.87
1.09
-1.69
-3.79
-3.47
-1.67
-0.90
-1.80
-3.85
-5.71
-5.20
-2.60
-0.47
0.09
-0.79
-2.06
-1.55
1.29
4.43
6.11
6.10
5.28
5.48
8.19
12.18
14.97
15.98
15.89
Sampling Rate: 375.00 Hz
16.94
19.42
22.28
23.51
22.89
21.22
20.25
22.09
25.94
29.03
30.49
30.77
31.11
33.83
38.46
42.33
44.37
44.81
44.98
47.17
51.52
55.52
57.73
58.12
57.80
58.97
62.38
66.00
67.96
68.08
67.24
67.45
70.09
73.60
75.63
75.81
74.81
74.32
76.40
80.05
82.44
82.87
81.90
81.05
82.76
86.40
89.16
90.02
89.26
88.23
89.34
92.53
95.22
95.96
94.90
93.21
93.28
95.68
98.14
98.84
97.58
95.46
94.69
96.38
98.70
99.40
98.09
95.60
93.84
94.68
96.90
97.72
96.51
