-1.28
-474
-33.63
-33.53
-34.41
-35.59
-35.78
-34.64
-33.41
-36.53
-36.26
-34.91
-33.96
-34.02
-34.96
-36.11
-36.05
-34.74
-33.63
-33.53
-34.41
-35.59
-35.78
-34.64
-33.41
-33.08 -1.33
-3.01
-4.85
-7.54
-11.43
-16.37
-21.76
-26.49
-30.23
-34.02
-38.51
-43.72
-49.17
-53.75
-56.93
-59.68
-63.01
-67.07
-71.49
-75.12
-77.28
-78.77
-80.75
-83.55
-86.83
-89.65
-91.02
-91.46
-92.31
-94.09
-96.53
-98.83
-99.68
-99.36
-99.39
-100.34
-102.13
-103.98
-104.44
-103.63
-103.03
-103.32
-104.44
-105.73
-105.81
-104.58
-103.50
-103.35
-104.11
-105.10
-105.01
-103.60
-102.25
-101.84
-102.42
-103.33
-103.28
-101.87
-100.41
-99.87
-100.34
-101.24
-101.32
-100.05
-98.58
-97.93
-98.29
-99.19
-99.45
-98.33
-96.70
-95.81
-95.94
-96.76
-97.26
-96.35
-94.64
-93.54
-93.46
-94.17
-94.81
-94.13
-92.37
-91.04
-90.76
-91.37
-92.14
-91.66
-89.96
-88.50
-88.02
-88.53
-89.30
-89.00
-87.38
-85.74
-85.02
-85.31
-86.04
-86.00
-84.56
-82.79
-81.86
-81.99
-82.74
-82.96
-81.81
-80.03
-78.94
-78.91
-79.59
-80.04
-79.15
-77.36
-76.15
-76.01
-76.69
-77.43
-76.83
-75.08
-73.74
-73.46
-74.12
-74.96
-74.64
-73.06
-71.61
-71.09
-71.56
-72.43
-72.40
-71.03
-69.54
-68.88
-69.25
-70.17
-70.41
-69.25
-67.69
-66.87
-67.08
-67.97
-68.46
-67.58
-65.98
-65.03
-65.11
-65.93
-66.61
-65.95
-64.31
-63.16
-63.04
-63.80
-64.67
-64.24
-62.66
-61.39
-61.12
-61.81
-62.75
-62.64
-61.25
-59.94
-59.58
-60.23
-61.27
-61.39
-60.20
-58.77
-58.17
-58.61
-59.61
-60.00
-59.04
-57.61
-56.93
-57.34
-58.45
-59.16
-58.51
-57.08
-56.24
-56.40
-57.34
-58.19
-57.69
-56.13
-55.05
-55.02
-55.97
-57.04
-56.90
-55.60
-54.56
-54.52
-55.41
-56.59
-56.74
-55.58
-54.40
-54.05
-54.69
-55.76
-56.00
-54.83
-53.33
-52.64
-52.99
-53.94
-54.36
-53.40
-51.86
-50.98
-51.16
-52.06
-52.74
-52.05
-50.46
-49.46
-49.53
-50.46
-51.42
-51.09
-49.63
-48.54
-48.49
-49.35
-50.39
-50.30
-48.96
-47.79
-47.56
-48.30
-49.42
-49.63
-48.50
-47.20
-46.77
-47.39
-48.51
-48.95
-48.09
-46.81
-46.32
-46.93
-48.21
-49.10
-48.72
-47.70
-47.28
-47.94
-49.36
-50.64
-50.57
-49.46
-48.81
-49.12
-50.25
-51.43
-51.33
-50.01
-48.97
-48.91
-49.79
-50.87
-50.83
-49.53
-48.29
-47.91
-48.52
-49.56
-49.70
-48.51
-47.12
-46.57
-47.06
-48.14
-48.53
-47.59
-46.14
-45.44
-45.80
-46.83
-47.48
-46.76
-45.25
-44.32
-44.46
-45.42
-46.29
-45.81
-44.30
-43.21
-43.19
-44.05
-45.08
-44.87
-43.49
-42.36
-42.23
-43.04
-44.11
-44.17
-42.92
-41.65
-41.30
-41.95
-43.06
-43.38
-42.33
-40.93
-40.34
-40.79
-41.84
-42.31
-41.38
-39.84
-38.97
-39.17
-40.06
-40.73
-40.07
-38.51
-37.48
-37.52
-38.43
-39.38
-39.00
-37.47
-36.35
-36.22
-36.99
-37.97
-37.79
-36.36
-35.14
-34.89
-35.58
-36.63
-36.74
-35.54
-34.24
-33.79
-34.37
-35.43
-35.72
-34.68
-33.27
-32.60
-33.00
-34.03
-34.56
-33.72
-32.23
-31.38
-31.59
-32.56
-33.37
-32.80
-31.30
-30.35
-30.48
-31.51
-32.63
-32.40
-30.98
-29.91
-29.80
-30.62
-31.71
-31.72
-30.47
Sampling Rate: 373.00 Hz
-29.53
-29.60
-30.53
-31.65
-31.58
-30.23
-29.04
-28.80
-29.56
-30.70
-30.86
-29.68
-28.37
-27.92
-28.54
-29.63
-30.07
-29.11
-27.68
-27.02
-27.44
-28.51
-29.18
-28.43
-26.98
-26.15
-26.39
-27.42
-28.34
-27.93
-26.52
-25.59
-25.66
-26.60
-27.67
-27.49
-26.11
-25.00
-24.92
-25.80
-26.96
-27.01
-25.77
-24.57
-24.24
-24.92
-26.05
-26.38
-25.40
-24.14
-23.72
-24.33
-25.47
-26.03
-25.23
-23.85
-23.14
-23.50
-24.60
-25.47
-25.00
-23.62
-22.84
-23.09
-24.20
-25.30
-25.10
-23.76
-22.80
-22.86
-23.81
-24.94
-24.91
-23.64
-22.56
-22.45
-23.26
-24.47
-24.77
-23.76
-22.62
-22.35
-23.08
-24.32
-24.87
-24.05
-22.82
-22.31
-22.85
-24.00
-24.71
-24.04
-22.66
-21.95
-22.29
-23.41
-24.38
-24.03
-22.66
-21.74
-21.90
-22.94
-24.11
-23.95
-22.62
-21.62
-21.64
-22.59
-23.81
-23.90
-22.70
-21.55
-21.28
-21.99
-23.13
-23.45
-22.47
-21.25
-20.85
-21.44
-22.62
-23.20
-22.40
-21.04
-20.37
-20.74
-21.76
-22.47
-21.84
-20.40
-19.50
-19.65
-20.62
-21.56
-21.20
-19.70
-18.66
-18.64
-19.56
-20.66
-20.54
-19.20
-18.09
-17.97
-18.84
-20.10
-20.37
-19.37
-18.30
-18.15
-18.99
-20.34
-20.93
-20.16
-18.99
-18.64
-19.34
-20.68
-21.46
-20.86
-19.59
-19.00
-19.47
-20.66
-21.65
-21.23
-19.83
-18.94
-19.14
-20.25
-21.43
-21.26
-19.87
-18.84
-18.83
-19.76
-20.94
-20.96
-19.65
-18.45
-18.16
-18.90
-20.02
-20.22
-19.00
-17.62
-17.11
-17.63
-18.70
-19.06
-18.00
-16.47
-15.73
-16.11
-17.16
-17.81
-17.09
-15.59
-14.76
-14.98
-16.05
-17.06
-16.65
-15.18
-14.21
-14.28
-15.28
-16.39
-16.23
-14.81
-13.67
-13.54
-14.39
-15.55
-15.60
-14.32
-13.05
-12.69
-13.35
-14.52
-14.83
-13.73
-12.33
-11.82
-12.41
-13.62
-14.22
-13.41
-12.03
-11.40
-11.84
-13.00
-13.90
-13.37
-11.93
-11.06
-11.29
-12.42
-13.58
-13.41
-12.11
-11.23
-11.37
-12.47
-13.79
-13.90
-12.73
-11.71
-11.72
-12.75
-14.15
-14.56
-13.61
-12.54
-12.37
-13.24
-14.62
-15.22
-14.39
-13.16
-12.76
-13.41
-14.69
-15.54
-14.98
-13.72
-13.14
-13.60
-14.87
-16.01
-15.71
-14.38
-13.56
-13.86
-15.08
-16.42
-16.38
-15.14
-14.19
-14.28
-15.38
-16.71
-16.86
-15.69
-14.63
-14.55
-15.48
-16.86
-17.36
-16.44
-15.31
-15.04
-15.81
-17.18
-17.92
-17.19
-15.92
-15.40
-15.95
-17.23
-18.13
-17.63
-16.28
-15.57
-16.00
-17.25
-18.46
-18.28
-16.95
-16.11
-16.31
-17.45
-18.72
-18.72
-17.46
-16.42
-16.40
-17.43
-18.73
-19.00
-17.92
-16.80
-16.62
-17.50
-18.84
-19.35
-18.46
-17.24
-16.84
-17.54
-18.85
-19.57
-18.81
-17.44
-16.82
-17.29
-18.49
-19.43
-18.93
-17.51
-16.66
-16.91
-18.09
-19.31
-19.16
-17.83
-16.95
-17.10
-18.18
-19.42
-19.44
-18.16
-17.09
-17.01
-17.93
-19.26
-19.62
-18.59
-17.41
-17.12
-17.88
-19.17
-19.67
-18.74
-17.40
-16.86
-17.47
-18.74
-19.55
-18.90
-17.50
-16.77
Sampling Rate: 372.00 Hz
-17.23
-18.39
-18.97
-18.13
-16.69
-15.97
-16.35
-17.54
-18.42
-17.86
-16.39
-15.53
-15.80
-16.91
-18.03
-17.74
-16.27
-15.23
-15.26
-16.26
-17.40
-17.26
-15.80
-14.56
-14.35
-15.13
-16.27
-16.41
-15.18
-13.87
-13.50
-14.19
-15.40
-15.79
-14.76
-13.34
-12.75
-13.28
-14.44
-15.08
-14.26
-12.73
-11.92
-12.24
-13.37
-14.35
-13.90
-12.43
-11.54
-11.75
-12.90
-14.17
-14.07
-12.76
-11.77
-11.79
-12.82
-14.07
-14.18
-12.98
-11.87
-11.69
-12.52
-13.80
-14.18
-13.17
-11.91
-11.53
-12.23
-13.49
-14.13
-13.30
-11.92
-11.29
-11.74
-12.92
-13.70
-13.06
-11.62
-10.77
-10.99
-12.05
-13.11
-12.83
-11.45
-10.49
-10.62
-11.64
-12.81
-12.69
-11.30
-10.11
-9.93
-10.79
-11.97
-12.15
-10.99
-9.71
-9.30
-9.91
-11.08
-11.61
-10.73
-9.35
-8.66
-8.98
-9.98
-10.71
-10.02
-8.46
-7.43
-7.41
-8.21
-9.11
-8.74
-7.23
-5.95
-5.65
-6.23
-7.11
-7.11
-5.85
-4.41
-3.77
-4.11
-5.01
-5.43
-4.52
-3.05
-2.23
-2.43
-3.40
-4.31
-3.95
-2.54
-1.55
-1.58
-2.44
-3.51
-3.52
-2.39
-1.29
-1.07
-1.80
-2.99
-3.49
-2.71
-1.51
-1.01
-1.47
-2.60
-3.47
-3.07
-1.81
-1.07
-1.36
-2.45
-3.69
-3.78
-2.75
-1.93
-2.05
-3.09
-4.51
-5.08
-4.39
-3.48
-3.27
-4.01
-5.29
-6.18
-5.82
-4.76
-4.31
-4.82
-6.12
-7.46
-7.57
-6.57
-5.91
-6.21
-7.38
-8.84
-9.28
-8.46
-7.56
-7.48
-8.34
-9.68
-10.41
-9.79
-8.68
-8.28
-8.85
-10.11
-11.12
-10.85
-9.71
-9.10
-9.47
-10.67
-11.98
-12.04
-10.96
-10.17
-10.35
-11.41
-12.69
-12.92
-11.93
-11.01
-10.95
-11.79
-13.03
-13.44
-12.59
-11.50
-11.19
-11.88
-13.10
-13.74
-13.11
-12.00
-11.57
-12.14
-13.34
-14.23
-13.86
-12.67
-12.01
-12.33
-13.41
-14.50
-14.29
-13.04
-12.19
-12.37
-13.40
-14.59
-14.64
-13.53
-12.61
-12.59
-13.47
-14.67
-14.91
-13.91
-12.87
-12.63
-13.37
-14.58
-15.08
-14.29
-13.18
-12.81
-13.43
-14.59
-15.25
-14.59
-13.33
-12.74
-13.10
-14.15
-15.04
-14.60
-13.26
-12.42
-12.57
-13.53
-14.60
-14.43
-13.20
-12.26
-12.27
-13.19
-14.30
-14.38
-13.26
-12.25
-12.11
-12.91
-14.13
-14.49
-13.59
-12.50
-12.23
-12.95
-14.16
-14.72
-14.01
-12.82
-12.32
-12.83
-13.98
-14.75
-14.23
-12.98
-12.31
-12.68
-13.80
-14.89
-14.72
-13.53
-12.76
-13.01
-14.09
-15.31
-15.38
-14.29
-13.43
-13.52
-14.51
-15.80
-16.11
-15.21
-14.27
-14.17
-14.98
-16.24
-16.75
-15.97
-14.90
-14.58
-15.26
-16.50
-17.25
-16.71
-15.59
-15.08
-15.54
-16.67
-17.58
-17.20
-15.97
-15.25
-15.53
-16.63
-17.79
-17.66
-16.43
-15.57
-15.65
-16.60
-17.78
-17.86
-16.78
-15.82
-15.73
-16.60
-17.81
-18.14
-17.22
-16.19
-15.94
-16.66
-17.87
-18.39
-17.60
-16.45
-16.02
-16.58
-17.79
-18.61
-18.13
-16.96
-16.38
-16.81
-17.96
-19.02
-18.80
-17.60
-16.88
-17.20
-18.34
Sampling Rate: 374.00 Hz
-19.34
-19.05
-17.88
-17.25
-17.62
-18.83
-20.13
-20.15
-19.10
-18.39
-18.63
-19.77
-21.08
-21.31
-20.36
-19.55
-19.60
-20.60
-21.98
-22.49
-21.74
-20.78
-20.62
-21.47
-22.78
-23.48
-22.88
-21.83
-21.50
-22.17
-23.49
-24.43
-24.03
-22.91
-22.36
-22.84
-24.06
-25.19
-25.05
-23.88
-23.20
-23.48
-24.61
-25.88
-25.90
-24.79
-23.94
-24.02
-25.04
-26.30
-26.58
-25.59
-24.58
-24.44
-25.25
-26.50
-26.97
-26.16
-25.04
-24.66
-25.26
-26.46
-27.13
-26.49
-25.27
-24.73
-25.17
-26.27
-27.14
-26.66
-25.31
-24.50
-24.70
-25.76
-26.83
-26.60
-25.29
-24.31
-24.32
-25.18
-26.22
-26.18
-24.92
-23.79
-23.59
-24.34
-25.45
-25.70
-24.67
-23.46
-23.02
-23.59
-24.65
-25.05
-24.15
-22.81
-22.20
-22.61
-23.61
-24.22
-23.56
-22.21
-21.47
-21.73
-22.71
-23.56
-23.11
-21.69
-20.73
-20.76
-21.61
-22.57
-22.34
-21.02
-19.96
-19.85
-20.65
-21.70
-21.71
-20.49
-19.32
-18.98
-19.61
-20.63
-20.87
-19.85
-18.60
-18.13
-18.65
-19.71
-20.22
-19.41
-18.13
-17.51
-17.91
-18.98
-19.74
-19.25
-17.97
-17.26
-17.50
-18.54
-19.59
-19.38
-18.08
-17.18
-17.29
-18.22
-19.29
-19.19
-17.96
-16.88
-16.71
-17.47
-18.59
-18.77
-17.70
-16.50
-16.12
-16.74
-17.82
-18.24
-17.37
-16.15
-15.68
-16.23
-17.34
-17.99
-17.31
-16.03
-15.38
-15.77
-16.86
-17.80
-17.46
-16.21
-15.43
-15.66
-16.76
-17.97
-17.94
-16.82
-16.03
-16.18
-17.24
-18.54
-18.76
-17.80
-16.90
-16.94
-17.90
-19.29
-19.87
-19.18
-18.25
-18.10
-18.93
-20.33
-21.17
-20.67
-19.67
-19.39
-20.14
-21.56
-22.65
-22.41
-21.40
-20.91
-21.42
-22.68
-23.88
-23.79
-22.62
-21.83
-22.02
-23.04
-24.20
-24.21
-23.04
-21.99
-21.82
-22.57
-23.63
-23.72
-22.57
-21.34
-20.92
-21.48
-22.50
-22.83
-21.84
-20.53
-20.01
-20.49
-21.56
-22.21
-21.56
-20.28
-19.63
-20.01
-21.16
-22.16
-21.83
-20.61
-19.92
-20.28
-21.47
-22.75
-22.77
-21.69
-20.93
-21.19
-22.35
-23.74
-24.08
-23.23
-22.47
-22.60
-23.66
-25.12
-25.77
-25.13
-24.28
-24.26
-25.21
-26.68
-27.57
-27.10
-26.16
-25.89
-26.66
-28.06
-29.15
-28.90
-27.86
-27.40
-27.94
-29.28
-30.55
-30.52
-29.38
-28.66
-28.90
-30.02
-31.28
-31.34
-30.21
-29.24
-29.19
-30.10
-31.31
-31.53
-30.46
-29.35
-29.08
-29.80
-30.98
-31.46
-30.58
-29.34
-28.87
-29.35
-30.40
-30.97
-30.23
-28.86
-28.15
-28.40
-29.41
-30.26
-29.79
-28.40
-27.47
-27.55
-28.43
-29.37
-29.09
-27.66
-26.53
-26.38
-27.15
-28.14
-28.03
-26.74
-25.51
-25.17
-25.76
-26.75
-26.93
-25.80
-24.44
-23.85
-24.28
-25.24
-25.63
-24.70
-23.30
-22.63
-22.97
-23.96
-24.63
-23.94
-22.52
-21.65
-21.79
-22.68
-23.51
-23.09
-21.65
-20.66
-20.65
-21.50
-22.49
-22.27
-20.94
-19.80
-19.57
-20.28
-21.32
-21.40
-20.29
-19.14
-18.80
-19.42
-20.51
-20.88
-19.96
-18.69
-18.16
-18.67
-19.75
-20.41
-19.74
Sampling Rate: 373.00 Hz
-18.72
-18.41
-19.06
-20.26
-20.95
-20.29
-19.05
-18.49
-18.92
-20.04
-20.94
-20.54
-19.31
-18.65
-19.01
-20.15
-21.30
-21.17
-19.96
-19.19
-19.37
-20.42
-21.64
-21.71
-20.63
-19.70
-19.70
-20.68
-21.99
-22.41
-21.55
-20.57
-20.41
-21.26
-22.64
-23.31
-22.63
-21.54
-21.24
-21.95
-23.28
-24.20
-23.74
-22.62
-22.11
-22.64
-23.98
-25.14
-24.91
-23.66
-22.91
-23.19
-24.36
-25.63
-25.58
-24.35
-23.43
-23.53
-24.62
-25.96
-26.25
-25.26
-24.31
-24.28
-25.24
-26.63
-27.15
-26.26
-25.13
-24.85
-25.64
-26.99
-27.74
-27.06
-25.83
-25.35
-25.95
-27.23
-28.18
-27.67
-26.26
-25.42
-25.70
-26.83
-27.98
-27.72
-26.27
-25.24
-25.29
-26.25
-27.43
-27.33
-25.96
-24.76
-24.53
-25.33
-26.53
-26.69
-25.45
-24.11
-23.71
-24.33
-25.50
-25.89
-24.89
-23.46
-22.81
-23.20
-24.28
-24.90
-24.11
-22.61
-21.76
-22.03
-23.07
-23.94
-23.41
-21.81
-20.76
-20.79
-21.69
-22.68
-22.36
-20.80
-19.57
-19.34
-20.08
-21.13
-21.05
-19.63
-18.28
-17.91
-18.53
-19.59
-19.74
-18.47
-16.94
-16.27
-16.69
-17.72
-18.12
-17.07
-15.49
-14.69
-15.00
-16.00
-16.70
-15.92
-14.25
-13.20
-13.21
-14.07
-14.95
-14.46
-12.82
-11.57
-11.41
-12.22
-13.24
-13.03
-11.54
-10.19
-9.85
-10.49
-11.54
-11.58
-10.23
-8.73
-8.08
-8.50
-9.53
-9.94
-8.96
-7.31
-6.36
-6.47
-7.41
-8.28
-7.70
-6.02
-4.75
-4.59
-5.37
-6.37
-6.22
-4.73
-3.27
-2.75
-3.34
-4.43
-4.81
-3.78
-2.26
-1.49
-1.81
-2.82
-3.58
-2.85
-1.14
0.01
0.04
-0.87
-1.96
-1.76
-0.23
1.12
1.52
0.85
-0.25
-0.47
0.76
2.37
3.16
2.79
1.74
1.08
1.83
3.48
4.50
4.39
3.36
2.20
2.44
3.89
5.06
5.17
4.29
2.98
2.68
3.78
5.16
5.63
5.00
3.70
2.91
3.59
5.06
5.86
5.55
4.32
3.08
3.23
4.59
5.62
5.59
4.54
3.17
2.87
3.97
5.20
5.50
4.68
3.23
2.37
2.96
4.21
4.75
4.13
2.68
1.29
1.31
2.54
3.28
2.96
1.65
0.08
-0.31
0.63
1.62
1.69
0.65
-0.93
-1.75
-1.12
0.02
0.41
-0.29
-1.79
-3.05
-2.90
-1.68
-0.99
-1.45
-2.90
-4.48
-4.79
-3.80
-2.97
-3.14
-4.37
-6.05
-6.83
-6.18
-5.17
-4.95
-5.84
-7.43
-8.61
-8.30
-7.10
-6.51
-7.05
-8.51
-10.05
-10.17
-9.02
-8.22
-8.48
-9.71
-11.30
-11.84
-10.93
-9.97
-9.89
-10.86
-12.35
-13.07
-12.34
-11.17
-10.84
-11.57
-13.01
-13.96
-13.41
-12.13
-11.56
-12.11
-13.43
-14.63
-14.33
-12.97
-12.12
-12.39
-13.61
-14.95
-14.87
-13.53
-12.49
-12.51
-13.56
-14.83
-14.90
-13.58
-12.27
-11.94
-12.69
-13.90
-14.22
-13.10
-11.65
-11.04
-11.56
-12.67
-13.16
-12.21
-10.70
-9.89
-10.16
-11.20
-12.00
-11.30
-9.64
-8.54
-8.54
-9.44
-10.43
-10.09
-8.50
-7.17
-6.88
-7.57
-8.59
-8.59
-7.22
-5.65
-4.95
Sampling Rate: 376.00 Hz
-5.35
-6.26
-6.33
-5.03
-3.46
-2.72
-3.07
-4.04
-4.58
-3.69
-2.03
-0.97
-1.01
-1.94
-2.91
-2.52
-0.90
0.39
0.65
-0.13
-1.25
-1.34
-0.07
1.39
1.95
1.42
0.30
-0.25
0.63
2.20
3.08
2.90
1.91
0.93
1.32
2.88
4.08
4.23
3.39
2.23
2.19
3.53
4.91
5.41
4.83
3.65
3.13
4.04
5.55
6.32
6.02
4.90
3.92
4.37
5.90
6.94
6.92
5.91
4.71
4.67
5.96
7.20
7.54
6.83
5.59
5.11
6.08
7.50
8.16
7.75
6.55
5.59
6.07
7.51
8.44
8.29
7.16
5.93
5.93
7.20
8.36
8.50
7.59
6.25
5.80
6.73
8.00
8.49
7.87
6.59
5.68
6.19
7.60
8.42
8.15
7.01
5.74
5.82
7.14
8.25
8.33
7.41
6.12
5.74
6.78
8.06
8.47
7.78
6.50
5.74
6.44
7.84
8.59
8.24
7.05
5.86
6.03
7.40
8.41
8.41
7.42
6.13
5.87
6.97
8.16
8.45
7.64
6.26
5.53
6.29
7.64
8.28
7.79
6.53
5.41
5.71
7.14
8.07
7.91
6.79
5.43
5.26
6.39
7.54
7.77
6.94
5.60
4.96
5.77
7.08
7.62
7.10
5.81
4.79
5.23
6.64
7.55
7.31
6.14
4.78
4.72
5.97
7.04
7.14
6.24
4.87
4.30
5.18
6.44
6.91
6.26
4.92
3.93
4.36
5.67
6.38
6.01
4.76
3.43
3.48
4.73
5.69
5.67
4.61
3.16
2.69
3.62
4.80
5.10
4.27
2.78
1.81
2.31
3.57
4.14
3.62
2.25
0.89
0.90
2.11
3.02
2.89
1.77
0.33
-0.11
0.84
1.91
2.12
1.25
-0.22
-1.13
-0.63
0.53
0.99
0.39
-0.98
-2.28
-2.14
-0.87
-0.02
-0.29
-1.55
-3.02
-3.32
-2.27
-1.23
-1.11
-2.05
-3.48
-4.16
-3.41
-2.19
-1.71
-2.38
-3.78
-4.96
-4.72
-3.42
-2.63
-2.95
-4.23
-5.64
-5.74
-4.58
-3.60
-3.62
-4.64
-6.12
-6.66
-5.80
-4.59
-4.20
-4.86
-6.19
-7.10
-6.59
-5.24
-4.52
-4.91
-6.21
-7.59
-7.64
-6.43
-5.48
-5.53
-6.60
-7.99
-8.37
-7.40
-6.25
-6.00
-6.80
-8.21
-9.08
-8.51
-7.25
-6.65
-7.17
-8.49
-9.73
-9.53
-8.17
-7.21
-7.31
-8.37
-9.67
-9.84
-8.68
-7.55
-7.35
-8.22
-9.60
-10.29
-9.53
-8.26
-7.79
-8.43
-9.76
-10.78
-10.39
-9.08
-8.34
-8.69
-9.91
-11.27
-11.26
-10.01
-9.04
-9.07
-10.13
-11.49
-11.79
-10.68
-9.53
-9.27
-10.08
-11.43
-12.05
-11.19
-9.91
-9.43
-10.02
-11.27
-12.15
-11.55
-10.20
-9.49
-9.87
-11.13
-12.39
-12.26
-10.91
-10.03
-10.21
-11.33
-12.60
-12.57
-11.28
-10.17
-10.06
-10.97
-12.26
-12.51
-11.39
-10.18
-9.89
-10.69
-12.04
-12.59
-11.67
-10.29
-9.76
-10.31
-11.52
-12.33
-11.66
-10.20
-9.37
-9.64
-10.80
-11.94
-11.66
-10.20
-9.16
-9.19
-10.15
-11.30
-11.23
-9.81
-8.56
-8.29
-9.08
-10.33
-10.71
-9.61
-8.19
-7.66
-8.22
-9.44
Sampling Rate: 379.00 Hz
-9.76
-8.62
-7.09
-6.38
-6.79
-7.91
-8.61
-7.83
-6.15
-5.10
-5.19
-6.20
-7.32
-7.09
-5.59
-4.36
-4.15
-4.97
-6.16
-6.36
-5.13
-3.66
-3.09
-3.62
-4.79
-5.39
-4.47
-2.78
-1.79
-1.97
-2.99
-3.96
-3.47
-1.78
-0.52
-0.32
-1.13
-2.27
-2.26
-0.89
0.52
1.02
0.43
-0.74
-1.24
-0.24
1.31
2.08
1.72
0.57
-0.36
0.15
1.77
2.87
2.87
1.91
0.76
0.87
2.28
3.60
3.88
3.07
1.74
1.23
2.22
3.69
4.32
3.78
2.54
1.58
2.08
3.55
4.44
4.16
2.97
1.66
1.70
3.02
4.13
4.22
3.22
1.81
1.29
2.23
3.52
3.99
3.29
1.94
1.04
1.64
3.06
3.84
3.43
2.11
0.71
0.74
1.99
2.98
2.91
1.82
0.33
-0.13
0.82
1.99
2.27
1.47
0.02
-0.90
-0.31
0.98
1.62
1.12
-0.22
-1.56
-1.49
-0.17
0.74
0.50
-0.72
-2.25
-2.61
-1.57
-0.48
-0.35
-1.34
-2.89
-3.68
-2.98
-1.72
-1.23
-1.83
-3.23
-4.46
-4.24
-2.91
-2.11
-2.44
-3.68
-5.12
-5.26
-4.08
-2.96
-2.86
-3.80
-5.23
-5.85
-5.02
-3.76
-3.34
-4.04
-5.41
-6.36
-5.87
-4.46
-3.65
-3.94
-5.15
-6.49
-6.40
-5.08
-3.99
-3.97
-5.01
-6.39
-6.73
-5.66
-4.37
-3.97
-4.69
-6.04
-6.80
-6.08
-4.67
-3.98
-4.43
-5.71
-6.91
-6.67
-5.21
-4.15
-4.22
-5.30
-6.63
-6.84
-5.68
-4.50
-4.23
-5.07
-6.41
-7.01
-6.11
-4.69
-4.04
-4.53
-5.79
-6.86
-6.43
-4.90
-3.86
-3.97
-5.09
-6.37
-6.39
-5.06
-3.86
-3.68
-4.57
-5.94
-6.41
-5.39
-3.98
-3.42
-4.02
-5.30
-6.18
-5.55
-4.02
-3.13
-3.37
-4.55
-5.83
-5.73
-4.36
-3.26
-3.17
-4.09
-5.38
-5.71
-4.62
-3.28
-2.80
-3.47
-4.78
-5.51
-4.73
-3.23
-2.46
-2.79
-3.96
-5.10
-4.77
-3.24
-2.19
-2.26
-3.34
-4.69
-4.88
-3.68
-2.44
-2.14
-2.91
-4.20
-4.79
-3.93
-2.57
-1.95
-2.42
-3.64
-4.63
-4.14
-2.64
-1.72
-1.90
-3.06
-4.38
-4.38
-3.06
-1.88
-1.70
-2.56
-3.92
-4.43
-3.47
-2.19
-1.79
-2.53
-3.94
-4.92
-4.43
-3.09
-2.34
-2.75
-4.05
-5.38
-5.24
-3.88
-2.79
-2.76
-3.79
-5.12
-5.37
-4.18
-2.83
-2.44
-3.16
-4.46
-5.15
-4.39
-2.97
-2.28
-2.70
-3.93
-5.05
-4.76
-3.29
-2.30
-2.40
-3.51
-4.88
-5.05
-3.86
-2.68
-2.51
-3.41
-4.85
-5.48
-4.64
-3.33
-2.80
-3.43
-4.81
-5.90
-5.47
-4.03
-3.13
-3.36
-4.57
-5.91
-5.90
-4.55
-3.36
-3.19
-4.09
-5.48
-5.91
-4.85
-3.44
-2.93
-3.54
-4.85
-5.70
-5.08
-3.59
-2.77
-3.13
-4.38
-5.66
-5.50
-4.07
-2.96
-2.96
-4.01
-5.35
-5.65
-4.51
-3.21
-2.83
-3.57
-4.87
-5.49
-4.56
-2.95
-2.05
-2.28
-3.33
-4.25
-3.67
-1.93
-0.68
-0.59
-1.50
-2.61
-2.51
-1.04
0.36
0.79
0.08
-1.17
-1.65
-0.61
Sampling Rate: 380.00 Hz
0.59
0.89
0.09
-1.21
-1.82
-0.92
0.57
1.30
0.88
-0.31
-1.33
-0.89
0.69
1.80
1.78
0.78
-0.43
-0.43
0.88
2.16
2.46
1.63
0.29
-0.25
0.64
2.04
2.64
2.09
0.78
-0.25
0.15
1.59
2.45
2.20
0.99
-0.37
-0.44
0.84
1.97
2.04
1.08
-0.38
-0.92
0.05
1.41
1.89
1.27
-0.05
-1.02
-0.48
1.00
1.83
1.51
0.23
-1.19
-1.16
0.15
1.21
1.21
0.20
-1.23
-1.68
-0.65
0.67
1.08
0.34
-1.07
-1.96
-1.37
0.04
0.79
0.43
-0.81
-2.07
-1.88
-0.44
0.62
0.61
-0.45
-1.83
-2.08
-0.90
0.41
0.77
0.00
-1.31
-1.98
-1.15
0.29
0.98
0.55
-0.68
-1.79
-1.48
0.02
1.06
0.97
-0.10
-1.39
-1.47
-0.21
1.00
1.20
0.29
-1.10
-1.69
-0.84
0.54
1.14
0.64
-0.61
-1.58
-1.11
0.37
1.31
1.16
-0.00
-1.35
-1.44
-0.21
0.93
1.08
0.17
-1.20
-1.71
-0.78
0.52
1.00
0.36
-1.00
-2.01
-1.48
-0.03
0.84
0.55
-0.71
-2.08
-2.08
-0.76
0.31
0.32
-0.75
-2.18
-2.60
-1.59
-0.28
0.14
-0.59
-1.96
-2.81
-2.20
-0.78
-0.06
-0.50
-1.83
-3.18
-3.07
-1.71
-0.68
-0.70
-1.74
-3.10
-3.34
-2.17
-0.91
-0.55
-1.29
-2.62
-3.29
-2.51
-1.12
-0.50
-0.98
-2.28
-3.42
-3.08
-1.60
-0.59
-0.69
-1.80
-3.15
-3.23
-1.97
-0.77
-0.57
-1.41
-2.78
-3.37
-2.46
-1.06
-0.44
-0.98
-2.25
-3.24
-2.71
-1.19
-0.26
-0.43
-1.54
-2.78
-2.72
-1.33
-0.15
-0.00
-0.91
-2.24
-2.62
-1.52
-0.13
0.40
-0.18
-1.48
-2.33
-1.68
-0.17
0.72
0.49
-0.70
-1.97
-1.87
-0.49
0.61
0.65
-0.36
-1.75
-2.12
-1.02
0.26
0.65
-0.09
-1.46
-2.20
-1.44
0.02
0.78
0.45
-0.74
-1.92
-1.66
-0.23
0.78
0.72
-0.32
-1.67
-1.89
-0.73
0.49
0.80
0.02
-1.34
-1.93
-1.05
0.40
1.08
0.59
-0.64
-1.67
-1.27
0.22
1.18
1.02
-0.14
-1.45
-1.51
-0.23
0.95
1.10
0.20
-1.16
-1.65
-0.67
0.67
1.22
0.66
-0.59
-1.52
-0.96
0.53
1.41
1.14
-0.11
-1.51
-1.58
-0.30
0.79
0.83
-0.16
-1.58
-2.01
-1.05
0.21
0.56
-0.21
-1.65
-2.57
-1.97
-0.60
0.08
-0.34
-1.65
-2.99
-2.88
-1.52
-0.53
-0.60
-1.69
-3.13
-3.48
-2.42
-1.20
-0.91
-1.73
-3.12
-3.93
-3.26
-1.91
-1.33
-1.90
-3.26
-4.46
-4.20
-2.82
-1.89
-2.10
-3.30
-4.70
-4.93
-3.81
-2.73
-2.61
-3.60
-5.12
-5.80
-5.03
-3.76
-3.28
-3.93
-5.31
-6.41
-6.04
-4.65
-3.83
-4.15
-5.45
-6.86
-6.91
-5.70
-4.71
-4.70
-5.80
-7.34
-7.91
-6.98
-5.77
-5.44
-6.28
-7.78
-8.75
-8.25
-6.96
-6.33
-6.81
-8.17
-9.52
-9.43
-8.09
-7.11
-7.20
-8.30
-9.70
-10.00
-8.88
-7.67
-7.43
-8.30
-9.74
-10.48
-9.74
-8.45
-7.92
Sampling Rate: 380.00 Hz
-8.53
-9.79
-10.49
-9.70
-8.27
-7.56
-8.03
-9.36
-10.61
-10.35
-9.00
-8.12
-8.34
-9.58
-10.96
-11.01
-9.72
-8.59
-8.50
-9.49
-10.94
-11.46
-10.47
-9.19
-8.80
-9.50
-10.84
-11.63
-10.96
-9.60
-8.98
-9.51
-10.87
-12.11
-11.82
-10.39
-9.51
-9.72
-10.93
-12.26
-12.27
-10.98
-9.95
-9.95
-10.96
-12.32
-12.68
-11.62
-10.44
-10.22
-11.13
-12.57
-13.18
-12.34
-11.11
-10.72
-11.52
-12.96
-13.86
-13.24
-11.86
-11.25
-11.82
-13.19
-14.36
-14.03
-12.68
-11.87
-12.20
-13.48
-14.84
-14.75
-13.37
-12.39
-12.49
-13.64
-15.03
-15.20
-14.01
-12.89
-12.80
-13.82
-15.30
-15.81
-14.84
-13.61
-13.33
-14.16
-15.54
-16.23
-15.37
-13.95
-13.34
-13.93
-15.23
-16.10
-15.49
-14.06
-13.33
-13.80
-15.15
-16.38
-16.12
-14.67
-13.71
-13.88
-15.07
-16.39
-16.36
-14.96
-13.81
-13.74
-14.76
-16.08
-16.30
-15.11
-13.91
-13.69
-14.56
-15.98
-16.50
-15.55
-14.29
-13.89
-14.62
-16.01
-16.85
-16.15
-14.82
-14.30
-14.96
-16.38
-17.52
-17.15
-15.75
-14.94
-15.34
-16.66
-18.02
-17.95
-16.57
-15.62
-15.77
-16.94
-18.35
-18.44
-17.15
-16.06
-16.01
-17.08
-18.56
-19.01
-17.93
-16.70
-16.40
-17.28
-18.71
-19.33
-18.45
-17.11
-16.65
-17.33
-18.74
-19.68
-19.10
-17.69
-16.98
-17.40
-18.69
-19.87
-19.56
-18.10
-17.19
-17.44
-18.70
-20.07
-20.00
-18.60
-17.52
-17.58
-18.70
-20.17
-20.46
-19.28
-18.09
-17.91
-18.90
-20.40
-20.97
-20.05
-18.82
-18.52
-19.41
-20.92
-21.76
-21.02
-19.63
-19.06
-19.69
-21.14
-22.28
-21.84
-20.38
-19.55
-19.88
-21.21
-22.53
-22.29
-20.80
-19.74
-19.86
-21.02
-22.38
-22.43
-21.08
-19.91
-19.86
-20.91
-22.37
-22.71
-21.56
-20.21
-19.88
-20.71
-22.08
-22.61
-21.56
-20.07
-19.47
-20.02
-21.29
-22.04
-21.28
-19.71
-18.88
-19.24
-20.47
-21.54
-21.03
-19.41
-18.35
-18.48
-19.58
-20.82
-20.63
-19.12
-17.92
-17.86
-18.90
-20.19
-20.20
-18.80
-17.49
-17.16
-18.00
-19.30
-19.66
-18.46
-16.94
-16.34
-16.97
-18.21
-18.75
-17.80
-16.24
-15.54
-16.01
-17.23
-18.09
-17.45
-15.88
-14.93
-15.20
-16.37
-17.52
-17.16
-15.55
-14.44
-14.52
-15.63
-16.92
-16.85
-15.40
-14.13
-13.95
-14.88
-16.22
-16.46
-15.16
-13.74
-13.32
-14.04
-15.34
-15.82
-14.77
-13.27
-12.66
-13.25
-14.54
-15.27
-14.46
-12.87
-12.00
-12.28
-13.42
-14.37
-13.79
-12.11
-11.06
-11.17
-12.25
-13.43
-13.11
-11.48
-10.27
-10.24
-11.30
-12.63
-12.66
-11.28
-9.95
-9.69
-10.56
-11.90
-12.28
-11.14
-9.63
-9.00
-9.59
-10.87
-11.59
-10.78
-9.18
-8.28
-8.55
-9.70
-10.81
-10.42
-8.81
-7.71
-7.80
-8.90
-10.21
-10.19
-8.77
-7.47
-7.22
-8.08
-9.42
-9.87
-8.78
-7.29
-6.71
-7.33
-8.71
-9.69
-9.06
-7.44
-6.49
-6.76
-7.97
-9.28
-9.11
-7.56
-6.29
-6.15
-7.17
-8.56
-8.88
-7.64
-6.16
-5.64
-6.35
-7.73
Sampling Rate: 374.00 Hz
-8.10
-6.91
-5.38
-4.79
-5.37
-6.74
-7.58
-6.87
-5.31
-4.43
-4.76
-6.07
-7.39
-7.19
-5.63
-4.47
-4.43
-5.49
-6.86
-7.08
-5.76
-4.33
-3.94
-4.75
-6.14
-6.77
-5.83
-4.24
-3.47
-3.92
-5.21
-6.31
-5.82
-4.18
-3.10
-3.21
-4.40
-5.75
-5.73
-4.33
-3.04
-2.83
-3.76
-5.19
-5.70
-4.67
-3.20
-2.63
-3.26
-4.66
-5.62
-5.00
-3.37
-2.37
-2.61
-3.84
-5.23
-5.16
-3.68
-2.42
-2.28
-3.29
-4.70
-5.08
-3.94
-2.52
-2.07
-2.81
-4.20
-5.07
-4.32
-2.73
-1.84
-2.19
-3.49
-4.80
-4.55
-3.02
-1.90
-1.97
-3.12
-4.54
-4.75
-3.45
-2.08
-1.69
-2.52
-3.97
-4.68
-3.79
-2.31
-1.62
-2.17
-3.56
-4.74
-4.33
-2.76
-1.72
-1.85
-3.02
-4.34
-4.28
-2.86
-1.57
-1.36
-2.33
-3.81
-4.32
-3.27
-1.87
-1.38
-2.11
-3.60
-4.63
-4.09
-2.59
-1.74
-2.10
-3.42
-4.85
-4.78
-3.38
-2.25
-2.21
-3.26
-4.69
-5.07
-3.93
-2.58
-2.21
-3.01
-4.44
-5.23
-4.47
-2.96
-2.23
-2.69
-4.08
-5.38
-5.14
-3.66
-2.64
-2.79
-3.99
-5.46
-5.65
-4.37
-3.10
-2.87
-3.78
-5.22
-5.90
-5.01
-3.59
-3.05
-3.69
-5.13
-6.32
-5.91
-4.42
-3.48
-3.74
-5.05
-6.53
-6.63
-5.33
-4.22
-4.19
-5.30
-6.83
-7.43
-6.47
-5.14
-4.75
-5.49
-6.90
-7.87
-7.23
-5.73
-4.90
-5.28
-6.59
-7.96
-7.85
-6.42
-5.37
-5.46
-6.63
-8.10
-8.48
-7.32
-6.02
-5.71
-6.57
-8.06
-8.86
-8.12
-6.66
-5.97
-6.51
-7.91
-9.17
-8.90
-7.41
-6.41
-6.58
-7.76
-9.13
-9.17
-7.82
-6.55
-6.34
-7.28
-8.73
-9.30
-8.27
-6.73
-6.04
-6.53
-7.82
-8.79
-8.19
-6.54
-5.50
-5.69
-6.92
-8.30
-8.27
-6.86
-5.62
-5.52
-6.55
-8.03
-8.50
-7.37
-5.91
-5.40
-6.09
-7.47
-8.31
-7.57
-5.94
-5.02
-5.28
-6.47
-7.68
-7.41
-5.83
-4.66
-4.58
-5.62
-6.92
-7.06
-5.73
-4.27
-3.82
-4.56
-5.91
-6.53
-5.61
-4.01
-3.19
-3.54
-4.74
-5.77
-5.28
-3.59
-2.42
-2.40
-3.43
-4.64
-4.57
-3.05
-1.68
-1.40
-2.27
-3.63
-4.07
-2.95
-1.43
-0.78
-1.33
-2.60
-3.47
-2.79
-1.10
-0.03
-0.16
-1.28
-2.57
-2.39
-0.86
0.39
0.57
-0.39
-1.80
-2.19
-1.02
0.44
0.94
0.27
-1.07
-1.84
-1.06
0.57
1.49
1.18
-0.09
-1.34
-1.05
0.56
1.78
1.86
0.81
-0.57
-0.78
0.51
1.94
2.34
1.59
0.25
-0.44
0.46
2.05
2.87
2.48
1.16
-0.05
0.28
1.91
3.07
3.04
1.93
0.56
0.42
1.76
3.11
3.46
2.60
1.17
0.56
1.53
3.04
3.71
3.21
1.91
0.83
1.28
2.85
3.84
3.62
2.37
0.95
0.94
2.36
3.62
3.83
2.92
1.51
1.03
2.12
3.59
4.19
3.55
2.13
1.13
1.68
3.27
4.20
3.92
2.61
1.17
1.20
2.62
3.82
3.94
2.93
1.45
1.00
2.06
Sampling Rate: 380.00 Hz
3.09
3.16
2.08
0.55
-0.08
0.89
2.28
2.80
2.12
0.72
-0.28
0.31
1.91
2.86
2.56
1.26
-0.14
-0.09
1.33
2.49
2.51
1.46
0.01
-0.47
0.59
1.95
2.36
1.59
0.14
-0.74
-0.04
1.56
2.42
2.10
0.81
-0.55
-0.37
1.11
2.25
2.25
1.15
-0.32
-0.64
0.59
2.01
2.44
1.67
0.26
-0.53
0.26
1.76
2.53
2.07
0.71
-0.53
-0.20
1.40
2.52
2.41
1.25
-0.19
-0.39
0.89
2.21
2.49
1.65
0.21
-0.48
0.40
1.87
2.55
2.05
0.70
-0.42
0.00
1.61
2.65
2.48
1.29
-0.12
-0.17
1.17
2.42
2.64
1.70
0.24
-0.31
0.72
2.16
2.75
2.17
0.80
-0.20
0.38
1.98
2.91
2.63
1.38
0.00
0.07
1.48
2.70
2.77
1.72
0.23
-0.28
0.75
2.14
2.62
1.94
0.52
-0.41
0.25
1.83
2.68
2.32
1.01
-0.37
-0.21
1.30
2.43
2.40
1.31
-0.11
-0.45
0.72
2.05
2.39
1.54
0.07
-0.71
0.07
1.53
2.22
1.71
0.34
-0.90
-0.57
1.01
2.12
2.09
0.95
-0.46
-0.66
0.59
1.89
2.18
1.27
-0.23
-0.96
-0.08
1.42
2.10
1.59
0.21
-0.94
-0.50
1.07
2.06
1.90
0.68
-0.76
-0.90
0.43
1.64
1.77
0.76
-0.75
-1.34
-0.35
1.08
1.61
0.98
-0.40
-1.42
-0.88
0.66
1.61
1.38
0.14
-1.27
-1.25
0.19
1.40
1.50
0.49
-0.95
-1.33
-0.14
1.34
1.91
1.29
-0.04
-0.91
-0.20
1.38
2.23
1.88
0.54
-0.84
-0.69
0.76
1.88
1.89
0.78
-0.70
-1.05
0.13
1.47
1.87
1.11
-0.32
-1.14
-0.38
1.09
1.84
1.37
0.03
-1.25
-0.97
0.60
1.66
1.58
0.40
-1.08
-1.33
-0.07
1.23
1.56
0.70
-0.74
-1.44
-0.53
0.98
1.66
1.10
-0.30
-1.48
-1.08
0.51
1.56
1.44
0.28
-1.06
-1.05
0.36
1.68
1.89
0.97
-0.48
-1.02
0.03
1.51
2.09
1.48
0.09
-0.92
-0.37
1.23
2.17
1.89
0.61
-0.79
-0.75
0.68
1.91
2.00
0.94
-0.58
-1.11
-0.05
1.34
1.83
1.10
-0.30
-1.17
-0.50
1.07
1.94
1.57
0.22
-1.16
-1.05
0.41
1.51
1.48
0.34
-1.18
-1.53
-0.35
0.98
1.39
0.58
-0.89
-1.72
-0.93
0.60
1.33
0.87
-0.48
-1.73
-1.42
0.17
1.27
1.17
-0.01
-1.45
-1.64
-0.36
0.94
1.18
0.28
-1.22
-1.93
-1.02
0.43
1.04
0.49
-0.85
-1.98
-1.54
0.06
1.07
0.91
-0.27
-1.67
-1.75
-0.39
0.81
1.00
0.07
-1.37
-1.93
-0.95
0.47
1.03
0.35
-1.09
-2.13
-1.62
-0.12
0.77
0.50
-0.77
-2.13
-2.06
-0.64
0.53
0.58
-0.46
-1.92
-2.30
-1.17
0.25
0.74
0.07
-1.30
-2.14
-1.39
0.15
0.96
0.56
-0.73
-2.05
-1.83
-0.34
0.74
0.68
-0.46
-1.91
-2.20
-1.01
0.30
0.60
-0.27
-1.77
-2.51
-1.70
-0.24
0.46
Sampling Rate: 380.00 Hz
-0.11
-1.40
-2.16
-1.38
0.15
0.92
0.52
-0.78
-2.05
-1.77
-0.19
0.93
0.90
-0.22
-1.64
-1.82
-0.52
0.80
1.10
0.23
-1.28
-2.02
-1.19
0.29
0.99
0.45
-0.92
-2.11
-1.76
-0.21
0.83
0.65
-0.56
-1.99
-2.06
-0.68
0.62
0.89
0.00
-1.41
-2.00
-1.01
0.45
1.02
0.36
-1.06
-2.13
-1.64
-0.08
0.90
0.70
-0.50
-1.87
-1.79
-0.35
0.86
1.03
0.03
-1.46
-1.99
-0.93
0.50
0.97
0.25
-1.17
-2.15
-1.52
-0.01
0.81
0.41
-0.91
-2.26
-2.12
-0.60
0.58
0.64
-0.42
-1.88
-2.25
-1.04
0.38
0.84
0.08
-1.32
-2.08
-1.24
0.35
1.21
0.87
-0.45
-1.71
-1.41
0.15
1.29
1.21
0.04
-1.46
-1.70
-0.50
0.76
1.03
0.15
-1.30
-2.01
-1.17
0.29
0.98
0.47
-0.90
-2.09
-1.71
-0.16
0.88
0.76
-0.44
-1.86
-1.93
-0.53
0.73
0.97
0.01
-1.44
-1.99
-0.98
0.45
0.98
0.34
-1.05
-2.05
-1.53
0.02
0.98
0.71
-0.60
-2.03
-2.04
-0.68
0.47
0.54
-0.46
-1.92
-2.42
-1.37
0.04
0.56
-0.10
-1.45
-2.31
-1.57
0.03
0.97
0.72
-0.52
-1.83
-1.64
-0.18
1.00
1.00
-0.12
-1.63
-2.01
-0.86
0.53
0.99
0.25
-1.17
-2.00
-1.21
0.33
1.12
0.71
-0.60
-1.86
-1.61
-0.05
1.08
1.06
-0.02
-1.44
-1.63
-0.39
0.95
1.25
0.37
-1.09
-1.83
-0.97
0.50
1.16
0.66
-0.71
-1.87
-1.49
0.06
1.13
1.02
-0.16
-1.53
-1.57
-0.19
1.12
1.40
0.54
-0.86
-1.38
-0.35
1.12
1.72
1.13
-0.23
-1.26
-0.68
0.93
1.95
1.79
0.56
-0.80
-0.75
0.69
1.89
2.03
1.05
-0.42
-0.90
0.19
1.63
2.18
1.51
0.10
-0.80
-0.13
1.45
2.32
1.94
0.58
-0.90
-0.88
0.52
1.61
1.56
0.41
-1.08
-1.43
-0.23
1.18
1.59
0.83
-0.61
-1.39
-0.57
1.01
1.85
1.49
0.19
-1.08
-0.79
0.80
1.90
1.84
0.69
-0.71
-0.88
0.40
1.74
2.02
1.14
-0.29
-0.99
-0.13
1.35
2.03
1.53
0.22
-0.93
-0.49
1.08
2.09
1.90
0.66
-0.77
-0.89
0.45
1.67
1.87
0.95
-0.50
-1.11
-0.18
1.23
1.81
1.19
-0.20
-1.27
-0.76
0.78
1.69
1.37
0.04
-1.42
-1.46
-0.11
1.02
1.07
-0.02
-1.57
-2.12
-1.06
0.35
0.86
0.17
-1.26
-2.19
-1.55
-0.06
0.73
0.27
-1.12
-2.55
-2.41
-0.95
0.15
0.14
-0.98
-2.45
-2.79
-1.63
-0.32
0.01
-0.85
-2.34
-3.15
-2.38
-0.93
-0.24
-0.72
-2.09
-3.37
-3.06
-1.50
-0.44
-0.61
-1.83
-3.30
-3.50
-2.24
-0.96
-0.67
-1.51
-2.87
-3.42
-2.41
-0.88
-0.25
-0.85
-2.21
-3.25
-2.75
-1.17
-0.22
-0.48
-1.71
-3.10
-3.10
-1.70
-0.53
-0.47
-1.53
-2.99
-3.42
-2.32
-0.88
-0.40
-1.11
-2.50
-3.37
-2.69
-1.17
-0.36
-0.78
-2.09
Sampling Rate: 380.00 Hz
-3.00
-2.32
-0.68
0.27
-0.03
-1.34
-2.75
-2.63
-1.20
-0.02
0.07
-0.92
-2.36
-2.73
-1.59
-0.15
0.37
-0.33
-1.73
-2.53
-1.76
-0.22
0.65
0.28
-1.01
-2.31
-2.13
-0.67
0.40
0.34
-0.81
-2.30
-2.56
-1.33
0.01
0.39
-0.44
-1.87
-2.62
-1.78
-0.29
0.37
-0.19
-1.62
-2.86
-2.52
-0.94
0.14
0.02
-1.19
-2.61
-2.70
-1.39
-0.09
0.17
-0.74
-2.22
-2.83
-1.84
-0.39
0.17
-0.45
-1.86
-2.92
-2.39
-0.81
0.16
-0.11
-1.40
-2.83
-2.85
-1.49
-0.33
-0.31
-1.36
-2.84
-3.29
-2.24
-0.85
-0.37
-1.06
-2.43
-3.27
-2.54
-0.99
-0.14
-0.49
-1.76
-3.03
-2.82
-1.33
-0.23
-0.31
-1.44
-2.86
-3.11
-1.86
-0.50
-0.15
-0.97
-2.40
-3.07
-2.19
-0.69
0.01
-0.46
-1.77
-2.93
-2.53
-0.95
0.09
-0.09
-1.27
-2.62
-2.66
-1.32
-0.06
0.16
-0.76
-2.23
-2.86
-1.94
-0.56
-0.03
-0.70
-2.13
-3.18
-2.64
-1.11
-0.20
-0.45
-1.67
-2.98
-2.82
-1.28
0.03
0.30
-0.53
-1.80
-2.04
-0.80
0.74
1.31
0.75
-0.50
-1.20
-0.36
1.28
2.28
2.08
1.02
-0.05
0.38
2.07
3.37
3.55
2.68
1.45
1.36
2.71
4.21
4.73
4.09
2.87
2.27
3.21
4.78
5.60
5.25
4.07
3.01
3.45
5.05
6.13
6.12
5.09
3.83
3.79
5.09
6.35
6.62
5.79
4.42
3.87
4.83
6.30
6.91
6.38
5.10
4.08
4.57
6.09
7.05
6.89
5.74
4.39
4.31
5.56
6.69
6.82
5.85
4.42
3.88
4.86
6.19
6.63
5.96
4.62
3.72
4.28
5.74
6.59
6.29
5.00
3.61
3.68
5.03
6.08
6.06
4.99
3.55
3.11
4.17
5.51
5.89
5.11
3.70
2.85
3.52
4.96
5.75
5.35
4.09
2.79
2.92
4.32
5.34
5.25
4.16
2.74
2.47
3.59
4.81
5.12
4.31
2.92
2.20
2.97
4.39
5.02
4.49
3.16
1.92
2.12
3.52
4.48
4.36
3.21
1.84
1.69
2.93
4.17
4.44
3.60
2.20
1.56
2.42
3.82
4.38
3.77
2.41
1.30
1.70
3.15
4.04
3.81
2.64
1.27
1.25
2.52
3.67
3.78
2.80
1.39
0.85
1.80
3.17
3.69
3.06
1.68
0.76
1.30
2.73
3.56
3.22
1.99
0.65
0.70
2.07
3.19
3.30
2.32
0.96
0.61
1.66
2.97
3.44
2.79
1.45
0.61
1.23
2.64
3.37
2.96
1.69
0.45
0.63
2.01
3.06
3.06
2.06
0.73
0.50
1.67
2.98
3.32
2.50
1.09
0.34
1.09
2.48
3.15
2.67
1.36
0.13
0.32
1.70
2.64
2.44
1.27
-0.16
-0.40
0.76
1.95
2.15
1.23
-0.23
-0.90
-0.08
1.32
1.93
1.39
0.03
-1.08
-0.69
0.74
1.61
1.33
0.10
-1.30
-1.42
-0.21
0.91
0.97
0.00
-1.45
-2.02
-1.10
0.22
0.68
-0.02
-1.43
-2.44
-1.98
-0.59
0.23
-0.07
-1.32
-2.68
-2.57
Sampling Rate: 380.00 Hz
-1.31
-0.56
-0.91
-2.18
-3.54
-3.49
-2.09
-0.86
-0.71
-1.61
-2.92
-3.31
-2.20
-0.76
-0.24
-0.87
-2.13
-2.89
-2.17
-0.59
0.31
0.04
-1.13
-2.38
-2.22
-0.77
0.37
0.43
-0.53
-1.87
-2.12
-0.93
0.40
0.84
0.16
-1.11
-1.80
-1.04
0.40
1.15
0.77
-0.44
-1.58
-1.32
0.15
1.19
1.10
0.05
-1.27
-1.47
-0.27
0.94
1.22
0.36
-1.01
-1.69
-0.89
0.47
1.07
0.58
-0.67
-1.73
-1.28
0.21
1.19
1.06
-0.08
-1.36
-1.33
0.01
1.18
1.38
0.46
-0.95
-1.47
-0.50
0.87
1.39
0.80
-0.48
-1.36
-0.73
0.79
1.66
1.38
0.18
-1.15
-1.10
0.22
1.29
1.29
0.25
-1.18
-1.55
-0.45
0.91
1.37
0.70
-0.65
-1.47
-0.79
0.59
1.33
0.91
-0.39
-1.63
-1.41
0.05
1.08
0.98
-0.10
-1.47
-1.73
-0.55
0.67
0.98
0.15
-1.24
-1.90
-1.10
0.32
0.95
0.45
-0.85
-2.00
-1.67
-0.22
0.73
0.53
-0.66
-2.04
-2.10
-0.80
0.42
0.67
-0.19
-1.57
-2.09
-1.10
0.34
0.92
0.38
-0.92
-1.85
-1.30
0.25
1.18
1.00
-0.11
-1.36
-1.26
0.15
1.31
1.46
0.56
-0.79
-1.20
-0.13
1.26
1.73
1.04
-0.32
-1.21
-0.63
0.82
1.59
1.23
-0.05
-1.34
-1.22
0.20
1.33
1.34
0.34
-1.04
-1.31
-0.17
1.16
1.58
0.88
-0.44
-1.15
-0.35
1.13
1.85
1.40
0.07
-1.20
-1.04
0.39
1.38
1.28
0.18
-1.19
-1.37
-0.16
1.11
1.45
0.67
-0.66
-1.21
-0.31
1.15
1.79
1.25
-0.05
-1.15
-0.75
0.76
1.75
1.61
0.45
-0.94
-1.02
0.27
1.46
1.69
0.79
-0.62
-1.16
-0.19
1.19
1.73
1.09
-0.32
-1.32
-0.81
0.66
1.54
1.23
-0.02
-1.38
-1.38
-0.08
0.97
0.95
-0.14
-1.64
-2.14
-1.11
0.24
0.70
-0.04
-1.45
-2.38
-1.73
-0.31
0.41
-0.07
-1.45
-2.85
-2.80
-1.44
-0.40
-0.47
-1.64
-3.15
-3.53
-2.39
-1.11
-0.80
-1.65
-3.10
-3.88
-3.07
-1.62
-0.97
-1.46
-2.80
-3.98
-3.65
-2.17
-1.20
-1.35
-2.49
-3.85
-3.93
-2.63
-1.36
-1.16
-2.09
-3.55
-4.12
-3.18
-1.78
-1.24
-1.82
-3.16
-4.17
-3.60
-2.04
-1.09
-1.29
-2.47
-3.77
-3.68
-2.27
-1.12
-1.04
-2.07
-3.49
-3.88
-2.78
-1.40
-0.93
-1.64
-3.04
-3.90
-3.23
-1.75
-0.99
-1.39
-2.69
-3.95
-3.74
-2.25
-1.19
-1.29
-2.42
-3.80
-3.96
-2.65
-1.26
-0.91
-1.72
-3.09
-3.73
-2.80
-1.30
-0.63
-1.14
-2.45
-3.59
-3.22
-1.67
-0.63
-0.77
-1.94
-3.31
-3.33
-1.95
-0.71
-0.55
-1.49
-2.91
-3.46
-2.43
-0.97
-0.40
-1.02
-2.38
-3.31
-2.72
-1.21
-0.32
-0.59
-1.82
-3.19
-3.12
-1.74
-0.60
-0.53
-1.58
-3.00
-3.37
-2.21
-0.86
-0.44
-1.22
-2.62
-3.44
-2.74
-1.27
-0.54
-1.01
-2.36
-3.62
-3.32
-1.79
-0.74
Sampling Rate: 380.00 Hz
-0.91
-2.06
-3.26
-2.96
-1.40
-0.19
-0.11
-1.12
-2.48
-2.70
-1.47
-0.09
0.32
-0.39
-1.77
-2.50
-1.72
-0.27
0.39
-0.14
-1.52
-2.76
-2.54
-1.17
-0.31
-0.65
-2.01
-3.58
-3.87
-2.80
-1.78
-1.80
-2.90
-4.52
-5.30
-4.50
-3.21
-2.67
-3.28
-4.62
-5.62
-5.05
-3.46
-2.46
-2.55
-3.57
-4.72
-4.50
-2.98
-1.71
-1.49
-2.32
-3.54
-3.77
-2.57
-1.11
-0.52
-1.11
-2.32
-2.98
-2.12
-0.49
0.42
0.19
-0.93
-2.05
-1.76
-0.26
0.86
0.86
-0.13
-1.42
-1.63
-0.42
0.89
1.29
0.59
-0.67
-1.32
-0.45
1.05
1.74
1.27
-0.02
-1.16
-0.80
0.75
1.80
1.71
0.59
-0.75
-0.89
0.33
1.49
1.65
0.70
-0.75
-1.35
-0.48
0.91
1.48
0.91
-0.45
-1.49
-0.99
0.50
1.40
1.11
-0.16
-1.53
-1.52
-0.17
1.00
1.15
0.23
-1.13
-1.59
-0.52
0.88
1.40
0.81
-0.46
-1.32
-0.69
0.84
1.70
1.40
0.20
-1.06
-0.89
0.53
1.67
1.74
0.79
-0.51
-0.80
0.35
1.70
2.14
1.47
0.20
-0.48
0.34
1.85
2.66
2.30
1.05
-0.17
0.05
1.53
2.59
2.53
1.47
0.11
-0.15
0.99
2.20
2.44
1.57
0.16
-0.56
0.22
1.60
2.22
1.66
0.35
-0.75
-0.34
1.19
2.19
2.03
0.85
-0.54
-0.69
0.53
1.70
1.88
0.99
-0.41
-1.01
-0.12
1.28
1.85
1.26
-0.09
-1.15
-0.69
0.79
1.65
1.36
0.12
-1.27
-1.23
0.11
1.23
1.29
0.30
-1.10
-1.59
-0.60
0.73
1.15
0.40
-0.97
-1.88
-1.29
0.15
0.93
0.56
-0.73
-2.09
-1.93
-0.48
0.60
0.55
-0.51
-1.90
-2.14
-0.94
0.42
0.80
0.09
-1.23
-1.88
-1.06
0.42
1.17
0.75
-0.49
-1.68
-1.33
0.22
1.31
1.23
0.12
-1.24
-1.39
-0.12
1.14
1.41
0.53
-0.86
-1.48
-0.56
0.84
1.38
0.81
-0.53
-1.58
-1.15
0.34
1.25
0.96
-0.32
-1.69
-1.71
-0.37
0.78
0.91
-0.04
-1.41
-1.90
-0.87
0.49
0.96
0.26
-1.10
-2.02
-1.36
0.16
0.98
0.63
-0.62
-1.89
-1.69
-0.22
0.96
1.07
0.08
-1.28
-1.57
-0.39
0.98
1.39
0.69
-0.66
-1.35
-0.55
0.94
1.73
1.34
0.12
-1.05
-0.72
0.82
1.88
1.81
0.75
-0.61
-0.80
0.45
1.75
2.09
1.27
-0.11
-0.78
0.12
1.60
2.30
1.84
0.60
-0.49
-0.06
1.47
2.51
2.41
1.27
-0.08
-0.13
1.18
2.41
2.62
1.75
0.38
-0.14
0.88
2.32
2.89
2.26
0.92
-0.08
0.43
1.97
2.87
2.58
1.32
-0.05
-0.06
1.29
2.43
2.48
1.46
0.02
-0.44
0.63
2.00
2.43
1.71
0.33
-0.59
0.02
1.54
2.43
2.14
0.86
-0.47
-0.39
1.01
2.12
2.10
1.05
-0.36
-0.73
0.35
1.64
2.02
1.25
-0.16
-0.99
-0.28
1.19
1.96
1.54
0.21
-1.09
-0.92
0.47
1.45
1.29
0.12
Sampling Rate: 380.00 Hz
-1.17
-1.04
0.32
1.39
1.29
0.16
-1.28
-1.65
-0.54
0.70
1.01
0.15
-1.32
-2.16
-1.46
-0.10
0.50
-0.09
-1.47
-2.71
-2.44
-0.98
0.01
-0.13
-1.32
-2.76
-2.99
-1.86
-0.77
-0.69
-1.71
-3.27
-4.02
-3.27
-2.04
-1.61
-2.33
-3.85
-5.09
-4.83
-3.54
-2.81
-3.24
-4.61
-6.15
-6.29
-5.10
-4.08
-4.16
-5.29
-6.84
-7.45
-6.52
-5.26
-4.90
-5.69
-7.13
-8.07
-7.51
-6.09
-5.40
-5.86
-7.24
-8.67
-8.64
-7.31
-6.32
-6.41
-7.59
-9.07
-9.47
-8.40
-7.20
-6.92
-7.76
-9.21
-10.02
-9.24
-7.87
-7.24
-7.78
-9.15
-10.31
-9.92
-8.41
-7.45
-7.72
-9.02
-10.47
-10.58
-9.33
-8.29
-8.35
-9.52
-11.12
-11.71
-10.79
-9.64
-9.38
-10.30
-11.85
-12.73
-12.03
-10.74
-10.26
-10.98
-12.45
-13.56
-13.15
-11.79
-11.10
-11.56
-12.91
-14.28
-14.13
-12.76
-11.91
-12.20
-13.46
-14.89
-14.99
-13.71
-12.64
-12.66
-13.81
-15.29
-15.71
-14.67
-13.55
-13.41
-14.42
-15.94
-16.66
-15.85
-14.61
-14.20
-14.96
-16.39
-17.32
-16.69
-15.29
-14.60
-15.07
-16.39
-17.53
-17.11
-15.63
-14.70
-14.93
-16.18
-17.56
-17.47
-16.10
-15.09
-15.15
-16.26
-17.59
-17.70
-16.42
-15.22
-15.03
-15.97
-17.36
-17.75
-16.61
-15.20
-14.75
-15.48
-16.82
-17.50
-16.62
-15.17
-14.50
-15.05
-16.38
-17.35
-16.75
-15.20
-14.33
-14.64
-15.84
-16.97
-16.58
-14.97
-13.88
-13.99
-15.08
-16.31
-16.18
-14.71
-13.50
-13.41
-14.40
-15.74
-15.88
-14.55
-13.13
-12.71
-13.46
-14.73
-15.12
-14.01
-12.53
-11.94
-12.50
-13.76
-14.49
-13.65
-12.12
-11.37
-11.77
-13.01
-14.05
-13.50
-11.86
-10.80
-10.96
-12.08
-13.28
-13.01
-11.43
-10.25
-10.24
-11.24
-12.46
-12.46
-11.08
-9.79
-9.50
-10.30
-11.58
-11.96
-10.79
-9.29
-8.73
-9.29
-10.56
-11.28
-10.43
-8.82
-7.92
-8.25
-9.47
-10.61
-10.18
-8.53
-7.39
-7.45
-8.50
-9.69
-9.53
-7.96
-6.54
-6.18
-6.93
-8.18
-8.57
-7.41
-5.87
-5.22
-5.78
-7.10
-8.00
-7.29
-5.61
-4.56
-4.75
-5.90
-7.16
-6.93
-5.37
-4.13
-4.05
-5.06
-6.48
-6.84
-5.68
-4.30
-3.88
-4.62
-5.97
-6.71
-5.91
-4.36
-3.55
-3.96
-5.25
-6.50
-6.23
-4.73
-3.71
-3.85
-5.00
-6.44
-6.70
-5.53
-4.27
-4.03
-4.97
-6.47
-7.17
-6.33
-4.86
-4.24
-4.79
-6.15
-7.31
-6.93
-5.41
-4.45
-4.66
-5.87
-7.23
-7.26
-5.86
-4.57
-4.34
-5.20
-6.53
-6.91
-5.79
-4.32
-3.70
-4.31
-5.65
-6.53
-5.83
-4.24
-3.31
-3.58
-4.80
-6.10
-5.95
-4.50
-3.33
-3.24
-4.23
-5.59
-5.91
-4.73
-3.28
-2.77
-3.49
-4.87
-5.60
-4.82
-3.31
-2.49
-2.86
-4.14
-5.31
-4.99
-3.45
-2.36
-2.45
-3.59
-4.96
-5.05
-3.71
-2.40
-2.11
-2.93
-4.28
-4.84
-3.80
-2.22
-1.45
-1.85
-3.07
-4.03
-3.45
-1.81
-0.80
-0.99
-2.17
-3.45
-3.36
Sampling Rate: 377.00 Hz
-2.02
-1.10
-1.30
-2.46
-3.79
-3.74
-2.29
-0.92
-0.59
-1.40
-2.68
-3.13
-2.00
-0.47
0.17
-0.38
-1.69
-2.58
-1.94
-0.33
0.63
0.39
-0.84
-2.17
-2.08
-0.63
0.60
0.76
-0.21
-1.56
-1.86
-0.61
0.89
1.48
0.86
-0.44
-1.22
-0.42
1.17
2.06
1.78
0.55
-0.68
-0.42
1.10
2.27
2.32
1.32
-0.05
-0.24
1.01
2.42
2.80
2.04
0.65
-0.04
0.81
2.35
3.09
2.65
1.38
0.21
0.55
2.09
3.11
3.00
1.87
0.47
0.28
1.54
2.81
3.04
2.15
0.73
0.07
0.94
2.37
3.02
2.46
1.07
-0.04
0.38
1.92
2.92
2.75
1.54
0.15
0.14
1.54
2.84
3.08
2.15
0.69
0.13
1.09
2.47
2.96
2.25
0.80
-0.28
0.21
1.73
2.65
2.39
1.15
-0.25
-0.18
1.21
2.35
2.39
1.32
-0.15
-0.67
0.30
1.57
1.96
1.20
-0.27
-1.20
-0.57
0.90
1.67
1.25
-0.12
-1.53
-1.45
-0.05
0.95
0.82
-0.36
-1.87
-2.23
-1.14
0.10
0.41
-0.43
-1.90
-2.74
-2.04
-0.60
0.07
-0.44
-1.84
-3.14
-2.88
-1.41
-0.45
-0.62
-1.82
-3.24
-3.39
-2.12
-0.91
-0.69
-1.59
-3.03
-3.70
-2.79
-1.35
-0.80
-1.45
-2.88
-4.03
-3.62
-2.13
-1.20
-1.41
-2.66
-4.04
-4.06
-2.67
-1.51
-1.39
-2.41
-3.87
-4.34
-3.25
-1.82
-1.26
-1.86
-3.15
-3.99
-3.27
-1.70
-0.79
-1.07
-2.27
-3.55
-3.37
-1.89
-0.78
-0.80
-1.88
-3.27
-3.52
-2.27
-0.91
-0.55
-1.33
-2.73
-3.47
-2.66
-1.17
-0.49
-0.95
-2.29
-3.51
-3.21
-1.65
-0.57
-0.65
-1.74
-3.03
-3.03
-1.66
-0.35
-0.04
-0.90
-2.31
-2.90
-1.90
-0.41
0.23
-0.34
-1.66
-2.62
-2.01
-0.39
0.65
0.48
-0.72
-2.01
-1.90
-0.44
0.76
0.88
-0.09
-1.46
-1.87
-0.78
0.66
1.15
0.45
-0.89
-1.74
-1.06
0.48
1.37
1.10
-0.15
-1.42
-1.21
0.29
1.46
1.47
0.40
-1.01
-1.26
-0.01
1.43
1.94
1.24
-0.09
-0.80
0.07
1.67
2.51
2.18
1.00
-0.10
0.27
1.87
2.96
2.88
1.74
0.32
0.14
1.42
2.74
3.08
2.31
0.98
0.43
1.43
2.97
3.67
3.16
1.84
0.77
1.25
2.88
3.94
3.78
2.61
1.28
1.27
2.70
3.99
4.20
3.27
1.85
1.31
2.36
3.87
4.48
3.93
2.62
1.65
2.23
3.80
4.74
4.47
3.19
1.78
1.82
3.20
4.38
4.49
3.52
2.13
1.72
2.86
4.30
4.84
4.23
2.90
2.07
2.77
4.33
5.24
4.93
3.64
2.30
2.43
3.87
4.99
4.98
3.86
2.41
2.14
3.33
4.71
5.09
4.29
2.89
2.16
3.03
4.60
5.36
4.90
3.55
2.29
2.55
4.06
5.07
4.91
3.72
2.32
2.17
3.50
4.82
5.16
4.35
2.96
2.35
3.27
4.77
5.48
5.00
3.69
2.58
3.02
4.60
5.66
5.53
4.34
2.99
2.96
4.36
5.60
Sampling Rate: 380.00 Hz
5.60
4.58
3.30
3.26
4.64
5.97
6.27
5.39
3.95
3.29
4.23
5.72
6.39
5.89
4.54
3.46
3.90
5.45
6.41
6.15
4.86
3.47
3.47
4.82
6.04
6.19
5.23
3.78
3.26
4.24
5.64
6.13
5.41
3.98
2.99
3.60
5.14
6.03
5.74
4.46
3.11
3.21
4.68
5.89
6.00
5.03
3.63
3.20
4.31
5.66
6.11
5.39
3.98
3.10
3.80
5.30
6.09
5.66
4.33
3.00
3.15
4.58
5.65
5.56
4.39
2.91
2.56
3.68
4.95
5.23
4.37
2.89
2.13
2.90
4.34
5.02
4.55
3.20
1.99
2.34
3.90
4.91
4.78
3.65
2.26
2.16
3.47
4.70
4.93
4.05
2.60
1.93
2.83
4.25
4.81
4.20
2.80
1.74
2.27
3.87
4.84
4.60
3.37
2.00
2.04
3.46
4.70
4.82
3.85
2.41
1.90
2.98
4.43
5.00
4.39
3.04
2.11
2.68
4.20
5.10
4.79
3.52
2.17
2.26
3.67
4.82
4.87
3.84
2.41
2.00
3.15
4.52
4.91
4.14
2.70
1.87
2.57
4.03
4.77
4.36
3.02
1.71
1.95
3.48
4.58
4.55
3.47
2.10
1.92
3.19
4.55
4.93
4.11
2.70
2.02
2.89
4.35
5.04
4.49
3.07
1.78
2.03
3.52
4.51
4.31
3.10
1.69
1.60
2.93
4.18
4.38
3.48
2.06
1.44
2.35
3.80
4.44
3.86
2.48
1.41
1.93
3.50
4.51
4.36
3.18
1.87
1.96
3.40
4.67
4.82
3.81
2.36
1.81
2.80
4.16
4.66
3.96
2.59
1.61
2.22
3.75
4.61
4.24
2.91
1.51
1.56
2.93
4.04
4.04
2.93
1.47
1.11
2.27
3.70
4.15
3.40
1.97
1.16
1.89
3.39
4.14
3.68
2.37
1.12
1.39
2.91
4.00
3.92
2.80
1.38
1.15
2.41
3.79
4.16
3.35
1.95
1.24
2.07
3.55
4.22
3.74
2.44
1.30
1.72
3.30
4.34
4.18
2.99
1.61
1.53
2.91
4.20
4.42
3.48
1.98
1.32
2.24
3.66
4.21
3.58
2.17
1.10
1.57
3.13
4.13
3.98
2.80
1.48
1.55
2.99
4.22
4.40
3.47
2.05
1.57
2.64
4.07
4.61
3.92
2.50
1.51
2.11
3.62
4.49
4.19
2.93
1.56
1.68
3.14
4.32
4.34
3.29
1.80
1.35
2.42
3.72
4.10
3.31
1.87
1.00
1.71
3.24
4.04
3.68
2.40
1.11
1.33
2.83
3.93
3.89
2.77
1.30
1.00
2.19
3.48
3.82
2.99
1.54
0.80
1.60
3.09
3.84
3.36
2.03
0.83
1.15
2.67
3.73
3.64
2.50
1.10
0.96
2.23
3.48
3.75
2.85
1.42
0.76
1.62
3.04
3.65
3.08
1.73
0.60
0.97
2.51
3.52
3.30
2.09
0.67
0.58
1.91
3.14
3.31
2.38
0.97
0.41
1.42
2.87
3.45
2.80
1.38
0.36
0.90
2.45
3.37
3.12
1.88
0.50
0.55
1.98
3.21
3.38
2.44
1.02
0.54
1.57
2.91
3.37
2.67
Sampling Rate: 380.00 Hz
1.36
0.93
1.98
3.42
3.96
3.29
1.87
0.84
1.37
2.87
3.78
3.48
2.20
0.81
0.84
2.26
3.45
3.51
2.46
0.97
0.52
1.59
2.99
3.45
2.69
1.29
0.41
1.13
2.70
3.53
3.14
1.78
0.37
0.49
1.93
3.01
2.97
1.86
0.43
0.10
1.27
2.61
2.98
2.15
0.70
-0.13
0.63
2.12
2.87
2.41
1.09
-0.13
0.15
1.71
2.81
2.76
1.65
0.28
0.15
1.42
2.74
3.03
2.18
0.79
0.10
1.00
2.52
3.25
2.74
1.37
0.23
0.66
2.23
3.29
3.18
1.98
0.58
0.49
1.80
3.03
3.25
2.35
0.94
0.38
1.34
2.73
3.23
2.56
1.17
0.16
0.67
2.23
3.19
2.92
1.65
0.29
0.37
1.78
2.95
3.00
1.93
0.42
-0.10
0.95
2.33
2.84
2.16
0.78
-0.09
0.56
2.07
2.90
2.53
1.23
-0.12
0.01
1.45
2.61
2.65
1.64
0.23
-0.11
1.06
2.45
2.90
2.16
0.74
-0.02
0.78
2.32
3.14
2.74
1.44
0.18
0.42
1.93
2.98
2.84
1.64
0.18
-0.05
1.16
2.47
2.78
1.93
0.51
-0.21
0.66
2.13
2.78
2.23
0.88
-0.28
0.09
1.66
2.73
2.57
1.39
0.04
-0.03
1.32
2.62
2.91
2.08
0.72
0.17
1.16
2.66
3.30
2.75
1.43
0.41
0.95
2.55
3.53
3.33
2.09
0.71
0.67
2.00
3.16
3.23
2.23
0.74
0.18
1.16
2.54
3.03
2.36
0.96
-0.03
0.57
2.08
2.93
2.63
1.33
-0.04
0.01
1.42
2.58
2.59
1.53
0.10
-0.29
0.83
2.20
2.63
1.92
0.51
-0.34
0.37
1.90
2.76
2.38
1.09
-0.18
0.03
1.54
2.68
2.69
1.61
0.21
-0.09
1.10
2.45
2.82
1.99
0.52
-0.23
0.59
2.04
2.73
2.25
0.94
-0.24
0.06
1.57
2.57
2.42
1.21
-0.25
-0.40
0.88
2.15
2.44
1.58
0.19
-0.41
0.51
1.97
2.57
2.01
0.69
-0.42
0.04
1.61
2.60
2.38
1.17
-0.22
-0.28
1.05
2.24
2.36
1.35
-0.16
-0.77
0.17
1.55
2.11
1.48
0.08
-0.91
-0.37
1.14
2.03
1.74
0.50
-0.88
-0.79
0.64
1.82
1.91
0.90
-0.56
-1.01
0.11
1.51
1.99
1.32
-0.05
-0.91
-0.20
1.34
2.16
1.81
0.56
-0.79
-0.62
0.82
1.93
1.93
0.86
-0.57
-0.86
0.31
1.64
2.04
1.30
-0.09
-0.89
-0.15
1.30
2.03
1.55
0.21
-1.00
-0.69
0.88
1.96
1.85
0.68
-0.76
-0.97
0.26
1.49
1.71
0.79
-0.64
-1.25
-0.33
1.16
1.84
1.30
-0.06
-1.15
-0.66
0.94
1.99
1.87
0.70
-0.67
-0.71
0.66
1.90
2.09
1.13
-0.35
-0.89
0.09
1.47
1.97
1.28
-0.17
-1.19
-0.67
0.83
1.70
1.39
0.13
-1.26
-1.16
0.28
1.44
1.48
0.42
-1.06
-1.46
-0.29
1.11
1.52
0.76
-0.68
-1.55
-0.82
0.70
1.48
1.09
-0.23
-1.54
Sampling Rate: 380.00 Hz
-1.14
0.27
1.06
0.71
-0.58
-1.94
-1.76
-0.26
0.94
0.99
-0.01
-1.41
-1.69
-0.46
0.97
1.46
0.75
-0.60
-1.37
-0.58
0.95
1.75
1.33
-0.01
-1.29
-1.06
0.47
1.51
1.43
0.29
-1.14
-1.38
-0.15
1.10
1.34
0.42
-1.07
-1.80
-0.91
0.58
1.24
0.70
-0.64
-1.76
-1.29
0.28
1.28
1.13
-0.01
-1.38
-1.40
-0.03
1.25
1.48
0.55
-0.89
-1.43
-0.45
0.96
1.50
0.82
-0.60
-1.59
-1.04
0.52
1.48
1.20
-0.06
-1.41
-1.34
0.09
1.27
1.37
0.36
-1.05
-1.43
-0.27
1.19
1.72
1.09
-0.23
-1.05
-0.35
1.15
1.94
1.55
0.22
-1.15
-1.00
0.46
1.60
1.61
0.55
-0.89
-1.22
-0.04
1.32
1.69
0.86
-0.60
-1.38
-0.58
0.91
1.67
1.26
-0.01
-1.23
-0.91
0.65
1.73
1.62
0.44
-0.99
-1.20
0.03
1.27
1.50
0.62
-0.82
-1.44
-0.51
0.97
1.65
1.11
-0.25
-1.34
-0.94
0.60
1.59
1.40
0.18
-1.23
-1.25
0.14
1.38
1.54
0.60
-0.82
-1.35
-0.33
1.11
1.64
0.98
-0.41
-1.38
-0.81
0.76
1.70
1.39
0.12
-1.23
-1.14
0.33
1.47
1.48
0.40
-1.10
-1.58
-0.48
0.90
1.37
0.68
-0.68
-1.50
-0.75
0.83
1.69
1.37
0.12
-1.12
-0.85
0.67
1.82
1.79
0.73
-0.65
-0.96
0.22
1.57
1.94
1.15
-0.25
-1.00
-0.20
1.31
2.01
1.51
0.16
-1.11
-0.88
0.59
1.59
1.39
0.18
-1.26
-1.46
-0.23
1.04
1.33
0.45
-1.00
-1.60
-0.63
0.90
1.60
1.11
-0.23
-1.29
-0.86
0.68
1.63
1.42
0.23
-1.17
-1.25
0.07
1.28
1.44
0.47
-0.99
-1.54
-0.58
0.80
1.32
0.67
-0.69
-1.64
-1.01
0.56
1.46
1.17
-0.08
-1.43
-1.33
0.12
1.29
1.32
0.25
-1.27
-1.79
-0.77
0.59
1.04
0.29
-1.15
-2.07
-1.41
0.07
0.87
0.47
-0.87
-2.23
-2.11
-0.64
0.49
0.45
-0.66
-2.10
-2.39
-1.19
0.15
0.51
-0.25
-1.59
-2.25
-1.38
0.16
0.90
0.44
-0.88
-2.10
-1.80
-0.24
0.84
0.70
-0.50
-1.94
-2.10
-0.78
0.55
0.84
-0.03
-1.41
-2.00
-1.06
0.44
1.15
0.62
-0.68
-1.75
-1.25
0.39
1.43
1.25
0.07
-1.25
-1.24
0.15
1.42
1.65
0.78
-0.57
-1.00
0.07
1.53
2.06
1.42
0.06
-0.89
-0.26
1.29
2.17
1.82
0.49
-0.93
-0.92
0.44
1.53
1.51
0.45
-1.00
-1.39
-0.27
1.11
1.53
0.75
-0.69
-1.53
-0.83
0.66
1.42
0.97
-0.40
-1.73
-1.53
0.01
1.15
1.17
0.14
-1.26
-1.55
-0.36
0.96
1.33
0.58
-0.79
-1.50
-0.64
0.90
1.66
1.18
-0.18
-1.39
-1.08
0.49
1.58
1.52
0.40
-0.95
-1.02
0.29
1.61
1.93
1.07
-0.35
-0.96
-0.04
1.40
2.01
1.38
-0.01
-1.16
-0.74
0.79
1.76
1.57
0.34
-1.02
-1.04
0.36
Sampling Rate: 380.00 Hz
1.31
1.09
-0.10
-1.51
-1.65
-0.36
0.89
1.14
0.27
-1.14
-1.71
-0.72
0.77
1.40
0.81
-0.57
-1.67
-1.20
0.35
1.33
1.14
-0.05
-1.36
-1.33
0.07
1.28
1.40
0.43
-1.02
-1.54
-0.53
0.86
1.40
0.76
-0.62
-1.54
-0.88
0.66
1.55
1.23
-0.02
-1.37
-1.28
0.13
1.25
1.26
0.17
-1.30
-1.65
-0.48
0.93
1.36
0.60
-0.81
-1.61
-0.87
0.61
1.39
0.94
-0.37
-1.63
-1.39
0.14
1.23
1.11
-0.01
-1.38
-1.58
-0.35
0.88
1.14
0.24
-1.22
-1.89
-1.02
0.45
1.12
0.63
-0.68
-1.76
-1.28
0.33
1.41
1.29
0.13
-1.19
-1.22
0.15
1.39
1.60
0.70
-0.74
-1.26
-0.21
1.23
1.78
1.15
-0.26
-1.26
-0.68
0.87
1.82
1.57
0.31
-1.10
-1.08
0.27
1.37
1.40
0.32
-1.17
-1.65
-0.56
0.84
1.31
0.61
-0.81
-1.66
-0.95
0.54
1.35
1.00
-0.31
-1.63
-1.47
-0.04
1.01
0.95
-0.14
-1.53
-1.76
-0.51
0.85
1.24
0.42
-1.00
-1.75
-0.91
0.56
1.24
0.71
-0.63
-1.82
-1.46
0.08
1.14
1.05
-0.10
-1.50
-1.59
-0.24
1.09
1.39
0.58
-0.82
-1.41
-0.47
1.00
1.61
1.06
-0.30
-1.36
-0.92
0.64
1.64
1.40
0.20
-1.19
-1.24
0.09
1.27
1.43
0.45
-0.99
-1.48
-0.45
1.00
1.52
0.89
-0.47
-1.37
-0.72
0.84
1.72
1.38
0.07
-1.29
-1.17
0.29
1.45
1.50
0.48
-0.91
-1.22
-0.01
1.42
1.88
1.14
-0.28
-1.10
-0.32
1.25
2.06
1.64
0.33
-0.95
-0.72
0.79
1.88
1.84
0.72
-0.68
-0.91
0.29
1.57
1.87
1.02
-0.40
-1.10
-0.25
1.26
2.01
1.50
0.17
-1.03
-0.68
0.84
1.87
1.71
0.53
-0.84
-0.89
0.45
1.73
1.97
1.03
-0.45
-1.07
-0.10
1.35
1.93
1.34
-0.02
-1.07
-0.55
1.00
2.01
1.84
0.63
-0.74
-0.73
0.68
1.90
2.01
1.03
-0.42
-0.91
0.14
1.58
2.12
1.49
0.14
-0.81
-0.17
1.39
2.26
1.98
0.75
-0.62
-0.48
0.96
2.07
2.07
1.03
-0.44
-0.80
0.34
1.73
2.18
1.43
-0.01
-0.81
-0.03
1.51
2.34
1.98
0.69
-0.60
-0.36
1.18
2.30
2.22
1.06
-0.37
-0.61
0.63
1.98
2.37
1.63
0.28
-0.39
0.47
1.97
2.71
2.20
0.85
-0.38
-0.05
1.46
2.46
2.26
1.05
-0.36
-0.50
0.79
2.02
2.22
1.32
-0.11
-0.66
0.34
1.78
2.32
1.70
0.32
-0.77
-0.34
1.16
2.08
1.83
0.55
-0.84
-0.79
0.62
1.79
1.87
0.82
-0.71
-1.27
-0.28
1.05
1.45
0.72
-0.67
-1.56
-0.92
0.58
1.38
1.03
-0.27
-1.62
-1.49
-0.04
1.08
1.04
-0.08
-1.51
-1.84
-0.68
0.65
1.00
0.22
-1.16
-1.91
-1.09
0.40
1.13
0.64
-0.70
-1.94
-1.63
-0.09
0.96
0.90
-0.20
-1.56
-1.71
-0.39
0.95
1.32
Sampling Rate: 380.00 Hz
0.54
-0.69
-0.83
0.48
1.93
2.37
1.58
0.17
-0.64
0.11
1.56
2.27
1.78
0.39
-0.90
-0.65
0.84
1.86
1.71
0.50
-0.96
-1.15
0.13
1.38
1.58
0.64
-0.86
-1.52
-0.65
0.80
1.43
0.88
-0.49
-1.60
-1.20
0.34
1.32
1.14
-0.03
-1.40
-1.46
-0.15
1.02
1.09
0.11
-1.33
-1.86
-0.87
0.52
1.01
0.35
-1.02
-1.97
-1.32
0.26
1.17
0.86
-0.42
-1.81
-1.76
-0.38
0.71
0.72
-0.32
-1.75
-2.13
-1.00
0.37
0.78
0.06
-1.32
-2.11
-1.37
0.11
0.83
0.40
-0.93
-2.19
-1.93
-0.38
0.71
0.62
-0.50
-1.87
-2.06
-0.76
0.60
0.92
0.11
-1.28
-1.96
-1.08
0.41
1.08
0.55
-0.81
-1.94
-1.54
0.02
1.05
0.87
-0.36
-1.74
-1.80
-0.42
0.83
1.06
0.14
-1.25
-1.82
-0.80
0.67
1.24
0.63
-0.76
-1.81
-1.31
0.21
1.13
0.89
-0.31
-1.63
-1.56
-0.17
0.97
1.02
-0.02
-1.45
-1.84
-0.71
0.72
1.22
0.56
-0.81
-1.66
-1.00
0.51
1.32
0.91
-0.45
-1.80
-1.66
-0.21
0.83
0.78
-0.33
-1.77
-2.02
-0.82
0.45
0.79
-0.01
-1.43
-2.10
-1.24
0.21
0.90
0.43
-0.90
-2.04
-1.64
-0.08
0.97
0.88
-0.26
-1.60
-1.66
-0.32
0.96
1.23
0.39
-1.00
-1.56
-0.54
0.98
1.62
1.05
-0.30
-1.35
-0.80
0.79
1.74
1.48
0.25
-1.08
-0.97
0.50
1.72
1.83
0.80
-0.65
-1.09
0.02
1.48
1.98
1.29
-0.08
-1.00
-0.38
1.14
1.97
1.63
0.29
-1.11
-0.99
0.44
1.54
1.56
0.47
-0.95
-1.27
-0.14
1.18
1.51
0.69
-0.76
-1.56
-0.78
0.72
1.46
0.99
-0.38
-1.63
-1.33
0.23
1.29
1.21
0.06
-1.34
-1.51
-0.26
1.04
1.31
0.45
-0.97
-1.65
-0.75
0.72
1.35
0.81
-0.53
-1.63
-1.20
0.35
1.37
1.23
0.05
-1.28
-1.27
0.13
1.39
1.63
0.68
-0.74
-1.28
-0.25
1.16
1.73
1.09
-0.31
-1.31
-0.77
0.76
1.66
1.38
0.10
-1.27
-1.23
0.15
1.27
1.31
0.28
-1.14
-1.54
-0.41
1.02
1.53
0.81
-0.57
-1.41
-0.73
0.78
1.56
1.18
-0.11
-1.38
-1.19
0.28
1.34
1.29
0.21
-1.17
-1.43
-0.24
1.05
1.39
0.56
-0.85
-1.55
-0.72
0.73
1.42
0.89
-0.46
-1.63
-1.27
0.30
1.37
1.29
0.15
-1.19
-1.24
0.08
1.31
1.52
0.57
-0.88
-1.51
-0.57
0.89
1.47
0.90
-0.47
-1.52
-1.06
0.47
1.41
1.12
-0.12
-1.49
-1.48
-0.13
1.05
1.17
0.20
-1.23
-1.71
-0.65
0.74
1.20
0.51
-0.92
-1.90
-1.29
0.20
1.06
0.70
-0.59
-1.97
-1.84
-0.42
0.72
0.71
-0.34
-1.78
-2.15
-0.96
0.45
0.90
0.19
-1.16
-1.92
-1.17
0.33
1.05
0.62
-0.67
-1.91
-1.61
-0.08
0.97
0.87
-0.26
-1.66
-1.87
-0.62
0.70
0.98
0.15
-1.27
Sampling Rate: 380.00 Hz
-1.59
-0.41
0.98
1.42
0.68
-0.73
-1.52
-0.73
0.75
1.50
1.08
-0.27
-1.55
-1.34
0.17
1.25
1.15
0.03
-1.38
-1.61
-0.35
0.95
1.26
0.39
-1.05
-1.73
-0.84
0.61
1.23
0.68
-0.69
-1.79
-1.37
0.16
1.13
0.89
-0.33
-1.72
-1.72
-0.35
0.84
1.00
0.03
-1.39
-1.90
-0.88
0.53
1.03
0.40
-0.96
-1.93
-1.30
0.26
1.19
0.88
-0.41
-1.81
-1.75
-0.37
0.78
0.82
-0.24
-1.66
-2.02
-0.86
0.57
1.06
0.39
-0.97
-1.75
-0.95
0.62
1.46
1.11
-0.16
-1.37
-1.10
0.46
1.56
1.47
0.30
-1.17
-1.42
-0.21
1.06
1.32
0.48
-0.99
-1.76
-0.92
0.51
1.14
0.61
-0.74
-1.88
-1.48
0.11
1.16
0.97
-0.22
-1.58
-1.64
-0.29
0.94
1.14
0.24
-1.20
-1.78
-0.80
0.61
1.13
0.48
-0.88
-1.86
-1.26
0.30
1.24
0.97
-0.29
-1.66
-1.62
-0.24
0.88
0.89
-0.14
-1.62
-2.07
-0.99
0.40
0.88
0.19
-1.16
-1.97
-1.21
0.31
1.07
0.61
-0.78
-2.18
-2.05
-0.62
0.45
0.40
-0.69
-2.11
-2.39
-1.15
0.17
0.48
-0.36
-1.80
-2.53
-1.71
-0.26
0.42
-0.05
-1.34
-2.50
-2.15
-0.60
0.42
0.24
-0.93
-2.29
-2.39
-1.08
0.19
0.41
-0.47
-1.88
-2.39
-1.34
0.19
0.83
0.30
-1.04
-2.01
-1.43
0.20
1.22
1.06
-0.15
-1.52
-1.47
-0.04
1.15
1.30
0.33
-1.10
-1.52
-0.39
1.02
1.47
0.71
-0.74
-1.66
-1.02
0.44
1.26
0.92
-0.37
-1.71
-1.53
-0.02
1.08
1.05
-0.02
-1.44
-1.74
-0.56
0.78
1.16
0.41
-0.99
-1.75
-0.94
0.59
1.37
0.93
-0.37
-1.61
-1.36
0.16
1.21
1.14
-0.02
-1.41
-1.54
-0.25
1.07
1.33
0.47
-0.97
-1.65
-0.75
0.73
1.34
0.76
-0.61
-1.77
-1.38
0.13
1.09
0.91
-0.30
-1.64
-1.64
-0.25
1.01
1.16
0.22
-1.24
-1.81
-0.84
0.57
1.12
0.47
-0.92
-1.87
-1.32
0.14
0.97
0.63
-0.61
-1.96
-1.88
-0.52
0.55
0.51
-0.56
-1.97
-2.38
-1.35
-0.07
0.27
-0.46
-1.83
-2.62
-1.92
-0.56
0.09
-0.36
-1.66
-2.90
-2.72
-1.37
-0.43
-0.53
-1.58
-2.87
-3.03
-1.85
-0.67
-0.43
-1.24
-2.53
-3.13
-2.29
-0.93
-0.33
-0.85
-2.07
-3.08
-2.64
-1.18
-0.24
-0.36
-1.43
-2.69
-2.73
-1.46
-0.34
-0.18
-1.05
-2.36
-2.85
-1.93
-0.66
-0.25
-0.92
-2.23
-3.19
-2.69
-1.32
-0.56
-0.91
-2.12
-3.43
-3.41
-2.15
-1.13
-1.13
-2.12
-3.48
-3.91
-2.94
-1.76
-1.41
-2.16
-3.53
-4.38
-3.78
-2.45
-1.82
-2.25
-3.48
-4.68
-4.46
-3.07
-2.06
-2.12
-3.17
-4.46
-4.60
-3.39
-2.15
-1.86
-2.66
-3.99
-4.58
-3.71
-2.30
-1.69
-2.17
-3.39
-4.41
-3.98
-2.53
-1.63
-1.82
-2.97
-4.24
-4.25
-3.00
-1.90
-1.75
-2.63
-3.96
-4.43
-3.51
Sampling Rate: 380.00 Hz
-2.53
-2.42
-3.33
-4.73
-5.31
-4.43
-3.08
-2.52
-3.04
-4.25
-5.17
-4.67
-3.23
-2.34
-2.57
-3.70
-4.96
-4.91
-3.60
-2.46
-2.32
-3.21
-4.48
-4.86
-3.82
-2.49
-2.01
-2.63
-3.91
-4.73
-4.13
-2.74
-1.99
-2.34
-3.53
-4.76
-4.61
-3.23
-2.21
-2.21
-3.16
-4.42
-4.60
-3.44
-2.15
-1.75
-2.48
-3.77
-4.43
-3.64
-2.23
-1.52
-1.96
-3.14
-4.17
-3.76
-2.27
-1.26
-1.34
-2.41
-3.66
-3.73
-2.49
-1.35
-1.16
-2.03
-3.37
-3.92
-3.03
-1.71
-1.22
-1.83
-3.14
-4.07
-3.58
-2.15
-1.27
-1.54
-2.74
-4.07
-4.07
-2.81
-1.74
-1.72
-2.69
-4.05
-4.47
-3.46
-2.19
-1.76
-2.44
-3.75
-4.54
-3.88
-2.48
-1.71
-2.02
-3.21
-4.36
-4.16
-2.77
-1.77
-1.80
-2.81
-4.10
-4.27
-3.07
-1.78
-1.39
-2.10
-3.39
-3.97
-3.09
-1.67
-0.99
-1.43
-2.68
-3.74
-3.39
-1.97
-1.03
-1.19
-2.28
-3.57
-3.61
-2.33
-1.20
-1.05
-1.98
-3.34
-3.83
-2.89
-1.55
-1.05
-1.63
-2.87
-3.73
-3.15
-1.72
-0.90
-1.22
-2.42
-3.73
-3.67
-2.36
-1.29
-1.24
-2.17
-3.46
-3.76
-2.66
-1.36
-0.98
-1.71
-3.02
-3.75
-3.04
-1.63
-0.93
-1.32
-2.54
-3.74
-3.56
-2.21
-1.28
-1.41
-2.49
-3.84
-4.03
-2.89
-1.67
-1.36
-2.09
-3.38
-3.92
-3.04
-1.66
-1.07
-1.58
-2.84
-3.88
-3.48
-2.03
-1.07
-1.22
-2.28
-3.54
-3.57
-2.33
-1.24
-1.09
-2.00
-3.37
-3.83
-2.84
-1.49
-0.98
-1.57
-2.86
-3.72
-3.18
-1.81
-1.03
-1.35
-2.52
-3.77
-3.63
-2.28
-1.25
-1.27
-2.28
-3.58
-3.90
-2.84
-1.60
-1.24
-1.96
-3.26
-3.97
-3.26
-1.90
-1.22
-1.64
-2.84
-3.97
-3.66
-2.21
-1.21
-1.32
-2.37
-3.62
-3.67
-2.44
-1.27
-1.06
-1.92
-3.24
-3.81
-2.96
-1.63
-1.05
-1.56
-2.76
-3.72
-3.24
-1.81
-0.93
-1.12
-2.26
-3.48
-3.42
-2.09
-0.99
-0.91
-1.79
-3.06
-3.47
-2.46
-1.18
-0.74
-1.36
-2.60
-3.36
-2.70
-1.27
-0.50
-0.86
-2.04
-3.28
-3.13
-1.79
-0.77
-0.81
-1.81
-3.11
-3.40
-2.34
-1.17
-0.89
-1.68
-3.01
-3.74
-3.02
-1.67
-1.00
-1.42
-2.62
-3.70
-3.38
-1.93
-0.94
-1.07
-2.10
-3.30
-3.32
-2.05
-0.83
-0.53
-1.25
-2.47
-2.91
-1.96
-0.58
0.03
-0.42
-1.55
-2.39
-1.86
-0.37
0.52
0.34
-0.78
-1.99
-1.91
-0.57
0.58
0.73
-0.15
-1.47
-1.90
-0.94
0.29
0.71
0.07
-1.19
-1.96
-1.35
0.04
0.82
0.48
-0.74
-1.99
-1.90
-0.60
0.38
0.33
-0.70
-2.05
-2.35
-1.26
-0.05
0.26
-0.51
-1.83
-2.51
-1.74
-0.36
0.28
-0.20
-1.45
-2.59
-2.34
-0.93
-0.00
-0.16
-1.25
-2.53
-2.66
-1.47
-0.33
-0.14
-0.97
-2.28
-2.85
-1.95
-0.57
0.04
-0.47
-1.69
-2.64
-2.15
-0.69
0.19
-0.04
-1.16
-2.39
-2.37
-1.08
0.01
0.10
Sampling Rate: 380.00 Hz
-0.82
-1.94
-1.90
-0.57
0.66
0.88
0.09
-1.17
-1.64
-0.69
0.67
1.25
0.75
-0.46
-1.35
-0.81
0.67
1.54
1.31
0.18
-1.07
-1.00
0.33
1.42
1.54
0.61
-0.72
-1.16
-0.19
1.09
1.51
0.88
-0.38
-1.21
-0.61
0.79
1.58
1.25
0.04
-1.22
-1.11
0.22
1.27
1.29
0.30
-1.05
-1.41
-0.35
0.91
1.31
0.66
-0.56
-1.24
-0.46
0.98
1.68
1.26
0.04
-1.09
-0.85
0.57
1.54
1.46
0.40
-0.89
-1.04
0.16
1.39
1.68
0.89
-0.42
-1.02
-0.15
1.21
1.79
1.28
-0.01
-1.08
-0.75
0.67
1.61
1.43
0.33
-0.94
-0.97
0.26
1.38
1.51
0.61
-0.74
-1.31
-0.45
0.84
1.29
0.68
-0.61
-1.58
-1.14
0.24
1.04
0.77
-0.42
-1.71
-1.68
-0.41
0.63
0.70
-0.28
-1.65
-2.06
-1.04
0.25
0.68
-0.00
-1.31
-2.17
-1.58
-0.19
0.55
0.18
-1.07
-2.31
-2.14
-0.75
0.27
0.25
-0.79
-2.12
-2.38
-1.30
-0.12
0.18
-0.60
-1.91
-2.60
-1.89
-0.58
0.04
-0.44
-1.69
-2.81
-2.50
-1.11
-0.21
-0.42
-1.56
-2.86
-3.00
-1.81
-0.67
-0.46
-1.32
-2.68
-3.24
-2.34
-1.00
-0.44
-1.02
-2.32
-3.33
-2.85
-1.44
-0.58
-0.81
-1.95
-3.19
-3.14
-1.83
-0.72
-0.62
-1.52
-2.82
-3.22
-2.19
-0.86
-0.44
-1.11
-2.39
-3.20
-2.57
-1.15
-0.35
-0.65
-1.83
-3.03
-2.87
-1.53
-0.53
-0.56
-1.55
-2.86
-3.08
-1.93
-0.71
-0.38
-1.16
-2.50
-3.18
-2.41
-1.05
-0.39
-0.88
-2.15
-3.26
-2.92
-1.47
-0.53
-0.71
-1.81
-3.08
-3.17
-1.97
-0.81
-0.65
-1.54
-2.89
-3.41
-2.48
-1.13
-0.61
-1.21
-2.52
-3.51
-3.08
-1.71
-0.88
-1.14
-2.30
-3.58
-3.51
-2.16
-1.04
-0.94
-1.87
-3.22
-3.59
-2.53
-1.21
-0.72
-1.32
-2.57
-3.33
-2.67
-1.22
-0.44
-0.75
-1.94
-3.11
-2.88
-1.50
-0.48
-0.49
-1.47
-2.75
-2.96
-1.80
-0.55
-0.23
-1.01
-2.35
-3.03
-2.22
-0.81
-0.18
-0.68
-1.93
-3.03
-2.70
-1.30
-0.42
-0.63
-1.76
-3.01
-3.04
-1.76
-0.57
-0.40
-1.24
-2.56
-3.07
-2.12
-0.77
-0.25
-0.84
-2.07
-2.92
-2.34
-0.84
0.07
-0.17
-1.35
-2.57
-2.48
-1.11
-0.02
0.06
-0.90
-2.21
-2.58
-1.56
-0.28
0.13
-0.50
-1.79
-2.53
-1.83
-0.36
0.43
0.09
-1.10
-2.32
-2.12
-0.70
0.37
0.39
-0.58
-1.83
-2.00
-0.83
0.49
0.86
0.15
-1.14
-1.78
-0.94
0.51
1.20
0.80
-0.40
-1.49
-1.19
0.28
1.27
1.15
0.06
-1.22
-1.32
-0.07
1.17
1.47
0.72
-0.56
-1.11
-0.20
1.19
1.77
1.22
-0.07
-1.12
-0.73
0.68
1.57
1.33
0.15
-1.16
-1.24
0.02
1.14
1.30
0.39
-0.98
-1.54
-0.63
0.68
1.18
0.60
-0.66
-1.53
-0.94
0.52
1.36
1.05
-0.15
-1.40
-1.28
0.10
1.20
1.25
0.27
-1.06
Sampling Rate: 380.00 Hz
-1.11
0.13
1.19
1.26
0.26
-1.15
-1.66
-0.69
0.65
1.17
0.61
-0.64
-1.50
-0.94
0.48
1.28
1.00
-0.21
-1.48
-1.40
-0.11
0.90
0.90
-0.09
-1.42
-1.74
-0.68
0.63
1.06
0.38
-0.92
-1.65
-0.95
0.49
1.21
0.83
-0.37
-1.55
-1.34
0.10
1.11
1.06
0.03
-1.29
-1.49
-0.30
0.95
1.29
0.57
-0.69
-1.25
-0.34
1.08
1.74
1.32
0.14
-0.91
-0.54
0.93
1.91
1.81
0.74
-0.48
-0.46
0.84
2.03
2.28
1.44
0.11
-0.41
0.53
1.87
2.43
1.85
0.58
-0.35
0.14
1.55
2.37
2.07
0.87
-0.43
-0.39
0.90
1.97
2.00
1.02
-0.32
-0.71
0.31
1.57
1.95
1.27
0.00
-0.77
-0.10
1.35
2.17
1.86
0.68
-0.53
-0.38
0.96
1.93
1.82
0.75
-0.62
-0.91
0.21
1.43
1.75
1.01
-0.28
-0.95
-0.16
1.23
1.91
1.49
0.27
-0.87
-0.62
0.79
1.76
1.63
0.56
-0.75
-0.93
0.21
1.37
1.59
0.72
-0.62
-1.22
-0.36
1.02
1.58
1.02
-0.24
-1.22
-0.78
0.65
1.53
1.29
0.14
-1.14
-1.15
0.09
1.18
1.31
0.44
-0.88
-1.32
-0.32
1.04
1.58
1.03
-0.20
-1.05
-0.44
1.06
1.94
1.68
0.51
-0.71
-0.56
0.78
1.83
1.82
0.79
-0.58
-0.99
0.02
1.29
1.69
1.00
-0.29
-1.05
-0.37
1.06
1.79
1.45
0.29
-0.86
-0.63
0.76
1.73
1.65
0.58
-0.70
-0.91
0.26
1.49
1.82
1.11
-0.17
-0.79
0.01
1.37
1.95
1.49
0.24
-0.85
-0.52
0.89
1.81
1.64
0.52
-0.79
-0.90
0.31
1.45
1.66
0.85
-0.46
-1.03
-0.18
1.11
1.63
1.08
-0.18
-1.13
-0.67
0.73
1.57
1.36
0.21
-1.02
-0.92
0.43
1.58
1.75
0.91
-0.34
-0.73
0.25
1.56
2.02
1.36
0.10
-0.71
-0.12
1.31
2.13
1.83
0.63
-0.66
-0.55
0.74
1.72
1.67
0.62
-0.73
-1.04
0.03
1.26
1.64
0.98
-0.29
-0.98
-0.24
1.15
1.81
1.41
0.23
-0.86
-0.61
0.80
1.80
1.70
0.64
-0.64
-0.80
0.35
1.55
1.85
1.10
-0.15
-0.75
0.05
1.36
1.96
1.45
0.20
-0.88
-0.57
0.79
1.69
1.49
0.36
-0.94
-1.03
0.17
1.27
1.43
0.59
-0.68
-1.13
-0.21
1.13
1.65
1.06
-0.19
-1.10
-0.57
0.87
1.71
1.45
0.32
-0.93
-0.85
0.48
1.62
1.76
0.93
-0.32
-0.71
0.27
1.55
2.01
1.40
0.17
-0.59
0.10
1.52
2.30
1.97
0.76
-0.45
-0.29
1.08
2.13
2.13
1.17
-0.13
-0.45
0.59
1.83
2.17
1.46
0.19
-0.51
0.24
1.65
2.37
2.01
0.80
-0.36
-0.17
1.19
2.11
1.99
0.93
-0.38
-0.55
0.58
1.74
1.97
1.17
-0.10
-0.70
0.13
1.49
2.11
1.67
0.48
-0.55
-0.20
1.23
2.17
2.06
1.04
-0.14
-0.12
1.13
2.30
2.49
1.68
0.40
-0.07
0.84
Sampling Rate: 380.00 Hz
1.85
1.99
1.13
-0.19
-0.77
0.10
1.51
2.14
1.69
0.50
-0.53
-0.17
1.28
2.25
2.16
1.16
-0.03
-0.06
1.20
2.39
2.65
1.88
0.64
0.21
1.19
2.55
3.07
2.54
1.33
0.46
1.03
2.48
3.38
3.15
2.01
0.77
0.84
2.13
3.25
3.34
2.42
1.09
0.71
1.73
3.01
3.47
2.84
1.57
0.77
1.36
2.77
3.53
3.21
2.02
0.80
0.91
2.20
3.22
3.21
2.25
0.96
0.67
1.74
3.01
3.37
2.65
1.36
0.63
1.32
2.68
3.31
2.86
1.63
0.48
0.76
2.14
3.11
3.03
2.02
0.78
0.66
1.81
2.98
3.25
2.49
1.19
0.60
1.46
2.85
3.51
3.10
1.90
0.86
1.24
2.70
3.61
3.40
2.28
0.99
0.89
2.12
3.25
3.45
2.64
1.35
0.87
1.77
3.08
3.59
3.03
1.79
0.88
1.39
2.81
3.66
3.44
2.29
1.04
1.11
2.43
3.51
3.61
2.68
1.36
0.95
1.93
3.19
3.62
2.93
1.61
0.74
1.28
2.63
3.36
2.97
1.76
0.49
0.62
1.92
2.89
2.82
1.82
0.51
0.24
1.34
2.60
2.98
2.25
0.92
0.19
0.87
2.23
2.89
2.42
1.15
-0.07
0.09
1.43
2.39
2.26
1.16
-0.17
-0.38
0.75
1.92
2.19
1.41
0.09
-0.56
0.18
1.47
2.05
1.54
0.30
-0.79
-0.44
0.99
1.91
1.73
0.64
-0.61
-0.70
0.53
1.68
1.87
1.01
-0.28
-0.84
0.04
1.38
1.92
1.38
0.14
-0.81
-0.37
1.03
1.86
1.64
0.51
-0.71
-0.66
0.61
1.68
1.79
0.87
-0.43
-0.82
0.18
1.47
1.90
1.24
-0.06
-0.88
-0.31
1.09
1.85
1.49
0.31
-0.93
-0.78
0.58
1.63
1.62
0.65
-0.63
-0.90
0.16
1.39
1.70
0.97
-0.34
-1.05
-0.30
1.07
1.73
1.33
0.13
-1.05
-0.82
0.56
1.52
1.43
0.41
-0.89
-1.06
0.12
1.35
1.63
0.88
-0.41
-1.01
-0.16
1.22
1.82
1.32
0.11
-0.93
-0.57
0.86
1.76
1.61
0.52
-0.76
-0.85
0.37
1.52
1.73
0.93
-0.33
-0.85
0.02
1.36
1.88
1.34
0.10
-0.88
-0.45
0.93
1.76
1.49
0.33
-0.92
-0.93
0.33
1.39
1.47
0.57
-0.72
-1.15
-0.15
1.14
1.59
0.97
-0.30
-1.14
-0.58
0.80
1.57
1.28
0.11
-1.11
-0.97
0.34
1.37
1.40
0.48
-0.77
-1.06
-0.01
1.21
1.57
0.88
-0.38
-1.09
-0.38
0.98
1.67
1.30
0.13
-0.99
-0.72
0.71
1.70
1.65
0.65
-0.57
-0.64
0.58
1.77
2.03
1.26
-0.00
-0.54
0.32
1.67
2.24
1.70
0.41
-0.64
-0.25
1.15
2.03
1.86
0.78
-0.49
-0.54
0.67
1.74
1.82
0.89
-0.49
-0.99
-0.07
1.23
1.67
1.03
-0.28
-1.23
-0.73
0.63
1.39
1.05
-0.14
-1.37
-1.25
0.07
1.15
1.21
0.25
-1.05
-1.39
-0.37
0.84
1.22
0.53
-0.72
-1.43
-0.68
0.72
1.45
Sampling Rate: 380.00 Hz
1.03
-0.09
-0.80
-0.13
1.35
2.16
1.87
0.69
-0.53
-0.44
0.83
1.78
1.71
0.71
-0.63
-1.00
-0.02
1.19
1.55
0.85
-0.45
-1.17
-0.46
0.91
1.59
1.19
-0.04
-1.22
-0.99
0.37
1.35
1.25
0.23
-1.00
-1.14
0.00
1.22
1.53
0.75
-0.53
-1.16
-0.39
0.97
1.61
1.19
-0.02
-1.10
-0.76
0.66
1.61
1.49
0.47
-0.73
-0.73
0.56
1.74
1.95
1.11
-0.22
-0.83
0.00
1.30
1.81
1.21
-0.07
-1.10
-0.72
0.65
1.43
1.13
-0.08
-1.40
-1.44
-0.30
0.67
0.65
-0.37
-1.83
-2.42
-1.65
-0.60
-0.41
-1.26
-2.77
-3.88
-3.61
-2.55
-2.07
-2.65
-4.10
-5.59
-5.69
-4.64
-3.93
-4.21
-5.46
-7.03
-7.58
-6.78
-5.87
-5.88
-6.94
-8.55
-9.55
-9.14
-8.14
-7.84
-8.62
-10.11
-11.45
-11.43
-10.37
-9.81
-10.30
-11.69
-13.15
-13.29
-12.29
-11.59
-11.89
-13.13
-14.59
-14.99
-14.10
-13.21
-13.23
-14.28
-15.71
-16.28
-15.53
-14.48
-14.27
-15.08
-16.44
-17.20
-16.61
-15.50
-15.11
-15.77
-17.06
-18.04
-17.68
-16.43
-15.77
-16.17
-17.38
-18.59
-18.49
-17.25
-16.43
-16.67
-17.78
-19.05
-19.12
-17.98
-17.02
-17.02
-18.01
-19.35
-19.73
-18.79
-17.72
-17.52
-18.33
-19.61
-20.13
-19.28
-18.07
-17.61
-18.24
-19.47
-20.21
-19.58
-18.26
-17.61
-17.99
-19.11
-20.05
-19.58
-18.10
-17.15
-17.29
-18.32
-19.43
-19.25
-17.91
-16.89
-16.89
-17.84
-19.02
-19.04
-17.83
-16.64
-16.36
-17.06
-18.19
-18.50
-17.43
-16.14
-15.69
-16.25
-17.38
-17.89
-17.05
-15.69
-15.03
-15.44
-16.51
-17.22
-16.60
-15.14
-14.28
-14.50
-15.55
-16.60
-16.32
-14.94
-13.98
-14.07
-15.01
-16.09
-15.91
-14.55
-13.37
-13.20
-13.97
-15.08
-15.20
-13.99
-12.71
-12.34
-13.02
-14.18
-14.62
-13.71
-12.42
-11.91
-12.44
-13.58
-14.23
-13.53
-12.19
-11.54
-11.90
-12.99
-13.86
-13.35
-11.89
-10.94
-11.03
-11.99
-13.04
-12.81
-11.42
-10.31
-10.20
-10.99
-12.02
-11.96
-10.68
-9.47
-9.20
-9.88
-10.98
-11.33
-10.34
-9.02
-8.50
-9.02
-10.11
-10.76
-10.05
-8.66
-7.87
-8.10
-9.13
-10.12
-9.76
-8.29
-7.22
-7.20
-8.06
-9.11
-9.09
-7.85
-6.61
-6.27
-6.92
-8.04
-8.44
-7.53
-6.18
-5.57
-6.01
-7.09
-7.95
-7.48
-6.06
-5.15
-5.25
-6.24
-7.32
-7.18
-5.89
-4.81
-4.63
-5.43
-6.59
-6.90
-5.90
-4.64
-4.18
-4.76
-5.92
-6.65
-6.04
-4.65
-3.86
-4.13
-5.18
-6.23
-5.96
-4.54
-3.45
-3.35
-4.18
-5.30
-5.42
-4.24
-2.99
-2.57
-3.15
-4.29
-4.82
-3.99
-2.63
-1.98
-2.38
-3.51
-4.49
-4.15
-2.74
-1.83
-1.93
-2.89
-4.00
-3.97
-2.73
-1.61
-1.40
-2.18
-3.39
-3.86
-2.98
-1.67
-1.12
-1.60
-2.74
-3.55
-3.01
-1.63
-0.77
-0.92
-1.93
-3.06
-2.97
-1.72
-0.71
-0.61
-1.46
-2.65
-2.95
-1.91
-0.62
-0.17
-0.75
-1.92
Sampling Rate: 377.00 Hz
-2.29
-1.32
-0.04
0.48
-0.04
-1.18
-1.92
-1.31
0.10
0.89
0.62
-0.47
-1.64
-1.53
-0.30
0.64
0.64
-0.28
-1.55
-1.87
-0.89
0.27
0.65
0.03
-1.15
-1.85
-1.19
0.14
0.84
0.52
-0.56
-1.64
-1.39
-0.10
0.85
0.79
-0.17
-1.39
-1.55
-0.50
0.59
0.87
0.20
-1.00
-1.56
-0.78
0.54
1.15
0.73
-0.37
-1.35
-1.02
0.33
1.21
1.05
0.03
-1.13
-1.17
0.02
1.14
1.39
0.65
-0.55
-1.05
-0.20
1.04
1.53
1.02
-0.16
-1.04
-0.60
0.74
1.56
1.36
0.33
-0.77
-0.68
0.58
1.65
1.78
0.95
-0.24
-0.58
0.40
1.65
2.15
1.62
0.47
-0.25
0.33
1.71
2.53
2.33
1.32
0.25
0.42
1.72
2.77
2.88
2.03
0.85
0.55
1.56
2.74
3.11
2.51
1.37
0.74
1.45
2.77
3.47
3.13
2.02
0.92
1.11
2.35
3.25
3.20
2.27
1.05
0.80
1.80
2.87
3.14
2.46
1.26
0.61
1.32
2.57
3.18
2.78
1.64
0.58
0.81
2.10
2.92
2.70
1.63
0.36
0.20
1.29
2.36
2.51
1.64
0.35
-0.27
0.44
1.62
2.07
1.53
0.32
-0.68
-0.37
0.93
1.72
1.50
0.44
-0.75
-0.75
0.46
1.54
1.68
0.86
-0.36
-0.79
0.11
1.33
1.80
1.26
0.12
-0.65
-0.06
1.37
2.23
2.03
0.96
-0.15
-0.05
1.22
2.26
2.33
1.47
0.29
-0.04
0.99
2.26
2.70
2.15
1.02
0.37
1.06
2.47
3.25
2.96
1.86
0.71
0.90
2.17
3.12
3.11
2.22
1.08
0.91
1.99
3.20
3.59
3.02
1.90
1.38
2.19
3.58
4.32
4.05
3.06
2.13
2.51
3.92
4.91
4.94
4.07
2.99
2.93
4.11
5.30
5.63
4.98
3.88
3.42
4.30
5.67
6.37
6.06
5.06
4.23
4.69
6.12
7.09
7.08
6.23
5.22
5.24
6.47
7.60
7.83
7.12
5.99
5.62
6.53
7.84
8.41
8.00
6.94
6.16
6.68
8.01
8.82
8.64
7.64
6.54
6.60
7.76
8.73
8.82
8.01
6.83
6.49
7.42
8.57
8.98
8.40
7.27
6.56
7.11
8.36
9.01
8.68
7.58
6.48
6.62
7.82
8.70
8.63
7.70
6.52
6.25
7.23
8.31
8.62
8.00
6.84
6.23
6.88
8.11
8.72
8.37
7.27
6.22
6.41
7.60
8.40
8.29
7.36
6.20
6.02
7.04
8.09
8.30
7.61
6.45
5.93
6.64
7.84
8.36
7.93
6.86
5.95
6.29
7.57
8.38
8.26
7.30
6.18
6.16
7.27
8.29
8.41
7.60
6.41
5.96
6.77
7.94
8.40
7.85
6.71
5.90
6.32
7.55
8.29
8.02
6.93
5.77
5.77
6.91
7.82
7.82
6.95
5.77
5.45
6.37
7.48
7.83
7.20
6.05
5.35
5.94
7.15
7.79
7.44
6.33
5.24
5.37
6.56
7.42
7.38
6.47
5.30
5.06
6.00
7.03
7.24
6.52
5.31
4.69
5.33
6.54
7.07
6.65
5.53
4.50
4.70
Sampling Rate: 380.00 Hz
5.65
6.10
5.66
4.51
3.39
3.56
4.78
5.65
5.62
4.76
3.63
3.43
4.43
5.51
5.81
5.19
4.09
3.59
4.33
5.60
6.24
5.89
4.88
3.98
4.34
5.67
6.55
6.48
5.56
4.47
4.45
5.59
6.64
6.84
6.12
4.94
4.48
5.27
6.44
6.94
6.46
5.33
4.44
4.84
6.10
6.87
6.63
5.58
4.43
4.42
5.51
6.43
6.51
5.66
4.41
3.94
4.72
5.80
6.15
5.58
4.40
3.61
4.11
5.35
6.06
5.76
4.70
3.55
3.58
4.73
5.67
5.72
4.85
3.68
3.33
4.25
5.38
5.73
5.07
3.89
3.17
3.70
4.87
5.46
5.07
3.94
2.84
3.03
4.27
5.13
5.01
4.02
2.83
2.62
3.60
4.66
4.91
4.19
2.97
2.37
3.07
4.30
4.86
4.39
3.23
2.19
2.41
3.60
4.38
4.15
3.10
1.88
1.71
2.74
3.72
3.87
3.07
1.83
1.29
2.03
3.17
3.60
3.04
1.89
1.01
1.42
2.72
3.49
3.29
2.25
1.07
1.06
2.20
3.18
3.23
2.37
1.10
0.67
1.55
2.71
3.12
2.53
1.32
0.44
0.88
2.14
2.82
2.52
1.41
0.23
0.26
1.38
2.26
2.21
1.26
-0.04
-0.45
0.43
1.48
1.78
1.12
-0.11
-0.81
-0.22
1.04
1.68
1.27
0.13
-0.98
-0.80
0.43
1.29
1.17
0.14
-1.12
-1.41
-0.43
0.60
0.81
0.08
-1.11
-1.69
-0.95
0.31
0.87
0.42
-0.73
-1.77
-1.46
-0.13
0.72
0.58
-0.41
-1.58
-1.68
-0.59
0.48
0.67
-0.09
-1.32
-1.87
-1.11
0.11
0.57
0.04
-1.15
-2.07
-1.63
-0.28
0.58
0.42
-0.56
-1.65
-1.61
-0.39
0.66
0.82
0.01
-1.20
-1.61
-0.72
0.47
0.88
0.30
-0.88
-1.66
-1.14
0.15
0.87
0.58
-0.57
-1.84
-1.82
-0.67
0.19
0.11
-0.97
-2.36
-2.87
-2.05
-1.07
-0.93
-1.79
-3.21
-4.16
-3.78
-2.73
-2.32
-2.91
-4.28
-5.62
-5.68
-4.64
-3.99
-4.30
-5.54
-6.97
-7.37
-6.52
-5.63
-5.62
-6.64
-8.12
-8.96
-8.44
-7.42
-7.11
-7.84
-9.27
-10.53
-10.45
-9.41
-8.87
-9.39
-10.78
-12.25
-12.40
-11.35
-10.57
-10.76
-11.82
-13.11
-13.29
-12.23
-11.20
-11.03
-11.80
-12.98
-13.36
-12.40
-11.17
-10.77
-11.38
-12.57
-13.18
-12.47
-11.20
-10.65
-11.15
-12.36
-13.30
-12.86
-11.55
-10.82
-11.09
-12.21
-13.36
-13.19
-11.88
-10.97
-11.10
-12.11
-13.27
-13.27
-12.06
-11.02
-10.89
-11.72
-12.89
-13.12
-12.09
-10.91
-10.56
-11.20
-12.35
-12.84
-12.02
-10.79
-10.34
-10.94
-12.16
-12.97
-12.44
-11.18
-10.57
-10.98
-12.17
-13.25
-13.01
-11.77
-11.03
-11.33
-12.51
-13.79
-13.83
-12.69
-11.80
-11.83
-12.80
-14.05
-14.29
-13.27
-12.24
-12.05
-12.85
-14.01
-14.36
-13.38
-12.13
-11.64
-12.13
-13.18
-13.66
-12.84
-11.47
-10.81
-11.17
-12.19
-12.93
-12.31
-10.87
-9.97
-10.08
-10.98
-11.95
-11.63
-10.21
-9.20
Sampling Rate: 378.00 Hz
-9.25
-10.11
-11.02
-10.67
-9.21
-8.13
-8.02
-8.80
-9.81
-9.84
-8.63
-7.38
-7.01
-7.63
-8.71
-9.13
-8.22
-6.87
-6.25
-6.62
-7.69
-8.53
-8.01
-6.54
-5.55
-5.63
-6.54
-7.58
-7.41
-6.10
-4.96
-4.72
-5.47
-6.64
-6.97
-5.95
-4.61
-4.03
-4.51
-5.61
-6.31
-5.70
-4.29
-3.44
-3.63
-4.64
-5.69
-5.46
-4.09
-3.03
-2.95
-3.80
-4.97
-5.23
-4.18
-2.99
-2.62
-3.23
-4.34
-4.94
-4.20
-2.87
-2.22
-2.57
-3.70
-4.74
-4.46
-3.13
-2.20
-2.29
-3.26
-4.45
-4.61
-3.52
-2.45
-2.25
-2.99
-4.18
-4.67
-3.83
-2.53
-1.94
-2.33
-3.41
-4.27
-3.82
-2.49
-1.66
-1.80
-2.82
-3.96
-3.92
-2.72
-1.70
-1.56
-2.39
-3.57
-3.94
-3.02
-1.80
-1.33
-1.84
-2.96
-3.69
-3.10
-1.76
-1.03
-1.32
-2.40
-3.49
-3.31
-2.05
-1.10
-1.11
-2.02
-3.23
-3.52
-2.57
-1.46
-1.21
-1.93
-3.15
-3.82
-3.15
-1.91
-1.30
-1.72
-2.85
-3.88
-3.63
-2.34
-1.48
-1.58
-2.58
-3.79
-3.95
-2.91
-1.89
-1.73
-2.56
-3.85
-4.42
-3.64
-2.42
-1.97
-2.55
-3.81
-4.77
-4.44
-3.21
-2.48
-2.72
-3.80
-5.01
-5.01
-3.85
-2.87
-2.83
-3.73
-4.99
-5.42
-4.53
-3.36
-3.00
-3.65
-4.83
-5.54
-4.98
-3.70
-2.99
-3.34
-4.45
-5.54
-5.35
-4.06
-3.08
-3.07
-3.97
-5.11
-5.27
-4.20
-3.05
-2.76
-3.46
-4.68
-5.27
-4.58
-3.40
-2.86
-3.29
-4.45
-5.44
-5.15
-3.89
-3.09
-3.27
-4.31
-5.53
-5.65
-4.59
-3.62
-3.51
-4.37
-5.65
-6.15
-5.37
-4.23
-3.84
-4.46
-5.72
-6.67
-6.30
-5.04
-4.30
-4.54
-5.60
-6.76
-6.73
-5.55
-4.62
-4.68
-5.67
-6.99
-7.45
-6.60
-5.52
-5.26
-6.02
-7.36
-8.19
-7.69
-6.50
-5.94
-6.41
-7.63
-8.80
-8.66
-7.39
-6.51
-6.60
-7.58
-8.79
-8.94
-7.84
-6.70
-6.46
-7.23
-8.49
-9.04
-8.29
-7.02
-6.46
-6.92
-8.10
-9.05
-8.70
-7.35
-6.50
-6.71
-7.79
-9.02
-9.09
-7.95
-6.97
-6.91
-7.78
-9.05
-9.55
-8.70
-7.49
-7.08
-7.70
-8.97
-9.86
-9.38
-8.09
-7.38
-7.78
-9.00
-10.27
-10.26
-9.11
-8.29
-8.46
-9.54
-10.87
-11.17
-10.20
-9.19
-9.03
-9.90
-11.24
-11.87
-11.12
-9.95
-9.55
-10.22
-11.52
-12.42
-11.97
-10.80
-10.19
-10.61
-11.85
-13.00
-12.83
-11.62
-10.89
-11.19
-12.36
-13.70
-13.81
-12.73
-11.87
-11.98
-13.06
-14.43
-14.78
-13.89
-13.02
-13.03
-14.04
-15.52
-16.21
-15.52
-14.53
-14.32
-15.15
-16.53
-17.41
-16.94
-15.90
-15.56
-16.24
-17.63
-18.77
-18.52
-17.35
-16.72
-17.16
-18.45
-19.76
-19.74
-18.56
-17.71
-17.89
-18.96
-20.17
-20.22
-18.99
-17.86
-17.68
-18.47
-19.63
-19.83
-18.71
-17.44
-17.06
-17.75
-18.92
-19.40
-18.53
-17.22
-16.65
-17.09
-18.15
-18.76
-17.99
-16.47
-15.55
-15.67
-16.59
-17.37
-16.79
-15.19
-14.11
-14.07
-14.95
Sampling Rate: 378.00 Hz
-15.66
-15.04
-13.50
-12.51
-12.58
-13.51
-14.53
-14.29
-12.86
-11.75
-11.66
-12.50
-13.54
-13.49
-12.19
-10.95
-10.66
-11.35
-12.45
-12.71
-11.63
-10.32
-9.83
-10.40
-11.49
-12.02
-11.17
-9.75
-9.05
-9.44
-10.54
-11.41
-10.90
-9.46
-8.52
-8.61
-9.62
-10.73
-10.62
-9.32
-8.26
-8.15
-9.05
-10.27
-10.52
-9.46
-8.23
-7.85
-8.52
-9.74
-10.37
-9.59
-8.22
-7.54
-7.90
-9.00
-9.97
-9.65
-8.22
-7.27
-7.34
-8.32
-9.49
-9.53
-8.30
-7.15
-6.93
-7.77
-9.04
-9.56
-8.70
-7.41
-6.91
-7.48
-8.76
-9.72
-9.24
-7.87
-7.04
-7.26
-8.36
-9.59
-9.52
-8.22
-7.12
-6.99
-7.85
-9.10
-9.49
-8.55
-7.30
-6.84
-7.49
-8.77
-9.58
-8.98
-7.63
-6.92
-7.27
-8.45
-9.68
-9.53
-8.21
-7.25
-7.32
-8.36
-9.66
-9.91
-8.83
-7.61
-7.29
-7.99
-9.21
-9.83
-9.07
-7.73
-7.11
-7.56
-8.74
-9.74
-9.35
-7.88
-6.87
-6.92
-7.92
-9.11
-9.14
-7.89
-6.74
-6.51
-7.36
-8.66
-9.16
-8.26
-6.96
-6.42
-6.97
-8.20
-9.14
-8.63
-7.22
-6.36
-6.61
-7.80
-9.09
-9.09
-7.81
-6.73
-6.62
-7.53
-8.82
-9.16
-8.12
-6.78
-6.31
-6.94
-8.20
-8.92
-8.19
-6.74
-5.90
-6.18
-7.30
-8.41
-8.11
-6.63
-5.46
-5.41
-6.36
-7.58
-7.74
-6.54
-5.22
-4.78
-5.39
-6.53
-6.99
-5.99
-4.45
-3.65
-4.00
-5.12
-6.07
-5.57
-3.99
-2.92
-2.97
-3.96
-5.13
-5.11
-3.79
-2.55
-2.27
-3.03
-4.23
-4.61
-3.59
-2.21
-1.62
-2.15
-3.38
-4.22
-3.63
-2.16
-1.29
-1.55
-2.74
-4.01
-3.88
-2.54
-1.43
-1.37
-2.30
-3.59
-3.91
-2.82
-1.53
-1.14
-1.85
-3.14
-3.87
-3.19
-1.79
-1.08
-1.49
-2.73
-3.92
-3.72
-2.32
-1.35
-1.43
-2.51
-3.85
-4.06
-2.91
-1.66
-1.38
-2.16
-3.50
-4.13
-3.31
-1.93
-1.27
-1.75
-3.00
-4.12
-3.84
-2.46
-1.52
-1.68
-2.80
-4.06
-4.07
-2.73
-1.50
-1.22
-1.99
-3.26
-3.74
-2.75
-1.36
-0.79
-1.29
-2.49
-3.31
-2.71
-1.19
-0.26
-0.43
-1.53
-2.70
-2.49
-1.07
0.13
0.29
-0.61
-1.85
-2.12
-1.02
0.33
0.84
0.26
-0.94
-1.61
-0.81
0.70
1.56
1.31
0.15
-0.99
-0.74
0.73
1.85
1.87
0.89
-0.36
-0.58
0.60
1.91
2.31
1.62
0.35
-0.27
0.54
1.98
2.71
2.35
1.19
0.11
0.44
1.95
3.01
2.99
1.98
0.75
0.65
1.88
3.17
3.51
2.75
1.50
0.94
1.82
3.24
3.89
3.45
2.26
1.24
1.64
3.09
4.05
3.91
2.84
1.61
1.62
2.92
4.14
4.36
3.55
2.29
1.83
2.81
4.17
4.77
4.24
3.01
2.11
2.66
4.15
5.08
4.92
3.81
2.64
2.82
4.24
5.44
5.60
4.74
3.44
3.09
4.15
5.48
5.93
5.27
4.01
3.23
3.87
5.30
6.09
5.75
4.55
3.32
3.47
4.86
5.92
5.92
4.92
3.62
3.34
Sampling Rate: 379.00 Hz
4.43
5.36
5.36
4.38
3.04
2.65
3.69
5.00
5.47
4.87
3.68
2.99
3.73
5.25
6.10
5.85
4.75
3.65
3.94
5.40
6.56
6.62
5.73
4.54
4.39
5.61
6.98
7.42
6.74
5.51
4.89
5.70
7.12
7.84
7.44
6.24
5.13
5.46
6.95
7.98
7.96
6.92
5.64
5.53
6.74
7.94
8.20
7.43
6.13
5.60
6.50
7.91
8.58
8.11
6.91
5.92
6.34
7.77
8.67
8.49
7.36
6.11
6.13
7.40
8.51
8.66
7.77
6.42
5.89
6.78
8.04
8.50
7.86
6.58
5.67
6.22
7.70
8.60
8.37
7.22
5.96
6.01
7.32
8.40
8.50
7.59
6.29
5.92
6.95
8.22
8.61
7.92
6.61
5.78
6.36
7.74
8.51
8.13
6.92
5.67
5.77
7.07
8.08
8.07
7.05
5.74
5.42
6.48
7.71
8.06
7.35
6.05
5.32
6.02
7.38
8.05
7.60
6.33
5.16
5.43
6.88
7.90
7.89
6.88
5.64
5.47
6.66
7.89
8.23
7.51
6.25
5.68
6.51
7.89
8.51
8.06
6.82
5.79
6.16
7.59
8.53
8.38
7.27
5.97
5.87
7.10
8.26
8.44
7.56
6.21
5.68
6.59
7.94
8.52
8.00
6.79
5.88
6.41
7.89
8.79
8.59
7.44
6.19
6.22
7.51
8.58
8.66
7.75
6.44
6.02
7.03
8.33
8.76
8.13
6.87
6.07
6.70
8.10
8.86
8.48
7.23
5.95
6.09
7.40
8.44
8.44
7.46
6.19
5.93
7.03
8.29
8.62
7.86
6.53
5.84
6.56
7.93
8.57
8.10
6.88
5.76
6.06
7.46
8.41
8.25
7.12
5.81
5.62
6.78
7.93
8.17
7.39
6.09
5.49
6.32
7.67
8.24
7.71
6.43
5.39
5.76
7.18
8.11
7.98
6.91
5.68
5.68
6.95
8.10
8.30
7.43
6.12
5.64
6.60
7.96
8.52
7.92
6.67
5.77
6.26
7.65
8.47
8.16
6.95
5.66
5.68
6.97
8.05
8.08
7.11
5.74
5.33
6.35
7.61
8.06
7.43
6.15
5.38
6.03
7.45
8.21
7.82
6.60
5.40
5.60
6.96
8.00
7.98
6.96
5.63
5.32
6.41
7.61
7.94
7.14
5.80
5.09
5.80
7.14
7.76
7.28
6.03
4.86
5.10
6.50
7.49
7.43
6.40
5.12
5.01
6.23
7.43
7.66
6.81
5.45
4.88
5.72
7.10
7.73
7.28
6.08
5.11
5.52
7.00
7.92
7.76
6.66
5.36
5.29
6.55
7.67
7.80
6.90
5.56
5.08
6.03
7.36
7.86
7.27
6.02
5.15
5.71
7.17
8.00
7.64
6.35
4.92
4.90
6.18
7.21
7.19
6.08
4.57
4.02
4.93
6.17
6.57
5.81
4.42
3.52
4.15
5.62
6.43
6.09
4.84
3.54
3.62
4.96
6.00
5.96
4.84
3.40
3.04
4.17
5.46
5.82
5.04
3.65
2.87
3.65
5.11
5.82
5.35
4.03
2.80
3.09
4.61
5.64
5.54
4.35
2.92
2.72
3.98
5.26
5.54
4.62
3.16
2.51
3.46
4.99
Sampling Rate: 380.00 Hz
5.45
4.65
3.18
2.45
3.30
4.84
5.60
5.09
3.67
2.37
2.68
4.29
5.34
5.18
3.93
2.45
2.34
3.71
5.09
5.40
4.55
3.09
2.46
3.46
5.01
5.66
5.03
3.60
2.47
2.96
4.54
5.53
5.32
4.04
2.58
2.59
4.01
5.22
5.31
4.26
2.73
2.22
3.32
4.80
5.36
4.67
3.27
2.30
2.94
4.57
5.55
5.34
4.13
2.77
2.96
4.48
5.71
5.75
4.70
3.24
2.85
4.08
5.57
6.05
5.34
3.95
3.16
3.94
5.53
6.42
6.03
4.69
3.35
3.53
5.03
6.19
6.16
5.00
3.53
3.23
4.44
5.85
6.28
5.51
4.09
3.36
4.27
5.86
6.63
6.13
4.71
3.42
3.69
5.25
6.35
6.30
5.17
3.76
3.57
4.90
6.27
6.57
5.65
4.12
3.42
4.37
5.92
6.65
6.10
4.72
3.52
3.93
5.51
6.59
6.42
5.17
3.73
3.68
5.10
6.41
6.62
5.63
4.11
3.51
4.50
5.99
6.60
6.00
4.62
3.60
4.18
5.79
6.81
6.62
5.35
3.94
4.02
5.50
6.78
6.94
5.88
4.35
3.76
4.78
6.17
6.64
5.87
4.36
3.39
4.04
5.64
6.57
6.28
4.99
3.61
3.71
5.17
6.37
6.41
5.28
3.75
3.32
4.49
5.91
6.32
5.56
4.11
3.30
4.12
5.71
6.57
6.19
4.87
3.54
3.75
5.26
6.32
6.22
5.07
3.62
3.39
4.67
6.02
6.35
5.48
4.02
3.38
4.35
5.88
6.59
6.04
4.64
3.43
3.85
5.47
6.55
6.34
5.07
3.65
3.64
5.09
6.41
6.62
5.61
4.08
3.50
4.56
6.08
6.68
6.00
4.51
3.41
3.88
5.39
6.28
5.94
4.57
3.07
3.10
4.52
5.67
5.69
4.58
3.07
2.60
3.70
5.15
5.65
4.90
3.43
2.46
3.13
4.72
5.62
5.25
3.90
2.53
2.68
4.16
5.29
5.26
4.13
2.62
2.24
3.41
4.78
5.17
4.32
2.80
1.93
2.70
4.22
4.98
4.56
3.24
1.98
2.30
3.96
5.16
5.17
4.08
2.66
2.48
3.82
5.19
5.51
4.65
3.19
2.47
3.33
4.83
5.50
4.95
3.54
2.35
2.77
4.37
5.40
5.21
3.97
2.56
2.51
3.91
5.23
5.40
4.45
2.98
2.44
3.48
4.99
5.63
4.99
3.58
2.53
3.07
4.63
5.59
5.28
3.95
2.53
2.59
4.08
5.34
5.44
4.38
2.85
2.35
3.46
4.93
5.47
4.79
3.38
2.50
3.24
4.85
5.72
5.31
3.90
2.45
2.54
4.02
5.18
5.19
4.09
2.61
2.26
3.49
4.92
5.39
4.60
3.11
2.28
3.05
4.55
5.29
4.80
3.40
2.10
2.34
3.89
4.96
4.85
3.62
2.16
1.92
3.22
4.56
4.83
3.97
2.49
1.84
2.83
4.44
5.23
4.80
3.48
2.34
2.80
4.42
5.52
5.41
4.19
2.79
2.78
4.22
5.57
5.80
4.86
3.35
2.75
3.78
5.30
5.91
5.31
3.92
2.88
3.47
5.15
6.21
5.97
Sampling Rate: 380.00 Hz
4.78
3.77
4.33
6.04
7.13
6.93
5.64
4.13
4.05
5.41
6.67
6.81
5.80
4.26
3.63
4.59
5.99
6.47
5.72
4.18
3.01
3.48
4.96
5.81
5.40
4.00
2.52
2.52
3.93
5.14
5.24
4.21
2.74
2.31
3.49
4.99
5.46
4.67
3.16
2.17
2.83
4.36
5.16
4.76
3.39
2.01
2.18
3.67
4.82
4.78
3.65
2.14
1.77
2.97
4.34
4.72
3.87
2.36
1.51
2.29
3.76
4.48
3.92
2.49
1.19
1.48
3.07
4.15
4.02
2.84
1.37
1.21
2.52
3.87
4.20
3.29
1.79
1.07
1.94
3.41
4.03
3.40
1.98
0.79
1.24
2.86
3.90
3.71
2.48
1.06
1.05
2.52
3.84
4.04
3.06
1.56
0.96
1.97
3.46
4.09
3.48
2.07
1.04
1.58
3.15
4.10
3.83
2.48
1.03
1.08
2.54
3.73
3.75
2.61
1.04
0.51
1.60
3.03
3.47
2.71
1.24
0.28
0.96
2.49
3.37
2.96
1.59
0.23
0.43
2.00
3.16
3.13
1.98
0.47
0.10
1.31
2.70
3.11
2.33
0.92
0.17
1.00
2.54
3.30
2.81
1.41
0.08
0.28
1.83
2.89
2.76
1.52
-0.02
-0.33
0.83
2.09
2.32
1.36
-0.21
-1.02
-0.31
0.99
1.48
0.72
-0.89
-2.34
-2.24
-1.01
-0.34
-0.88
-2.48
-4.31
-4.91
-4.16
-3.58
-4.08
-5.76
-8.01
-9.41
-9.29
-8.73
-9.04
-10.45
-12.55
-14.16
-14.27
-13.56
-13.56
-14.69
-16.64
-18.48
-18.87
-18.14
-17.92
-18.86
-20.72
-22.70
-23.31
-22.59
-22.15
-22.79
-24.46
-26.46
-27.29
-26.73
-26.20
-26.71
-28.40
-30.63
-32.00
-31.94
-31.56
-32.23
-34.21
-36.90
-39.01
-39.65
-39.72
-40.59
-42.68
-45.58
-48.16
-49.17
-49.25
-49.92
-51.72
-54.45
-57.17
-58.36
-58.29
-58.58
-59.98
-62.31
-64.79
-65.88
-65.52
-65.30
-66.06
-67.84
-69.95
-70.96
-70.53
-69.91
-70.26
-71.71
-73.72
-74.93
-74.62
-73.87
-74.07
-75.43
-77.53
-79.21
-79.36
-78.79
-78.97
-80.37
-82.67
-84.84
-85.55
-85.19
-85.45
-86.96
-89.40
-91.99
-93.13
-93.00
-93.22
-94.62
-96.82
-99.52
-101.48
-102.61
-104.46
-106.76
-109.34
-112.06
-113.89
-114.35
-114.89
-116.06
-117.63
-119.46
-120.27
-119.25
-117.48
-116.25
-115.78
-115.50
-114.12
-110.95
-107.18
-104.20
-102.44
-101.36
-99.62
-96.37
-92.52
-89.62
-88.09
-87.53
-86.84
-84.71
-81.70
-79.54
-78.88
-79.59
-80.77
-80.81
-80.06
-80.42
-81.80
-83.86
-86.36
-87.68
-87.69
-87.98
-89.15
-90.90
-93.02
-94.06
-93.42
-92.51
-92.55
-93.41
-94.83
-95.44
-94.25
-92.37
-91.28
-91.34
-92.12
-92.19
-90.29
-87.08
-84.26
-82.44
-81.35
-79.90
-76.47
-71.44
-66.75
-63.21
-60.80
-58.52
-54.59
-49.22
-44.29
-40.72
-38.48
-36.66
-33.58
-28.91
-24.36
-21.16
-19.36
-18.21
-16.03
-12.06
-7.80
-4.74
-3.16
-2.41
-1.07
2.05
6.14
9.35
11.05
11.59
12.08
14.41
18.18
21.25
22.80
23.02
22.93
Sampling Rate: 376.00 Hz
24.81
28.17
30.69
31.63
31.15
30.43
31.48
34.23
36.42
36.97
36.01
34.64
34.84
36.88
38.79
39.23
38.00
36.09
35.44
36.85
38.66
39.11
37.81
35.60
34.29
35.19
37.04
37.60
36.36
33.91
31.86
32.15
33.99
34.84
33.99
31.78
29.67
29.87
32.02
33.50
33.29
31.59
29.65
29.83
32.25
34.35
34.80
33.49
31.62
31.50
33.86
36.52
37.45
36.54
34.71
34.13
36.10
38.89
40.25
39.55
37.70
36.61
38.29
41.50
43.41
43.25
41.44
39.72
40.72
43.84
45.91
45.84
44.04
42.00
42.45
45.36
47.59
47.61
45.62
42.98
42.56
44.86
47.16
47.37
45.36
42.34
41.12
42.98
45.53
45.99
43.74
40.00
37.53
38.49
41.19
42.06
40.10
36.39
33.31
34.35
38.35
40.98
40.92
38.94
37.16
38.98
43.98
47.96
49.32
48.21
46.53
47.79
52.44
56.77
58.35
57.31
55.15
55.27
59.05
63.38
65.15
63.89
61.30
60.51
63.63
68.21
70.52
69.80
67.08
65.09
67.20
71.96
74.78
74.37
71.38
68.34
69.20
73.17
75.71
75.03
71.55
67.57
67.11
70.15
72.51
71.92
68.41
63.97
62.28
64.36
66.76
66.49
63.21
58.60
56.16
57.82
60.65
61.19
58.75
54.60
51.57
52.53
55.72
56.93
55.07
51.09
47.35
47.44
50.39
51.85
50.51
46.97
43.32
43.01
45.82
47.80
47.05
43.97
40.19
39.27
41.78
44.44
44.67
42.29
38.86
37.42
39.68
42.85
43.73
41.78
38.36
36.27
37.99
41.41
42.85
41.30
37.86
34.82
35.52
38.94
40.69
39.58
36.16
32.73
33.03
36.49
38.78
38.20
34.97
31.17
30.37
33.11
35.75
35.61
32.60
28.61
27.10
29.52
32.70
33.14
30.57
26.40
23.95
25.65
29.16
30.30
28.21
24.12
20.77
21.77
25.60
27.53
26.22
22.39
18.74
19.22
22.96
25.19
24.01
20.07
15.74
14.96
17.98
20.46
19.82
16.25
11.61
10.05
12.66
15.91
16.40
13.77
9.72
7.53
9.75
13.87
15.50
13.85
9.91
6.66
7.95
12.47
15.02
14.02
10.52
7.10
7.72
12.20
15.76
15.96
13.10
9.57
9.36
13.34
17.59
18.96
17.00
13.72
12.74
16.20
21.04
23.21
22.22
19.35
17.84
20.93
26.62
30.21
30.31
27.95
25.99
28.63
34.67
39.06
40.19
38.64
36.88
39.14
45.20
50.27
52.23
51.18
49.23
50.56
56.02
61.59
64.16
63.41
61.41
61.87
66.56
72.21
74.98
74.50
72.15
71.29
74.97
80.69
84.02
83.99
81.69
79.76
82.32
87.94
91.57
91.87
89.54
87.23
88.96
94.13
98.02
98.70
96.52
93.70
94.17
98.58
102.68
103.76
101.78
98.72
98.58
102.39
106.47
107.76
106.08
103.08
102.50
105.95
110.22
111.70
109.90
106.52
105.01
107.57
111.44
112.72
110.82
107.28
105.24
107.49
111.51
113.13
111.58
108.09
105.45
107.04
111.02
112.95
111.64
108.15
105.16
106.47
110.55
Sampling Rate: 373.00 Hz
112.24
110.74
107.36
105.29
107.34
111.33
113.05
111.58
108.19
105.47
107.08
111.26
113.31
112.15
108.81
105.75
106.89
110.94
113.11
112.16
108.79
105.52
106.27
110.16
112.40
111.45
107.97
104.29
104.59
108.16
110.48
109.76
106.49
102.72
102.66
106.04
108.45
107.72
104.39
100.41
99.99
103.60
106.77
106.93
104.04
99.99
98.83
101.92
105.34
105.81
103.14
99.19
97.43
99.66
102.77
103.39
100.83
96.78
94.50
96.28
99.79
101.04
99.10
95.04
91.66
92.52
96.13
97.70
95.94
91.84
87.83
87.96
91.44
93.62
92.54
88.79
84.62
84.12
87.35
89.90
89.46
86.09
81.70
80.32
83.06
86.14
86.38
83.41
78.99
76.72
78.85
82.34
83.20
80.77
76.44
73.22
74.60
78.56
80.25
78.65
74.62
70.81
71.56
75.61
78.01
77.07
73.31
69.24
69.03
72.65
75.31
74.87
71.50
67.40
66.52
69.78
73.08
73.37
70.55
66.37
64.67
67.21
70.79
71.78
69.52
65.47
62.81
64.47
68.30
69.81
68.07
64.08
60.48
61.27
65.24
67.27
66.11
62.49
58.87
59.27
63.27
66.01
65.63
62.41
58.60
58.31
61.84
65.07
65.22
62.46
58.51
57.40
60.45
64.10
64.86
62.36
58.40
56.32
58.58
62.49
63.96
62.12
58.12
55.04
56.43
60.53
62.60
61.37
57.52
53.88
54.66
58.77
61.41
60.69
57.12
53.19
53.05
56.76
59.69
59.48
56.26
52.02
50.92
53.90
57.29
57.88
55.21
51.19
49.46
52.07
55.92
57.21
55.16
51.28
48.63
50.41
54.51
56.32
54.73
50.75
46.95
47.43
50.94
52.65
51.09
46.86
42.42
41.85
44.84
46.86
45.81
42.00
37.34
35.94
38.50
41.15
41.01
37.96
33.54
31.50
33.47
36.46
36.75
33.98
29.46
26.18
27.06
29.82
30.29
27.68
22.95
18.57
18.28
20.73
21.27
18.55
13.37
8.02
6.42
8.13
8.96
6.93
2.12
-3.62
-6.76
-6.20
-5.32
-7.05
-11.82
-18.24
-23.33
-24.70
-24.64
-26.86
-32.33
-39.93
-46.94
-50.08
-50.56
-52.81
-58.18
-65.72
-73.18
-76.81
-77.48
-79.39
-84.10
-90.85
-97.99
-101.91
-102.68
-104.18
-108.30
-114.20
-120.69
-124.10
-123.88
-123.62
-125.70
-129.82
-134.76
-137.05
-135.81
-134.29
-135.02
-137.98
-141.97
-143.59
-141.70
-139.18
-138.86
-140.95
-144.22
-145.63
-143.55
-140.47
-139.37
-140.80
-143.41
-144.45
-141.99
-138.30
-136.52
-137.31
-139.60
-140.78
-138.46
-134.63
-132.69
-133.33
-135.64
-137.17
-135.29
-131.45
-129.29
-129.80
-132.12
-133.99
-132.43
-128.43
-125.95
-126.22
-128.47
-130.62
-129.17
-125.15
-122.55
-122.69
-124.93
-127.14
-125.97
-122.15
-119.39
-119.37
-121.43
-123.60
-122.51
-118.56
-115.57
-115.18
-117.02
-119.30
-118.51
-114.79
-111.71
-111.13
-112.96
-115.44
-115.17
-111.67
-108.40
-107.52
-109.03
-111.33
-111.05
-107.49
-103.85
-102.66
-104.02
-106.36
-106.41
-103.09
-99.45
-98.10
-99.30
-101.73
-102.41
-99.59
-95.83
-94.12
-95.04
Sampling Rate: 371.00 Hz
-97.19
-97.33
-94.08
-90.18
-88.61
-89.70
-92.17
-93.09
-90.61
-86.64
-84.59
-85.34
-87.84
-89.55
-87.73
-83.58
-81.04
-81.19
-83.40
-85.50
-84.17
-80.07
-77.12
-76.87
-78.72
-80.87
-79.98
-76.10
-72.70
-71.77
-73.31
-75.73
-75.69
-72.47
-69.13
-68.14
-69.62
-72.18
-72.91
-70.30
-66.77
-65.27
-66.39
-68.92
-70.33
-68.21
-64.37
-62.35
-62.89
-65.24
-67.21
-65.72
-61.71
-59.26
-59.50
-61.77
-63.94
-62.87
-58.97
-56.06
-55.59
-57.29
-59.39
-58.85
-55.35
-52.19
-51.33
-52.80
-55.06
-55.12
-52.06
-48.59
-47.40
-48.59
-50.97
-51.80
-49.26
-45.64
-43.87
-44.73
-47.04
-48.52
-46.64
-42.93
-40.78
-41.25
-43.59
-45.81
-44.74
-41.27
-39.04
-39.21
-41.36
-43.67
-43.05
-39.71
-37.01
-36.57
-38.27
-40.62
-40.51
-37.44
-34.31
-33.30
-34.59
-36.85
-37.24
-34.44
-30.97
-29.47
-30.35
-32.49
-33.38
-31.11
-27.58
-25.77
-26.50
-28.76
-30.42
-28.79
-25.00
-22.68
-22.91
-25.12
-27.32
-26.39
-22.86
-20.31
-20.15
-22.14
-24.50
-24.23
-21.10
-18.39
-18.03
-19.82
-22.44
-22.88
-20.31
-17.41
-16.56
-17.96
-20.48
-21.27
-18.87
-15.55
-14.22
-15.25
-17.71
-19.12
-17.23
-13.73
-11.89
-12.56
-14.96
-17.14
-16.03
-12.52
-10.28
-10.46
-12.61
-14.80
-14.03
-10.63
-7.92
-7.53
-9.34
-11.80
-11.95
-8.97
-5.78
-4.74
-6.02
-8.40
-9.22
-6.88
-3.34
-1.52
-2.20
-4.50
-6.47
-5.16
-1.37
1.28
1.42
-0.48
-2.53
-1.75
1.96
5.49
6.97
6.21
4.68
5.21
9.16
14.21
17.48
18.38
17.98
18.82
23.34
29.93
35.02
37.68
38.50
39.71
44.60
52.11
58.42
62.23
63.94
65.47
70.17
77.90
84.93
89.43
91.53
92.91
96.94
104.18
111.37
116.09
118.16
119.14
122.46
129.18
136.08
140.51
142.23
142.67
145.06
150.74
156.91
160.69
161.71
161.28
162.49
167.07
172.61
175.79
176.22
174.97
174.96
178.48
183.33
186.14
186.21
184.57
183.80
186.54
191.07
193.75
193.64
191.47
189.71
191.60
195.83
198.27
197.78
195.14
192.53
193.55
197.23
199.37
198.64
195.67
192.72
193.33
196.72
198.82
198.21
195.25
192.09
192.11
195.10
197.25
196.78
193.88
190.54
190.27
193.15
195.37
194.94
192.07
188.49
187.63
190.08
192.35
192.06
189.04
185.03
183.54
185.52
187.75
187.47
184.57
180.44
178.58
180.37
182.81
182.86
180.05
175.91
173.59
174.98
177.47
177.71
175.06
170.94
168.42
169.66
172.38
172.95
170.65
166.68
163.82
164.74
167.59
168.49
166.70
163.05
160.07
160.71
163.61
164.89
163.33
159.85
156.54
156.83
159.78
161.22
160.04
156.80
153.54
153.84
156.83
158.50
157.42
154.22
150.78
150.76
153.61
155.37
154.44
151.21
147.63
147.04
149.52
151.30
150.47
147.10
143.16
142.00
144.15
145.92
145.11
141.72
137.50
135.83
137.60
139.52
139.02
136.02
132.02
130.32
132.13
134.36
134.27
131.56
127.64
125.73
Sampling Rate: 371.00 Hz
127.46
129.10
128.25
124.85
120.60
118.94
121.00
123.20
122.83
119.77
115.61
113.71
115.61
118.06
117.99
115.10
110.85
108.51
110.03
112.50
112.69
109.88
105.63
102.98
104.30
107.03
107.58
105.26
101.20
98.30
99.31
102.43
103.63
101.71
97.72
94.30
94.82
98.03
99.62
98.14
94.33
90.61
90.61
93.87
96.10
95.47
92.32
88.49
87.74
90.51
92.89
92.44
89.30
85.02
83.25
85.39
88.03
88.11
85.35
81.23
79.03
80.86
84.06
84.98
82.80
78.86
75.88
77.00
80.48
82.01
80.41
76.47
72.66
72.89
76.14
78.14
77.12
73.73
69.95
69.68
72.78
75.21
74.86
71.83
68.03
66.98
69.71
72.65
72.92
70.36
66.56
64.90
67.23
70.62
71.65
69.78
66.19
63.92
65.74
69.51
71.25
69.93
66.39
63.16
64.04
67.84
69.83
68.79
65.40
61.89
62.07
65.57
68.01
67.59
64.48
60.80
60.29
63.42
66.42
66.70
64.13
60.40
59.11
61.76
65.03
65.70
63.44
59.71
57.72
59.69
63.19
64.40
62.57
58.85
55.86
57.10
60.87
62.84
61.67
58.10
54.55
55.08
58.70
61.02
60.24
56.85
53.00
52.62
55.80
58.40
58.23
55.33
51.41
50.24
53.03
56.17
56.58
54.02
50.08
48.18
50.39
53.90
54.98
52.93
49.17
46.45
47.94
51.71
53.42
51.99
48.28
44.71
45.37
49.17
51.37
50.41
47.05
43.37
43.31
46.79
49.32
48.87
45.67
41.64
40.81
43.77
46.77
47.09
44.54
40.80
39.45
42.20
45.76
46.72
44.58
40.81
38.61
40.61
44.39
45.88
44.05
40.03
36.65
37.47
41.27
43.14
41.83
38.03
34.13
34.41
38.09
40.61
39.86
36.31
32.05
31.19
34.30
37.09
36.91
33.66
29.33
27.70
30.45
33.72
34.24
31.51
27.24
24.90
27.04
30.92
32.32
30.20
26.02
22.82
24.08
28.16
30.03
28.46
24.27
20.34
21.00
25.17
27.77
26.90
23.28
19.31
19.21
22.91
26.02
26.05
22.92
18.80
17.79
21.03
24.52
24.99
22.14
17.59
15.23
17.46
21.12
21.97
19.03
13.83
9.83
11.03
15.07
16.49
13.83
8.35
2.99
2.69
6.60
9.05
7.67
3.13
-2.26
-3.77
-0.53
3.06
3.25
-0.15
-5.19
-7.73
-5.14
-0.63
1.14
-0.86
-5.32
-9.32
-8.21
-3.52
-0.71
-1.63
-5.63
-9.95
-10.19
-6.05
-2.43
-2.22
-5.43
-9.89
-11.39
-7.98
-3.68
-2.53
-5.01
-9.60
-12.82
-10.88
-6.26
-4.07
-5.59
-10.01
-14.29
-13.61
-9.18
-6.28
-7.20
-11.05
-15.35
-15.46
-11.16
-7.52
-7.17
-10.22
-14.36
-15.40
-12.03
-7.96
-6.75
-8.81
-12.55
-14.49
-12.10
-7.78
-5.78
-7.08
-10.68
-13.98
-12.79
-8.59
-6.12
-6.91
-10.25
-13.72
-13.35
-9.55
-6.57
-6.47
-9.19
-12.87
-13.85
-10.97
-7.70
-7.09
-9.37
-12.94
-14.68
-12.46
-8.95
-7.62
-9.27
-12.81
-15.73
-14.67
-11.00
-9.04
-10.08
-13.27
-16.63
-16.49
-13.49
-11.69
Sampling Rate: 374.00 Hz
-12.90
-16.39
-19.89
-20.03
-17.55
-16.36
-17.88
-21.66
-25.78
-27.01
-25.31
-24.33
-25.86
-29.80
-34.60
-37.17
-36.76
-36.29
-38.21
-42.70
-48.37
-52.43
-53.44
-53.70
-55.98
-60.83
-67.03
-72.24
-74.13
-74.44
-76.46
-80.87
-86.97
-92.75
-95.31
-95.58
-97.27
-101.37
-107.22
-113.02
-115.73
-116.02
-117.38
-121.05
-126.68
-132.45
-135.46
-136.11
-137.53
-141.33
-147.13
-153.20
-156.71
-157.63
-159.15
-162.85
-168.44
-174.49
-178.07
-178.91
-179.80
-182.66
-187.33
-192.60
-195.74
-196.01
-196.02
-197.74
-201.34
-205.64
-208.08
-207.62
-206.60
-207.29
-210.00
-213.61
-215.50
-214.53
-212.72
-212.67
-214.70
-217.73
-219.32
-218.01
-215.66
-214.91
-216.32
-218.91
-220.28
-218.74
-215.92
-214.67
-215.58
-217.71
-218.96
-217.27
-214.05
-212.29
-212.62
-214.37
-215.56
-213.82
-210.27
-208.12
-208.20
-209.86
-211.26
-209.81
-206.29
-204.02
-203.94
-205.49
-206.90
-205.46
-201.86
-199.29
-198.92
-200.32
-201.69
-200.23
-196.37
-193.53
-192.93
-194.21
-195.79
-194.64
-190.98
-188.10
-187.49
-188.80
-190.56
-189.71
-186.23
-183.25
-182.59
-184.05
-186.07
-185.76
-182.65
-179.80
-179.14
-180.57
-182.64
-182.43
-179.25
-175.91
-174.81
-175.92
-177.88
-177.71
-174.42
-170.66
-169.07
-169.76
-171.37
-171.02
-167.13
-162.46
-159.92
-159.85
-160.93
-160.16
-155.69
-150.08
-146.69
-146.18
-147.22
-146.89
-142.73
-136.90
-133.31
-132.56
-133.54
-133.36
-129.21
-123.23
-119.39
-118.44
-119.44
-119.90
-116.63
-111.12
-107.57
-107.01
-108.42
-109.42
-106.70
-101.42
-97.66
-96.42
-97.14
-97.80
-94.92
-89.21
-84.40
-82.10
-82.08
-82.41
-79.72
-73.90
-68.33
-65.24
-64.59
-64.68
-62.35
-56.48
-50.27
-46.35
-45.00
-44.93
-43.26
-38.14
-31.95
-27.87
-26.63
-27.03
-26.54
-22.59
-16.58
-12.51
-11.27
-11.98
-12.59
-9.61
-4.04
0.24
1.88
1.44
0.74
3.00
8.54
14.30
18.01
19.55
20.30
23.10
29.38
36.50
41.49
43.73
44.52
46.36
51.41
57.93
62.38
64.11
63.95
64.11
67.59
73.32
77.31
78.48
77.28
75.81
77.54
81.85
85.08
85.49
83.51
80.92
81.13
84.49
87.58
88.16
86.41
83.84
83.60
86.83
90.49
91.95
90.90
88.57
87.89
90.88
95.14
97.36
96.80
94.62
93.29
95.62
100.02
102.51
102.14
99.74
97.39
98.60
102.50
104.78
104.12
101.30
98.48
99.12
102.71
105.20
104.74
101.83
98.59
98.48
101.54
104.00
103.70
100.89
97.33
96.55
99.16
101.82
102.03
99.64
96.11
94.83
97.09
99.97
100.51
98.32
94.70
92.77
94.67
98.05
99.31
97.61
94.16
91.36
92.34
95.81
97.40
96.03
92.51
89.01
89.31
92.54
94.49
93.47
90.07
86.36
85.89
88.68
90.93
90.42
87.37
83.45
82.31
84.78
87.57
87.64
84.77
80.67
78.63
80.48
83.37
83.89
81.50
77.54
74.65
75.69
78.79
79.92
78.07
74.18
70.63
71.12
74.39
76.00
74.75
71.30
67.67
67.59
70.81
73.16
72.61
69.52
Sampling Rate: 370.00 Hz
66.26
66.63
70.15
72.52
71.95
68.80
65.17
64.63
67.59
70.13
70.12
67.50
63.85
62.69
65.22
68.24
68.73
66.52
62.90
61.05
63.18
66.68
67.91
66.11
62.58
60.04
61.46
65.28
67.14
65.98
62.57
59.32
60.01
63.81
66.10
65.22
61.77
58.02
57.95
61.35
64.01
63.55
60.28
56.10
54.95
57.70
60.77
61.05
58.28
54.25
52.55
55.00
58.53
59.40
57.11
53.02
50.22
51.73
55.47
57.00
55.34
51.31
47.60
48.09
51.77
53.70
52.23
48.12
43.95
43.90
47.33
49.65
48.79
45.19
40.80
39.81
42.86
45.96
46.20
43.41
39.28
37.84
40.69
44.28
44.96
42.33
38.07
35.61
37.54
41.34
42.76
40.61
36.19
32.48
33.41
37.54
39.53
38.03
33.93
29.89
30.29
34.37
37.11
36.57
33.07
29.15
29.00
33.05
36.61
37.00
34.19
30.15
29.21
32.74
36.94
38.11
35.74
31.74
29.84
32.63
37.13
38.71
36.52
32.16
28.96
30.66
35.18
37.20
35.47
30.97
26.48
26.94
31.08
33.48
32.19
27.87
23.13
22.76
26.58
29.66
29.23
25.37
20.36
18.73
21.86
25.46
25.69
22.33
17.45
15.07
17.68
21.75
23.03
20.77
16.38
13.33
15.19
19.83
22.03
20.51
16.22
12.15
13.10
17.73
20.35
19.16
14.99
10.70
10.86
14.95
18.12
17.80
14.10
9.40
8.06
11.12
14.20
13.83
9.92
4.39
1.53
3.89
8.28
9.76
7.49
2.67
-1.50
-0.51
4.20
6.89
5.91
1.81
-2.67
-2.88
1.45
5.30
5.65
2.65
-1.74
-3.11
0.43
5.20
6.78
4.67
0.34
-2.87
-0.80
4.64
7.47
5.98
1.09
-3.90
-3.68
1.17
4.56
3.83
-0.95
-7.02
-9.14
-5.74
-1.49
-0.98
-4.80
-10.84
-14.49
-12.19
-7.25
-5.75
-8.79
-15.08
-20.84
-20.30
-15.14
-12.51
-14.79
-20.57
-26.36
-26.19
-21.07
-17.50
-18.53
-23.46
-29.42
-30.56
-25.97
-21.67
-21.62
-25.98
-31.81
-33.76
-29.61
-24.48
-23.22
-26.63
-32.31
-35.34
-32.02
-26.43
-24.41
-27.12
-32.88
-37.42
-35.51
-29.67
-26.95
-29.06
-34.73
-40.26
-39.26
-33.23
-29.49
-30.96
-36.58
-42.71
-42.91
-37.37
-33.00
-33.23
-38.17
-44.38
-45.99
-41.47
-36.56
-36.17
-40.70
-47.06
-49.57
-45.55
-39.80
-38.38
-42.09
-48.40
-52.47
-49.78
-43.76
-41.29
-44.00
-50.35
-55.80
-54.20
-47.86
-44.75
-46.99
-53.22
-59.48
-59.20
-53.22
-49.15
-50.28
-55.66
-62.03
-62.69
-57.11
-52.10
-52.10
-56.63
-62.90
-64.62
-59.60
-53.56
-52.22
-55.78
-61.95
-64.88
-60.81
-54.15
-51.67
-54.41
-60.43
-64.92
-62.26
-55.36
-51.85
-53.74
-59.48
-64.85
-62.98
-56.00
-51.47
-52.65
-57.89
-63.44
-62.70
-56.03
-50.80
-50.89
-55.37
-61.48
-62.62
-57.15
-51.74
-51.09
-55.01
-61.08
-63.34
-59.07
-53.47
-52.53
-56.04
-62.05
-66.25
-65.01
-62.43
-64.76
-70.50
-78.52
-86.61
-90.87
-92.75
-97.44
-104.24
-112.41
-120.26
-124.25
Sampling Rate: 374.00 Hz
-125.62
-128.80
-133.98
-140.46
-146.41
-148.58
-148.07
-149.18
-152.50
-157.31
-162.10
-163.32
-161.94
-161.79
-163.95
-167.68
-171.52
-172.21
-170.34
-169.43
-170.85
-173.87
-177.25
-177.86
-175.82
-174.45
-175.39
-177.92
-181.06
-181.96
-180.22
-178.94
-179.78
-182.09
-185.18
-186.33
-184.90
-183.54
-184.17
-186.16
-188.97
-189.93
-188.18
-186.36
-186.54
-188.10
-190.51
-191.26
-189.17
-186.68
-186.28
-187.35
-189.42
-190.05
-187.77
-184.67
-183.26
-183.59
-185.11
-185.66
-183.37
-179.91
-178.22
-178.35
-179.74
-180.54
-178.57
-175.15
-173.21
-173.17
-174.45
-175.38
-173.56
-170.00
-167.81
-167.61
-168.79
-169.95
-168.38
-164.78
-162.40
-162.07
-163.18
-164.35
-163.03
-159.62
-157.20
-156.85
-157.95
-159.38
-158.47
-155.44
-153.09
-152.71
-153.79
-155.32
-154.60
-151.67
-149.16
-148.58
-149.52
-151.00
-150.50
-147.70
-145.03
-144.24
-145.03
-146.53
-146.20
-143.44
-140.64
-139.58
-140.21
-141.70
-141.67
-139.16
-136.32
-135.15
-135.71
-137.24
-137.43
-135.09
-132.17
-130.88
-131.35
-132.90
-133.25
-131.08
-127.98
-126.38
-126.65
-128.05
-128.61
-126.62
-123.46
-121.60
-121.67
-122.85
-123.35
-121.35
-118.04
-116.04
-115.94
-117.17
-118.02
-116.33
-112.91
-110.44
-109.80
-110.38
-110.60
-107.94
-103.02
-98.63
-95.62
-93.68
-91.36
-86.24
-78.81
-71.79
-66.67
-63.31
-60.54
-55.97
-49.21
-42.73
-38.05
-35.36
-33.58
-30.39
-24.70
-18.64
-14.26
-11.92
-10.61
-8.25
-3.39
2.52
7.03
9.41
10.38
11.47
15.18
20.84
25.46
28.02
28.92
29.59
32.59
37.72
42.04
44.27
44.60
44.29
45.95
49.95
53.90
56.04
56.34
55.74
56.71
60.25
64.37
66.84
67.28
66.61
66.99
70.05
74.24
77.09
77.97
77.49
77.48
80.27
84.95
88.38
89.74
89.41
89.06
91.26
95.55
98.97
100.31
99.70
98.62
99.81
103.31
106.35
107.36
106.46
104.83
105.16
107.96
110.62
111.33
110.10
108.13
107.96
110.45
113.05
113.88
112.63
110.43
109.75
111.77
114.27
115.05
113.68
111.21
110.04
111.59
113.82
114.46
113.03
110.41
108.89
110.03
112.20
112.84
111.38
108.61
106.54
107.21
109.28
109.93
108.53
105.69
103.33
103.78
106.04
107.08
105.98
103.31
100.76
101.08
103.44
104.72
103.83
101.31
98.76
98.92
101.25
102.75
102.07
99.53
96.76
96.47
98.53
100.17
99.76
97.38
94.41
93.39
95.05
96.86
96.88
94.77
91.68
90.15
91.36
93.37
93.72
91.90
88.93
86.93
87.66
89.73
90.33
88.87
85.94
83.25
83.36
85.56
86.63
85.57
82.83
79.97
79.79
81.89
83.31
82.72
80.25
77.29
76.50
78.19
79.71
79.40
77.04
73.82
72.39
73.69
75.47
75.51
73.51
70.44
68.48
69.39
71.46
72.05
70.42
67.44
64.95
65.36
67.52
68.42
67.20
64.28
61.30
60.98
62.88
63.85
62.73
59.69
56.24
55.20
56.68
57.74
56.78
53.76
50.06
48.18
48.93
49.95
49.07
46.02
41.95
39.24
39.20
39.99
38.98
Sampling Rate: 370.00 Hz
35.71
31.31
28.19
27.71
27.73
25.80
21.70
16.29
11.72
9.96
9.66
7.92
3.85
-1.90
-7.52
-10.19
-10.54
-11.82
-15.35
-20.71
-26.24
-29.21
-29.50
-30.18
-32.98
-37.78
-43.12
-46.46
-46.93
-47.11
-49.14
-53.19
-58.15
-61.67
-62.32
-62.13
-63.56
-66.94
-71.42
-74.92
-75.50
-74.58
-74.87
-77.21
-80.88
-84.23
-84.81
-83.37
-82.95
-84.54
-87.65
-90.74
-91.39
-89.80
-88.80
-89.57
-91.96
-94.74
-95.46
-93.78
-92.20
-92.37
-94.36
-96.93
-97.88
-96.36
-94.39
-94.01
-95.47
-97.80
-99.02
-97.65
-95.26
-94.29
-95.22
-97.33
-98.88
-97.75
-95.00
-93.43
-93.87
-95.84
-97.73
-97.06
-94.31
-92.46
-92.62
-94.46
-96.49
-96.24
-93.70
-91.56
-91.27
-92.81
-94.92
-95.03
-92.62
-90.11
-89.31
-90.42
-92.39
-92.86
-90.70
-87.88
-86.66
-87.56
-89.52
-90.47
-88.70
-85.59
-83.98
-84.63
-86.69
-88.34
-87.20
-84.14
-82.28
-82.50
-84.41
-86.21
-85.25
-81.94
-79.29
-78.65
-79.74
-81.04
-79.92
-76.17
-72.61
-71.05
-71.49
-72.69
-72.08
-68.70
-65.01
-63.17
-63.40
-64.75
-64.85
-62.21
-58.63
-56.78
-57.11
-58.72
-59.67
-57.73
-54.28
-52.18
-52.28
-53.99
-55.66
-54.42
-51.14
-48.88
-48.78
-50.52
-52.43
-51.68
-48.48
-45.85
-45.30
-46.68
-48.60
-48.36
-45.46
-42.62
-41.76
-42.99
-45.01
-45.32
-42.97
-40.11
-39.02
-40.01
-42.19
-43.20
-41.53
-38.73
-37.47
-38.47
-40.94
-42.87
-42.13
-39.74
-38.71
-39.82
-42.65
-45.50
-45.70
-43.85
-42.90
-44.06
-46.91
-49.97
-50.64
-48.95
-47.59
-48.06
-50.41
-53.29
-54.21
-52.51
-50.58
-50.45
-52.18
-54.81
-55.90
-54.24
-51.79
-50.97
-52.14
-54.50
-56.00
-54.65
-51.82
-50.40
-51.03
-53.13
-54.90
-53.90
-50.85
-48.99
-49.30
-51.37
-53.49
-53.08
-50.52
-48.63
-48.85
-50.88
-53.36
-53.65
-51.48
-49.49
-49.28
-51.06
-53.52
-54.24
-52.23
-49.80
-49.04
-50.27
-52.53
-53.61
-52.01
-49.33
-48.28
-49.32
-51.62
-53.20
-51.79
-48.62
-46.60
-46.63
-48.17
-49.37
-47.43
-43.16
-39.73
-38.32
-38.58
-38.78
-36.27
-31.13
-26.41
-23.60
-22.65
-22.14
-19.27
-13.45
-7.35
-3.10
-0.89
0.44
3.21
8.99
15.84
20.95
23.68
24.89
26.68
31.54
38.28
43.47
46.16
46.92
47.70
51.49
57.64
62.77
65.56
66.30
66.57
69.34
74.63
79.41
81.93
82.18
81.51
82.74
86.79
91.01
93.23
93.07
91.82
91.97
95.03
99.01
101.22
101.09
99.49
98.71
100.88
104.52
106.46
105.95
103.91
102.37
104.00
107.48
109.53
109.06
106.86
104.89
105.96
109.30
111.30
110.82
108.48
106.13
106.81
109.96
111.90
111.43
109.08
106.59
106.93
109.80
111.88
111.54
109.09
106.34
106.28
108.98
111.08
110.89
108.63
105.68
105.12
107.48
109.67
109.72
107.60
104.72
103.90
106.03
108.35
108.61
106.55
103.48
102.39
104.38
106.77
107.08
105.02
101.92
100.39
102.08
104.53
104.99
103.11
99.94
Sampling Rate: 372.00 Hz
98.76
100.64
102.89
103.11
100.98
97.74
96.14
97.78
100.35
100.96
99.22
96.17
94.15
95.39
98.17
99.26
97.80
94.62
91.89
92.39
95.22
96.60
95.44
92.42
89.35
89.25
91.75
93.36
92.70
89.86
86.48
85.73
87.89
89.94
89.77
87.28
83.84
82.40
84.09
86.37
86.66
84.59
81.29
79.40
80.77
83.38
84.13
82.38
78.96
76.07
76.44
78.82
79.72
77.98
74.27
70.54
70.15
72.27
73.24
71.76
68.23
64.37
63.36
65.20
66.54
65.60
62.40
58.39
56.60
57.90
59.33
58.62
55.48
51.21
48.41
48.80
50.11
49.38
46.15
41.41
37.53
36.81
37.63
36.58
32.85
27.16
21.54
18.83
18.26
16.25
11.72
5.26
-1.28
-4.95
-5.98
-7.53
-11.33
-17.28
-23.87
-28.31
-29.87
-31.06
-34.15
-39.36
-45.46
-49.92
-51.42
-51.94
-53.89
-57.94
-63.06
-67.31
-68.66
-68.26
-69.05
-71.86
-76.09
-80.08
-81.16
-80.12
-80.04
-81.94
-85.30
-88.75
-89.74
-88.43
-87.60
-88.57
-91.15
-94.10
-95.09
-93.60
-92.08
-92.30
-94.25
-96.96
-98.00
-96.49
-94.37
-93.74
-95.00
-97.28
-98.57
-97.29
-94.80
-93.61
-94.36
-96.41
-98.03
-96.97
-94.15
-92.52
-92.97
-94.92
-96.78
-96.07
-93.27
-91.19
-91.19
-92.89
-94.90
-94.76
-92.32
-90.14
-89.69
-91.03
-93.05
-93.34
-91.06
-88.52
-87.71
-88.79
-90.77
-91.30
-89.24
-86.37
-85.10
-85.92
-87.89
-89.06
-87.42
-84.34
-82.56
-82.92
-84.74
-86.39
-85.31
-82.14
-80.06
-80.11
-81.88
-83.67
-82.84
-79.80
-77.40
-77.06
-78.62
-80.63
-80.52
-77.75
-74.99
-74.17
-75.36
-77.22
-77.36
-74.77
-71.75
-70.42
-71.18
-72.95
-73.35
-70.84
-67.29
-65.36
-65.71
-67.42
-68.48
-66.46
-62.68
-60.31
-60.18
-61.69
-63.06
-61.39
-57.50
-54.61
-54.00
-55.34
-56.88
-55.68
-51.95
-48.83
-47.86
-49.00
-50.70
-50.26
-47.03
-43.66
-42.26
-43.02
-44.77
-44.84
-41.94
-38.30
-36.47
-36.96
-38.71
-39.33
-36.82
-32.87
-30.44
-30.39
-31.82
-32.81
-30.59
-26.24
-23.21
-22.52
-23.62
-24.78
-22.89
-18.48
-14.93
-13.65
-14.37
-15.51
-13.95
-9.56
-5.35
-3.03
-2.67
-2.95
-1.29
3.65
9.53
13.54
15.22
15.53
16.70
21.12
27.24
31.63
33.52
33.61
33.76
37.13
42.76
47.14
48.98
48.81
48.39
50.82
55.87
60.14
62.00
61.74
60.89
62.30
66.57
70.85
73.01
72.81
71.61
72.10
75.62
79.74
81.83
81.50
79.72
79.09
81.56
85.35
87.35
86.82
84.59
82.79
84.13
87.62
89.71
89.26
86.88
84.49
85.20
88.32
90.51
90.30
87.99
85.23
85.09
87.80
90.14
90.37
88.32
85.47
84.54
86.58
89.06
89.53
87.78
84.80
83.14
84.49
86.98
87.67
86.11
83.05
80.63
81.43
84.09
85.25
83.96
80.89
77.92
78.09
80.64
82.22
81.41
78.64
75.66
75.42
77.80
79.66
79.30
76.83
73.68
72.72
74.65
76.82
77.00
74.85
71.70
70.09
71.56
Sampling Rate: 373.00 Hz
73.25
72.90
70.46
67.00
65.23
66.59
68.66
68.81
66.72
63.44
61.31
62.25
64.71
65.49
63.86
60.56
57.59
57.74
60.10
61.18
59.92
56.89
53.87
53.83
56.34
58.09
57.47
54.85
51.76
51.12
53.31
55.40
55.30
53.02
49.81
48.47
50.28
52.67
53.13
51.33
48.29
46.54
47.86
50.44
51.34
49.85
46.87
44.48
45.36
48.21
49.61
48.63
45.78
42.88
43.15
45.83
47.46
46.78
44.13
41.07
40.69
43.15
45.24
45.18
42.93
39.84
38.97
41.17
43.61
44.05
42.09
39.10
37.63
39.32
42.09
42.98
41.46
38.47
36.43
37.57
40.56
41.96
40.94
38.10
35.35
35.88
38.83
40.52
39.70
36.87
33.82
33.74
36.50
38.56
38.25
35.82
32.75
32.02
34.31
36.72
36.90
34.80
31.74
30.50
32.43
35.15
35.96
34.35
31.45
29.59
31.05
34.05
35.33
34.14
31.20
28.65
29.39
32.37
33.89
32.94
30.00
27.04
27.16
29.98
31.90
31.50
28.92
25.80
25.20
27.55
29.79
29.86
27.71
24.66
23.55
25.59
28.32
29.07
27.45
24.51
22.70
24.18
27.03
28.17
26.79
23.73
21.10
21.87
24.95
26.67
25.82
23.07
20.26
20.54
23.42
25.50
25.17
22.80
20.02
19.89
22.66
25.11
25.36
23.38
20.49
19.55
21.85
24.57
25.29
23.59
20.62
19.12
20.87
23.89
25.07
23.84
21.03
18.78
19.85
23.08
24.78
23.89
21.10
18.27
18.71
21.70
23.79
23.49
21.11
18.30
18.08
20.71
22.96
22.95
20.73
17.70
16.78
18.95
21.62
22.28
20.56
17.67
16.30
18.12
21.07
22.14
20.80
17.97
15.85
16.93
20.06
21.61
20.74
17.97
15.26
15.70
18.60
20.51
19.97
17.39
14.53
14.35
16.97
19.15
19.01
16.71
13.54
12.47
14.56
17.00
17.31
15.28
12.07
10.36
11.95
14.65
15.54
14.04
11.06
8.81
9.80
12.95
14.60
13.79
11.07
8.32
8.67
11.60
13.74
13.50
11.13
8.33
7.99
10.68
13.25
13.62
11.68
8.79
7.87
10.14
13.13
14.07
12.64
9.82
7.92
9.28
12.46
14.03
12.98
10.11
7.29
7.86
10.97
13.04
12.55
10.02
7.17
6.94
9.59
11.98
12.06
9.80
6.60
5.29
7.08
9.58
10.07
8.09
4.80
2.38
3.27
6.05
7.26
6.01
2.95
-0.17
-0.26
2.36
4.28
3.89
1.43
-1.73
-2.68
-0.55
2.04
2.63
0.85
-2.11
-3.86
-2.35
0.69
2.15
1.17
-1.63
-4.34
-3.85
-0.80
1.30
1.03
-1.32
-4.20
-4.69
-2.17
0.49
1.02
-0.81
-3.66
-4.97
-3.14
-0.21
0.92
-0.22
-3.00
-5.35
-4.52
-1.40
0.41
-0.13
-2.63
-5.47
-5.65
-3.01
-0.66
-0.42
-2.42
-5.30
-6.44
-4.44
-1.62
-0.59
-1.92
-4.57
-6.57
-5.37
-2.18
-0.34
-0.83
-3.26
-5.73
-5.27
-2.31
-0.10
-0.05
-2.13
-4.89
-5.62
-3.44
-0.85
-0.14
-1.67
-4.39
-5.93
-4.46
-1.43
0.11
Sampling Rate: 375.00 Hz
-0.85
-3.23
-4.81
-3.45
-0.38
1.22
0.45
-2.15
-4.73
-4.40
-1.66
0.34
0.17
-2.00
-4.86
-5.56
-3.27
-0.73
-0.13
-1.71
-4.38
-5.72
-4.02
-0.96
0.43
-0.52
-3.16
-5.67
-5.12
-2.18
-0.21
-0.58
-2.85
-5.57
-5.79
-3.20
-0.72
-0.23
-1.98
-4.74
-5.80
-3.87
-0.95
0.21
-0.91
-3.50
-5.50
-4.37
-1.09
0.82
0.47
-1.77
-4.24
-4.02
-1.22
1.16
1.40
-0.41
-3.04
-3.71
-1.48
1.33
2.29
1.01
-1.52
-3.26
-1.98
1.08
2.69
1.93
-0.52
-2.99
-2.60
0.36
2.57
2.67
0.69
-2.00
-2.53
-0.15
2.58
3.29
1.79
-0.89
-2.31
-0.76
2.23
3.69
2.79
0.23
-2.30
-1.79
1.15
3.25
3.02
0.83
-1.84
-2.13
0.40
2.94
3.49
1.79
-0.88
-2.16
-0.48
2.27
3.42
2.21
-0.50
-2.91
-2.31
0.51
2.11
1.41
-1.26
-4.28
-4.78
-2.67
-0.90
-1.28
-3.81
-7.28
-9.11
-7.99
-6.14
-6.17
-8.40
-11.97
-14.82
-14.65
-12.81
-12.51
-14.47
-18.13
-21.67
-22.25
-20.69
-20.35
-22.38
-26.25
-30.37
-31.85
-30.93
-30.78
-32.88
-36.97
-41.72
-44.41
-44.56
-44.89
-47.25
-51.66
-56.92
-60.51
-61.38
-61.79
-63.90
-68.15
-73.55
-77.86
-79.57
-80.32
-82.57
-86.91
-92.58
-97.83
-100.43
-101.16
-102.89
-106.50
-111.43
-116.10
-118.01
-117.87
-118.62
-121.18
-125.04
-128.72
-129.96
-129.14
-129.02
-130.72
-133.78
-136.85
-137.63
-136.32
-135.54
-136.47
-138.89
-141.55
-142.07
-140.51
-139.25
-139.62
-141.51
-143.74
-144.05
-142.24
-140.55
-140.39
-141.88
-143.89
-144.20
-142.33
-140.33
-139.83
-140.93
-142.65
-142.85
-140.87
-138.61
-137.84
-138.73
-140.37
-140.61
-138.56
-136.06
-135.06
-135.82
-137.36
-137.72
-135.75
-133.08
-131.87
-132.39
-133.90
-134.47
-132.60
-129.78
-128.33
-128.65
-130.03
-130.65
-128.90
-126.02
-124.36
-124.53
-125.93
-126.88
-125.34
-122.32
-120.45
-120.54
-122.01
-123.24
-122.03
-119.04
-117.08
-117.07
-118.53
-119.96
-118.81
-115.79
-113.70
-113.54
-114.82
-116.15
-115.07
-111.99
-109.68
-109.24
-110.40
-111.76
-110.86
-107.83
-105.40
-104.83
-106.00
-107.56
-106.95
-104.04
-101.53
-100.83
-101.88
-103.45
-103.17
-100.50
-97.90
-97.04
-97.97
-99.57
-99.60
-97.11
-94.14
-92.80
-93.29
-94.78
-95.07
-92.71
-89.35
-87.50
-87.63
-89.10
-90.10
-88.46
-85.15
-83.05
-82.97
-84.48
-85.93
-84.72
-81.45
-79.01
-78.61
-79.86
-81.37
-80.55
-77.49
-74.92
-74.34
-75.51
-77.24
-77.07
-74.33
-71.45
-70.28
-71.04
-72.64
-72.64
-69.92
-66.48
-64.62
-64.78
-66.05
-66.48
-64.16
-60.62
-58.50
-58.52
-59.96
-61.19
-59.77
-56.41
-54.26
-54.27
-55.91
-57.48
-56.52
-53.40
-51.06
-50.68
-52.11
-53.83
-53.33
-50.40
-47.72
-46.94
-48.02
-49.79
-49.81
-47.09
-44.03
-42.72
-43.36
-44.95
-45.24
-42.81
-39.36
-37.41
-37.52
-38.81
-39.32
-36.93
-32.85
-29.92
-29.05
-29.55
-29.74
-26.94
-21.93
-17.86
-15.84
-15.39
Sampling Rate: 373.00 Hz
-14.64
-11.07
-5.51
-1.11
1.09
1.57
1.78
4.35
9.24
13.76
16.16
16.53
16.09
17.44
21.45
25.82
28.35
28.76
28.13
28.78
32.33
36.92
39.91
40.70
40.22
40.32
43.29
47.99
51.32
52.48
51.90
51.31
53.52
57.86
61.15
62.14
61.23
59.97
61.14
64.70
67.77
68.79
67.87
66.28
66.59
69.60
72.76
73.94
73.02
71.15
70.82
73.22
76.39
77.78
76.91
74.82
73.58
75.28
78.40
80.01
79.33
77.09
75.16
76.17
79.23
81.04
80.58
78.30
75.89
76.16
78.72
80.58
80.31
78.04
75.15
74.52
76.48
78.38
78.32
76.11
73.10
71.77
73.29
75.32
75.51
73.51
70.42
68.50
69.47
71.66
72.24
70.62
67.52
64.99
65.50
67.92
69.09
67.97
65.09
62.24
62.20
64.49
66.01
65.43
62.99
60.20
59.72
61.85
63.76
63.71
61.66
58.81
57.80
59.70
61.97
62.40
60.66
57.85
56.45
58.02
60.55
61.45
60.16
57.47
55.48
56.51
59.35
60.77
59.92
57.32
54.74
55.16
57.92
59.67
59.12
56.75
54.10
54.00
56.41
58.35
58.22
56.05
53.26
52.55
54.61
56.89
57.17
55.36
52.50
51.19
52.85
55.36
56.17
54.78
52.08
50.21
51.32
54.04
55.27
54.24
51.64
49.16
49.60
52.30
53.80
53.08
50.60
47.97
48.06
50.65
52.58
52.44
50.27
47.54
46.95
49.14
51.41
51.67
49.84
47.07
45.94
47.77
50.23
50.89
49.29
46.45
44.66
45.92
48.48
49.47
48.16
45.35
42.92
43.51
46.09
47.35
46.33
43.55
40.56
40.31
42.39
43.59
42.52
39.46
35.96
34.86
36.34
37.62
36.85
34.11
30.54
28.78
29.84
31.43
31.20
28.93
25.53
23.41
24.32
26.35
26.79
24.98
21.86
19.31
19.74
22.02
23.01
21.74
18.79
15.93
15.98
18.32
19.82
19.08
16.43
13.53
13.03
15.11
16.89
16.66
14.36
11.37
10.37
12.11
14.19
14.36
12.45
9.53
7.96
9.14
11.41
12.14
10.65
7.69
5.13
5.49
7.91
9.13
8.16
5.30
2.20
1.56
3.35
4.90
4.47
2.04
-1.27
-2.88
-1.69
0.23
0.40
-1.60
-4.94
-7.63
-7.47
-5.57
-4.95
-6.61
-10.04
-13.53
-14.44
-13.08
-12.55
-14.17
-17.64
-21.53
-23.24
-22.62
-22.34
-23.92
-27.53
-31.88
-34.61
-34.78
-34.74
-36.53
-40.31
-45.13
-48.78
-50.00
-50.43
-52.42
-56.46
-61.82
-66.51
-68.55
-69.03
-70.64
-74.12
-79.00
-83.68
-85.66
-85.57
-86.26
-88.73
-92.63
-96.52
-97.96
-97.22
-96.83
-98.25
-101.23
-104.59
-105.90
-104.84
-103.87
-104.59
-107.02
-110.02
-111.21
-109.97
-108.50
-108.57
-110.38
-112.89
-113.83
-112.37
-110.44
-109.98
-111.27
-113.42
-114.19
-112.49
-110.20
-109.34
-110.26
-112.16
-112.90
-111.22
-108.67
-107.56
-108.33
-110.18
-111.08
-109.54
-106.94
-105.60
-106.12
-107.86
-109.00
-107.63
-104.89
-103.30
-103.58
-105.12
-106.33
-105.06
-102.15
-100.40
-100.47
-102.03
-103.49
-102.52
Sampling Rate: 373.00 Hz
-100.23
-99.01
-99.59
-101.36
-102.67
-101.39
-98.55
-96.77
-96.78
-98.17
-99.47
-98.34
-95.32
-93.15
-92.88
-94.18
-95.68
-94.97
-92.10
-89.61
-88.91
-89.93
-91.50
-91.36
-88.87
-86.17
-85.11
-85.82
-87.33
-87.55
-85.35
-82.49
-81.13
-81.70
-83.32
-84.03
-82.33
-79.46
-77.82
-78.17
-79.84
-81.21
-79.99
-76.94
-74.92
-74.87
-76.33
-77.81
-76.93
-73.98
-71.73
-71.37
-72.68
-74.40
-74.10
-71.51
-69.09
-68.46
-69.61
-71.42
-71.55
-69.16
-66.47
-65.47
-66.33
-68.13
-68.70
-66.66
-63.78
-62.43
-63.06
-64.88
-65.97
-64.46
-61.47
-59.72
-60.00
-61.80
-63.48
-62.45
-59.42
-57.41
-57.39
-59.05
-60.77
-60.05
-57.19
-54.88
-54.50
-55.95
-57.89
-57.78
-55.19
-52.61
-51.85
-53.05
-55.00
-55.34
-53.15
-50.44
-49.31
-50.19
-52.10
-52.87
-50.96
-47.97
-46.35
-46.79
-48.56
-49.84
-48.47
-45.34
-43.48
-43.70
-45.56
-47.37
-46.54
-43.54
-41.37
-41.17
-42.67
-44.42
-43.80
-40.91
-38.42
-37.82
-39.12
-41.05
-41.18
-38.77
-36.18
-35.32
-36.43
-38.39
-38.96
-36.82
-33.91
-32.58
-33.35
-35.32
-36.38
-34.71
-31.64
-29.93
-30.29
-31.97
-33.27
-31.84
-28.38
-25.99
-25.75
-27.19
-28.65
-27.55
-24.30
-21.81
-21.29
-22.62
-24.37
-24.08
-21.37
-18.87
-18.22
-19.60
-21.78
-22.27
-20.20
-17.78
-17.05
-18.37
-20.71
-21.77
-20.14
-17.50
-16.39
-17.37
-19.58
-21.10
-19.89
-16.97
-15.31
-15.68
-17.59
-19.35
-18.35
-15.30
-13.19
-13.19
-14.85
-16.69
-16.12
-13.18
-10.72
-10.22
-11.61
-13.50
-13.39
-10.73
-7.88
-6.73
-7.56
-9.29
-9.72
-7.43
-4.17
-2.39
-2.76
-4.55
-5.97
-4.62
-1.28
0.98
1.15
-0.42
-2.35
-1.96
0.75
3.14
3.68
2.20
-0.04
-0.68
1.30
3.98
5.07
4.10
1.86
0.20
1.27
4.11
5.77
5.21
2.97
0.61
0.64
2.97
4.84
4.81
2.90
0.27
-0.68
0.92
3.01
3.48
1.94
-0.77
-2.64
-1.77
0.55
1.60
0.54
-2.20
-4.92
-4.94
-2.77
-1.33
-1.86
-4.16
-6.97
-7.74
-6.01
-4.09
-3.90
-5.71
-8.46
-9.93
-8.62
-6.17
-5.11
-6.11
-8.50
-10.63
-10.05
-7.42
-5.79
-6.22
-8.37
-10.67
-10.63
-8.15
-5.99
-5.81
-7.49
-9.87
-10.49
-8.42
-5.84
-4.83
-5.78
-7.85
-8.95
-7.25
-4.00
-2.03
-2.19
-4.02
-5.82
-4.79
-1.61
0.80
1.15
-0.41
-2.42
-2.32
0.43
3.34
4.39
3.33
1.24
0.40
2.32
5.39
6.90
6.17
3.86
1.75
2.53
5.40
7.39
7.26
5.21
2.80
2.66
5.05
7.41
7.80
6.13
3.61
2.56
4.46
7.29
8.49
7.44
4.99
3.11
4.29
7.64
9.88
9.98
8.33
6.63
7.48
11.04
14.27
15.51
14.78
13.42
14.06
17.59
21.60
23.81
23.92
23.14
23.92
27.61
32.34
35.46
36.57
36.48
37.29
41.22
47.10
51.67
54.00
54.65
55.29
58.81
64.50
69.04
71.18
71.32
71.11
73.52
78.47
82.80
Sampling Rate: 375.00 Hz
84.56
84.26
83.66
85.63
89.95
93.50
94.79
94.07
92.66
93.48
96.96
100.45
101.87
101.04
99.36
99.40
102.31
105.60
106.96
106.16
104.30
103.81
106.20
109.31
110.54
109.46
107.21
106.07
107.92
110.92
112.27
111.27
108.86
107.31
108.81
111.72
112.97
111.91
109.35
107.31
108.22
111.01
112.30
111.31
108.57
106.01
106.48
109.10
110.52
109.65
107.05
104.43
104.87
107.64
109.34
108.61
105.96
103.10
103.16
105.71
107.37
106.77
104.13
101.11
100.72
102.93
104.59
104.13
101.57
98.50
97.84
99.98
101.94
101.83
99.53
96.40
95.20
96.94
99.09
99.28
97.30
94.17
92.47
93.71
96.10
96.87
95.35
92.34
89.98
90.64
93.24
94.47
93.35
90.42
87.48
87.57
89.93
91.25
90.28
87.45
84.34
83.93
86.15
87.96
87.58
85.21
82.07
81.03
82.92
85.08
85.23
83.24
80.17
78.72
80.18
82.51
83.00
81.29
78.27
76.12
76.98
79.51
80.58
79.32
76.46
73.85
74.26
76.90
78.21
77.19
74.40
71.39
71.22
73.61
75.30
74.78
72.23
69.12
68.38
70.42
72.40
72.38
70.18
67.11
65.73
67.23
69.32
69.55
67.60
64.40
62.30
63.20
65.43
66.14
64.55
61.41
58.74
59.06
61.35
62.23
60.69
57.37
54.05
53.56
55.37
56.27
54.91
51.48
47.52
45.84
46.64
47.01
45.32
41.49
36.82
33.91
33.73
33.74
31.75
27.49
22.23
18.41
17.51
17.56
15.97
12.30
7.36
3.11
1.89
2.61
1.98
-0.82
-5.28
-9.77
-11.65
-10.97
-10.93
-12.86
-16.67
-20.93
-22.98
-22.34
-21.68
-22.97
-26.28
-30.28
-32.55
-32.13
-31.17
-31.85
-34.51
-38.20
-40.76
-40.68
-39.55
-39.95
-42.42
-46.15
-49.38
-49.89
-48.62
-48.44
-50.31
-53.61
-56.82
-57.41
-56.02
-55.38
-56.70
-59.61
-62.71
-63.67
-62.31
-61.18
-61.78
-64.13
-67.01
-68.16
-66.89
-65.34
-65.38
-67.19
-69.80
-71.07
-69.91
-67.98
-67.45
-68.69
-71.00
-72.48
-71.53
-69.27
-68.18
-68.97
-71.12
-73.03
-72.48
-70.10
-68.73
-69.21
-71.09
-73.02
-72.61
-70.23
-68.41
-68.43
-70.02
-72.02
-72.13
-69.99
-67.95
-67.58
-68.95
-70.93
-71.40
-69.46
-67.13
-66.30
-67.21
-69.08
-69.87
-68.12
-65.48
-64.21
-64.77
-66.54
-67.79
-66.50
-63.71
-62.11
-62.45
-64.18
-65.81
-64.98
-62.26
-60.43
-60.56
-62.21
-64.05
-63.57
-60.88
-58.63
-58.21
-59.51
-61.41
-61.46
-59.07
-56.63
-55.88
-56.94
-58.77
-59.09
-56.91
-54.11
-52.93
-53.65
-55.45
-56.37
-54.67
-51.85
-50.39
-50.97
-52.88
-54.38
-53.31
-50.38
-48.61
-48.82
-50.46
-52.07
-51.21
-48.30
-46.14
-45.86
-47.24
-49.00
-48.70
-46.07
-43.67
-43.12
-44.37
-46.33
-46.58
-44.34
-41.82
-40.95
-41.96
-43.90
-44.63
-42.75
-39.95
-38.72
-39.40
-41.30
-42.46
-40.96
-37.92
-36.18
-36.49
-38.29
-40.03
-39.12
-36.26
-34.41
-34.57
-36.33
-38.27
-37.80
-35.18
-33.12
-33.00
-34.57
Sampling Rate: 372.00 Hz
-36.29
-35.65
-32.90
-30.84
-30.80
-32.49
-34.51
-34.49
-32.09
-29.82
-29.29
-30.61
-32.64
-32.96
-30.81
-28.30
-27.43
-28.57
-30.70
-31.61
-29.94
-27.23
-26.01
-26.81
-28.93
-30.39
-29.19
-26.35
-24.79
-25.32
-27.39
-29.36
-28.68
-25.94
-24.17
-24.47
-26.37
-28.36
-27.99
-25.28
-23.01
-22.69
-24.10
-26.07
-25.99
-23.43
-20.79
-19.99
-21.16
-23.08
-23.50
-21.24
-18.27
-16.87
-17.47
-19.14
-19.97
-18.10
-14.91
-13.10
-13.44
-15.20
-16.63
-15.40
-12.31
-10.35
-10.56
-12.37
-14.23
-13.52
-10.59
-8.34
-8.14
-9.77
-11.83
-11.85
-9.28
-6.69
-5.84
-6.90
-8.89
-9.52
-7.45
-4.47
-3.02
-3.67
-5.64
-7.12
-5.83
-2.70
-0.81
-0.96
-2.81
-4.83
-4.43
-1.69
0.56
0.93
-0.67
-2.95
-3.50
-1.43
1.15
1.99
0.76
-1.69
-3.37
-2.26
0.40
1.79
1.06
-1.33
-3.65
-3.46
-1.03
0.80
0.70
-1.21
-3.75
-4.35
-2.40
-0.15
0.46
-1.00
-3.50
-4.93
-3.51
-0.72
0.66
-0.11
-2.35
-4.48
-3.80
-0.93
0.98
0.85
-1.03
-3.25
-3.27
-0.79
1.71
2.41
1.14
-0.92
-1.49
0.78
4.14
5.97
5.72
4.12
2.86
4.58
8.39
11.11
11.73
10.70
9.65
11.27
15.38
19.03
20.82
20.80
20.26
21.77
26.13
30.63
33.23
33.85
33.57
34.90
39.08
44.14
47.46
48.60
48.53
49.34
53.05
58.33
62.04
63.51
63.29
63.30
66.18
71.13
74.76
76.03
75.50
74.83
76.86
81.27
84.79
86.07
85.19
83.69
84.35
87.61
90.74
91.68
90.49
88.38
87.91
90.34
93.20
94.16
92.78
90.24
88.90
90.52
93.31
94.53
93.44
90.79
88.68
89.53
92.45
93.98
93.14
90.53
87.87
88.21
90.89
92.67
92.17
89.77
87.07
86.95
89.51
91.79
92.04
90.11
87.43
86.80
89.11
91.69
92.34
90.77
88.07
86.72
88.42
91.13
91.98
90.51
87.64
85.57
86.55
89.30
90.53
89.48
86.67
83.97
84.32
86.90
88.33
87.47
84.76
81.83
81.57
84.00
85.91
85.56
83.20
80.14
79.35
81.38
83.63
83.78
81.78
78.78
77.56
79.37
82.01
82.82
81.33
78.45
76.61
77.85
80.62
81.82
80.62
77.75
75.12
75.52
78.13
79.41
78.41
75.55
72.67
72.67
75.26
77.01
76.57
74.06
71.03
70.43
72.68
74.77
74.74
72.64
69.64
68.66
70.65
73.19
73.72
72.06
69.27
67.82
69.49
72.35
73.51
72.22
69.42
67.17
68.09
70.95
72.38
71.35
68.59
65.90
66.21
68.99
70.75
70.19
67.63
64.74
64.45
66.81
68.79
68.60
66.25
63.17
62.15
64.04
66.22
66.32
64.17
60.96
59.36
60.87
63.28
63.78
61.90
58.61
56.26
56.98
59.37
60.15
58.46
55.04
51.84
51.87
54.14
55.24
53.95
50.71
47.40
46.92
48.99
50.33
49.37
46.30
42.63
41.23
42.70
44.20
43.59
40.71
36.92
34.88
35.83
37.34
36.88
34.04
29.83
26.65
Sampling Rate: 374.00 Hz
26.54
26.96
25.51
21.80
16.92
13.26
12.72
13.40
12.37
9.06
4.30
-0.06
-1.30
-0.38
-0.67
-3.09
-7.28
-11.66
-13.43
-12.59
-12.21
-13.79
-17.30
-21.41
-23.41
-22.68
-21.75
-22.62
-25.58
-29.48
-31.97
-31.87
-31.14
-32.12
-35.31
-39.74
-43.29
-44.03
-43.36
-44.04
-46.82
-50.96
-54.68
-55.59
-54.45
-54.34
-56.22
-59.64
-63.09
-63.95
-62.55
-61.73
-62.72
-65.41
-68.44
-69.39
-67.89
-66.50
-66.91
-69.08
-71.95
-73.20
-71.84
-70.03
-69.78
-71.47
-74.13
-75.55
-74.38
-72.17
-71.34
-72.52
-74.85
-76.63
-75.69
-73.07
-71.60
-72.24
-74.41
-76.53
-75.98
-73.32
-71.51
-71.77
-73.69
-75.80
-75.55
-72.92
-70.69
-70.35
-71.89
-74.01
-74.17
-71.71
-69.03
-68.17
-69.32
-71.31
-71.76
-69.45
-66.45
-65.26
-66.18
-68.32
-69.50
-67.76
-64.63
-63.08
-63.72
-65.82
-67.47
-66.14
-62.81
-60.77
-60.96
-62.95
-64.87
-64.01
-60.82
-58.55
-58.55
-60.52
-62.81
-62.54
-59.67
-57.14
-56.63
-58.26
-60.60
-60.80
-58.13
-55.07
-54.02
-55.21
-57.37
-57.93
-55.40
-51.97
-50.23
-50.80
-52.78
-53.83
-51.76
-48.05
-45.83
-45.96
-47.79
-49.38
-47.97
-44.30
-41.91
-41.82
-43.55
-45.42
-44.42
-40.83
-37.98
-37.33
-38.74
-40.59
-40.16
-36.86
-33.60
-32.45
-33.52
-35.45
-35.54
-32.67
-29.28
-27.71
-28.32
-30.08
-30.60
-28.12
-24.39
-22.40
-22.66
-24.40
-25.63
-23.62
-19.59
-17.09
-17.05
-18.88
-20.79
-19.49
-15.71
-12.92
-12.51
-14.17
-16.08
-15.22
-11.50
-8.24
-7.23
-8.35
-10.15
-9.93
-6.49
-2.38
-0.20
-0.30
-2.01
-2.99
-1.14
2.28
4.10
3.54
1.19
-1.06
-0.20
3.10
5.68
6.03
4.41
2.27
2.42
5.53
8.98
10.51
9.76
7.95
7.45
10.05
13.89
16.06
15.87
14.13
12.93
14.86
18.79
21.39
21.72
20.22
18.74
20.19
24.12
27.15
27.88
26.66
24.99
25.78
29.34
32.56
33.58
32.56
30.72
30.85
33.93
37.40
38.95
38.35
36.70
36.54
39.47
43.47
45.72
45.57
43.99
43.06
45.24
49.26
51.80
51.99
50.49
49.00
50.55
54.39
57.21
57.59
56.01
54.22
55.02
58.51
61.48
62.19
60.80
58.66
58.69
61.56
64.64
65.63
64.42
62.22
61.73
64.22
67.54
69.03
68.19
66.05
64.92
66.83
70.28
72.09
71.60
69.46
67.47
68.67
72.08
74.17
73.92
71.76
69.39
69.86
72.86
75.15
75.21
73.22
70.59
70.42
73.13
75.72
76.12
74.23
71.49
70.66
72.83
75.46
76.18
74.55
71.67
70.15
71.68
74.41
75.45
74.06
71.15
68.86
69.81
72.81
74.39
73.43
70.65
67.80
67.99
70.67
72.36
71.74
69.09
66.15
65.87
68.35
70.49
70.38
68.06
65.08
64.18
66.37
68.87
69.31
67.48
64.62
63.24
64.97
67.77
68.69
67.20
64.23
62.14
63.23
66.09
67.35
66.10
63.05
60.17
60.50
63.26
64.84
64.12
61.40
58.44
58.30
60.89
62.92
Sampling Rate: 374.00 Hz
62.35
59.86
57.22
57.52
60.49
62.67
62.44
60.05
57.04
56.52
58.96
61.33
61.48
59.41
56.34
55.09
57.01
59.58
60.18
58.40
55.40
53.54
54.89
57.64
58.65
57.17
54.04
51.43
52.04
54.85
56.35
55.37
52.47
49.64
49.84
52.62
54.59
54.28
51.92
49.03
48.66
51.18
53.44
53.49
51.30
48.31
47.26
49.21
51.68
52.15
50.30
47.32
45.86
47.45
50.14
51.02
49.49
46.51
44.29
45.35
48.43
50.01
49.11
46.32
43.62
44.19
47.24
49.15
48.59
46.11
43.31
43.26
45.96
48.09
48.06
45.78
42.86
42.26
44.72
47.28
47.77
45.95
42.99
41.71
43.56
46.31
47.13
45.54
42.55
40.48
41.54
44.34
45.41
43.93
40.73
37.75
38.06
40.73
42.10
41.02
37.91
34.69
34.50
36.98
38.79
38.30
35.71
32.50
31.62
33.67
35.73
35.69
33.30
29.87
28.19
29.63
31.90
32.26
30.15
26.78
24.60
25.66
28.21
29.12
27.61
24.43
21.55
21.85
24.36
25.45
24.01
20.74
17.44
17.08
19.29
20.73
19.72
16.67
13.14
12.01
13.70
15.30
14.68
11.88
8.22
6.47
7.79
9.80
9.89
7.56
3.83
0.93
1.36
3.78
4.74
3.24
-0.04
-3.32
-3.73
-1.40
0.35
-0.25
-3.00
-6.46
-7.89
-6.32
-4.37
-4.52
-6.98
-10.78
-13.53
-13.05
-11.18
-11.06
-13.35
-17.29
-20.95
-21.41
-19.75
-19.53
-21.82
-25.96
-30.11
-31.18
-29.64
-28.98
-30.63
-34.27
-38.27
-39.62
-38.11
-36.93
-37.99
-41.30
-45.29
-47.20
-46.08
-44.56
-45.00
-47.79
-51.63
-53.83
-52.87
-50.87
-50.69
-52.75
-56.14
-58.64
-57.90
-55.45
-54.51
-56.04
-59.28
-62.40
-62.45
-60.22
-59.10
-60.24
-63.28
-66.48
-67.09
-65.15
-63.81
-64.59
-67.35
-70.76
-71.99
-70.59
-69.12
-69.62
-72.28
-75.75
-77.62
-76.64
-74.92
-75.00
-77.18
-80.43
-82.64
-81.87
-79.80
-79.25
-80.90
-83.93
-86.42
-86.03
-83.64
-82.49
-83.54
-86.26
-88.83
-88.55
-86.01
-84.24
-84.53
-86.70
-89.20
-89.31
-86.84
-84.59
-84.26
-85.91
-88.33
-88.93
-86.72
-84.15
-83.31
-84.55
-86.75
-87.61
-85.62
-82.72
-81.53
-82.48
-84.80
-86.36
-85.08
-82.11
-80.53
-81.14
-83.31
-85.31
-84.47
-81.39
-79.35
-79.53
-81.43
-83.41
-82.74
-79.70
-77.22
-76.86
-78.47
-80.63
-80.66
-78.02
-75.38
-74.66
-76.04
-78.30
-78.90
-76.70
-73.73
-72.50
-73.38
-75.40
-76.32
-74.38
-71.15
-69.32
-69.60
-71.32
-72.64
-71.06
-67.55
-65.32
-65.37
-67.10
-68.88
-67.92
-64.78
-62.46
-62.22
-63.81
-65.78
-65.33
-62.44
-59.88
-59.24
-60.61
-62.77
-63.14
-60.75
-58.15
-57.50
-58.92
-61.26
-62.20
-60.26
-57.42
-56.27
-57.31
-59.61
-61.07
-59.54
-56.38
-54.66
-55.10
-57.09
-58.81
-57.62
-54.31
-52.09
-52.10
-53.85
-55.63
-54.72
-51.48
-48.93
-48.35
-49.63
-51.46
-51.19
-48.29
-45.51
-44.61
-45.70
-47.63
-47.96
-45.58
-42.61
-41.40
-42.33
Sampling Rate: 373.00 Hz
-44.14
-44.21
-41.68
-38.86
-37.92
-39.00
-41.01
-41.67
-39.46
-36.36
-34.90
-35.50
-37.42
-38.63
-37.06
-33.85
-31.96
-32.34
-34.36
-36.26
-35.38
-32.39
-30.70
-31.11
-33.22
-35.36
-34.92
-32.21
-30.16
-30.12
-31.91
-34.24
-34.54
-32.25
-29.99
-29.66
-31.32
-33.80
-34.59
-32.65
-30.26
-29.62
-30.98
-33.41
-34.77
-33.42
-30.97
-30.12
-31.32
-33.80
-35.65
-34.57
-31.76
-30.22
-30.89
-33.14
-35.23
-34.43
-31.48
-29.46
