-38.23
-37.29
-36.93
-37.34
-38.19
-38.57
-37.94
-36.94
-36.46
-36.76
-37.57
-38.11
-37.66
-36.63
-36.02
-36.17
-36.94
-37.68
-37.45
-36.41
-35.69
-35.72
-36.44
-37.30
-37.25
-36.30
-35.50
-35.42
-36.07
-36.94
-37.05
-36.19
-35.30
-35.07
-35.58
-36.48
-36.79
-36.10
-35.15
-34.77
-35.18
-36.04
-36.51
-35.96
-34.97
-34.47
-34.74
-35.56
-36.17
-35.79
-34.77
-34.15
-34.29
-35.06
-35.85
-35.65
-34.62
-33.87
-33.86
-34.55
-35.39
-35.36
-34.42
-33.57
-33.45
-34.07
-34.96
-35.13
-34.34
-33.46
-33.20
-33.69
-34.57
-34.92
-34.26
-33.31
-32.91
-33.28
-34.13
-34.64
-34.13
-33.14
Sampling Rate: 373.00 Hz
-32.74
-33.11
-33.95
-34.36
-33.78
-32.80
-32.32
-32.62
-33.44
-34.05
-33.66
-32.68
-32.09
-32.29
-33.10
-33.92
-33.75
-32.76
-32.04
-32.07
-32.80
-33.68
-33.66
-32.73
-31.92
-31.83
-32.46
-33.34
-33.49
-32.67
-31.78
-31.52
-32.03
-32.91
-33.24
-32.57
-31.60
-31.20
-31.58
-32.44
-32.93
-32.41
-31.42
-30.88
-31.14
-31.95
-32.62
-32.30
-31.28
-30.63
-30.75
-31.53
-32.37
-32.24
-31.25
-30.51
-30.50
-31.19
-32.07
-32.12
-31.24
-30.43
-30.30
-30.91
-31.81
-32.05
-31.30
-30.40
-30.09
-30.56
-31.43
-31.83
-31.21
-30.23
-29.78
-30.11
-30.94
-31.49
-31.03
-30.02
-29.44
-29.64
-30.43
-31.15
-30.90
-29.88
-29.17
-29.22
-29.96
-30.83
-30.77
-29.84
-29.07
-29.01
-29.67
-30.58
-30.71
-29.87
-29.00
-28.78
-29.33
-30.26
-30.59
-29.90
-28.97
-28.60
-29.00
-29.87
-30.32
-29.78
-28.80
-28.31
-28.61
-29.45
-30.09
-29.75
-28.78
-28.17
-28.35
-29.15
-29.98
-29.83
-28.83
-28.10
-28.11
-28.82
-29.69
-29.68
-28.77
-27.95
-27.85
-28.48
-29.39
-29.59
-28.81
-27.93
-27.66
-28.15
-29.03
-29.40
-28.76
-27.81
-27.41
-27.79
-28.67
-29.24
-28.81
-27.86
-27.35
-27.60
-28.43
-29.18
-28.92
-27.93
-27.28
-27.39
-28.18
-29.08
-29.05
-28.12
-27.37
-27.36
-28.04
-28.95
-29.05
-28.20
-27.35
-27.15
-27.70
-28.60
-28.89
-28.17
-27.24
-26.91
-27.34
-28.22
-28.66
-28.10
-27.12
-26.63
-26.93
-27.76
-28.36
-27.97
-26.95
-26.33
-26.49
-27.28
-28.07
-27.88
-26.87
-26.15
-26.17
-26.89
-27.76
-27.74
-26.81
-26.00
-25.91
-26.55
-27.46
-27.67
-26.90
-26.04
-25.82
-26.36
-27.30
-27.69
-27.06
-26.12
-25.73
-26.12
-26.97
-27.49
-27.00
-26.01
-25.47
-25.73
-26.57
-27.28
-26.99
-25.98
-25.31
-25.40
-26.18
-27.04
-26.95
-26.00
-25.25
-25.23
-25.93
-26.84
-26.94
-26.10
-25.26
-25.09
-25.68
-26.60
-26.90
-26.20
-25.30
-25.00
-25.47
-26.38
-26.87
-26.36
-25.42
-24.98
-25.32
-26.19
-26.83
-26.46
-25.48
-24.90
-25.10
-25.90
-26.69
-26.52
-25.52
-24.80
-24.82
-25.53
-26.40
-26.39
-25.46
-24.64
-24.52
-25.14
-26.05
-26.24
-25.44
-24.55
-24.30
-24.80
-25.71
-26.09
-25.45
-24.49
-24.09
-24.46
-25.34
-25.89
-25.43
-24.47
-23.95
-24.21
-25.07
-25.79
-25.52
-24.53
-23.87
-23.96
-24.74
-25.61
-25.56
-24.61
-23.89
-23.88
-24.58
-25.49
-25.59
-24.74
-23.91
-23.76
-24.36
-25.27
-25.55
-24.84
-23.95
-23.64
-24.09
-24.98
-25.43
-24.87
-23.90
-23.45
-23.76
-24.60
-25.18
-24.77
-23.78
-23.20
-23.39
-24.22
-25.02
-24.85
-23.87
-23.16
-23.23
-23.97
-24.87
-24.86
-23.94
-23.16
-23.11
-23.79
-24.71
-24.89
-24.08
-23.22
-23.01
-23.55
-24.46
-24.82
-24.16
-23.24
-22.89
-23.33
-24.24
-24.78
-24.30
-23.34
-22.83
-23.09
-23.91
-24.61
-24.32
-23.33
-22.69
-22.81
-23.59
-24.45
-24.38
-23.42
-22.70
-22.69
-23.39
-24.28
-24.33
-23.45
-22.63
-22.48
Sampling Rate: 372.00 Hz
-23.08
-23.90
-23.87
-22.93
-22.09
-21.98
-22.60
-23.52
-23.72
-22.95
-22.10
-21.88
-22.40
-23.32
-23.71
-23.08
-22.14
-21.75
-22.11
-22.97
-23.51
-23.04
-22.06
-21.51
-21.77
-22.59
-23.31
-23.05
-22.05
-21.38
-21.46
-22.22
-23.09
-23.02
-22.06
-21.33
-21.31
-21.99
-22.89
-23.00
-22.16
-21.34
-21.18
-21.75
-22.67
-22.99
-22.31
-21.43
-21.13
-21.59
-22.48
-22.93
-22.36
-21.39
-20.90
-21.20
-22.04
-22.66
-22.27
-21.25
-20.61
-20.76
-21.55
-22.36
-22.20
-21.21
-20.50
-20.54
-21.27
-22.14
-22.13
-21.21
-20.40
-20.32
-20.96
-21.87
-22.08
-21.31
-20.45
-20.21
-20.73
-21.65
-22.01
-21.37
-20.45
-20.08
-20.49
-21.37
-21.92
-21.45
-20.48
-19.96
-20.21
-21.03
-21.72
-21.42
-20.41
-19.78
-19.92
-20.73
-21.61
-21.54
-20.60
-19.89
-19.91
-20.62
-21.51
-21.57
-20.68
-19.84
-19.68
-20.28
-21.20
-21.46
-20.72
-19.82
-19.51
-19.97
-20.86
-21.28
-20.69
-19.75
-19.32
-19.67
-20.52
-21.10
-20.68
-19.71
-19.17
-19.39
-20.22
-21.00
-20.82
-19.83
-19.15
-19.21
-19.97
-20.88
-20.87
-19.95
-19.19
-19.16
-19.86
-20.77
-20.92
-20.10
-19.27
-19.07
-19.61
-20.51
-20.84
-20.17
-19.24
-18.88
-19.29
-20.17
-20.64
-20.10
-19.13
-18.65
-18.95
-19.79
-20.44
-20.10
-19.12
-18.51
-18.66
-19.47
-20.31
-20.19
-19.23
-18.51
-18.55
-19.29
-20.18
-20.20
-19.29
-18.48
-18.37
-19.01
-19.94
-20.17
-19.42
-18.56
-18.32
-18.82
-19.73
-20.14
-19.51
-18.57
-18.18
-18.56
-19.45
-20.01
-19.56
-18.60
-18.08
-18.35
-19.19
-19.93
-19.68
-18.69
-18.02
-18.13
-18.93
-19.83
-19.81
-18.89
-18.18
-18.18
-18.89
-19.81
-19.94
-19.11
-18.28
-18.13
-18.71
-19.66
-19.99
-19.31
-18.41
-18.11
-18.58
-19.50
-19.98
-19.45
-18.50
-18.05
-18.39
-19.26
-19.90
-19.55
-18.57
-17.99
-18.18
-19.00
-19.82
-19.66
-18.66
-17.94
-17.98
-18.71
-19.61
-19.62
-18.70
-17.91
-17.81
-18.44
-19.35
-19.55
-18.76
-17.89
-17.65
-18.17
-19.10
-19.51
-18.90
-17.98
-17.60
-18.00
-18.88
-19.44
-18.99
-18.04
-17.55
-17.85
-18.73
-19.48
-19.23
-18.25
-17.62
-17.74
-18.52
-19.41
-19.35
-18.40
-17.67
-17.66
-18.35
-19.24
-19.32
-18.47
-17.65
-17.49
-18.09
-19.01
-19.31
-18.62
-17.74
-17.47
-17.97
-18.90
-19.39
-18.87
-17.94
-17.54
-17.89
-18.77
-19.42
-19.07
-18.11
-17.54
-17.74
-18.57
-19.40
-19.27
-18.31
-17.62
-17.71
-18.47
-19.37
-19.37
-18.46
-17.67
-17.57
-18.22
-19.14
-19.33
-18.55
-17.71
-17.50
-18.05
-18.98
-19.34
-18.68
-17.75
-17.38
-17.80
-18.69
-19.23
-18.74
-17.76
-17.27
-17.54
-18.39
-19.11
-18.81
-17.81
-17.17
-17.29
-18.07
-18.93
-18.85
-17.89
-17.16
-17.18
-17.89
-18.79
-18.86
-17.99
-17.17
-17.02
-17.61
-18.52
-18.77
-18.03
-17.14
-16.87
-17.37
-18.31
-18.77
-18.20
-17.27
-16.87
-17.23
-18.11
-18.68
-18.24
-17.25
-16.70
-16.93
-17.78
Sampling Rate: 372.00 Hz
-18.29
-17.80
-16.84
-16.35
-16.63
-17.49
-18.21
-17.95
-16.98
-16.37
-16.54
-17.38
-18.29
-18.23
-17.29
-16.56
-16.58
-17.32
-18.24
-18.32
-17.45
-16.61
-16.45
-17.03
-17.93
-18.18
-17.43
-16.50
-16.17
-16.62
-17.52
-17.96
-17.39
-16.44
-16.02
-16.38
-17.26
-17.89
-17.51
-16.52
-15.95
-16.17
-17.00
-17.81
-17.65
-16.67
-15.99
-16.07
-16.85
-17.77
-17.76
-16.85
-16.08
-16.02
-16.70
-17.65
-17.86
-17.08
-16.24
-16.02
-16.56
-17.49
-17.87
-17.24
-16.34
-15.99
-16.44
-17.36
-17.92
-17.45
-16.50
-16.01
-16.29
-17.15
-17.86
-17.59
-16.59
-15.94
-16.07
-16.85
-17.72
-17.64
-16.69
-15.96
-15.98
-16.71
-17.67
-17.77
-16.92
-16.10
-15.93
-16.51
-17.42
-17.68
-16.95
-16.04
-15.75
-16.24
-17.16
-17.64
-17.11
-16.20
-15.79
-16.17
-17.08
-17.71
-17.31
-16.34
-15.76
-15.97
-16.78
-17.57
-17.36
-16.35
-15.65
-15.71
-16.45
-17.33
-17.28
-16.33
-15.54
-15.46
-16.10
-17.01
-17.17
-16.37
-15.54
-15.34
-15.90
-16.82
-17.17
-16.49
-15.57
-15.21
-15.64
-16.54
-17.05
-16.56
-15.60
-15.15
-15.46
-16.31
-16.99
-16.67
-15.68
-15.07
-15.24
-16.06
-16.93
-16.86
-15.91
-15.19
-15.22
-15.95
-16.87
-16.93
-16.05
-15.24
-15.12
-15.74
-16.67
-16.93
-16.18
-15.30
-15.03
-15.54
-16.45
-16.86
-16.24
-15.31
-14.90
-15.28
-16.17
-16.75
-16.32
-15.35
-14.83
-15.09
-15.94
-16.69
-16.44
-15.45
-14.80
-14.92
-15.71
-16.61
-16.57
-15.63
-14.88
-14.84
-15.52
-16.42
-16.50
-15.64
-14.79
-14.60
-15.17
-16.11
-16.43
-15.73
-14.84
-14.51
-14.95
-15.86
-16.32
-15.77
-14.81
-14.37
-14.71
-15.58
-16.22
-15.85
-14.88
-14.32
-14.53
-15.35
-16.18
-16.00
-15.02
-14.32
-14.36
-15.12
-16.03
-16.06
-15.15
-14.36
-14.29
-14.97
-15.91
-16.12
-15.34
-14.51
-14.32
-14.89
-15.83
-16.22
-15.60
-14.70
-14.37
-14.82
-15.74
-16.27
-15.80
-14.84
-14.36
-14.65
-15.51
-16.23
-15.92
-14.93
-14.30
-14.44
-15.24
-16.10
-16.02
-15.06
-14.35
-14.38
-15.10
-16.02
-16.07
-15.18
-14.36
-14.23
-14.86
-15.79
-16.06
-15.32
-14.45
-14.19
-14.69
-15.61
-16.04
-15.44
-14.51
-14.10
-14.47
-15.36
-15.95
-15.53
-14.55
-13.99
-14.21
-15.04
-15.82
-15.61
-14.60
-13.92
-14.00
-14.77
-15.67
-15.63
-14.69
-13.89
-13.81
-14.45
-15.36
-15.51
-14.69
-13.83
-13.61
-14.16
-15.09
-15.43
-14.77
-13.85
-13.51
-13.94
-14.83
-15.33
-14.82
-13.86
-13.36
-13.65
-14.51
-15.19
-14.87
-13.89
-13.29
-13.46
-14.29
-15.14
-15.03
-14.07
-13.38
-13.44
-14.22
-15.16
-15.25
-14.40
-13.61
-13.49
-14.12
-15.06
-15.30
-14.55
-13.67
-13.41
-13.90
-14.81
-15.23
-14.63
-13.68
-13.27
-13.64
-14.51
-15.08
-14.65
-13.68
-13.15
-13.39
-14.22
-14.99
-14.77
-13.80
-13.14
-13.24
-14.01
-14.90
-14.85
-13.90
-13.12
-13.08
-13.76
-14.70
-14.85
-14.04
-13.21
-13.04
-13.60
-14.53
-14.87
Sampling Rate: 372.00 Hz
-14.18
-13.46
-13.37
-14.00
-14.94
-15.22
-14.47
-13.53
-13.19
-13.63
-14.51
-14.93
-14.33
-13.34
-12.87
-13.18
-14.01
-14.58
-14.16
-13.15
-12.57
-12.77
-13.57
-14.35
-14.16
-13.16
-12.45
-12.52
-13.28
-14.19
-14.19
-13.28
-12.50
-12.44
-13.10
-14.02
-14.19
-13.38
-12.50
-12.26
-12.80
-13.71
-14.09
-13.45
-12.51
-12.15
-12.57
-13.48
-14.01
-13.52
-12.55
-12.06
-12.35
-13.20
-13.92
-13.64
-12.65
-12.01
-12.15
-12.94
-13.82
-13.74
-12.79
-12.07
-12.09
-12.82
-13.74
-13.84
-13.01
-12.20
-12.06
-12.66
-13.61
-13.92
-13.23
-12.35
-12.08
-12.59
-13.52
-13.99
-13.45
-12.52
-12.12
-12.48
-13.36
-14.02
-13.66
-12.70
-12.15
-12.38
-13.22
-14.05
-13.88
-12.90
-12.21
-12.28
-13.04
-13.95
-13.94
-13.03
-12.24
-12.18
-12.84
-13.77
-13.97
-13.19
-12.35
-12.11
-12.63
-13.56
-13.95
-13.31
-12.38
-12.02
-12.43
-13.32
-13.86
-13.40
-12.45
-11.96
-12.24
-13.08
-13.81
-13.54
-12.55
-11.91
-12.05
-12.86
-13.75
-13.69
-12.72
-11.96
-11.95
-12.65
-13.53
-13.61
-12.73
-11.90
-11.74
-12.32
-13.24
-13.51
-12.79
-11.90
-11.63
-12.09
-13.00
-13.45
-12.87
-11.92
-11.50
-11.85
-12.71
-13.33
-12.92
-11.95
-11.38
-11.60
-12.45
-13.28
-13.11
-12.12
-11.43
-11.50
-12.27
-13.19
-13.21
-12.34
-11.58
-11.53
-12.22
-13.16
-13.36
-12.58
-11.73
-11.53
-12.09
-13.03
-13.43
-12.80
-11.89
-11.54
-11.98
-12.89
-13.45
-12.99
-12.03
-11.53
-11.81
-12.67
-13.40
-13.14
-12.16
-11.50
-11.62
-12.41
-13.29
-13.25
-12.30
-11.58
-11.59
-12.30
-13.22
-13.30
-12.43
-11.59
-11.42
-12.00
-12.94
-13.25
-12.56
-11.67
-11.35
-11.81
-12.72
-13.18
-12.60
-11.62
-11.18
-11.52
-12.41
-13.07
-12.71
-11.74
-11.16
-11.38
-12.22
-13.06
-12.92
-11.95
-11.25
-11.30
-12.05
-12.96
-12.98
-12.08
-11.29
-11.22
-11.87
-12.80
-13.01
-12.24
-11.40
-11.19
-11.72
-12.67
-13.05
-12.41
-11.46
-11.06
-11.44
-12.33
-12.87
-12.40
-11.44
-10.93
-11.21
-12.08
-12.85
-12.61
-11.65
-11.00
-11.11
-11.89
-12.78
-12.71
-11.76
-11.03
-11.03
-11.74
-12.67
-12.81
-11.97
-11.12
-10.95
-11.53
-12.47
-12.78
-12.09
-11.17
-10.84
-11.26
-12.14
-12.61
-12.08
-11.13
-10.69
-11.02
-11.88
-12.53
-12.20
-11.21
-10.62
-10.81
-11.64
-12.49
-12.37
-11.40
-10.71
-10.77
-11.52
-12.43
-12.46
-11.56
-10.75
-10.64
-11.29
-12.23
-12.45
-11.71
-10.85
-10.63
-11.17
-12.11
-12.53
-11.90
-10.96
-10.57
-10.97
-11.86
-12.41
-11.97
-11.00
-10.49
-10.75
-11.59
-12.32
-12.05
-11.04
-10.36
-10.44
-11.21
-12.10
-12.05
-11.11
-10.37
-10.34
-11.03
-11.95
-12.09
-11.25
-10.41
-10.22
-10.80
-11.73
-12.05
-11.36
-10.45
-10.09
-10.52
-11.40
-11.87
-11.32
-10.34
-9.87
-10.16
-11.00
-11.68
-11.36
-10.36
-9.73
-9.87
-10.66
-11.55
-11.49
-10.55
-9.83
-9.82
-10.54
-11.48
-11.62
-10.79
-9.94
Sampling Rate: 373.00 Hz
-9.84
-10.47
-11.33
-11.41
-10.53
-9.65
-9.45
-10.01
-10.94
-11.31
-10.67
-9.75
-9.38
-9.79
-10.69
-11.25
-10.81
-9.83
-9.29
-9.53
-10.38
-11.21
-11.05
-10.06
-9.37
-9.44
-10.20
-11.12
-11.15
-10.26
-9.46
-9.35
-9.98
-10.93
-11.19
-10.46
-9.57
-9.26
-9.71
-10.62
-11.12
-10.61
-9.66
-9.18
-9.47
-10.34
-11.06
-10.76
-9.76
-9.08
-9.16
-9.94
-10.84
-10.82
-9.88
-9.06
-8.95
-9.58
-10.49
-10.72
-9.96
-9.05
-8.73
-9.20
-10.12
-10.62
-10.10
-9.16
-8.69
-9.00
-9.88
-10.65
-10.40
-9.41
-8.76
-8.85
-9.62
-10.56
-10.60
-9.74
-8.98
-8.92
-9.59
-10.57
-10.90
-10.21
-9.34
-9.06
-9.53
-10.46
-10.96
-10.45
-9.47
-8.97
-9.27
-10.13
-10.87
-10.60
-9.61
-8.96
-9.05
-9.81
-10.70
-10.66
-9.71
-8.86
-8.73
-9.33
-10.26
-10.55
-9.83
-8.92
-8.60
-9.05
-9.95
-10.49
-10.02
-9.08
-8.60
-8.89
-9.76
-10.60
-10.45
-9.51
-8.87
-8.96
-9.76
-10.71
-10.79
-9.93
-9.13
-9.00
-9.60
-10.55
-10.89
-10.21
-9.31
-8.98
-9.42
-10.33
-10.88
-10.43
-9.49
-8.98
-9.24
-10.10
-10.90
-10.69
-9.71
-9.02
-9.08
-9.84
-10.75
-10.78
-9.88
-9.05
-8.92
-9.51
-10.45
-10.77
-10.06
-9.15
-8.81
-9.25
-10.15
-10.68
-10.20
-9.24
-8.73
-8.98
-9.82
-10.60
-10.40
-9.42
-8.72
-8.78
-9.52
-10.44
-10.50
-9.63
-8.81
-8.67
-9.29
-10.24
-10.60
-9.93
-9.03
-8.70
-9.14
-10.07
-10.67
-10.25
-9.31
-8.82
-9.09
-9.95
-10.80
-10.66
-9.68
-8.96
-9.01
-9.76
-10.70
-10.81
-9.99
-9.19
-9.03
-9.62
-10.58
-10.96
-10.32
-9.41
-9.08
-9.52
-10.44
-11.03
-10.62
-9.68
-9.16
-9.40
-10.25
-11.05
-10.88
-9.91
-9.20
-9.25
-9.97
-10.88
-10.94
-10.06
-9.23
-9.08
-9.67
-10.61
-10.94
-10.26
-9.33
-8.98
-9.41
-10.33
-10.87
-10.41
-9.41
-8.87
-9.11
-9.96
-10.78
-10.61
-9.63
-8.93
-8.97
-9.73
-10.67
-10.77
-9.94
-9.12
-8.98
-9.59
-10.57
-10.95
-10.31
-9.40
-9.06
-9.50
-10.42
-11.02
-10.59
-9.64
-9.09
-9.32
-10.15
-10.96
-10.79
-9.83
-9.14
-9.21
-9.97
-10.92
-11.02
-10.19
-9.40
-9.29
-9.92
-10.91
-11.29
-10.63
-9.74
-9.42
-9.89
-10.83
-11.39
-10.92
-9.98
-9.49
-9.76
-10.61
-11.38
-11.15
-10.17
-9.48
-9.56
-10.32
-11.21
-11.17
-10.22
-9.39
-9.29
-9.92
-10.83
-11.06
-10.31
-9.44
-9.16
-9.65
-10.57
-11.03
-10.48
-9.51
-9.05
-9.36
-10.21
-10.90
-10.58
-9.56
-8.89
-8.98
-9.74
-10.63
-10.61
-9.65
-8.84
-8.75
-9.40
-10.35
-10.58
-9.83
-8.95
-8.67
-9.13
-10.04
-10.48
-9.92
-8.94
-8.47
-8.76
-9.60
-10.32
-10.03
-9.04
-8.38
-8.48
-9.26
-10.18
-10.19
-9.28
-8.48
-8.38
-9.01
-9.96
-10.24
-9.52
-8.62
-8.32
-8.79
-9.72
-10.29
-9.81
-8.81
-8.27
-8.50
-9.33
-10.14
-9.98
-8.97
-8.21
-8.22
-8.92
Sampling Rate: 377.00 Hz
-9.66
-9.48
-8.46
-7.70
-7.68
-8.39
-9.34
-9.56
-8.79
-7.93
-7.69
-8.23
-9.18
-9.67
-9.14
-8.19
-7.71
-8.00
-8.87
-9.63
-9.40
-8.40
-7.69
-7.75
-8.52
-9.47
-9.55
-8.69
-7.84
-7.67
-8.25
-9.22
-9.63
-9.04
-8.13
-7.76
-8.16
-9.08
-9.76
-9.42
-8.43
-7.80
-7.93
-8.74
-9.67
-9.66
-8.76
-7.98
-7.91
-8.59
-9.56
-9.85
-9.12
-8.23
-7.91
-8.37
-9.29
-9.84
-9.38
-8.41
-7.87
-8.12
-8.99
-9.84
-9.70
-8.70
-7.94
-7.95
-8.65
-9.58
-9.72
-8.90
-8.03
-7.78
-8.29
-9.21
-9.65
-9.07
-8.09
-7.63
-7.96
-8.84
-9.58
-9.33
-8.32
-7.64
-7.71
-8.49
-9.43
-9.49
-8.62
-7.81
-7.68
-8.28
-9.24
-9.60
-8.95
-8.01
-7.64
-8.04
-8.93
-9.57
-9.17
-8.16
-7.56
-7.76
-8.59
-9.52
-9.50
-8.59
-7.82
-7.77
-8.46
-9.41
-9.67
-8.93
-8.03
-7.71
-8.17
-9.07
-9.57
-9.05
-8.05
-7.51
-7.77
-8.64
-9.48
-9.35
-8.37
-7.66
-7.70
-8.44
-9.37
-9.53
-8.71
-7.83
-7.61
-8.16
-9.11
-9.57
-9.01
-8.07
-7.64
-7.98
-8.87
-9.58
-9.31
-8.32
-7.67
-7.77
-8.56
-9.47
-9.48
-8.58
-7.77
-7.65
-8.28
-9.24
-9.55
-8.88
-7.95
-7.60
-8.02
-8.93
-9.52
-9.09
-8.09
-7.51
-7.71
-8.56
-9.46
-9.37
-8.42
-7.68
-7.67
-8.38
-9.34
-9.56
-8.78
-7.90
-7.61
-8.10
-9.01
-9.49
-8.95
-7.96
-7.44
-7.69
-8.53
-9.30
-9.08
-8.07
-7.35
-7.39
-8.14
-9.05
-9.13
-8.26
-7.41
-7.22
-7.79
-8.73
-9.14
-8.54
-7.61
-7.21
-7.58
-8.49
-9.17
-8.87
-7.88
-7.24
-7.37
-8.15
-9.07
-9.08
-8.16
-7.37
-7.26
-7.90
-8.85
-9.17
-8.47
-7.54
-7.20
-7.62
-8.54
-9.12
-8.69
-7.71
-7.16
-7.38
-8.22
-9.08
-8.96
-7.98
-7.22
-7.21
-7.92
-8.88
-9.09
-8.30
-7.42
-7.15
-7.64
-8.58
-9.07
-8.54
-7.57
-7.06
-7.33
-8.18
-8.94
-8.71
-7.69
-6.98
-7.01
-7.76
-8.67
-8.74
-7.86
-7.01
-6.84
-7.42
-8.38
-8.77
-8.15
-7.20
-6.80
-7.17
-8.06
-8.72
-8.37
-7.35
-6.69
-6.83
-7.64
-8.57
-8.56
-7.66
-6.88
-6.80
-7.46
-8.42
-8.70
-7.98
-7.05
-6.70
-7.13
-8.03
-8.58
-8.12
-7.13
-6.56
-6.80
-7.65
-8.50
-8.38
-7.40
-6.66
-6.67
-7.41
-8.38
-8.58
-7.80
-6.94
-6.71
-7.23
-8.16
-8.61
-8.05
-7.09
-6.64
-6.98
-7.88
-8.61
-8.35
-7.36
-6.69
-6.79
-7.58
-8.51
-8.54
-7.66
-6.87
-6.77
-7.43
-8.39
-8.74
-8.06
-7.13
-6.75
-7.15
-8.03
-8.58
-8.13
-7.10
-6.50
-6.66
-7.46
-8.31
-8.19
-7.20
-6.41
-6.36
-7.03
-7.95
-8.12
-7.33
-6.43
-6.14
-6.64
-7.58
-8.06
-7.53
-6.55
-6.06
-6.34
-7.19
-7.94
-7.70
-6.69
-5.97
-6.02
-6.77
-7.69
-7.76
-6.88
-6.03
-5.83
-6.39
-7.32
-7.70
-7.06
-6.11
-5.68
-6.04
-6.92
-7.56
Sampling Rate: 379.00 Hz
-7.12
-6.27
-5.91
-6.29
-7.20
-7.91
-7.63
-6.63
-5.95
-6.02
-6.80
-7.72
-7.76
-6.88
-6.09
-5.99
-6.61
-7.56
-7.87
-7.17
-6.20
-5.82
-6.23
-7.14
-7.76
-7.35
-6.35
-5.75
-5.91
-6.73
-7.60
-7.52
-6.55
-5.78
-5.73
-6.41
-7.35
-7.56
-6.78
-5.90
-5.63
-6.14
-7.08
-7.56
-7.04
-6.06
-5.56
-5.83
-6.69
-7.46
-7.22
-6.20
-5.48
-5.54
-6.31
-7.24
-7.33
-6.46
-5.61
-5.43
-5.98
-6.91
-7.31
-6.68
-5.72
-5.29
-5.63
-6.51
-7.17
-6.83
-5.81
-5.16
-5.28
-6.07
-6.99
-6.99
-6.06
-5.27
-5.17
-5.83
-6.79
-7.10
-6.41
-5.49
-5.16
-5.60
-6.51
-7.07
-6.60
-5.59
-5.01
-5.22
-6.07
-6.91
-6.78
-5.80
-5.05
-5.03
-5.72
-6.66
-6.86
-6.09
-5.22
-4.96
-5.47
-6.42
-6.91
-6.38
-5.44
-4.98
-5.30
-6.19
-6.95
-6.70
-5.70
-5.00
-5.05
-5.80
-6.69
-6.74
-5.85
-5.00
-4.83
-5.43
-6.40
-6.82
-6.22
-5.31
-4.93
-5.33
-6.25
-6.93
-6.60
-5.61
-4.99
-5.13
-5.93
-6.84
-6.82
-5.90
-5.13
-5.06
-5.72
-6.69
-6.99
-6.28
-5.39
-5.09
-5.58
-6.52
-7.10
-6.64
-5.67
-5.16
-5.42
-6.28
-7.10
-6.94
-5.94
-5.20
-5.19
-5.87
-6.78
-6.89
-6.04
-5.17
-4.93
-5.46
-6.38
-6.80
-6.21
-5.24
-4.79
-5.11
-5.99
-6.69
-6.40
-5.37
-4.69
-4.78
-5.57
-6.50
-6.53
-5.64
-4.82
-4.69
-5.29
-6.23
-6.56
-5.86
-4.93
-4.55
-4.96
-5.85
-6.42
-5.97
-4.96
-4.38
-4.58
-5.42
-6.28
-6.17
-5.19
-4.45
-4.46
-5.19
-6.14
-6.33
-5.55
-4.69
-4.45
-4.99
-5.95
-6.42
-5.88
-4.91
-4.43
-4.72
-5.58
-6.32
-6.08
-5.08
-4.39
-4.46
-5.23
-6.15
-6.20
-5.32
-4.49
-4.35
-4.95
-5.92
-6.33
-5.72
-4.78
-4.40
-4.78
-5.66
-6.29
-5.92
-4.93
-4.32
-4.48
-5.30
-6.21
-6.17
-5.22
-4.42
-4.34
-4.99
-5.93
-6.19
-5.45
-4.53
-4.21
-4.67
-5.58
-6.09
-5.58
-4.60
-4.09
-4.34
-5.19
-6.01
-5.84
-4.84
-4.13
-4.17
-4.92
-5.86
-5.97
-5.14
-4.31
-4.14
-4.72
-5.69
-6.12
-5.52
-4.57
-4.15
-4.49
-5.38
-6.07
-5.78
-4.78
-4.14
-4.25
-5.03
-5.96
-5.99
-5.10
-4.30
-4.18
-4.81
-5.77
-6.10
-5.43
-4.51
-4.16
-4.59
-5.51
-6.14
-5.74
-4.77
-4.23
-4.46
-5.33
-6.26
-6.20
-5.26
-4.53
-4.52
-5.22
-6.17
-6.39
-5.64
-4.77
-4.51
-5.02
-5.97
-6.48
-5.98
-5.01
-4.51
-4.80
-5.67
-6.43
-6.21
-5.21
-4.49
-4.56
-5.33
-6.28
-6.40
-5.57
-4.76
-4.60
-5.18
-6.14
-6.55
-5.95
-5.03
-4.64
-5.03
-5.93
-6.62
-6.29
-5.27
-4.63
-4.75
-5.55
-6.48
-6.46
-5.55
-4.75
-4.65
-5.28
-6.21
-6.49
-5.76
-4.84
-4.51
-4.96
-5.86
-6.41
-5.94
-4.97
-4.42
-4.64
-5.48
-6.33
-6.21
-5.23
-4.51
-4.52
-5.23
-6.18
-6.33
-5.53
Sampling Rate: 379.00 Hz
-4.86
-4.89
-5.62
-6.59
-6.85
-6.11
-5.22
-4.92
-5.38
-6.29
-6.78
-6.26
-5.27
-4.75
-5.02
-5.87
-6.65
-6.45
-5.45
-4.72
-4.75
-5.49
-6.40
-6.47
-5.58
-4.70
-4.48
-5.01
-5.92
-6.31
-5.68
-4.71
-4.28
-4.62
-5.49
-6.14
-5.80
-4.80
-4.15
-4.28
-5.07
-5.98
-5.95
-5.01
-4.20
-4.07
-4.70
-5.64
-5.91
-5.21
-4.29
-3.96
-4.39
-5.30
-5.86
-5.42
-4.42
-3.88
-4.10
-4.94
-5.77
-5.64
-4.65
-3.91
-3.93
-4.67
-5.62
-5.79
-4.97
-4.12
-3.89
-4.43
-5.37
-5.83
-5.27
-4.32
-3.87
-4.22
-5.12
-5.86
-5.60
-4.58
-3.90
-4.00
-4.78
-5.72
-5.77
-4.90
-4.09
-3.94
-4.55
-5.50
-5.84
-5.16
-4.18
-3.78
-4.15
-5.01
-5.59
-5.15
-4.10
-3.46
-3.60
-4.38
-5.26
-5.19
-4.24
-3.47
-3.40
-4.08
-5.02
-5.24
-4.47
-3.56
-3.26
-3.76
-4.70
-5.24
-4.75
-3.78
-3.28
-3.56
-4.42
-5.24
-5.08
-4.09
-3.38
-3.43
-4.18
-5.11
-5.22
-4.37
-3.51
-3.32
-3.91
-4.88
-5.35
-4.77
-3.82
-3.39
-3.73
-4.62
-5.31
-5.02
-4.01
-3.36
-3.47
-4.26
-5.19
-5.20
-4.31
-3.52
-3.42
-4.06
-5.03
-5.37
-4.70
-3.78
-3.44
-3.88
-4.81
-5.40
-4.98
-4.00
-3.43
-3.65
-4.50
-5.40
-5.32
-4.37
-3.62
-3.61
-4.32
-5.28
-5.51
-4.75
-3.89
-3.63
-4.13
-5.07
-5.60
-5.10
-4.15
-3.66
-3.96
-4.85
-5.66
-5.46
-4.47
-3.76
-3.81
-4.56
-5.48
-5.55
-4.68
-3.83
-3.65
-4.24
-5.19
-5.58
-4.96
-4.00
-3.58
-3.93
-4.79
-5.44
-5.09
-4.07
-3.43
-3.57
-4.36
-5.28
-5.25
-4.34
-3.54
-3.45
-4.08
-5.01
-5.29
-4.55
-3.63
-3.29
-3.73
-4.64
-5.19
-4.73
-3.73
-3.16
-3.37
-4.21
-5.05
-4.90
-3.90
-3.13
-3.12
-3.83
-4.76
-4.91
-4.13
-3.27
-3.04
-3.57
-4.53
-5.01
-4.48
-3.54
-3.08
-3.37
-4.23
-5.00
-4.79
-3.80
-3.12
-3.19
-3.94
-4.86
-4.92
-4.05
-3.22
-3.07
-3.67
-4.63
-5.04
-4.43
-3.51
-3.13
-3.52
-4.41
-5.04
-4.66
-3.64
-2.99
-3.10
-3.88
-4.77
-4.72
-3.77
-2.97
-2.89
-3.53
-4.44
-4.67
-3.89
-2.93
-2.57
-2.98
-3.84
-4.34
-3.83
-2.81
-2.26
-2.48
-3.32
-4.14
-3.99
-3.00
-2.27
-2.28
-3.01
-3.95
-4.10
-3.29
-2.43
-2.20
-2.73
-3.67
-4.12
-3.55
-2.60
-2.16
-2.51
-3.41
-4.17
-3.91
-2.92
-2.25
-2.36
-3.16
-4.12
-4.18
-3.30
-2.47
-2.34
-2.95
-3.91
-4.27
-3.63
-2.70
-2.32
-2.72
-3.62
-4.26
-3.89
-2.91
-2.31
-2.49
-3.32
-4.25
-4.23
-3.32
-2.56
-2.49
-3.16
-4.11
-4.36
-3.60
-2.68
-2.34
-2.79
-3.70
-4.23
-3.74
-2.72
-2.18
-2.40
-3.23
-4.06
-3.92
-2.93
-2.20
-2.22
-2.94
-3.88
-4.02
-3.22
-2.37
-2.17
-2.73
-3.71
-4.18
-3.63
-2.66
-2.19
-2.51
-3.41
-4.17
-3.91
-2.91
-2.21
-2.29
Sampling Rate: 380.00 Hz
-2.99
-3.70
-3.46
-2.42
-1.67
-1.71
-2.47
-3.41
-3.52
-2.69
-1.88
-1.73
-2.35
-3.36
-3.85
-3.29
-2.38
-1.98
-2.38
-3.33
-4.06
-3.75
-2.75
-2.12
-2.29
-3.13
-4.13
-4.17
-3.26
-2.45
-2.35
-3.01
-4.00
-4.36
-3.65
-2.67
-2.30
-2.76
-3.70
-4.31
-3.87
-2.82
-2.21
-2.44
-3.34
-4.28
-4.20
-3.18
-2.37
-2.36
-3.14
-4.18
-4.44
-3.62
-2.66
-2.40
-2.99
-4.03
-4.61
-4.06
-3.00
-2.48
-2.82
-3.82
-4.73
-4.50
-3.33
-2.49
-2.54
-3.39
-4.46
-4.58
-3.60
-2.63
-2.40
-3.06
-4.18
-4.70
-4.04
-2.96
-2.52
-2.99
-4.09
-4.96
-4.65
-3.50
-2.77
-2.93
-3.89
-5.00
-5.06
-4.05
-3.15
-3.03
-3.77
-4.90
-5.31
-4.52
-3.43
-3.01
-3.49
-4.56
-5.26
-4.78
-3.62
-2.96
-3.20
-4.18
-5.20
-5.14
-4.03
-3.16
-3.16
-3.98
-5.08
-5.32
-4.44
-3.42
-3.10
-3.68
-4.77
-5.36
-4.77
-3.65
-3.08
-3.42
-4.44
-5.37
-5.15
-3.99
-3.17
-3.24
-4.11
-5.19
-5.30
-4.32
-3.34
-3.12
-3.78
-4.88
-5.36
-4.67
-3.56
-3.06
-3.46
-4.49
-5.28
-4.91
-3.74
-2.98
-3.10
-4.02
-5.08
-5.10
-4.05
-3.09
-2.94
-3.64
-4.73
-5.11
-4.33
-3.26
-2.85
-3.35
-4.41
-5.07
-4.57
-3.41
-2.71
-2.92
-3.87
-4.87
-4.73
-3.57
-2.68
-2.61
-3.38
-4.44
-4.65
-3.73
-2.68
-2.34
-2.90
-3.95
-4.48
-3.84
-2.68
-2.09
-2.39
-3.38
-4.25
-3.99
-2.81
-1.99
-2.03
-2.88
-3.91
-3.96
-2.91
-1.90
-1.68
-2.35
-3.47
-3.94
-3.23
-2.14
-1.68
-2.13
-3.18
-3.96
-3.58
-2.43
-1.71
-1.89
-2.84
-3.92
-3.91
-2.83
-1.91
-1.83
-2.59
-3.69
-4.01
-3.17
-2.11
-1.72
-2.23
-3.29
-3.93
-3.41
-2.26
-1.60
-1.86
-2.83
-3.82
-3.67
-2.53
-1.65
-1.65
-2.46
-3.54
-3.71
-2.77
-1.73
-1.45
-2.07
-3.16
-3.72
-3.09
-1.95
-1.37
-1.70
-2.69
-3.56
-3.27
-2.09
-1.28
-1.33
-2.19
-3.27
-3.37
-2.38
-1.45
-1.30
-2.03
-3.16
-3.65
-2.93
-1.84
-1.41
-1.86
-2.93
-3.73
-3.36
-2.23
-1.55
-1.76
-2.73
-3.85
-3.85
-2.79
-1.87
-1.77
-2.53
-3.65
-3.97
-3.12
-2.05
-1.65
-2.16
-3.22
-3.88
-3.35
-2.19
-1.54
-1.81
-2.78
-3.76
-3.61
-2.47
-1.59
-1.59
-2.41
-3.50
-3.67
-2.73
-1.68
-1.39
-1.99
-3.08
-3.63
-2.99
-1.88
-1.35
-1.74
-2.76
-3.65
-3.38
-2.22
-1.41
-1.50
-2.40
-3.48
-3.55
-2.55
-1.62
-1.46
-2.15
-3.26
-3.70
-2.95
-1.85
-1.39
-1.83
-2.86
-3.61
-3.19
-2.05
-1.35
-1.54
-2.52
-3.61
-3.61
-2.55
-1.65
-1.55
-2.31
-3.40
-3.73
-2.88
-1.83
-1.48
-2.03
-3.11
-3.75
-3.21
-2.06
-1.41
-1.69
-2.68
-3.64
-3.48
-2.32
-1.46
-1.46
-2.29
-3.37
-3.52
-2.56
-1.55
-1.31
-1.94
-3.03
-3.55
-2.87
-1.72
-1.16
-1.51
-2.50
-3.34
Sampling Rate: 380.00 Hz
-2.95
-1.95
-1.46
-1.84
-2.87
-3.80
-3.56
-2.38
-1.55
-1.61
-2.48
-3.54
-3.64
-2.66
-1.69
-1.49
-2.18
-3.27
-3.73
-2.98
-1.86
-1.37
-1.78
-2.81
-3.57
-3.16
-1.98
-1.24
-1.39
-2.30
-3.35
-3.34
-2.28
-1.34
-1.24
-1.99
-3.10
-3.46
-2.64
-1.56
-1.16
-1.67
-2.74
-3.42
-2.94
-1.81
-1.18
-1.45
-2.45
-3.46
-3.35
-2.24
-1.39
-1.40
-2.25
-3.36
-3.57
-2.62
-1.59
-1.29
-1.88
-2.97
-3.54
-2.91
-1.79
-1.24
-1.59
-2.59
-3.46
-3.18
-2.03
-1.22
-1.31
-2.21
-3.28
-3.33
-2.31
-1.32
-1.10
-1.75
-2.87
-3.35
-2.65
-1.56
-1.10
-1.55
-2.60
-3.39
-3.00
-1.84
-1.10
-1.25
-2.18
-3.22
-3.18
-2.09
-1.14
-1.02
-1.78
-2.89
-3.22
-2.39
-1.31
-0.90
-1.39
-2.44
-3.09
-2.56
-1.42
-0.77
-1.02
-2.02
-3.03
-2.90
-1.77
-0.90
-0.91
-1.74
-2.82
-3.03
-2.11
-1.10
-0.82
-1.43
-2.52
-3.05
-2.39
-1.25
-0.70
-1.04
-2.04
-2.94
-2.65
-1.47
-0.66
-0.73
-1.62
-2.70
-2.79
-1.76
-0.80
-0.62
-1.31
-2.43
-2.90
-2.17
-1.04
-0.55
-0.97
-2.02
-2.80
-2.43
-1.26
-0.52
-0.68
-1.61
-2.68
-2.68
-1.64
-0.75
-0.64
-1.40
-2.51
-2.89
-2.10
-1.05
-0.67
-1.19
-2.26
-2.95
-2.48
-1.33
-0.66
-0.89
-1.87
-2.89
-2.78
-1.63
-0.74
-0.71
-1.51
-2.61
-2.87
-1.98
-0.97
-0.67
-1.27
-2.35
-2.93
-2.31
-1.16
-0.59
-0.90
-1.90
-2.82
-2.60
-1.46
-0.65
-0.72
-1.58
-2.65
-2.75
-1.76
-0.79
-0.59
-1.27
-2.39
-2.87
-2.17
-1.07
-0.59
-1.03
-2.07
-2.88
-2.51
-1.35
-0.61
-0.75
-1.66
-2.74
-2.76
-1.74
-0.84
-0.76
-1.52
-2.66
-3.04
-2.24
-1.18
-0.80
-1.33
-2.43
-3.13
-2.67
-1.55
-0.93
-1.20
-2.22
-3.25
-3.17
-2.08
-1.23
-1.22
-2.03
-3.16
-3.42
-2.54
-1.54
-1.27
-1.88
-3.00
-3.63
-3.07
-1.99
-1.47
-1.85
-2.92
-3.87
-3.66
-2.51
-1.70
-1.79
-2.70
-3.79
-3.92
-2.94
-1.99
-1.81
-2.51
-3.66
-4.18
-3.54
-2.50
-2.08
-2.54
-3.60
-4.41
-4.06
-2.93
-2.23
-2.43
-3.41
-4.53
-4.57
-3.52
-2.63
-2.54
-3.30
-4.41
-4.76
-3.96
-2.91
-2.51
-3.02
-4.09
-4.78
-4.28
-3.14
-2.50
-2.78
-3.79
-4.80
-4.67
-3.54
-2.70
-2.71
-3.55
-4.65
-4.84
-3.90
-2.87
-2.58
-3.16
-4.22
-4.76
-4.10
-2.93
-2.35
-2.68
-3.67
-4.56
-4.29
-3.12
-2.30
-2.37
-3.25
-4.30
-4.38
-3.35
-2.38
-2.19
-2.87
-3.97
-4.43
-3.71
-2.63
-2.18
-2.65
-3.71
-4.47
-4.06
-2.88
-2.16
-2.35
-3.32
-4.40
-4.39
-3.31
-2.39
-2.29
-3.02
-4.10
-4.40
-3.56
-2.50
-2.11
-2.64
-3.70
-4.36
-3.84
-2.71
-2.08
-2.35
-3.35
-4.33
-4.18
-3.02
-2.15
-2.13
-2.95
-4.04
-4.25
-3.31
-2.28
-2.00
-2.61
-3.72
-4.29
-3.68
-2.54
Sampling Rate: 380.00 Hz
-2.10
-2.55
-3.54
-4.08
-3.47
-2.30
-1.66
-1.94
-2.93
-3.87
-3.68
-2.51
-1.64
-1.66
-2.48
-3.52
-3.64
-2.66
-1.66
-1.43
-2.07
-3.17
-3.69
-3.01
-1.91
-1.39
-1.80
-2.82
-3.62
-3.27
-2.09
-1.33
-1.46
-2.37
-3.44
-3.44
-2.38
-1.42
-1.26
-1.97
-3.05
-3.40
-2.58
-1.49
-1.09
-1.57
-2.61
-3.29
-2.82
-1.70
-1.05
-1.30
-2.30
-3.34
-3.26
-2.16
-1.30
-1.28
-2.11
-3.22
-3.47
-2.57
-1.55
-1.25
-1.85
-2.97
-3.55
-2.95
-1.81
-1.22
-1.54
-2.55
-3.47
-3.22
-2.03
-1.17
-1.20
-2.07
-3.13
-3.21
-2.21
-1.20
-0.96
-1.61
-2.70
-3.18
-2.50
-1.40
-0.91
-1.32
-2.37
-3.22
-2.90
-1.75
-1.00
-1.14
-2.08
-3.19
-3.24
-2.21
-1.26
-1.12
-1.84
-2.94
-3.32
-2.52
-1.39
-0.92
-1.36
-2.37
-3.05
-2.57
-1.37
-0.64
-0.83
-1.75
-2.78
-2.70
-1.57
-0.65
-0.58
-1.35
-2.44
-2.74
-1.88
-0.83
-0.46
-0.99
-2.06
-2.71
-2.15
-1.02
-0.43
-0.72
-1.72
-2.71
-2.57
-1.44
-0.61
-0.65
-1.50
-2.60
-2.81
-1.90
-0.91
-0.66
-1.30
-2.41
-2.97
-2.33
-1.21
-0.70
-1.09
-2.12
-3.02
-2.74
-1.58
-0.77
-0.85
-1.74
-2.81
-2.87
-1.84
-0.86
-0.66
-1.34
-2.46
-2.92
-2.18
-1.10
-0.67
-1.15
-2.21
-2.97
-2.56
-1.42
-0.71
-0.89
-1.85
-2.91
-2.87
-1.77
-0.85
-0.77
-1.53
-2.62
-2.93
-2.09
-1.02
-0.64
-1.14
-2.20
-2.80
-2.23
-1.06
-0.41
-0.66
-1.63
-2.60
-2.43
-1.25
-0.36
-0.35
-1.16
-2.21
-2.38
-1.43
-0.40
-0.10
-0.70
-1.79
-2.36
-1.73
-0.60
-0.05
-0.41
-1.42
-2.34
-2.09
-0.91
-0.08
-0.13
-0.99
-2.05
-2.13
-1.10
-0.10
0.13
-0.52
-1.62
-2.09
-1.38
-0.29
0.17
-0.25
-1.28
-2.06
-1.66
-0.50
0.26
0.12
-0.82
-1.89
-1.90
-0.85
0.09
0.23
-0.48
-1.56
-1.94
-1.14
-0.04
0.38
-0.09
-1.14
-1.86
-1.38
-0.20
0.49
0.27
-0.70
-1.74
-1.70
-0.62
0.26
0.33
-0.43
-1.52
-1.82
-0.95
0.10
0.45
-0.11
-1.20
-1.86
-1.34
-0.21
0.42
0.15
-0.82
-1.80
-1.65
-0.49
0.37
0.39
-0.43
-1.50
-1.68
-0.72
0.31
0.61
0.03
-1.05
-1.60
-0.96
0.18
0.75
0.44
-0.55
-1.45
-1.18
-0.00
0.82
0.78
-0.06
-1.12
-1.22
-0.20
0.80
1.04
0.40
-0.71
-1.21
-0.51
0.60
1.09
0.69
-0.33
-1.14
-0.81
0.37
1.14
1.01
0.08
-1.02
-1.09
-0.07
0.87
1.00
0.27
-0.86
-1.32
-0.58
0.52
0.98
0.53
-0.53
-1.27
-0.86
0.30
1.01
0.85
-0.10
-1.16
-1.12
-0.05
0.85
0.92
0.15
-0.96
-1.33
-0.52
0.53
0.92
0.41
-0.66
-1.38
-0.93
0.18
0.79
0.51
-0.51
-1.57
-1.52
-0.46
0.36
0.31
-0.54
-1.67
-1.94
-1.06
-0.05
0.23
-0.38
-1.51
-2.14
-1.59
-0.48
0.07
-0.29
Sampling Rate: 380.00 Hz
-1.27
-1.91
-1.37
-0.23
0.39
0.08
-0.93
-1.96
-1.88
-0.80
-0.00
-0.03
-0.91
-2.06
-2.33
-1.46
-0.46
-0.16
-0.77
-1.88
-2.49
-1.90
-0.79
-0.21
-0.56
-1.60
-2.54
-2.33
-1.17
-0.36
-0.43
-1.33
-2.44
-2.56
-1.59
-0.62
-0.43
-1.12
-2.23
-2.72
-2.05
-0.96
-0.49
-0.91
-1.96
-2.80
-2.46
-1.31
-0.57
-0.71
-1.64
-2.73
-2.75
-1.71
-0.80
-0.67
-1.41
-2.51
-2.88
-2.10
-1.01
-0.57
-1.03
-2.07
-2.78
-2.31
-1.16
-0.50
-0.73
-1.72
-2.77
-2.72
-1.64
-0.78
-0.75
-1.56
-2.66
-2.95
-2.07
-1.02
-0.69
-1.26
-2.36
-2.98
-2.42
-1.29
-0.71
-1.00
-2.00
-2.96
-2.76
-1.60
-0.76
-0.78
-1.61
-2.67
-2.81
-1.84
-0.83
-0.57
-1.19
-2.30
-2.83
-2.18
-1.09
-0.58
-0.98
-2.01
-2.86
-2.53
-1.37
-0.59
-0.70
-1.63
-2.73
-2.79
-1.77
-0.83
-0.71
-1.45
-2.60
-3.05
-2.31
-1.23
-0.80
-1.28
-2.33
-3.06
-2.61
-1.45
-0.73
-0.91
-1.85
-2.90
-2.83
-1.73
-0.82
-0.75
-1.51
-2.60
-2.88
-1.99
-0.90
-0.51
-1.04
-2.11
-2.74
-2.19
-1.03
-0.39
-0.65
-1.60
-2.54
-2.36
-1.21
-0.35
-0.38
-1.22
-2.30
-2.45
-1.48
-0.46
-0.18
-0.78
-1.88
-2.44
-1.81
-0.70
-0.15
-0.52
-1.55
-2.41
-2.12
-0.96
-0.17
-0.27
-1.17
-2.21
-2.25
-1.20
-0.22
-0.05
-0.73
-1.82
-2.24
-1.48
-0.37
0.11
-0.34
-1.40
-2.17
-1.77
-0.62
0.09
-0.09
-1.05
-2.14
-2.15
-1.11
-0.22
-0.16
-0.95
-2.06
-2.38
-1.53
-0.45
-0.06
-0.57
-1.63
-2.28
-1.75
-0.58
0.09
-0.15
-1.13
-2.12
-1.99
-0.85
-0.00
-0.00
-0.84
-1.95
-2.19
-1.29
-0.27
0.04
-0.54
-1.62
-2.21
-1.61
-0.50
0.06
-0.28
-1.29
-2.21
-1.98
-0.80
0.05
0.00
-0.86
-1.93
-2.06
-1.08
-0.06
0.22
-0.40
-1.49
-2.00
-1.34
-0.24
0.28
-0.10
-1.12
-1.95
-1.61
-0.44
0.34
0.25
-0.65
-1.71
-1.76
-0.71
0.26
0.43
-0.28
-1.39
-1.81
-1.05
0.02
0.47
0.01
-1.03
-1.77
-1.31
-0.13
0.60
0.43
-0.49
-1.53
-1.46
-0.35
0.59
0.69
-0.07
-1.16
-1.46
-0.57
0.53
0.96
0.50
-0.51
-1.09
-0.52
0.66
1.33
1.09
0.12
-0.87
-0.74
0.38
1.22
1.20
0.35
-0.77
-1.03
-0.15
0.83
1.12
0.49
-0.61
-1.19
-0.57
0.59
1.19
0.88
-0.11
-1.03
-0.81
0.37
1.20
1.15
0.28
-0.80
-0.95
0.01
0.98
1.20
0.53
-0.60
-1.13
-0.49
0.59
1.08
0.68
-0.37
-1.26
-0.98
0.18
0.97
0.86
-0.04
-1.11
-1.17
-0.16
0.78
0.95
0.25
-0.85
-1.28
-0.53
0.58
1.05
0.61
-0.44
-1.22
-0.84
0.27
0.97
0.76
-0.22
-1.34
-1.36
-0.33
0.55
0.61
-0.18
-1.31
-1.67
-0.90
0.13
0.50
-0.01
-1.08
-1.79
-1.35
-0.24
0.36
0.07
-0.96
-2.01
Sampling Rate: 380.00 Hz
-1.81
-0.82
-0.22
-0.49
-1.49
-2.58
-2.55
-1.46
-0.54
-0.42
-1.16
-2.23
-2.53
-1.66
-0.58
-0.20
-0.73
-1.78
-2.40
-1.85
-0.71
-0.07
-0.33
-1.30
-2.28
-2.13
-1.00
-0.15
-0.13
-0.94
-2.00
-2.20
-1.26
-0.24
0.06
-0.53
-1.61
-2.18
-1.59
-0.49
0.06
-0.27
-1.27
-2.16
-1.92
-0.76
0.06
-0.01
-0.86
-1.91
-1.99
-0.98
-0.00
0.22
-0.43
-1.52
-2.02
-1.33
-0.21
0.32
-0.06
-1.05
-1.84
-1.48
-0.32
0.44
0.34
-0.56
-1.64
-1.67
-0.66
0.27
0.40
-0.32
-1.42
-1.83
-1.07
0.01
0.45
-0.00
-1.05
-1.78
-1.36
-0.23
0.46
0.25
-0.69
-1.75
-1.72
-0.66
0.25
0.35
-0.42
-1.53
-1.88
-1.08
-0.05
0.31
-0.23
-1.29
-1.94
-1.41
-0.27
0.37
0.11
-0.86
-1.83
-1.68
-0.55
0.28
0.27
-0.58
-1.67
-1.87
-0.97
0.01
0.27
-0.33
-1.41
-1.97
-1.35
-0.25
0.27
-0.12
-1.15
-2.06
-1.83
-0.72
0.05
-0.06
-0.97
-2.05
-2.16
-1.18
-0.24
-0.09
-0.80
-1.93
-2.41
-1.73
-0.64
-0.18
-0.60
-1.63
-2.41
-2.03
-0.87
-0.13
-0.26
-1.16
-2.21
-2.20
-1.15
-0.24
-0.13
-0.86
-1.94
-2.28
-1.44
-0.38
0.02
-0.49
-1.54
-2.19
-1.68
-0.54
0.09
-0.15
-1.11
-2.08
-1.97
-0.86
0.01
0.05
-0.73
-1.81
-2.03
-1.15
-0.14
0.17
-0.39
-1.44
-2.01
-1.43
-0.35
0.19
-0.17
-1.19
-2.13
-1.94
-0.81
0.01
-0.03
-0.87
-1.95
-2.09
-1.15
-0.22
-0.04
-0.71
-1.85
-2.42
-1.80
-0.75
-0.29
-0.74
-1.80
-2.68
-2.43
-1.33
-0.61
-0.77
-1.69
-2.79
-2.85
-1.83
-0.93
-0.83
-1.57
-2.70
-3.12
-2.40
-1.34
-0.92
-1.37
-2.42
-3.15
-2.73
-1.63
-0.98
-1.22
-2.21
-3.27
-3.24
-2.20
-1.34
-1.31
-2.11
-3.20
-3.49
-2.64
-1.63
-1.31
-1.86
-2.94
-3.57
-3.04
-1.96
-1.40
-1.74
-2.76
-3.73
-3.59
-2.48
-1.69
-1.73
-2.57
-3.66
-3.84
-2.94
-2.01
-1.80
-2.45
-3.57
-4.12
-3.50
-2.42
-1.93
-2.31
-3.30
-4.13
-3.83
-2.70
-1.92
-2.00
-2.88
-3.92
-3.94
-2.90
-1.96
-1.79
-2.46
-3.53
-3.94
-3.20
-2.14
-1.71
-2.18
-3.22
-3.94
-3.51
-2.39
-1.73
-1.93
-2.89
-3.93
-3.86
-2.78
-1.89
-1.83
-2.61
-3.70
-4.01
-3.18
-2.18
-1.86
-2.41
-3.49
-4.09
-3.54
-2.44
-1.83
-2.11
-3.06
-3.95
-3.73
-2.58
-1.72
-1.71
-2.51
-3.55
-3.65
-2.68
-1.69
-1.44
-2.06
-3.14
-3.66
-3.00
-1.91
-1.37
-1.72
-2.70
-3.50
-3.19
-2.05
-1.27
-1.38
-2.25
-3.29
-3.31
-2.28
-1.36
-1.22
-1.92
-2.99
-3.36
-2.58
-1.50
-1.05
-1.47
-2.47
-3.12
-2.61
-1.44
-0.73
-0.89
-1.80
-2.80
-2.72
-1.61
-0.71
-0.63
-1.38
-2.47
-2.72
-1.85
-0.81
-0.46
-1.01
-2.06
-2.68
-2.12
-1.00
-0.41
-0.71
-1.71
-2.67
-2.52
-1.40
Sampling Rate: 380.00 Hz
-0.74
-0.97
-1.92
-2.91
-2.81
-1.71
-0.84
-0.80
-1.59
-2.68
-2.92
-2.05
-1.02
-0.68
-1.23
-2.29
-2.86
-2.28
-1.16
-0.56
-0.86
-1.84
-2.75
-2.53
-1.37
-0.52
-0.54
-1.37
-2.40
-2.52
-1.53
-0.54
-0.27
-0.89
-1.97
-2.47
-1.80
-0.70
-0.18
-0.57
-1.56
-2.36
-2.00
-0.84
-0.05
-0.15
-1.01
-2.01
-2.00
-0.94
0.01
0.16
-0.53
-1.60
-1.97
-1.16
-0.06
0.38
-0.06
-1.08
-1.79
-1.36
-0.25
0.41
0.18
-0.76
-1.82
-1.78
-0.73
0.14
0.18
-0.60
-1.70
-1.98
-1.12
-0.07
0.31
-0.19
-1.20
-1.78
-1.18
-0.02
0.62
0.37
-0.59
-1.54
-1.37
-0.23
0.60
0.60
-0.21
-1.27
-1.43
-0.48
0.54
0.83
0.22
-0.86
-1.41
-0.80
0.28
0.81
0.46
-0.54
-1.42
-1.16
-0.01
0.79
0.70
-0.17
-1.26
-1.35
-0.38
0.54
0.70
-0.01
-1.13
-1.61
-0.92
0.14
0.62
0.21
-0.80
-1.58
-1.22
-0.06
0.67
0.54
-0.39
-1.48
-1.51
-0.48
0.41
0.50
-0.26
-1.38
-1.80
-1.04
0.01
0.41
-0.11
-1.20
-1.93
-1.50
-0.37
0.30
0.06
-0.91
-1.95
-1.87
-0.77
0.13
0.19
-0.59
-1.69
-1.97
-1.11
-0.09
0.23
-0.35
-1.44
-2.09
-1.57
-0.49
0.07
-0.26
-1.30
-2.32
-2.20
-1.13
-0.35
-0.44
-1.36
-2.51
-2.74
-1.87
-0.94
-0.72
-1.41
-2.56
-3.14
-2.55
-1.50
-1.02
-1.42
-2.47
-3.36
-3.09
-1.97
-1.21
-1.33
-2.25
-3.33
-3.41
-2.41
-1.48
-1.33
-2.06
-3.16
-3.60
-2.86
-1.77
-1.31
-1.74
-2.76
-3.48
-3.02
-1.84
-1.13
-1.31
-2.25
-3.30
-3.28
-2.22
-1.34
-1.29
-2.08
-3.18
-3.48
-2.64
-1.59
-1.24
-1.79
-2.86
-3.49
-2.94
-1.80
-1.17
-1.46
-2.44
-3.38
-3.17
-1.98
-1.12
-1.14
-1.97
-3.03
-3.16
-2.18
-1.16
-0.87
-1.49
-2.59
-3.12
-2.47
-1.37
-0.84
-1.21
-2.25
-3.15
-2.87
-1.71
-0.93
-1.04
-1.97
-3.08
-3.17
-2.16
-1.21
-1.07
-1.77
-2.90
-3.40
-2.70
-1.65
-1.25
-1.74
-2.83
-3.63
-3.25
-2.15
-1.48
-1.71
-2.70
-3.81
-3.83
-2.83
-1.99
-1.98
-2.78
-3.92
-4.30
-3.52
-2.51
-2.17
-2.72
-3.84
-4.51
-4.03
-2.93
-2.33
-2.65
-3.67
-4.69
-4.59
-3.49
-2.69
-2.74
-3.61
-4.74
-4.96
-4.04
-3.04
-2.79
-3.42
-4.51
-5.04
-4.40
-3.28
-2.73
-3.07
-4.06
-4.89
-4.57
-3.39
-2.59
-2.69
-3.59
-4.65
-4.70
-3.69
-2.75
-2.58
-3.26
-4.38
-4.81
-4.07
-2.99
-2.57
-3.02
-4.05
-4.77
-4.30
-3.15
-2.44
-2.64
-3.59
-4.62
-4.54
-3.46
-2.58
-2.51
-3.26
-4.32
-4.56
-3.66
-2.61
-2.26
-2.80
-3.85
-4.44
-3.87
-2.75
-2.16
-2.46
-3.45
-4.40
-4.20
-3.04
-2.20
-2.21
-3.02
-4.07
-4.18
-3.17
-2.13
-1.84
-2.44
-3.47
-3.93
-3.21
-2.06
-1.50
-1.85
-2.83
-3.62
-3.27
-2.08
-1.26
-1.35
Sampling Rate: 380.00 Hz
-2.17
-2.94
-2.62
-1.40
-0.54
-0.54
-1.38
-2.41
-2.49
-1.49
-0.51
-0.27
-0.92
-2.02
-2.51
-1.80
-0.68
-0.15
-0.53
-1.52
-2.27
-1.88
-0.70
0.07
-0.05
-0.95
-2.01
-2.00
-0.94
0.01
0.18
-0.50
-1.56
-1.94
-1.13
-0.01
0.45
0.00
-1.01
-1.67
-1.17
0.03
0.74
0.58
-0.35
-1.36
-1.27
-0.15
0.77
0.87
0.10
-0.97
-1.21
-0.31
0.78
1.16
0.66
-0.35
-0.91
-0.31
0.87
1.54
1.29
0.36
-0.54
-0.32
0.90
1.82
1.87
1.09
0.05
-0.10
0.88
1.94
2.28
1.71
0.67
0.17
0.83
1.98
2.57
2.26
1.28
0.42
0.72
1.91
2.75
2.73
1.89
0.85
0.75
1.75
2.75
2.99
2.37
1.31
0.82
1.52
2.66
3.19
2.84
1.85
1.06
1.44
2.61
3.40
3.30
2.41
1.36
1.31
2.35
3.29
3.44
2.74
1.63
1.19
1.94
3.03
3.50
3.08
2.05
1.32
1.75
2.90
3.60
3.43
2.47
1.39
1.40
2.44
3.34
3.45
2.68
1.56
1.19
1.97
3.02
3.40
2.87
1.79
1.10
1.58
2.71
3.33
3.04
2.02
0.95
1.00
2.07
2.90
2.89
2.05
0.91
0.59
1.41
2.41
2.69
2.07
0.95
0.31
0.83
1.93
2.50
2.18
1.17
0.18
0.31
1.42
2.21
2.15
1.27
0.16
-0.07
0.82
1.80
2.08
1.46
0.37
-0.20
0.43
1.54
2.10
1.76
0.76
-0.13
0.14
1.29
2.10
2.03
1.14
0.07
-0.04
0.93
1.90
2.14
1.50
0.41
-0.10
0.57
1.67
2.15
1.74
0.70
-0.14
0.19
1.37
2.15
2.06
1.16
0.10
0.04
1.07
2.04
2.23
1.56
0.47
0.05
0.80
1.89
2.36
1.91
0.88
0.14
0.55
1.71
2.45
2.27
1.32
0.23
0.24
1.30
2.20
2.33
1.58
0.49
0.16
0.97
2.05
2.47
2.00
0.95
0.29
0.80
1.98
2.69
2.48
1.53
0.51
0.60
1.70
2.58
2.64
1.88
0.80
0.55
1.43
2.50
2.86
2.33
1.27
0.64
1.19
2.34
2.98
2.73
1.76
0.80
0.97
2.15
3.03
3.05
2.26
1.22
1.06
2.01
3.05
3.35
2.77
1.71
1.20
1.89
3.05
3.64
3.32
2.35
1.49
1.78
2.98
3.79
3.74
2.87
1.80
1.68
2.65
3.61
3.81
3.13
2.03
1.56
2.27
3.37
3.87
3.48
2.47
1.69
2.04
3.19
3.94
3.82
2.91
1.86
1.85
2.90
3.82
3.93
3.16
2.04
1.64
2.41
3.49
3.90
3.44
2.39
1.66
2.09
3.20
3.88
3.65
2.69
1.65
1.70
2.78
3.64
3.66
2.86
1.74
1.44
2.28
3.30
3.61
3.05
1.97
1.34
1.88
2.99
3.61
3.31
2.33
1.36
1.50
2.62
3.46
3.43
2.58
1.47
1.24
2.12
3.10
3.37
2.76
1.65
1.09
1.70
2.80
3.34
2.98
1.97
1.04
1.25
2.39
3.19
3.12
2.26
1.20
1.07
2.05
3.02
3.26
2.62
1.51
Sampling Rate: 380.00 Hz
1.26
2.13
3.10
3.36
2.76
1.65
1.05
1.63
2.75
3.32
2.98
1.97
1.04
1.26
2.42
3.23
3.19
2.33
1.25
1.09
2.02
2.99
3.21
2.57
1.45
0.92
1.58
2.66
3.17
2.77
1.73
0.84
1.07
2.20
2.98
2.87
1.97
0.87
0.77
1.75
2.70
2.88
2.20
1.10
0.63
1.33
2.40
2.88
2.44
1.39
0.58
0.92
2.04
2.73
2.53
1.59
0.51
0.49
1.51
2.42
2.53
1.78
0.67
0.28
1.08
2.16
2.59
2.14
1.12
0.43
0.90
2.04
2.72
2.52
1.57
0.53
0.57
1.65
2.50
2.55
1.75
0.63
0.33
1.17
2.22
2.59
2.06
1.01
0.39
0.94
2.08
2.73
2.49
1.55
0.63
0.82
1.99
2.88
2.91
2.11
1.04
0.84
1.75
2.74
3.01
2.41
1.31
0.72
1.29
2.36
2.87
2.50
1.48
0.53
0.75
1.87
2.68
2.64
1.79
0.73
0.64
1.62
2.61
2.84
2.19
1.09
0.57
1.23
2.33
2.83
2.42
1.38
0.52
0.82
1.95
2.72
2.58
1.65
0.57
0.50
1.52
2.45
2.60
1.88
0.75
0.28
0.97
2.02
2.45
1.98
0.91
0.14
0.51
1.65
2.32
2.10
1.12
0.02
0.00
1.05
1.96
2.06
1.32
0.20
-0.19
0.60
1.64
2.01
1.52
0.45
-0.24
0.22
1.34
1.96
1.69
0.68
-0.39
-0.35
0.71
1.55
1.56
0.74
-0.40
-0.70
0.15
1.16
1.49
0.91
-0.18
-0.84
-0.33
0.75
1.33
1.03
0.03
-0.96
-0.81
0.32
1.13
1.10
0.23
-0.90
-1.11
-0.22
0.74
0.97
0.31
-0.81
-1.41
-0.82
0.25
0.76
0.36
-0.69
-1.62
-1.41
-0.30
0.47
0.37
-0.53
-1.62
-1.74
-0.77
0.16
0.34
-0.36
-1.49
-1.98
-1.30
-0.23
0.21
-0.23
-1.28
-2.08
-1.71
-0.57
0.16
0.01
-0.93
-2.01
-2.02
-1.00
-0.11
-0.03
-0.80
-1.94
-2.35
-1.60
-0.54
-0.13
-0.62
-1.68
-2.37
-1.88
-0.75
-0.09
-0.32
-1.26
-2.25
-2.15
-1.03
-0.14
-0.09
-0.89
-1.99
-2.26
-1.38
-0.36
-0.05
-0.62
-1.69
-2.26
-1.65
-0.52
0.08
-0.25
-1.25
-2.19
-1.99
-0.84
-0.02
-0.06
-0.89
-1.95
-2.08
-1.11
-0.12
0.12
-0.52
-1.62
-2.11
-1.41
-0.28
0.24
-0.14
-1.14
-1.94
-1.58
-0.41
0.35
0.23
-0.70
-1.79
-1.83
-0.82
0.11
0.25
-0.47
-1.58
-1.98
-1.23
-0.16
0.26
-0.23
-1.30
-2.02
-1.57
-0.43
0.23
0.02
-0.93
-1.98
-1.96
-0.90
-0.08
-0.08
-0.93
-2.07
-2.38
-1.55
-0.55
-0.23
-0.81
-1.91
-2.56
-2.02
-0.93
-0.34
-0.66
-1.64
-2.57
-2.38
-1.23
-0.41
-0.45
-1.31
-2.37
-2.49
-1.50
-0.50
-0.25
-0.88
-1.98
-2.51
-1.88
-0.81
-0.30
-0.70
-1.74
-2.60
-2.31
-1.17
-0.38
-0.46
-1.32
-2.36
-2.40
-1.37
-0.40
-0.20
-0.87
-1.96
-2.37
-1.63
-0.56
-0.09
-0.50
-1.50
-2.22
-1.77
Sampling Rate: 380.00 Hz
-0.84
-0.44
-0.88
-1.93
-2.74
-2.39
-1.22
-0.42
-0.52
-1.41
-2.46
-2.46
-1.41
-0.47
-0.30
-0.99
-2.08
-2.46
-1.65
-0.54
-0.06
-0.48
-1.47
-2.12
-1.61
-0.42
0.31
0.17
-0.72
-1.70
-1.60
-0.49
0.42
0.49
-0.28
-1.35
-1.62
-0.75
0.33
0.73
0.24
-0.77
-1.36
-0.79
0.36
0.99
0.71
-0.26
-1.24
-1.09
0.06
0.91
0.93
0.14
-0.91
-1.09
-0.17
0.86
1.18
0.60
-0.46
-1.02
-0.42
0.67
1.20
0.84
-0.16
-1.06
-0.85
0.28
1.07
1.00
0.13
-0.93
-1.06
-0.10
0.86
1.07
0.40
-0.72
-1.22
-0.57
0.48
0.96
0.56
-0.47
-1.28
-0.94
0.20
0.96
0.84
-0.08
-1.16
-1.20
-0.17
0.77
0.91
0.19
-0.90
-1.30
-0.53
0.54
0.97
0.52
-0.52
-1.26
-0.85
0.30
1.01
0.85
-0.09
-1.15
-1.14
-0.09
0.80
0.88
0.13
-0.98
-1.34
-0.56
0.48
0.84
0.33
-0.72
-1.39
-0.89
0.24
0.90
0.67
-0.30
-1.31
-1.20
-0.10
0.73
0.71
-0.14
-1.25
-1.47
-0.57
0.43
0.73
0.14
-0.95
-1.55
-0.99
0.10
0.65
0.31
-0.70
-1.64
-1.45
-0.34
0.46
0.42
-0.43
-1.49
-1.61
-0.62
0.37
0.59
-0.06
-1.17
-1.69
-1.01
0.09
0.61
0.23
-0.78
-1.60
-1.26
-0.09
0.68
0.58
-0.32
-1.39
-1.44
-0.43
0.48
0.60
-0.15
-1.27
-1.68
-0.93
0.14
0.58
0.12
-0.93
-1.66
-1.24
-0.10
0.57
0.34
-0.64
-1.70
-1.67
-0.61
0.25
0.29
-0.50
-1.60
-1.92
-1.09
-0.09
0.27
-0.27
-1.34
-1.99
-1.48
-0.36
0.22
-0.08
-1.08
-2.06
-1.92
-0.79
0.05
0.02
-0.83
-1.94
-2.15
-1.23
-0.21
0.09
-0.49
-1.56
-2.10
-1.47
-0.35
0.19
-0.15
-1.16
-2.06
-1.80
-0.65
0.15
0.08
-0.79
-1.87
-1.96
-0.98
-0.01
0.20
-0.49
-1.59
-2.08
-1.39
-0.29
0.18
-0.25
-1.29
-2.10
-1.74
-0.59
0.15
0.00
-0.94
-2.03
-2.09
-1.08
-0.14
-0.00
-0.71
-1.82
-2.24
-1.50
-0.44
-0.02
-0.48
-1.52
-2.23
-1.77
-0.60
0.10
-0.09
-1.03
-2.04
-1.96
-0.87
0.04
0.12
-0.67
-1.76
-2.04
-1.17
-0.10
0.26
-0.27
-1.34
-1.95
-1.38
-0.26
0.35
0.04
-0.95
-1.91
-1.75
-0.61
0.23
0.23
-0.59
-1.67
-1.85
-0.92
0.06
0.32
-0.29
-1.36
-1.88
-1.21
-0.07
0.48
0.14
-0.87
-1.71
-1.40
-0.21
0.61
0.55
-0.31
-1.35
-1.43
-0.44
0.51
0.69
0.00
-1.10
-1.55
-0.85
0.23
0.69
0.23
-0.84
-1.62
-1.22
-0.05
0.69
0.55
-0.37
-1.43
-1.43
-0.39
0.52
0.63
-0.12
-1.23
-1.62
-0.84
0.22
0.61
0.12
-0.92
-1.58
-1.07
0.11
0.79
0.60
-0.35
-1.37
-1.27
-0.17
0.70
0.72
-0.06
-1.14
-1.39
-0.49
0.56
0.92
0.38
-0.66
-1.25
-0.68
0.47
1.09
0.82
-0.13
-1.06
-0.86
0.32
1.20
Sampling Rate: 380.00 Hz
1.11
0.25
-0.72
-0.60
0.51
1.40
1.44
0.63
-0.49
-0.78
0.04
1.06
1.37
0.82
-0.25
-0.86
-0.31
0.80
1.39
1.06
0.03
-0.98
-0.84
0.29
1.14
1.14
0.30
-0.77
-0.95
-0.01
0.99
1.28
0.68
-0.40
-0.96
-0.35
0.74
1.26
0.90
-0.11
-0.97
-0.69
0.46
1.23
1.14
0.25
-0.83
-0.92
0.05
0.98
1.15
0.46
-0.66
-1.17
-0.50
0.57
1.02
0.59
-0.45
-1.26
-0.89
0.27
1.00
0.85
-0.09
-1.17
-1.18
-0.14
0.79
0.92
0.19
-0.90
-1.27
-0.48
0.60
1.03
0.58
-0.43
-1.11
-0.63
0.53
1.21
1.00
0.05
-0.98
-0.92
0.18
1.09
1.17
0.40
-0.68
-1.00
-0.15
0.91
1.29
0.78
-0.27
-0.91
-0.37
0.78
1.41
1.14
0.17
-0.79
-0.64
0.51
1.39
1.39
0.56
-0.54
-0.75
0.17
1.15
1.43
0.83
-0.27
-0.84
-0.25
0.84
1.39
1.03
0.00
-0.94
-0.77
0.35
1.15
1.07
0.18
-0.91
-1.04
-0.05
0.92
1.15
0.49
-0.62
-1.12
-0.43
0.68
1.18
0.79
-0.22
-1.05
-0.75
0.41
1.17
1.05
0.14
-0.92
-0.96
0.06
1.02
1.17
0.47
-0.63
-1.07
-0.35
0.70
1.11
0.63
-0.41
-1.12
-0.68
0.47
1.17
0.99
0.06
-0.98
-0.94
0.13
1.02
1.09
0.30
-0.81
-1.13
-0.29
0.78
1.20
0.72
-0.33
-0.97
-0.43
0.74
1.40
1.16
0.22
-0.74
-0.61
0.51
1.38
1.40
0.61
-0.49
-0.73
0.15
1.19
1.51
0.97
-0.07
-0.66
-0.07
1.07
1.65
1.34
0.36
-0.57
-0.39
0.74
1.57
1.53
0.67
-0.39
-0.55
0.41
1.41
1.64
0.99
-0.12
-0.65
0.03
1.15
1.70
1.36
0.38
-0.43
-0.10
1.10
1.90
1.82
0.95
-0.11
-0.13
0.91
1.87
2.06
1.37
0.25
-0.21
0.50
1.56
2.00
1.56
0.53
-0.24
0.14
1.27
1.97
1.78
0.82
-0.27
-0.29
0.74
1.65
1.77
1.05
-0.02
-0.35
0.48
1.56
1.98
1.49
0.45
-0.24
0.24
1.38
2.04
1.80
0.81
-0.22
-0.13
0.98
1.84
1.83
0.98
-0.14
-0.41
0.45
1.46
1.76
1.18
0.10
-0.53
0.02
1.13
1.71
1.38
0.36
-0.62
-0.46
0.65
1.46
1.41
0.56
-0.53
-0.71
0.20
1.14
1.33
0.64
-0.51
-1.09
-0.50
0.56
1.06
0.68
-0.35
-1.24
-0.99
0.15
0.94
0.84
-0.07
-1.15
-1.22
-0.21
0.74
0.92
0.23
-0.88
-1.32
-0.58
0.53
0.99
0.53
-0.55
-1.33
-0.95
0.20
0.92
0.73
-0.23
-1.33
-1.36
-0.32
0.57
0.65
-0.11
-1.24
-1.63
-0.86
0.18
0.55
0.03
-1.04
-1.75
-1.27
-0.13
0.53
0.29
-0.67
-1.68
-1.58
-0.46
0.41
0.43
-0.39
-1.50
-1.75
-0.88
0.12
0.41
-0.17
-1.26
-1.84
-1.25
-0.13
0.44
0.12
-0.87
-1.78
-1.56
-0.40
0.44
0.41
-0.44
-1.51
-1.65
-0.68
0.30
0.54
-0.11
Sampling Rate: 380.00 Hz
-1.08
-1.22
-0.25
0.80
1.11
0.52
-0.55
-1.14
-0.56
0.54
1.10
0.76
-0.27
-1.20
-0.97
0.18
1.00
0.94
0.06
-0.99
-1.09
-0.08
0.94
1.19
0.56
-0.53
-1.04
-0.37
0.72
1.23
0.84
-0.20
-1.03
-0.70
0.47
1.26
1.15
0.24
-0.85
-0.90
0.11
1.05
1.24
0.56
-0.53
-0.94
-0.16
0.95
1.43
1.01
-0.01
-0.75
-0.34
0.83
1.56
1.39
0.45
-0.61
-0.60
0.44
1.33
1.40
0.61
-0.51
-0.86
-0.04
1.03
1.45
0.95
-0.08
-0.74
-0.23
0.92
1.57
1.34
0.40
-0.59
-0.47
0.65
1.52
1.57
0.78
-0.30
-0.55
0.35
1.40
1.75
1.20
0.14
-0.47
0.10
1.23
1.82
1.51
0.48
-0.52
-0.41
0.68
1.49
1.47
0.62
-0.48
-0.66
0.27
1.27
1.55
0.94
-0.15
-0.67
-0.03
1.09
1.62
1.24
0.21
-0.69
-0.44
0.71
1.50
1.43
0.52
-0.55
-0.64
0.34
1.29
1.48
0.79
-0.32
-0.78
-0.07
1.03
1.51
1.09
0.09
-0.66
-0.26
0.90
1.64
1.46
0.52
-0.56
-0.59
0.45
1.37
1.50
0.76
-0.36
-0.76
0.02
1.10
1.52
1.03
-0.02
-0.72
-0.25
0.92
1.60
1.37
0.40
-0.66
-0.63
0.44
1.33
1.37
0.55
-0.58
-0.91
-0.09
0.95
1.32
0.79
-0.27
-0.90
-0.37
0.77
1.39
1.09
0.08
-0.91
-0.77
0.35
1.21
1.24
0.43
-0.64
-0.83
0.10
1.12
1.43
0.84
-0.26
-0.85
-0.25
0.86
1.42
1.08
0.07
-0.83
-0.60
0.55
1.37
1.32
0.46
-0.59
-0.70
0.29
1.27
1.47
0.79
-0.34
-0.89
-0.24
0.82
1.26
0.83
-0.22
-1.07
-0.76
0.40
1.17
1.03
0.08
-1.03
-1.12
-0.15
0.75
0.88
0.16
-0.98
-1.44
-0.73
0.31
0.72
0.25
-0.81
-1.57
-1.16
-0.02
0.69
0.49
-0.46
-1.53
-1.50
-0.42
0.48
0.55
-0.22
-1.35
-1.70
-0.91
0.13
0.52
-0.00
-1.07
-1.71
-1.18
-0.03
0.63
0.38
-0.59
-1.58
-1.45
-0.30
0.55
0.54
-0.30
-1.40
-1.64
-0.74
0.27
0.59
0.02
-1.05
-1.63
-1.06
0.05
0.60
0.25
-0.77
-1.73
-1.54
-0.41
0.40
0.34
-0.53
-1.62
-1.74
-0.75
0.23
0.46
-0.16
-1.22
-1.72
-1.03
0.08
0.60
0.23
-0.76
-1.58
-1.24
-0.06
0.72
0.64
-0.26
-1.32
-1.34
-0.27
0.72
0.92
0.23
-0.88
-1.32
-0.56
0.53
0.98
0.54
-0.48
-1.22
-0.77
0.40
1.13
0.95
0.02
-1.05
-1.03
0.02
0.93
1.02
0.27
-0.84
-1.17
-0.34
0.72
1.13
0.65
-0.41
-1.09
-0.59
0.57
1.24
1.01
0.05
-0.97
-0.86
0.26
1.14
1.16
0.37
-0.71
-0.98
-0.08
0.96
1.28
0.71
-0.37
-0.96
-0.37
0.77
1.39
1.10
0.11
-0.82
-0.61
0.56
1.43
1.42
0.59
-0.50
-0.67
0.26
1.23
1.46
0.78
-0.35
-0.92
-0.29
0.79
1.32
0.93
-0.09
-0.97
Sampling Rate: 380.00 Hz
-0.58
0.40
0.87
0.50
-0.54
-1.49
-1.31
-0.19
0.63
0.57
-0.28
-1.36
-1.49
-0.52
0.48
0.72
0.11
-0.96
-1.46
-0.77
0.33
0.84
0.44
-0.60
-1.43
-1.08
0.11
0.90
0.79
-0.10
-1.15
-1.16
-0.09
0.89
1.07
0.37
-0.74
-1.18
-0.44
0.64
1.08
0.64
-0.40
-1.15
-0.74
0.40
1.13
0.94
-0.02
-1.11
-1.12
-0.08
0.83
0.91
0.15
-0.94
-1.29
-0.46
0.60
1.01
0.51
-0.53
-1.19
-0.68
0.48
1.12
0.88
-0.08
-1.06
-0.93
0.19
1.07
1.10
0.31
-0.77
-0.99
-0.07
0.98
1.33
0.77
-0.29
-0.87
-0.28
0.86
1.48
1.19
0.21
-0.73
-0.53
0.63
1.47
1.44
0.58
-0.51
-0.67
0.25
1.21
1.42
0.77
-0.35
-0.89
-0.28
0.81
1.31
0.92
-0.12
-1.01
-0.75
0.38
1.14
1.03
0.10
-0.99
-1.08
-0.06
0.90
1.09
0.42
-0.66
-1.09
-0.34
0.77
1.23
0.79
-0.27
-1.05
-0.67
0.47
1.19
1.03
0.10
-0.97
-0.94
0.13
1.04
1.13
0.37
-0.72
-1.06
-0.24
0.85
1.26
0.78
-0.27
-0.95
-0.48
0.65
1.30
1.05
0.07
-0.96
-0.88
0.20
1.05
1.06
0.23
-0.89
-1.17
-0.31
0.70
1.01
0.44
-0.63
-1.27
-0.73
0.39
0.98
0.67
-0.34
-1.32
-1.17
-0.05
0.77
0.74
-0.09
-1.17
-1.34
-0.41
0.58
0.84
0.23
-0.83
-1.37
-0.71
0.42
0.98
0.65
-0.34
-1.17
-0.88
0.29
1.07
0.99
0.10
-0.97
-1.03
-0.02
0.94
1.14
0.47
-0.63
-1.08
-0.34
0.74
1.18
0.71
-0.35
-1.12
-0.72
0.41
1.12
0.95
0.01
-1.09
-1.13
-0.11
0.80
0.88
0.11
-1.04
-1.49
-0.74
0.28
0.65
0.13
-0.95
-1.66
-1.23
-0.11
0.53
0.28
-0.71
-1.75
-1.70
-0.61
0.24
0.26
-0.57
-1.71
-2.02
-1.19
-0.21
0.08
-0.52
-1.63
-2.24
-1.67
-0.56
0.00
-0.32
-1.33
-2.30
-2.12
-0.98
-0.15
-0.18
-1.02
-2.10
-2.26
-1.32
-0.34
-0.10
-0.73
-1.82
-2.32
-1.66
-0.55
-0.02
-0.40
-1.42
-2.27
-1.96
-0.78
0.00
-0.09
-0.99
-2.06
-2.12
-1.11
-0.17
0.01
-0.69
-1.81
-2.25
-1.54
-0.47
-0.03
-0.48
-1.51
-2.28
-1.90
-0.76
-0.06
-0.25
-1.22
-2.30
-2.31
-1.25
-0.35
-0.26
-1.02
-2.12
-2.44
-1.60
-0.52
-0.14
-0.67
-1.73
-2.38
-1.85
-0.69
-0.06
-0.32
-1.29
-2.27
-2.12
-1.00
-0.16
-0.17
-0.98
-2.05
-2.25
-1.31
-0.29
-0.01
-0.61
-1.70
-2.28
-1.69
-0.59
-0.05
-0.39
-1.41
-2.30
-2.03
-0.87
-0.07
-0.13
-1.02
-2.10
-2.21
-1.20
-0.24
-0.05
-0.74
-1.86
-2.38
-1.69
-0.61
-0.15
-0.60
-1.67
-2.48
-2.12
-0.97
-0.24
-0.42
-1.36
-2.44
-2.45
-1.40
-0.51
-0.42
-1.19
-2.32
-2.70
-1.92
-0.87
-0.50
-1.01
-2.07
-2.77
-2.30
-1.17
-0.52
-0.78
-1.77
-2.81
-2.73
-1.62
Sampling Rate: 380.00 Hz
-0.94
-1.15
-2.14
-3.23
-3.23
-2.16
-1.27
-1.19
-1.97
-3.07
-3.36
-2.48
-1.38
-0.98
-1.47
-2.51
-3.12
-2.54
-1.36
-0.67
-0.90
-1.85
-2.81
-2.65
-1.49
-0.61
-0.59
-1.40
-2.46
-2.62
-1.64
-0.60
-0.31
-0.89
-1.95
-2.45
-1.77
-0.62
-0.06
-0.39
-1.36
-2.16
-1.82
-0.61
0.23
0.17
-0.68
-1.72
-1.74
-0.66
0.36
0.60
-0.04
-1.11
-1.50
-0.72
0.41
0.92
0.51
-0.48
-1.17
-0.73
0.46
1.23
1.10
0.20
-0.81
-0.76
0.33
1.27
1.39
0.64
-0.44
-0.76
0.06
1.14
1.52
1.02
-0.05
-0.74
-0.26
0.89
1.57
1.37
0.41
-0.59
-0.48
0.64
1.52
1.54
0.72
-0.38
-0.64
0.22
1.22
1.51
0.95
-0.13
-0.72
-0.11
1.03
1.64
1.36
0.37
-0.54
-0.31
0.85
1.68
1.64
0.78
-0.31
-0.45
0.51
1.50
1.74
1.08
-0.02
-0.53
0.14
1.23
1.72
1.34
0.31
-0.52
-0.22
0.94
1.69
1.58
0.67
-0.41
-0.48
0.53
1.48
1.64
0.91
-0.20
-0.66
0.07
1.14
1.58
1.12
0.07
-0.69
-0.28
0.86
1.55
1.38
0.43
-0.62
-0.62
0.42
1.31
1.41
0.65
-0.48
-0.85
-0.07
0.95
1.33
0.82
-0.24
-0.89
-0.39
0.73
1.38
1.13
0.16
-0.82
-0.69
0.45
1.31
1.33
0.51
-0.58
-0.80
0.10
1.11
1.42
0.84
-0.23
-0.84
-0.29
0.79
1.32
0.99
-0.01
-0.93
-0.72
0.43
1.26
1.23
0.36
-0.75
-0.94
-0.01
0.93
1.12
0.43
-0.72
-1.28
-0.67
0.39
0.86
0.46
-0.57
-1.44
-1.18
-0.07
0.69
0.59
-0.29
-1.37
-1.44
-0.42
0.54
0.70
0.01
-1.10
-1.57
-0.86
0.22
0.67
0.21
-0.84
-1.61
-1.20
-0.04
0.70
0.54
-0.40
-1.48
-1.50
-0.47
0.43
0.53
-0.22
-1.31
-1.65
-0.83
0.24
0.66
0.17
-0.88
-1.55
-1.07
0.04
0.66
0.41
-0.58
-1.59
-1.50
-0.39
0.47
0.50
-0.30
-1.37
-1.61
-0.73
0.31
0.64
0.07
-1.02
-1.62
-1.05
0.07
0.65
0.33
-0.68
-1.66
-1.50
-0.37
0.45
0.41
-0.42
-1.51
-1.66
-0.73
0.25
0.48
-0.16
-1.26
-1.79
-1.14
-0.07
0.44
0.05
-0.99
-1.88
-1.62
-0.50
0.24
0.09
-0.86
-1.96
-2.02
-1.00
-0.03
0.17
-0.50
-1.58
-2.00
-1.25
-0.15
0.31
-0.14
-1.19
-1.94
-1.54
-0.42
0.27
0.08
-0.87
-1.94
-1.94
-0.90
-0.02
0.06
-0.71
-1.82
-2.15
-1.33
-0.30
0.06
-0.46
-1.53
-2.20
-1.69
-0.56
0.07
-0.20
-1.20
-2.21
-2.10
-1.00
-0.19
-0.22
-1.07
-2.18
-2.42
-1.54
-0.56
-0.30
-0.91
-2.01
-2.59
-1.99
-0.89
-0.38
-0.77
-1.84
-2.77
-2.53
-1.41
-0.65
-0.75
-1.67
-2.79
-2.92
-1.95
-1.02
-0.86
-1.58
-2.73
-3.24
-2.57
-1.51
-1.06
-1.53
-2.60
-3.43
-3.10
-1.97
-1.25
-1.42
-2.35
-3.42
-3.42
-2.39
-1.48
-1.39
Sampling Rate: 380.00 Hz
-2.17
-3.15
-3.14
-2.09
-1.15
-1.01
-1.72
-2.82
-3.24
-2.50
-1.42
-0.99
-1.43
-2.47
-3.19
-2.74
-1.58
-0.88
-1.09
-2.03
-3.07
-2.98
-1.86
-0.93
-0.84
-1.61
-2.70
-2.98
-2.09
-1.03
-0.63
-1.14
-2.17
-2.77
-2.20
-1.03
-0.39
-0.64
-1.61
-2.55
-2.36
-1.20
-0.33
-0.34
-1.17
-2.23
-2.39
-1.44
-0.43
-0.15
-0.78
-1.88
-2.41
-1.77
-0.65
-0.12
-0.49
-1.48
-2.31
-1.99
-0.80
0.02
-0.02
-0.89
-1.92
-1.96
-0.93
0.02
0.21
-0.47
-1.57
-1.99
-1.27
-0.21
0.24
-0.20
-1.25
-1.99
-1.58
-0.43
0.29
0.12
-0.80
-1.86
-1.86
-0.80
0.10
0.20
-0.56
-1.65
-2.00
-1.21
-0.17
0.19
-0.33
-1.40
-2.07
-1.57
-0.45
0.19
-0.06
-1.04
-2.07
-2.01
-0.94
-0.11
-0.11
-0.95
-2.09
-2.36
-1.50
-0.52
-0.23
-0.82
-1.90
-2.50
-1.93
-0.83
-0.28
-0.61
-1.60
-2.52
-2.27
-1.11
-0.29
-0.35
-1.22
-2.27
-2.34
-1.35
-0.37
-0.15
-0.80
-1.88
-2.33
-1.60
-0.51
-0.03
-0.44
-1.45
-2.21
-1.82
-0.66
0.09
-0.03
-0.94
-2.00
-2.00
-0.96
-0.05
0.05
-0.70
-1.84
-2.26
-1.50
-0.45
-0.07
-0.58
-1.65
-2.37
-1.91
-0.78
-0.10
-0.32
-1.26
-2.26
-2.14
-0.99
-0.06
0.04
-0.70
-1.75
-1.96
-1.03
0.07
0.44
-0.08
-1.12
-1.69
-1.11
0.04
0.65
0.38
-0.58
-1.51
-1.31
-0.14
0.69
0.67
-0.19
-1.28
-1.44
-0.49
0.53
0.84
0.26
-0.81
-1.33
-0.66
0.49
1.03
0.67
-0.34
-1.20
-0.91
0.26
1.07
0.99
0.10
-0.97
-1.03
-0.03
0.93
1.11
0.40
-0.71
-1.16
-0.43
0.67
1.13
0.69
-0.36
-1.16
-0.77
0.37
1.11
0.97
0.04
-1.03
-1.04
0.01
0.92
1.04
0.29
-0.82
-1.19
-0.42
0.62
0.99
0.49
-0.58
-1.28
-0.82
0.32
0.97
0.75
-0.23
-1.27
-1.20
-0.09
0.78
0.79
-0.03
-1.14
-1.40
-0.53
0.51
0.85
0.30
-0.76
-1.38
-0.81
0.31
0.91
0.60
-0.42
-1.40
-1.24
-0.10
0.72
0.67
-0.18
-1.29
-1.48
-0.53
0.45
0.68
0.04
-1.07
-1.62
-0.99
0.11
0.63
0.26
-0.76
-1.60
-1.30
-0.13
0.65
0.52
-0.39
-1.49
-1.57
-0.59
0.32
0.47
-0.25
-1.35
-1.77
-1.01
0.10
0.55
0.10
-0.95
-1.71
-1.29
-0.14
0.57
0.37
-0.60
-1.67
-1.64
-0.57
0.33
0.39
-0.39
-1.51
-1.85
-1.02
0.06
0.47
-0.01
-1.04
-1.66
-1.11
0.04
0.68
0.44
-0.54
-1.52
-1.38
-0.24
0.61
0.60
-0.21
-1.29
-1.51
-0.59
0.43
0.75
0.20
-0.85
-1.39
-0.75
0.42
1.02
0.73
-0.25
-1.14
-0.91
0.26
1.09
1.04
0.19
-0.87
-0.98
0.02
1.02
1.24
0.57
-0.54
-1.06
-0.41
0.68
1.17
0.79
-0.22
-1.04
-0.70
0.48
1.27
1.16
0.26
-0.79
-0.83
0.18
1.13
1.29
0.58
-0.53
Sampling Rate: 380.00 Hz
-0.68
0.28
1.24
1.45
0.78
-0.33
-0.85
-0.19
0.90
1.40
1.01
0.00
-0.84
-0.51
0.66
1.44
1.31
0.40
-0.68
-0.72
0.33
1.30
1.47
0.81
-0.25
-0.62
0.17
1.30
1.78
1.35
0.34
-0.40
0.05
1.22
1.95
1.78
0.83
-0.24
-0.21
0.86
1.79
1.89
1.14
0.03
-0.32
0.48
1.55
1.96
1.47
0.44
-0.21
0.32
1.49
2.17
1.95
1.00
-0.01
0.07
1.17
2.03
2.02
1.18
0.04
-0.25
0.58
1.60
1.93
1.36
0.28
-0.33
0.22
1.34
1.91
1.59
0.57
-0.41
-0.24
0.89
1.70
1.66
0.80
-0.29
-0.48
0.45
1.45
1.69
1.06
-0.03
-0.56
0.07
1.19
1.74
1.38
0.35
-0.55
-0.30
0.84
1.63
1.53
0.63
-0.46
-0.54
0.47
1.45
1.64
0.95
-0.17
-0.66
0.03
1.10
1.56
1.14
0.10
-0.71
-0.35
0.79
1.52
1.35
0.39
-0.70
-0.71
0.31
1.24
1.37
0.64
-0.47
-0.84
-0.04
1.05
1.48
1.01
-0.05
-0.78
-0.32
0.83
1.50
1.30
0.35
-0.68
-0.62
0.47
1.34
1.41
0.63
-0.44
-0.71
0.16
1.21
1.57
1.04
-0.02
-0.64
-0.08
1.08
1.72
1.44
0.45
-0.50
-0.34
0.81
1.67
1.66
0.83
-0.27
-0.45
0.49
1.50
1.77
1.16
0.07
-0.49
0.15
1.28
1.88
1.58
0.62
-0.24
0.03
1.21
2.05
2.01
1.16
0.13
0.04
1.07
2.08
2.35
1.72
0.65
0.17
0.86
1.95
2.42
1.99
0.93
0.07
0.39
1.52
2.25
2.10
1.18
0.08
0.02
1.03
1.93
2.05
1.31
0.18
-0.26
0.47
1.54
1.98
1.51
0.47
-0.27
0.16
1.31
2.01
1.82
0.88
-0.17
-0.15
0.92
1.82
1.88
1.10
-0.01
-0.35
0.47
1.52
1.89
1.37
0.34
-0.30
0.23
1.40
2.06
1.81
0.82
-0.17
-0.06
1.05
1.91
1.92
1.09
-0.02
-0.29
0.57
1.57
1.84
1.22
0.13
-0.47
0.11
1.23
1.79
1.47
0.45
-0.51
-0.35
0.78
1.59
1.52
0.66
-0.43
-0.60
0.37
1.37
1.63
1.03
-0.04
-0.56
0.11
1.24
1.78
1.41
0.38
-0.49
-0.21
0.94
1.74
1.66
0.78
-0.28
-0.32
0.71
1.66
1.84
1.14
0.00
-0.49
0.21
1.29
1.74
1.28
0.22
-0.59
-0.20
0.95
1.68
1.51
0.56
-0.53
-0.54
0.49
1.40
1.51
0.78
-0.31
-0.67
0.13
1.22
1.67
1.22
0.18
-0.50
0.00
1.18
1.89
1.71
0.78
-0.21
-0.12
0.98
1.85
1.88
1.06
-0.05
-0.33
0.53
1.57
1.90
1.35
0.27
-0.36
0.21
1.36
1.98
1.70
0.70
-0.28
-0.12
1.03
1.86
1.83
0.98
-0.11
-0.29
0.67
1.68
1.95
1.34
0.25
-0.31
0.30
1.40
1.96
1.63
0.63
-0.23
0.06
1.23
2.04
1.97
1.08
-0.01
-0.12
0.87
1.84
2.05
1.37
0.26
-0.21
0.50
1.60
2.10
1.70
0.67
-0.15
0.19
Sampling Rate: 380.00 Hz
1.11
1.51
1.05
-0.02
-0.95
-0.72
0.42
1.23
1.19
0.34
-0.70
-0.77
0.25
1.25
1.47
0.84
-0.24
-0.72
-0.02
1.07
1.53
1.11
0.08
-0.73
-0.40
0.74
1.50
1.37
0.46
-0.61
-0.64
0.42
1.37
1.54
0.83
-0.28
-0.70
0.06
1.12
1.55
1.09
0.04
-0.70
-0.27
0.89
1.61
1.43
0.50
-0.53
-0.48
0.62
1.54
1.63
0.88
-0.21
-0.55
0.28
1.36
1.75
1.26
0.21
-0.44
0.08
1.23
1.90
1.66
0.69
-0.31
-0.18
0.94
1.83
1.86
1.06
-0.01
-0.26
0.64
1.68
2.02
1.46
0.41
-0.17
0.42
1.54
2.15
1.84
0.84
-0.12
0.05
1.18
2.00
1.95
1.10
-0.01
-0.19
0.74
1.71
1.93
1.28
0.16
-0.42
0.19
1.27
1.78
1.39
0.35
-0.52
-0.24
0.92
1.71
1.60
0.67
-0.43
-0.52
0.49
1.45
1.65
0.98
-0.11
-0.56
0.15
1.23
1.70
1.29
0.27
-0.49
-0.09
1.06
1.77
1.59
0.61
-0.48
-0.49
0.55
1.47
1.57
0.80
-0.31
-0.68
0.12
1.18
1.56
1.08
0.04
-0.64
-0.15
0.99
1.66
1.43
0.47
-0.52
-0.39
0.75
1.65
1.70
0.89
-0.22
-0.48
0.39
1.40
1.71
1.12
0.02
-0.60
-0.05
1.08
1.67
1.37
0.37
-0.60
-0.42
0.73
1.58
1.57
0.72
-0.37
-0.55
0.38
1.36
1.63
1.01
-0.08
-0.64
-0.01
1.10
1.63
1.27
0.25
-0.66
-0.40
0.75
1.56
1.48
0.60
-0.46
-0.55
0.47
1.43
1.60
0.92
-0.18
-0.65
0.08
1.20
1.72
1.32
0.29
-0.47
-0.07
1.11
1.87
1.74
0.82
-0.23
-0.21
0.86
1.80
1.91
1.16
0.04
-0.31
0.47
1.53
1.92
1.43
0.37
-0.33
0.14
1.27
1.93
1.68
0.70
-0.33
-0.26
0.83
1.71
1.75
0.94
-0.19
-0.47
0.40
1.44
1.79
1.25
0.19
-0.41
0.15
1.30
1.92
1.64
0.64
-0.32
-0.14
1.03
1.91
1.91
1.09
0.01
-0.17
0.76
1.76
2.03
1.42
0.33
-0.22
0.41
1.53
2.07
1.72
0.72
-0.15
0.13
1.30
2.11
2.03
1.16
0.09
-0.01
0.97
1.92
2.10
1.42
0.31
-0.18
0.51
1.57
2.02
1.56
0.49
-0.33
0.02
1.17
1.91
1.75
0.79
-0.31
-0.34
0.68
1.58
1.69
0.93
-0.20
-0.61
0.15
1.20
1.59
1.10
0.04
-0.69
-0.26
0.88
1.55
1.32
0.35
-0.70
-0.62
0.48
1.38
1.42
0.63
-0.44
-0.73
0.15
1.24
1.62
1.10
0.03
-0.59
-0.06
1.08
1.69
1.43
0.45
-0.52
-0.37
0.76
1.61
1.62
0.80
-0.29
-0.49
0.43
1.42
1.69
1.09
0.02
-0.53
0.11
1.24
1.80
1.47
0.45
-0.46
-0.24
0.91
1.71
1.65
0.77
-0.33
-0.47
0.49
1.44
1.64
0.97
-0.14
-0.65
0.04
1.15
1.66
1.25
0.22
-0.60
-0.26
0.88
1.63
1.49
0.55
-0.53
-0.56
0.48
1.43
Sampling Rate: 380.00 Hz
1.46
0.63
-0.39
-0.48
0.52
1.48
1.67
0.97
-0.16
-0.66
-0.00
1.08
1.52
1.08
0.03
-0.79
-0.47
0.66
1.39
1.23
0.28
-0.84
-0.92
0.08
0.98
1.08
0.33
-0.81
-1.26
-0.52
0.57
1.01
0.54
-0.50
-1.22
-0.79
0.37
1.06
0.86
-0.08
-1.12
-1.07
0.02
0.91
0.96
0.17
-0.93
-1.25
-0.42
0.61
0.99
0.47
-0.58
-1.20
-0.63
0.55
1.21
0.95
-0.03
-1.01
-0.84
0.33
1.21
1.24
0.46
-0.60
-0.79
0.12
1.12
1.43
0.86
-0.22
-0.78
-0.17
0.96
1.53
1.18
0.16
-0.78
-0.58
0.54
1.34
1.25
0.35
-0.76
-0.88
0.10
1.08
1.28
0.59
-0.54
-1.06
-0.39
0.70
1.18
0.75
-0.30
-1.13
-0.82
0.31
1.04
0.87
-0.09
-1.21
-1.27
-0.24
0.69
0.81
0.06
-1.07
-1.51
-0.77
0.30
0.72
0.23
-0.85
-1.61
-1.19
-0.06
0.61
0.41
-0.56
-1.62
-1.61
-0.57
0.30
0.34
-0.47
-1.60
-1.91
-1.06
-0.02
0.33
-0.22
-1.30
-1.93
-1.40
-0.27
0.34
0.04
-0.96
-1.99
-1.86
-0.75
0.10
0.08
-0.76
-1.87
-2.10
-1.20
-0.22
0.04
-0.59
-1.71
-2.30
-1.70
-0.59
-0.06
-0.43
-1.44
-2.32
-2.05
-0.89
-0.08
-0.15
-1.02
-2.09
-2.15
-1.13
-0.17
0.03
-0.64
-1.74
-2.22
-1.51
-0.43
0.03
-0.39
-1.42
-2.17
-1.76
-0.59
0.13
-0.04
-0.99
-2.08
-2.08
-1.03
-0.11
0.03
-0.69
-1.79
-2.17
-1.36
-0.27
0.15
-0.35
-1.44
-2.15
-1.68
-0.53
0.14
-0.08
-1.05
-2.07
-2.00
-0.90
-0.03
0.01
-0.79
-1.89
-2.15
-1.26
-0.20
0.17
-0.36
-1.42
-1.99
-1.42
-0.28
0.35
0.07
-0.91
-1.84
-1.67
-0.53
0.30
0.25
-0.64
-1.74
-1.91
-0.97
0.02
0.30
-0.29
-1.37
-1.90
-1.25
-0.15
0.38
0.00
-1.02
-1.88
-1.56
-0.40
0.40
0.31
-0.59
-1.67
-1.74
-0.71
0.27
0.47
-0.21
-1.31
-1.77
-1.04
0.07
0.57
0.14
-0.92
-1.68
-1.28
-0.13
0.59
0.41
-0.54
-1.64
-1.67
-0.63
0.26
0.32
-0.48
-1.62
-1.99
-1.18
-0.14
0.20
-0.35
-1.44
-2.11
-1.61
-0.49
0.13
-0.14
-1.14
-2.13
-2.00
-0.88
-0.03
-0.02
-0.86
-1.99
-2.21
-1.31
-0.33
-0.07
-0.72
-1.86
-2.46
-1.88
-0.81
-0.29
-0.67
-1.72
-2.66
-2.44
-1.30
-0.50
-0.61
-1.51
-2.60
-2.72
-1.75
-0.81
-0.66
-1.39
-2.55
-3.07
-2.40
-1.32
-0.85
-1.31
-2.39
-3.20
-2.85
-1.70
-0.96
-1.13
-2.09
-3.17
-3.19
-2.16
-1.25
-1.16
-1.94
-3.06
-3.42
-2.61
-1.53
-1.12
-1.60
-2.62
-3.26
-2.71
-1.53
-0.83
-1.04
-1.98
-2.96
-2.83
-1.68
-0.80
-0.75
-1.51
-2.57
-2.75
-1.80
-0.76
-0.45
-1.01
-2.06
-2.59
-1.93
-0.78
-0.20
-0.51
-1.51
-2.39
-2.14
-0.98
-0.16
-0.22
-1.10
-2.19
-2.31
-1.34
-0.38
-0.16
-0.82
Sampling Rate: 380.00 Hz
-1.81
-1.96
-1.02
-0.02
0.27
-0.34
-1.46
-2.07
-1.51
-0.45
0.05
-0.33
-1.37
-2.32
-2.11
-1.01
-0.25
-0.38
-1.31
-2.41
-2.53
-1.57
-0.62
-0.44
-1.13
-2.25
-2.74
-2.04
-0.96
-0.49
-0.94
-2.00
-2.78
-2.39
-1.23
-0.49
-0.67
-1.61
-2.67
-2.66
-1.59
-0.69
-0.62
-1.39
-2.49
-2.81
-1.97
-0.91
-0.53
-1.07
-2.15
-2.83
-2.33
-1.20
-0.57
-0.84
-1.80
-2.77
-2.62
-1.46
-0.62
-0.63
-1.48
-2.56
-2.73
-1.79
-0.79
-0.50
-1.11
-2.20
-2.77
-2.17
-1.10
-0.59
-0.97
-1.99
-2.86
-2.57
-1.42
-0.63
-0.73
-1.63
-2.68
-2.75
-1.73
-0.79
-0.63
-1.33
-2.46
-2.91
-2.18
-1.10
-0.66
-1.12
-2.17
-2.93
-2.53
-1.38
-0.66
-0.84
-1.80
-2.88
-2.88
-1.84
-0.98
-0.92
-1.69
-2.79
-3.11
-2.28
-1.22
-0.85
-1.39
-2.45
-3.11
-2.59
-1.46
-0.83
-1.12
-2.13
-3.10
-2.95
-1.80
-0.96
-0.96
-1.78
-2.84
-2.99
-2.04
-1.05
-0.80
-1.44
-2.55
-3.11
-2.50
-1.42
-0.92
-1.33
-2.37
-3.25
-2.95
-1.80
-1.01
-1.07
-1.96
-3.01
-3.06
-2.03
-1.07
-0.89
-1.57
-2.67
-3.10
-2.36
-1.29
-0.85
-1.31
-2.36
-3.08
-2.64
-1.47
-0.77
-0.96
-1.92
-2.99
-2.94
-1.86
-0.96
-0.90
-1.69
-2.80
-3.11
-2.25
-1.20
-0.84
-1.37
-2.39
-3.01
-2.44
-1.29
-0.66
-0.92
-1.88
-2.83
-2.62
-1.44
-0.56
-0.58
-1.41
-2.48
-2.63
-1.67
-0.67
-0.40
-1.01
-2.09
-2.58
-1.90
-0.77
-0.26
-0.67
-1.71
-2.57
-2.28
-1.13
-0.37
-0.50
-1.42
-2.53
-2.61
-1.61
-0.69
-0.55
-1.27
-2.38
-2.80
-2.04
-0.96
-0.54
-1.03
-2.10
-2.84
-2.43
-1.32
-0.64
-0.86
-1.83
-2.87
-2.80
-1.70
-0.81
-0.75
-1.53
-2.62
-2.88
-2.01
-0.98
-0.63
-1.16
-2.23
-2.82
-2.22
-1.07
-0.42
-0.69
-1.66
-2.57
-2.37
-1.21
-0.36
-0.38
-1.24
-2.32
-2.49
-1.53
-0.53
-0.29
-0.90
-1.98
-2.47
-1.78
-0.66
-0.13
-0.50
-1.51
-2.35
-2.03
-0.87
-0.08
-0.17
-1.07
-2.15
-2.21
-1.19
-0.24
-0.09
-0.81
-1.93
-2.37
-1.63
-0.53
-0.08
-0.53
-1.56
-2.29
-1.82
-0.62
0.10
-0.07
-1.03
-2.10
-2.05
-0.95
-0.04
0.05
-0.70
-1.79
-2.06
-1.18
-0.08
0.33
-0.17
-1.22
-1.84
-1.25
-0.05
0.64
0.43
-0.50
-1.43
-1.22
0.01
0.93
0.96
0.15
-0.92
-1.07
-0.08
1.02
1.38
0.83
-0.25
-0.78
-0.12
1.06
1.65
1.30
0.29
-0.62
-0.34
0.89
1.76
1.72
0.84
-0.25
-0.35
0.69
1.72
1.96
1.30
0.18
-0.32
0.43
1.60
2.15
1.74
0.72
-0.10
0.30
1.56
2.41
2.32
1.41
0.35
0.36
1.48
2.52
2.73
2.02
0.89
0.51
1.39
2.59
3.10
2.66
1.61
0.87
1.39
2.69
3.48
3.29
2.30
1.21
1.31
2.53
3.55
3.68
2.89
1.73
1.41
Sampling Rate: 380.00 Hz
2.36
3.26
3.34
2.53
1.30
0.88
1.80
3.04
3.56
3.07
1.96
1.23
1.81
3.18
3.98
3.77
2.72
1.58
1.74
3.05
4.11
4.17
3.27
2.03
1.77
2.86
4.14
4.54
3.88
2.63
1.93
2.65
4.03
4.72
4.31
3.04
1.84
2.09
3.54
4.50
4.38
3.26
1.89
1.76
2.99
4.23
4.45
3.56
2.13
1.48
2.34
3.74
4.33
3.76
2.40
1.29
1.73
3.28
4.25
4.02
2.75
1.29
1.24
2.60
3.75
3.79
2.67
1.06
0.46
1.49
2.93
3.38
2.60
1.06
-0.00
0.59
2.17
3.07
2.65
1.21
-0.30
-0.21
1.34
2.55
2.54
1.35
-0.25
-0.69
0.53
1.99
2.41
1.54
-0.06
-1.03
-0.27
1.37
2.21
1.71
0.22
-1.29
-1.06
0.56
1.73
1.63
0.34
-1.29
-1.57
-0.24
1.20
1.55
0.61
-0.98
-1.72
-0.75
0.94
1.68
1.06
-0.52
-1.90
-1.52
0.21
1.30
1.04
-0.34
-1.95
-2.01
-0.49
0.90
1.13
0.09
-1.51
-2.15
-1.07
0.54
1.18
0.53
-0.94
-2.04
-1.44
0.30
1.42
1.28
0.09
-1.25
-1.14
0.42
1.80
2.09
1.30
0.02
-0.34
0.82
2.36
3.05
2.58
1.39
0.58
1.23
2.80
3.77
3.64
2.60
1.44
1.61
3.02
4.22
4.41
3.59
2.39
2.09
3.11
4.40
4.92
4.41
3.28
2.54
3.14
4.47
5.22
4.95
3.84
2.65
2.69
3.84
4.74
4.73
3.82
2.58
2.23
3.13
4.19
4.48
3.82
2.60
1.87
2.39
3.52
4.07
3.67
2.53
1.40
1.46
2.57
3.35
3.23
2.23
0.96
0.64
1.50
2.44
2.60
1.83
0.57
-0.11
0.45
1.53
2.01
1.55
0.41
-0.62
-0.48
0.61
1.33
1.17
0.16
-1.03
-1.23
-0.33
0.55
0.66
-0.12
-1.37
-1.99
-1.40
-0.42
-0.06
-0.61
-1.79
-2.71
-2.46
-1.38
-0.71
-0.95
-1.97
-3.16
-3.24
-2.25
-1.38
-1.31
-2.14
-3.32
-3.77
-3.03
-2.03
-1.71
-2.30
-3.44
-4.21
-3.79
-2.70
-2.08
-2.37
-3.41
-4.49
-4.46
-3.40
-2.59
-2.65
-3.53
-4.67
-4.93
-4.05
-3.05
-2.79
-3.43
-4.57
-5.17
-4.60
-3.51
-2.96
-3.35
-4.42
-5.37
-5.15
-4.00
-3.22
-3.31
-4.22
-5.33
-5.46
-4.50
-3.56
-3.37
-4.04
-5.16
-5.63
-4.91
-3.82
-3.35
-3.81
-4.86
-5.66
-5.27
-4.10
-3.36
-3.50
-4.45
-5.52
-5.51
-4.44
-3.52
-3.43
-4.18
-5.27
-5.60
-4.77
-3.70
-3.30
-3.79
-4.83
-5.45
-4.92
-3.76
-3.11
-3.37
-4.35
-5.31
-5.17
-4.02
-3.15
-3.13
-3.92
-4.99
-5.18
-4.25
-3.23
-2.94
-3.52
-4.61
-5.15
-4.51
-3.36
-2.78
-3.09
-4.06
-4.91
-4.61
-3.43
-2.63
-2.69
-3.55
-4.60
-4.66
-3.64
-2.67
-2.46
-3.12
-4.21
-4.65
-3.90
-2.78
-2.27
-2.66
-3.63
-4.34
-3.89
-2.68
-1.92
-2.06
-2.97
-4.00
-3.92
-2.81
-1.84
-1.70
-2.40
-3.47
-3.74
-2.86
-1.77
Sampling Rate: 380.00 Hz
-1.50
-2.10
-3.13
-3.47
-2.65
-1.54
-1.08
-1.52
-2.51
-3.17
-2.65
-1.43
-0.70
-0.85
-1.74
-2.71
-2.57
-1.42
-0.49
-0.41
-1.17
-2.21
-2.39
-1.44
-0.37
-0.01
-0.55
-1.59
-2.11
-1.46
-0.27
0.33
0.03
-0.96
-1.86
-1.62
-0.45
0.41
0.39
-0.44
-1.48
-1.58
-0.57
0.43
0.68
0.07
-1.00
-1.49
-0.81
0.34
0.89
0.52
-0.48
-1.30
-0.97
0.22
1.01
0.93
0.06
-0.96
-0.96
0.09
1.06
1.24
0.56
-0.52
-0.92
-0.14
0.96
1.42
0.97
-0.05
-0.75
-0.31
0.82
1.50
1.29
0.32
-0.75
-0.72
0.34
1.24
1.34
0.58
-0.52
-0.81
0.05
1.11
1.51
0.99
-0.07
-0.72
-0.19
0.95
1.58
1.33
0.38
-0.59
-0.44
0.69
1.55
1.55
0.74
-0.34
-0.55
0.36
1.40
1.72
1.17
0.10
-0.46
0.14
1.25
1.82
1.48
0.46
-0.47
-0.27
0.89
1.73
1.70
0.84
-0.22
-0.34
0.67
1.67
1.94
1.32
0.25
-0.26
0.41
1.53
2.06
1.71
0.71
-0.12
0.18
1.34
2.12
2.02
1.14
0.10
0.06
1.08
2.03
2.20
1.51
0.41
-0.04
0.69
1.79
2.26
1.80
0.72
-0.10
0.24
1.37
2.11
1.95
1.02
-0.05
-0.07
1.00
1.93
2.08
1.36
0.27
-0.11
0.67
1.74
2.17
1.70
0.64
-0.05
0.41
1.59
2.30
2.11
1.13
0.05
0.06
1.10
1.95
1.99
1.19
0.08
-0.24
0.60
1.65
1.99
1.45
0.35
-0.32
0.17
1.27
1.87
1.59
0.61
-0.40
-0.29
0.83
1.65
1.61
0.74
-0.41
-0.66
0.21
1.18
1.42
0.81
-0.28
-0.84
-0.21
0.91
1.48
1.15
0.13
-0.77
-0.54
0.59
1.39
1.29
0.40
-0.70
-0.81
0.19
1.16
1.38
0.73
-0.37
-0.85
-0.14
0.98
1.47
1.08
0.07
-0.73
-0.37
0.78
1.54
1.41
0.49
-0.59
-0.62
0.43
1.37
1.49
0.75
-0.36
-0.76
0.01
1.06
1.47
0.97
-0.10
-0.81
-0.35
0.80
1.49
1.28
0.29
-0.76
-0.72
0.35
1.23
1.27
0.48
-0.64
-0.95
-0.13
0.90
1.26
0.70
-0.36
-0.99
-0.44
0.70
1.32
1.05
0.08
-0.88
-0.73
0.42
1.29
1.30
0.49
-0.56
-0.73
0.24
1.28
1.58
1.02
-0.04
-0.60
0.01
1.14
1.74
1.41
0.40
-0.51
-0.25
0.91
1.74
1.68
0.80
-0.31
-0.44
0.54
1.51
1.72
1.08
-0.01
-0.51
0.18
1.27
1.75
1.33
0.30
-0.52
-0.18
1.00
1.78
1.68
0.75
-0.34
-0.38
0.64
1.57
1.70
0.96
-0.19
-0.64
0.10
1.14
1.55
1.06
-0.01
-0.75
-0.35
0.78
1.46
1.24
0.26
-0.82
-0.81
0.24
1.12
1.16
0.36
-0.76
-1.12
-0.31
0.70
1.02
0.46
-0.64
-1.32
-0.82
0.31
0.95
0.70
-0.25
-1.21
-1.04
0.11
0.98
0.96
0.13
-0.96
-1.16
-0.24
0.77
1.05
0.46
-0.63
-1.19
-0.55
0.60
1.20
0.87
Sampling Rate: 380.00 Hz
-0.07
-0.63
-0.02
1.17
1.82
1.55
0.56
-0.42
-0.29
0.82
1.65
1.59
0.73
-0.38
-0.60
0.32
1.31
1.58
0.96
-0.15
-0.75
-0.15
0.94
1.46
1.06
-0.01
-0.93
-0.71
0.44
1.23
1.15
0.26
-0.85
-0.98
-0.03
0.92
1.09
0.39
-0.74
-1.25
-0.58
0.50
0.98
0.53
-0.53
-1.36
-1.03
0.11
0.85
0.70
-0.24
-1.34
-1.36
-0.33
0.59
0.73
0.00
-1.11
-1.54
-0.79
0.27
0.70
0.21
-0.85
-1.60
-1.16
0.01
0.72
0.53
-0.41
-1.45
-1.39
-0.30
0.59
0.65
-0.14
-1.26
-1.57
-0.72
0.32
0.70
0.20
-0.83
-1.43
-0.87
0.31
0.96
0.68
-0.32
-1.30
-1.17
-0.03
0.81
0.80
-0.02
-1.12
-1.31
-0.39
0.63
0.91
0.30
-0.80
-1.36
-0.74
0.39
0.98
0.67
-0.31
-1.19
-0.91
0.28
1.13
1.08
0.22
-0.83
-0.93
0.06
1.04
1.24
0.57
-0.55
-1.04
-0.35
0.76
1.23
0.81
-0.22
-1.05
-0.72
0.42
1.18
1.05
0.12
-0.96
-0.99
0.03
0.94
1.05
0.28
-0.86
-1.29
-0.53
0.55
0.97
0.49
-0.58
-1.33
-0.89
0.25
0.92
0.71
-0.26
-1.31
-1.27
-0.21
0.64
0.65
-0.16
-1.27
-1.57
-0.72
0.33
0.70
0.16
-0.91
-1.52
-0.96
0.17
0.77
0.46
-0.54
-1.50
-1.32
-0.16
0.68
0.66
-0.17
-1.27
-1.46
-0.51
0.50
0.77
0.17
-0.93
-1.49
-0.88
0.23
0.78
0.43
-0.59
-1.47
-1.19
-0.02
0.78
0.70
-0.18
-1.26
-1.34
-0.34
0.61
0.80
0.13
-0.99
-1.49
-0.79
0.28
0.72
0.28
-0.75
-1.54
-1.17
-0.02
0.71
0.54
-0.39
-1.43
-1.43
-0.37
0.55
0.65
-0.12
-1.26
-1.63
-0.83
0.22
0.63
0.14
-0.91
-1.60
-1.14
-0.01
0.64
0.39
-0.60
-1.63
-1.55
-0.46
0.39
0.39
-0.43
-1.55
-1.82
-0.95
0.09
0.41
-0.17
-1.26
-1.87
-1.31
-0.18
0.43
0.12
-0.88
-1.84
-1.64
-0.48
0.36
0.32
-0.56
-1.68
-1.84
-0.89
0.08
0.32
-0.31
-1.40
-1.93
-1.27
-0.18
0.31
-0.12
-1.17
-2.03
-1.73
-0.59
0.18
0.05
-0.87
-1.95
-2.01
-0.98
-0.05
0.09
-0.64
-1.75
-2.17
-1.39
-0.31
0.13
-0.33
-1.37
-2.09
-1.65
-0.53
0.14
-0.08
-1.07
-2.15
-2.14
-1.09
-0.23
-0.19
-0.99
-2.12
-2.45
-1.62
-0.58
-0.22
-0.75
-1.81
-2.44
-1.88
-0.73
-0.10
-0.39
-1.37
-2.35
-2.18
-1.03
-0.17
-0.15
-0.98
-2.04
-2.20
-1.23
-0.20
0.11
-0.47
-1.51
-1.99
-1.28
-0.11
0.49
0.20
-0.77
-1.60
-1.25
-0.04
0.82
0.78
-0.06
-1.06
-1.06
0.01
1.04
1.29
0.65
-0.40
-0.79
0.00
1.14
1.65
1.27
0.27
-0.47
-0.04
1.18
1.97
1.88
0.97
-0.09
-0.09
0.97
1.91
2.05
1.34
0.25
-0.10
0.71
1.80
2.24
1.78
0.76
0.08
0.58
1.77
2.49
2.32
1.39
0.37
Sampling Rate: 380.00 Hz
0.57
1.63
2.34
2.17
1.22
0.14
0.11
1.14
2.10
2.26
1.58
0.54
0.19
1.03
2.17
2.68
2.28
1.32
0.68
1.23
2.47
3.25
3.11
2.19
1.20
1.32
2.49
3.47
3.63
2.93
1.92
1.71
2.62
3.74
4.17
3.71
2.71
2.11
2.70
3.89
4.58
4.39
3.48
2.57
2.77
3.96
4.84
4.86
4.05
2.95
2.74
3.64
4.63
4.90
4.31
3.22
2.65
3.27
4.37
4.94
4.58
3.58
2.68
2.94
4.11
4.94
4.88
4.00
2.91
2.79
3.76
4.72
4.92
4.24
3.11
2.60
3.25
4.32
4.80
4.36
3.31
2.46
2.75
3.87
4.62
4.46
3.53
2.42
2.37
3.36
4.27
4.39
3.65
2.51
2.08
2.81
3.89
4.30
3.83
2.75
2.01
2.43
3.56
4.25
4.03
3.07
2.01
2.03
3.06
3.93
3.97
3.17
2.03
1.66
2.45
3.45
3.75
3.17
2.06
1.39
1.88
2.98
3.60
3.33
2.35
1.34
1.43
2.52
3.34
3.30
2.44
1.30
1.05
1.92
2.91
3.19
2.59
1.48
0.88
1.45
2.52
3.07
2.72
1.69
0.76
0.98
2.13
2.93
2.87
2.02
0.95
0.84
1.83
2.82
3.04
2.39
1.29
0.79
1.45
2.54
3.04
2.64
1.62
0.80
1.14
2.31
3.09
2.96
2.01
0.91
0.85
1.84
2.76
2.90
2.19
1.06
0.60
1.34
2.40
2.81
2.35
1.29
0.53
0.94
2.05
2.73
2.54
1.59
0.52
0.54
1.61
2.49
2.54
1.76
0.64
0.30
1.12
2.18
2.53
1.98
0.89
0.21
0.70
1.82
2.45
2.17
1.17
0.14
0.23
1.31
2.12
2.08
1.23
0.11
-0.14
0.74
1.74
2.04
1.46
0.38
-0.24
0.32
1.42
1.96
1.60
0.57
-0.39
-0.21
0.92
1.73
1.65
0.77
-0.31
-0.47
0.47
1.44
1.67
1.03
-0.09
-0.62
0.04
1.11
1.60
1.17
0.11
-0.75
-0.44
0.72
1.48
1.35
0.42
-0.65
-0.69
0.33
1.29
1.47
0.78
-0.31
-0.74
-0.01
1.04
1.47
1.00
-0.06
-0.83
-0.42
0.70
1.37
1.16
0.16
-0.93
-0.95
0.08
0.95
1.03
0.26
-0.84
-1.19
-0.39
0.63
0.97
0.42
-0.67
-1.35
-0.87
0.24
0.86
0.61
-0.37
-1.38
-1.26
-0.16
0.67
0.67
-0.17
-1.27
-1.51
-0.62
0.37
0.67
0.09
-0.99
-1.56
-0.94
0.21
0.81
0.51
-0.48
-1.41
-1.19
-0.01
0.85
0.84
-0.01
-1.09
-1.23
-0.27
0.70
0.94
0.33
-0.75
-1.26
-0.57
0.56
1.10
0.73
-0.28
-1.12
-0.80
0.37
1.16
1.06
0.17
-0.90
-0.94
0.09
1.05
1.21
0.50
-0.61
-1.05
-0.31
0.80
1.28
0.87
-0.13
-0.84
-0.39
0.82
1.57
1.42
0.50
-0.55
-0.50
0.61
1.57
1.71
1.00
-0.07
-0.39
0.45
1.53
1.94
1.44
0.39
-0.26
0.27
1.43
2.10
1.84
0.86
-0.17
-0.06
1.08
1.96
2.01
1.22
0.14
-0.07
0.85
Sampling Rate: 380.00 Hz
1.65
1.68
0.89
-0.24
-0.59
0.25
1.34
1.73
1.21
0.15
-0.51
0.03
1.21
1.89
1.64
0.69
-0.29
-0.12
1.06
1.99
2.02
1.20
0.12
-0.09
0.84
1.87
2.18
1.59
0.50
-0.07
0.58
1.77
2.37
2.03
0.98
0.03
0.27
1.46
2.32
2.27
1.40
0.29
0.20
1.25
2.30
2.55
1.88
0.72
0.16
0.88
2.05
2.56
2.13
1.03
0.13
0.49
1.75
2.59
2.47
1.51
0.39
0.37
1.50
2.53
2.69
1.91
0.70
0.26
1.10
2.28
2.73
2.16
0.96
0.11
0.58
1.86
2.62
2.36
1.25
0.01
0.07
1.32
2.38
2.43
1.48
0.14
-0.27
0.68
1.87
2.21
1.50
0.16
-0.65
-0.02
1.35
2.02
1.60
0.29
-1.02
-0.86
0.55
1.53
1.40
0.20
-1.32
-1.68
-0.51
0.75
0.99
0.01
-1.55
-2.34
-1.48
0.04
0.65
-0.05
-1.63
-2.99
-2.61
-0.97
0.02
-0.29
-1.75
-3.40
-3.50
-1.98
-0.63
-0.55
-1.82
-3.67
-4.45
-3.36
-1.76
-1.29
-2.30
-4.18
-5.53
-4.96
-3.15
-2.24
-2.86
-4.68
-6.53
-6.48
-4.76
-3.44
-3.57
-5.11
-7.10
-7.67
-6.25
-4.57
-4.23
-5.42
-7.40
-8.57
-7.64
-5.72
-4.88
-5.68
-7.64
-9.49
-9.24
-7.32
-6.07
-6.43
-8.14
-10.17
-10.44
-8.71
-7.09
-6.94
-8.30
-10.32
-11.07
-9.67
-7.70
-7.02
-7.96
-9.90
-11.25
-10.33
-8.11
-6.96
-7.51
-9.42
-11.34
-11.05
-8.94
-7.51
-7.80
-9.58
-11.71
-12.02
-10.20
-8.44
-8.20
-9.67
-11.86
-12.69
-11.15
-9.04
-8.31
-9.37
-11.50
-12.95
-11.93
-9.56
-8.38
-9.12
-11.26
-13.39
-13.06
-10.78
-9.33
-9.78
-11.78
-14.01
-14.09
-11.93
-10.06
-9.94
-11.58
-13.92
-14.59
-12.73
-10.51
-9.95
-11.37
-13.75
-14.92
-13.41
-10.93
-9.96
-11.00
-13.40
-15.33
-14.53
-11.98
-10.69
-11.57
-14.01
-16.38
-15.99
-13.47
-11.82
-12.34
-14.59
-17.09
-17.17
-14.81
-12.88
-12.95
-15.01
-17.71
-18.29
-16.07
-13.56
-13.01
-14.60
-17.23
-18.33
-16.46
-13.88
-13.03
-14.34
-16.91
-18.41
-16.79
-13.56
-11.97
-12.71
-15.08
-17.15
-15.98
-12.54
-10.50
-10.89
-13.14
-15.39
-14.65
-11.37
-8.92
-8.73
-10.64
-13.16
-13.27
-10.48
-7.79
-7.28
-9.00
-11.59
-12.44
-10.23
-7.23
-6.16
-7.42
-10.03
-11.91
-10.61
-7.53
-5.94
-6.78
-9.33
-11.84
-11.38
-8.45
-6.47
-6.82
-9.25
-12.20
-12.60
-9.93
-7.24
-6.63
-8.34
-10.99
-11.86
-9.47
-6.10
-4.59
-5.48
-7.74
-9.43
-7.95
-4.34
-2.10
-2.25
-4.22
-6.23
-5.40
-1.90
1.13
2.04
0.86
-1.13
-1.26
1.46
4.72
6.02
4.97
2.63
0.99
2.27
5.30
6.81
6.02
3.42
0.84
1.00
3.56
5.38
5.01
2.66
-0.30
-1.18
0.72
3.01
3.47
1.81
-0.84
-2.37
-0.96
1.94
3.41
2.65
0.31
-1.92
-1.17
1.81
3.95
3.94
2.06
-0.20
-0.28
2.37
5.08
5.91
Sampling Rate: 378.00 Hz
4.69
2.79
2.76
5.34
8.09
8.89
7.48
4.98
3.62
5.04
7.73
8.85
7.69
4.91
2.22
2.40
4.82
6.36
5.70
3.16
0.24
-0.37
1.74
3.93
4.26
2.62
0.17
-0.77
1.30
4.44
5.99
5.40
3.38
1.75
3.11
6.66
9.10
9.32
7.73
5.90
6.59
9.91
13.04
14.06
12.96
11.12
11.12
13.98
17.22
18.46
17.39
15.19
14.18
16.05
19.03
20.31
19.26
16.66
14.53
15.40
18.22
19.65
18.72
16.03
13.44
13.81
16.57
18.39
18.04
15.80
13.35
13.47
16.37
18.95
19.50
18.07
15.95
15.89
18.74
21.91
23.12
22.11
19.95
19.13
21.25
24.25
25.42
24.21
21.55
19.52
20.59
23.52
24.94
24.02
21.33
18.72
19.15
21.93
23.65
23.10
20.69
18.03
18.01
20.52
22.44
22.18
19.87
16.86
15.92
17.87
20.07
20.36
18.52
15.79
14.74
16.70
19.64
20.91
19.94
17.75
16.45
18.29
21.82
23.83
23.60
21.67
19.88
21.16
24.73
27.07
27.06
25.27
23.33
24.02
27.27
29.89
30.32
28.73
26.25
25.68
27.67
29.68
29.61
27.47
24.48
23.19
24.81
27.20
27.89
26.45
23.87
22.38
23.96
27.14
28.85
28.37
26.39
24.75
26.17
29.85
32.31
32.48
30.96
29.36
30.48
34.03
36.77
37.37
35.96
33.94
34.14
36.95
39.70
40.45
39.09
36.84
36.23
38.49
41.33
42.27
41.04
38.64
37.47
39.31
42.50
44.07
43.45
41.33
39.68
41.03
44.36
46.35
45.97
43.81
41.62
42.28
45.21
47.18
46.91
44.65
41.98
41.63
43.86
45.76
45.67
43.56
40.71
39.70
41.49
43.70
44.00
42.17
39.24
37.66
38.95
41.26
41.92
40.37
37.48
35.31
36.22
39.05
40.53
39.80
37.44
35.30
36.24
39.55
41.96
42.16
40.60
38.83
39.66
43.04
45.90
46.67
45.45
43.53
43.64
46.47
49.42
50.30
48.90
46.51
45.50
47.33
49.94
50.71
49.23
46.47
44.45
45.42
48.01
49.07
47.85
45.05
42.39
42.69
45.17
46.51
45.58
42.87
40.11
40.13
42.68
44.63
44.55
42.61
40.16
39.96
42.54
45.19
45.94
44.60
42.36
41.79
44.09
47.08
48.25
47.21
44.93
43.63
45.27
48.18
49.38
48.27
45.56
43.19
43.81
46.45
47.70
46.62
43.69
40.66
40.37
42.44
43.60
42.58
39.60
36.21
35.12
36.63
37.89
37.10
34.26
30.73
29.07
30.30
32.01
31.93
29.82
26.71
24.86
25.94
28.15
28.73
27.18
24.31
22.05
22.77
25.42
26.67
25.67
23.03
20.47
20.81
23.42
25.00
24.35
21.88
19.08
18.70
20.89
22.77
22.66
20.64
17.93
17.20
19.27
21.72
22.29
20.80
18.37
17.37
19.30
22.24
23.52
22.67
20.58
19.24
20.95
24.44
26.55
26.41
24.68
23.07
24.44
28.00
30.41
30.50
28.71
26.64
27.07
30.00
32.33
32.51
30.68
28.20
27.79
30.08
32.46
32.80
31.01
28.21
Sampling Rate: 374.00 Hz
27.57
29.59
31.59
31.60
29.52
26.50
25.07
26.45
28.48
28.63
26.67
23.47
21.28
22.00
24.10
24.56
22.69
19.27
16.17
16.05
17.95
18.47
16.68
13.21
9.70
8.89
10.45
11.23
9.85
6.56
2.69
0.76
1.48
2.29
1.02
-2.62
-7.50
-11.34
-12.16
-11.72
-12.98
-16.57
-21.68
-26.23
-27.68
-27.15
-27.98
-31.15
-36.06
-40.99
-43.11
-43.01
-43.96
-47.34
-52.71
-58.53
-61.95
-62.73
-63.86
-67.07
-72.10
-77.83
-81.47
-82.22
-82.59
-84.82
-88.84
-93.75
-97.01
-97.22
-96.41
-97.27
-100.08
-103.91
-106.54
-106.01
-103.95
-103.27
-104.60
-107.18
-108.93
-107.64
-104.62
-102.96
-103.48
-105.48
-107.07
-105.66
-102.30
-100.23
-100.42
-102.23
-103.93
-102.69
-99.30
-97.15
-97.21
-98.96
-100.79
-99.91
-96.62
-94.13
-93.79
-95.31
-97.22
-96.84
-93.76
-90.82
-89.90
-91.02
-92.94
-92.93
-90.05
-86.78
-85.38
-86.11
-87.91
-88.38
-85.95
-82.43
-80.60
-81.07
-82.90
-84.09
-82.30
-78.73
-76.65
-76.93
-78.92
-80.84
-79.74
-76.44
-74.20
-74.24
-76.06
-77.31
-75.55
-70.99
-66.76
-64.47
-64.00
-64.03
-61.93
-57.29
-52.76
-50.27
-49.90
-50.46
-49.51
-45.88
-41.78
-39.55
-39.52
-40.69
-40.83
-38.17
-34.41
-32.30
-32.47
-34.13
-35.28
-33.58
-30.05
-27.80
-27.70
-29.25
-30.76
-29.46
-25.94
-23.29
-22.66
-23.84
-25.26
-24.33
-20.93
-17.85
-16.67
-17.30
-18.58
-18.04
-14.93
-11.56
-10.07
-10.55
-12.02
-12.11
-9.46
-5.98
-4.15
-4.43
-6.01
-7.10
-5.36
-1.74
0.59
0.73
-0.85
-2.57
-1.86
1.20
3.81
4.44
3.14
1.11
0.89
3.43
6.52
7.88
7.13
5.13
3.79
5.33
8.62
10.55
10.35
8.44
6.57
7.43
10.63
13.04
13.31
11.74
9.71
9.81
12.46
15.08
15.68
14.18
11.78
11.00
12.93
15.49
16.31
15.03
12.61
11.22
12.63
15.37
16.64
15.77
13.43
11.49
12.44
15.40
17.16
16.80
14.82
12.85
13.56
16.62
18.97
19.18
17.61
15.62
15.93
18.85
21.67
22.57
21.45
19.60
19.51
22.13
24.95
25.83
24.55
22.21
20.96
22.49
25.13
26.16
25.10
22.70
20.81
21.80
24.56
26.03
25.36
23.01
20.69
21.14
23.75
25.50
25.17
23.03
20.58
20.46
22.76
24.76
24.74
22.70
19.97
19.00
20.74
22.78
23.08
21.40
18.73
17.37
18.83
21.30
22.26
21.20
18.83
17.11
18.29
21.29
23.00
22.64
20.68
18.77
19.66
22.71
24.83
24.84
23.12
21.23
21.73
24.70
27.19
27.73
26.32
24.30
24.23
26.75
29.49
30.33
29.18
27.08
26.38
28.39
31.22
32.42
31.50
29.36
28.00
29.39
32.28
33.71
32.94
30.67
28.56
29.28
32.03
33.64
33.13
30.92
28.54
28.71
31.26
33.20
33.15
31.32
28.99
28.75
31.12
33.52
34.03
32.61
30.47
29.97
32.27
35.14
36.27
35.32
33.29
32.31
34.15
37.26
38.90
38.40
36.48
34.94
36.22
Sampling Rate: 373.00 Hz
38.76
39.86
38.98
36.83
35.31
36.71
39.83
41.64
41.28
39.31
37.32
38.14
41.09
43.05
42.90
40.95
38.73
38.93
41.60
43.80
44.08
42.45
40.18
39.78
42.08
44.64
45.30
43.98
41.69
40.84
42.74
45.50
46.59
45.57
43.37
41.93
43.34
46.32
47.91
47.30
45.17
43.20
44.12
47.19
49.12
48.95
47.07
45.04
45.56
48.45
50.61
50.67
48.85
46.44
46.08
48.32
50.49
50.69
48.84
46.13
45.01
46.65
48.93
49.43
47.88
45.24
43.66
44.88
47.38
48.32
47.16
44.57
42.32
42.97
45.61
46.99
46.21
43.72
41.15
41.23
43.61
45.16
44.62
42.29
39.50
38.94
40.94
42.68
42.49
40.33
37.36
36.18
37.62
39.44
39.40
37.28
34.16
32.31
33.26
35.22
35.60
33.88
30.90
28.53
29.13
31.53
32.58
31.45
28.72
26.13
26.39
28.83
30.34
29.80
27.51
24.96
24.82
27.09
28.92
28.74
26.71
24.08
23.34
25.30
27.54
27.95
26.36
23.80
22.67
24.30
26.77
27.57
26.30
23.76
21.87
22.72
25.10
25.99
24.71
21.87
19.10
19.14
21.17
22.15
20.99
18.10
15.02
14.45
16.26
17.59
16.93
14.44
11.36
10.35
12.04
13.83
13.74
11.59
8.58
7.03
8.24
10.37
10.86
9.26
6.30
3.90
4.36
6.78
7.94
6.95
4.21
1.32
1.01
3.10
4.77
4.48
2.23
-0.79
-2.08
-0.61
1.44
1.77
0.01
-2.92
-5.10
-4.37
-1.87
-0.71
-1.83
-4.60
-7.30
-7.21
-4.82
-3.14
-3.52
-5.82
-8.67
-9.43
-7.48
-5.29
-4.92
-6.70
-9.47
-11.02
-9.69
-7.18
-6.19
-7.38
-10.04
-12.42
-11.88
-9.33
-8.03
-8.98
-11.70
-14.60
-14.87
-12.69
-11.13
-11.64
-14.14
-17.21
-18.13
-16.39
-14.58
-14.74
-16.96
-19.97
-21.27
-19.78
-17.63
-17.23
-18.93
-21.75
-23.56
-22.41
-19.94
-18.99
-20.24
-22.97
-25.31
-24.72
-22.11
-20.88
-21.93
-24.69
-27.41
-27.37
-25.10
-23.71
-24.45
-27.06
-30.02
-30.56
-28.59
-27.01
-27.52
-30.05
-33.23
-34.47
-33.01
-31.31
-31.52
-33.72
-36.86
-38.53
-37.37
-35.25
-34.81
-36.42
-39.14
-40.96
-39.79
-37.05
-35.74
-36.66
-39.12
-41.41
-40.81
-38.07
-36.51
-37.11
-39.49
-41.93
-41.75
-39.22
-37.50
-37.85
-40.08
-42.88
-43.56
-41.68
-39.87
-39.99
-42.10
-45.02
-46.17
-44.58
-42.49
-42.17
-43.92
-46.66
-48.22
-46.92
-44.54
-43.72
-45.02
-47.64
-49.69
-48.86
-46.17
-44.74
-45.50
-47.86
-50.13
-49.62
-46.92
-45.16
-45.47
-47.53
-49.79
-49.69
-47.22
-45.21
-45.20
-47.08
-49.49
-49.90
-47.66
-45.23
-44.60
-45.99
-48.20
-49.02
-47.10
-44.44
-43.48
-44.62
-46.87
-48.28
-46.89
-44.10
-42.71
-43.44
-45.63
-47.48
-46.55
-43.58
-41.77
-42.13
-44.09
-46.04
-45.39
-42.52
-40.37
-40.28
-41.92
-43.92
-43.76
-41.15
-38.78
-38.36
-39.90
-42.11
-42.60
-40.50
-38.00
-37.29
-38.56
-40.84
-41.90
-40.27
-37.67
-36.62
Sampling Rate: 374.00 Hz
-37.63
-39.67
-40.28
-38.29
-35.61
-34.64
-35.68
-37.83
-39.02
-37.45
-34.51
-32.98
-33.50
-35.43
-37.04
-35.84
-32.59
-30.51
-30.58
-32.27
-33.97
-32.96
-29.66
-27.14
-26.67
-27.98
-29.63
-29.10
-26.03
-23.17
-22.25
-23.23
-24.92
-24.84
-22.06
-18.95
-17.61
-18.30
-20.00
-20.46
-18.10
-14.77
-13.02
-13.36
-15.02
-16.06
-14.21
-10.66
-8.50
-8.45
-10.01
-11.50
-10.21
-6.77
-4.13
-3.56
-4.81
-6.52
-6.10
-3.11
-0.06
1.12
0.31
-1.41
-1.67
1.08
5.03
7.32
7.24
5.61
4.26
5.92
9.80
12.49
12.83
11.33
9.61
10.49
14.00
16.96
17.73
16.45
14.56
14.83
18.05
21.48
22.93
22.17
20.49
20.35
23.28
27.08
29.08
28.86
27.31
26.58
28.92
33.00
35.26
35.01
33.02
31.02
31.79
34.64
36.24
35.53
33.04
30.38
30.27
32.47
33.95
33.31
30.77
27.62
26.64
28.32
30.09
29.94
27.81
24.91
23.64
25.30
27.67
28.29
26.84
24.32
22.80
24.29
27.24
28.70
27.93
25.66
23.67
24.69
27.78
29.58
29.13
26.97
24.82
25.48
28.54
30.83
31.02
29.32
27.15
27.29
30.15
32.93
33.71
32.45
30.33
29.96
32.39
35.36
36.50
35.52
33.42
32.51
34.55
37.75
39.27
38.63
36.59
35.07
36.55
39.84
41.64
41.06
38.75
36.44
37.04
39.92
41.75
41.37
39.10
36.53
36.43
38.91
41.01
40.98
38.96
36.24
35.50
37.56
39.88
40.28
38.56
35.80
34.48
36.10
38.67
39.52
38.16
35.56
33.74
34.93
37.83
39.33
38.64
36.32
34.19
35.00
37.98
39.84
39.51
37.36
34.98
35.14
37.75
39.65
39.45
37.23
34.41
33.68
35.58
37.49
37.43
35.30
32.23
30.86
32.36
34.50
34.85
33.03
30.06
28.22
29.44
32.12
33.31
32.32
29.87
27.88
28.94
32.17
34.11
33.88
32.00
30.14
31.13
34.51
37.00
37.32
35.72
33.62
33.90
36.82
39.46
40.06
38.50
36.08
35.47
37.59
40.07
40.60
38.96
36.26
34.81
36.32
38.85
39.68
38.25
35.42
33.16
33.95
36.60
37.81
36.77
34.02
31.30
31.45
33.84
35.24
34.38
31.68
28.68
28.12
30.04
31.52
30.96
28.39
25.10
23.72
25.05
26.58
26.16
23.62
19.97
17.65
18.12
19.36
18.80
16.06
12.00
8.63
8.13
9.41
9.35
7.07
3.22
-0.63
-1.76
-0.48
0.28
-0.89
-3.98
-7.66
-9.44
-8.42
-6.98
-7.33
-9.66
-12.98
-15.24
-14.61
-12.63
-12.16
-13.85
-16.95
-19.60
-19.38
-17.18
-16.19
-17.33
-20.04
-22.69
-22.60
-20.29
-18.80
-19.44
-21.84
-24.60
-25.03
-22.99
-21.21
-21.36
-23.42
-26.14
-26.99
-25.17
-23.04
-22.78
-24.57
-27.30
-28.62
-27.12
-24.78
-24.06
-25.38
-27.94
-29.79
-28.77
-26.13
-24.93
-25.91
-28.39
-30.74
-30.26
-27.69
-26.24
-26.94
-29.24
-31.64
-31.55
-29.13
-27.33
-27.51
-29.57
-32.10
-32.59
-30.54
-28.52
-28.32
-30.08
-32.58
Sampling Rate: 374.00 Hz
-32.84
-30.62
-28.66
-28.68
-30.65
-33.37
-34.30
-32.66
-30.78
-30.66
-32.64
-35.61
-37.27
-36.16
-34.15
-33.70
-35.26
-38.06
-40.09
-39.29
-36.84
-35.74
-36.72
-39.21
-41.54
-41.10
-38.62
-37.17
-37.86
-40.21
-42.66
-42.62
-40.23
-38.45
-38.68
-40.72
-43.27
-43.69
-41.59
-39.54
-39.39
-41.23
-43.83
-44.77
-43.03
-40.73
-40.19
-41.69
-44.15
-45.44
-43.89
-41.20
-40.02
-40.88
-43.04
-44.66
-43.45
-40.49
-38.81
-39.26
-41.35
-43.42
-42.76
-40.08
-38.32
-38.64
-40.70
-42.98
-42.96
-40.57
-38.63
-38.61
-40.39
-42.76
-43.23
-41.19
-38.97
-38.49
-39.96
-42.25
-43.07
-41.30
-38.85
-37.96
-39.12
-41.38
-42.76
-41.51
-38.99
-37.81
-38.60
-40.78
-42.67
-41.93
-39.34
-37.87
-38.36
-40.38
-42.44
-42.01
-39.47
-37.63
-37.75
-39.56
-41.70
-41.77
-39.53
-37.45
-37.16
-38.70
-40.89
-41.35
-39.38
-37.07
-36.37
-37.56
-39.60
-40.47
-38.77
-36.20
-35.09
-35.97
-38.03
-39.47
-38.22
-35.42
-33.89
-34.29
-36.13
-37.89
-36.98
-34.19
-32.40
-32.57
-34.30
-36.15
-35.63
-32.90
-30.73
-30.42
-31.91
-33.83
-33.86
-31.54
-29.29
-28.94
-30.59
-33.05
-33.86
-31.93
-29.39
-28.49
-29.61
-31.73
-32.71
-30.81
-27.70
-26.10
-26.59
-28.44
-29.73
-28.10
-24.62
-22.48
-22.49
-24.12
-25.73
-24.59
-21.32
-19.05
-18.98
-20.75
-22.83
-22.53
-19.78
-17.42
-17.07
-18.67
-20.86
-21.11
-18.63
-15.93
-15.03
-16.09
-18.07
-18.55
-16.28
-13.19
-11.79
-12.55
-14.54
-15.77
-14.16
-11.11
-9.50
-10.09
-12.24
-14.20
-13.31
-10.24
-8.34
-8.61
-10.59
-12.79
-12.51
-9.87
-7.77
-7.68
-9.62
-12.26
-13.08
-11.23
-9.03
-8.72
-10.49
-13.34
-15.01
-13.91
-11.73
-11.14
-12.75
-15.41
-17.37
-16.53
-14.04
-12.79
-13.53
-15.76
-17.84
-17.21
-14.51
-12.80
-13.16
-15.18
-17.32
-17.07
-14.55
-12.51
-12.34
-14.00
-16.16
-16.42
-14.14
-11.76
-11.11
-12.42
-14.55
-15.16
-13.11
-10.43
-9.37
-10.35
-12.38
-13.58
-12.04
-9.15
-7.70
-8.35
-10.54
-12.62
-11.98
-9.27
-7.55
-7.89
-9.93
-12.20
-12.19
-9.79
-7.65
-7.35
-8.97
-11.29
-11.93
-9.92
-7.38
-6.53
-7.73
-10.06
-11.53
-10.29
-7.67
-6.43
-7.29
-9.68
-11.88
-11.29
-8.61
-6.85
-7.14
-9.07
-11.34
-11.41
-9.04
-6.83
-6.38
-7.84
-10.01
-10.54
-8.41
-5.69
-4.71
-5.76
-7.98
-9.51
-8.35
-5.50
-3.99
-4.65
-6.92
-9.19
-8.89
-6.31
-4.38
-4.53
-6.49
-8.98
-9.56
-7.42
-5.00
-4.39
-5.83
-8.25
-9.46
-7.80
-4.77
-3.20
-3.80
-6.00
-8.04
-7.28
-4.41
-2.50
-2.76
-4.82
-7.23
-7.48
-5.16
-2.90
-2.56
-4.24
-6.85
-8.00
-6.48
-4.06
-3.23
-4.61
-7.36
-9.63
-9.08
-6.52
-5.11
-5.87
-8.26
-10.75
-10.67
-8.12
-6.02
-5.92
-7.64
-9.92
-10.32
-7.98
-5.17
-4.16
-5.15
-7.17
-8.13
-6.21
-2.86
-0.94
-1.20
-3.08
-4.86
-3.81
-0.62
Sampling Rate: 375.00 Hz
1.21
0.91
-1.05
-2.98
-2.27
0.77
3.11
3.37
1.71
-0.51
-0.74
1.73
4.53
5.50
4.46
2.33
1.25
3.00
6.26
8.07
7.65
5.63
3.76
4.70
7.96
10.45
10.82
9.33
7.42
7.73
10.70
13.64
14.64
13.64
11.84
11.65
14.26
17.50
18.90
18.22
16.37
15.47
17.48
20.79
22.54
22.10
20.18
18.57
19.87
23.18
25.20
25.03
23.14
21.12
21.80
24.78
26.96
26.99
25.16
22.91
22.90
25.51
27.79
28.02
26.21
23.57
22.74
24.63
26.96
27.52
26.06
23.55
22.29
23.92
26.80
28.18
27.48
25.42
23.83
25.20
28.56
30.62
30.53
28.75
27.00
28.11
31.45
33.91
34.20
32.66
30.74
31.12
33.94
36.44
36.85
35.25
32.94
32.48
34.75
37.31
37.99
36.50
33.98
32.77
34.40
36.99
37.91
36.68
34.11
32.23
33.30
36.13
37.54
36.77
34.33
31.99
32.54
35.31
37.05
36.68
34.60
32.32
32.61
35.41
37.67
37.93
36.24
33.98
33.77
36.29
38.98
39.75
38.50
36.34
35.72
37.96
40.94
42.13
41.23
39.07
37.76
39.34
42.36
43.88
43.19
40.96
38.96
39.93
42.98
44.75
44.36
42.25
40.00
40.50
43.37
45.52
45.52
43.69
41.38
41.33
43.75
45.94
46.18
44.36
41.72
40.80
42.71
45.19
45.96
44.66
42.35
41.22
42.98
46.02
47.52
46.92
44.99
43.48
44.87
48.18
50.21
50.09
48.28
46.46
47.37
50.42
52.53
52.47
50.52
48.19
48.13
50.58
52.71
52.86
51.09
48.60
47.87
49.85
52.19
52.76
51.29
48.80
47.62
49.19
51.70
52.57
51.38
48.86
47.00
47.99
50.69
52.08
51.28
48.90
46.56
47.02
49.65
51.32
50.83
48.59
46.13
46.12
48.56
50.48
50.39
48.44
45.89
45.30
47.30
49.46
49.72
47.93
45.25
44.00
45.47
47.69
48.17
46.57
43.79
41.90
42.75
45.06
45.92
44.58
41.73
39.09
39.20
41.30
42.24
41.08
38.22
35.21
34.70
36.44
37.52
36.60
33.90
30.68
29.65
31.21
32.82
32.67
30.64
27.86
26.78
28.50
30.94
31.73
30.57
28.43
27.39
29.26
32.40
34.10
33.78
32.07
30.74
32.23
35.67
37.82
37.76
36.04
34.32
35.19
38.25
40.41
40.48
38.65
36.39
36.32
38.70
40.79
40.93
39.14
36.54
35.70
37.47
39.61
39.91
38.19
35.49
34.00
35.29
37.61
38.33
37.05
34.52
32.63
33.69
36.57
38.20
37.84
35.96
34.28
35.51
38.96
41.52
41.94
40.63
39.09
39.94
43.18
45.93
46.64
45.43
43.48
43.36
45.83
48.46
49.12
47.70
45.32
44.33
46.00
48.38
49.05
47.55
44.77
42.71
43.47
45.72
46.50
45.12
42.21
39.41
39.43
41.45
42.31
41.07
38.15
35.08
34.48
36.16
37.19
36.25
33.54
30.30
29.16
30.63
32.15
31.87
29.71
26.89
25.76
27.44
29.82
30.56
29.33
27.08
25.86
27.49
30.49
32.04
31.41
Sampling Rate: 374.00 Hz
29.56
28.75
30.63
33.55
34.79
33.84
31.46
29.49
30.27
32.79
33.87
32.69
29.84
26.92
26.71
28.58
29.37
27.94
24.63
20.92
19.44
20.28
20.64
18.97
15.34
11.02
8.56
8.75
9.35
8.16
5.02
0.83
-2.38
-2.69
-1.45
-1.53
-3.74
-7.40
-10.86
-11.39
-9.69
-8.85
-10.02
-12.95
-16.10
-16.90
-15.22
-13.84
-14.35
-16.75
-19.82
-21.03
-19.49
-17.70
-17.72
-19.73
-22.73
-24.32
-23.13
-21.09
-20.70
-22.44
-25.44
-27.70
-27.08
-24.85
-24.06
-25.42
-28.33
-31.01
-30.77
-28.48
-27.24
-28.07
-30.57
-33.19
-33.28
-31.00
-29.33
-29.71
-32.00
-34.79
-35.47
-33.57
-31.71
-31.69
-33.61
-36.38
-37.50
-35.92
-33.85
-33.69
-35.88
-39.38
-41.91
-41.61
-40.21
-40.66
-43.52
-48.06
-52.37
-53.87
-53.58
-54.75
-58.30
-63.60
-68.78
-71.01
-70.89
-71.47
-74.02
-78.29
-82.74
-84.71
-84.13
-83.73
-85.13
-88.31
-92.01
-93.85
-93.05
-91.88
-92.31
-94.60
-97.68
-99.42
-98.50
-96.67
-96.22
-97.58
-100.07
-101.75
-100.84
-98.59
-97.55
-98.33
-100.40
-102.18
-101.48
-99.09
-97.67
-98.03
-99.76
-101.50
-100.99
-98.62
-96.89
-96.77
-98.07
-99.56
-99.23
-96.95
-94.92
-94.36
-95.26
-96.67
-96.66
-94.62
-92.35
-91.42
-92.01
-93.31
-93.58
-91.89
-89.54
-88.28
-88.51
-89.64
-90.19
-88.81
-86.42
-84.91
-84.90
-85.93
-86.83
-85.89
-83.53
-81.82
-81.54
-82.43
-83.45
-82.82
-80.66
-78.82
-78.25
-78.90
-79.96
-79.73
-77.91
-76.04
-75.26
-75.71
-76.72
-76.80
-75.27
-73.32
-72.33
-72.59
-73.57
-73.92
-72.67
-70.73
-69.56
-69.61
-70.50
-71.14
-70.24
-68.29
-66.94
-66.79
-67.59
-68.50
-67.99
-66.25
-64.87
-64.54
-65.23
-66.13
-65.82
-64.19
-62.65
-62.11
-62.62
-63.55
-63.56
-62.19
-60.60
-59.86
-60.18
-61.09
-61.37
-60.30
-58.72
-57.84
-58.01
-58.86
-59.36
-58.55
-56.95
-55.90
-55.91
-56.72
-57.47
-56.92
-55.33
-54.13
-53.93
-54.62
-55.45
-55.12
-53.64
-52.36
-51.98
-52.53
-53.40
-53.36
-52.08
-50.72
-50.17
-50.59
-51.47
-51.65
-50.59
-49.17
-48.45
-48.71
-49.56
-49.95
-49.13
-47.71
-46.86
-46.98
-47.83
-48.51
-47.94
-46.49
-45.47
-45.41
-46.15
-47.00
-46.70
-45.32
-44.18
-43.96
-44.59
-45.48
-45.37
-44.10
-42.86
-42.42
-42.90
-43.78
-43.91
-42.83
-41.49
-40.85
-41.16
-42.00
-42.33
-41.45
-40.05
-39.25
-39.38
-40.15
-40.65
-39.95
-38.52
-37.57
-37.56
-38.31
-39.07
-38.70
-37.32
-36.25
-36.05
-36.71
-37.53
-37.31
-36.01
-34.84
-34.51
-35.05
-35.92
-35.95
-34.84
-33.62
-33.16
-33.60
-34.51
-34.81
-33.91
-32.63
-31.99
-32.26
-33.11
-33.57
-32.82
-31.47
-30.65
-30.73
-31.53
-32.20
-31.69
-30.31
-29.32
-29.24
-29.96
-30.81
-30.58
-29.29
-28.22
-28.00
-28.65
-29.55
-29.51
-28.36
-27.23
-26.89
-27.43
-28.38
-28.62
-27.67
-26.46
-25.92
-26.30
-27.19
-27.58
-26.78
-25.50
-24.79
-24.98
-25.79
-26.35
Sampling Rate: 373.00 Hz
-25.65
-24.50
-23.92
-24.20
-25.07
-25.61
-24.98
-23.67
-22.84
-22.92
-23.70
-24.42
-24.02
-22.71
-21.73
-21.63
-22.37
-23.25
-23.07
-21.83
-20.74
-20.50
-21.09
-21.96
-21.98
-20.88
-19.71
-19.27
-19.70
-20.58
-20.83
-19.89
-18.63
-18.02
-18.33
-19.19
-19.61
-18.87
-17.59
-16.84
-17.01
-17.86
-18.56
-18.08
-16.78
-15.88
-15.86
-16.64
-17.50
-17.27
-16.02
-15.02
-14.87
-15.55
-16.46
-16.42
-15.28
-14.18
-13.85
-14.40
-15.35
-15.55
-14.61
-13.43
-12.91
-13.31
-14.24
-14.66
-13.91
-12.70
-12.07
-12.34
-13.22
-13.86
-13.33
-12.08
-11.29
-11.40
-12.25
-13.09
-12.80
-11.55
-10.61
-10.55
-11.30
-12.21
-12.11
-10.95
-9.92
-9.67
-10.27
-11.23
-11.43
-10.48
-9.37
-8.96
-9.44
-10.42
-10.87
-10.16
-8.97
-8.35
-8.63
-9.55
-10.30
-9.90
-8.64
-7.75
-7.74
-8.52
-9.47
-9.41
-8.27
-7.21
-6.94
-7.55
-8.55
-8.87
-8.00
-6.82
-6.30
-6.69
-7.66
-8.28
-7.74
-6.51
-5.73
-5.82
-6.65
-7.56
-7.40
-6.22
-5.20
-5.02
-5.69
-6.66
-6.82
-5.82
-4.64
-4.18
-4.61
-5.56
-6.06
-5.40
-4.18
-3.50
-3.71
-4.62
-5.50
-5.23
-3.99
-3.05
-2.97
-3.71
-4.67
-4.71
-3.64
-2.56
-2.20
-2.72
-3.71
-4.12
-3.37
-2.17
-1.55
-1.82
-2.72
-3.46
-3.05
-1.78
-0.87
-0.88
-1.69
-2.69
-2.69
-1.61
-0.60
-0.39
-1.02
-2.05
-2.40
-1.57
-0.41
0.09
-0.29
-1.26
-1.94
-1.45
-0.25
0.54
0.43
-0.46
-1.46
-1.37
-0.24
0.71
0.85
0.16
-0.87
-1.10
-0.20
0.90
1.33
0.87
-0.14
-0.73
-0.14
1.08
1.78
1.60
0.68
-0.24
-0.05
1.15
2.08
2.18
1.44
0.41
0.24
1.21
2.31
2.68
2.15
1.12
0.59
1.21
2.37
3.00
2.73
1.76
0.84
1.04
2.22
3.09
3.12
2.32
1.30
1.17
2.15
3.20
3.54
2.96
1.93
1.44
2.10
3.23
3.81
3.49
2.54
1.70
2.03
3.25
4.12
4.09
3.25
2.23
2.15
3.18
4.19
4.45
3.82
2.75
2.27
2.97
4.09
4.63
4.25
3.24
2.44
2.78
3.95
4.74
4.64
3.76
2.73
2.73
3.78
4.74
4.91
4.22
3.14
2.74
3.52
4.65
5.14
4.71
3.72
3.01
3.47
4.66
5.42
5.29
4.40
3.38
3.43
4.51
5.43
5.54
4.81
3.73
3.40
4.25
5.36
5.81
5.36
4.38
3.77
4.32
5.53
6.26
6.08
5.17
4.17
4.28
5.41
6.34
6.44
5.69
4.65
4.41
5.30
6.39
6.80
6.28
5.26
4.66
5.21
6.37
7.02
6.79
5.84
4.91
5.08
6.25
7.13
7.19
6.42
5.39
5.22
6.16
7.20
7.54
6.98
5.94
5.41
6.06
7.22
7.83
7.56
6.62
5.76
6.01
7.20
8.05
8.03
7.20
6.14
6.02
6.99
7.99
8.25
7.62
6.54
6.06
6.72
7.81
8.31
7.91
6.89
6.03
6.34
7.51
8.32
8.25
7.37
6.33
6.30
7.33
Sampling Rate: 378.00 Hz
8.08
7.99
7.12
6.04
5.88
6.85
7.88
8.18
7.60
6.55
6.06
6.72
7.84
8.40
8.03
7.03
6.21
6.53
7.71
8.56
8.53
7.69
6.68
6.65
7.69
8.68
8.90
8.28
7.23
6.85
7.62
8.75
9.28
8.90
7.91
7.19
7.61
8.80
9.55
9.42
8.51
7.47
7.46
8.50
9.40
9.52
8.80
7.72
7.36
8.14
9.21
9.60
9.12
8.05
7.32
7.75
8.88
9.57
9.36
8.41
7.38
7.45
8.54
9.43
9.48
8.70
7.62
7.34
8.19
9.24
9.60
9.06
8.01
7.39
7.92
9.05
9.67
9.40
8.44
7.47
7.62
8.76
9.59
9.58
8.75
7.66
7.46
8.38
9.35
9.61
9.00
7.89
7.32
7.91
9.00
9.53
9.18
8.18
7.29
7.54
8.68
9.46
9.37
8.46
7.40
7.32
8.35
9.33
9.55
8.89
7.79
7.31
7.98
9.03
9.49
9.05
7.99
7.20
7.54
8.69
9.42
9.28
8.35
7.29
7.27
8.30
9.22
9.34
8.61
7.50
7.08
7.83
8.90
9.31
8.84
7.80
7.10
7.54
8.69
9.40
9.20
8.25
7.19
7.20
8.24
9.11
9.20
8.44
7.36
7.03
7.84
8.86
9.22
8.67
7.59
6.92
7.42
8.52
9.13
8.87
7.91
6.94
7.09
8.24
9.10
9.13
8.33
7.26
7.02
7.91
8.94
9.28
8.74
7.68
7.13
7.72
8.85
9.44
9.15
8.17
7.25
7.45
8.60
9.41
9.35
8.48
7.38
7.22
8.18
9.19
9.45
8.82
7.74
7.24
7.91
9.02
9.54
9.16
8.15
7.30
7.58
8.74
9.50
9.38
8.46
7.39
7.32
8.33
9.26
9.44
8.75
7.64
7.16
7.83
8.84
9.24
8.74
7.65
6.84
7.19
8.30
9.00
8.82
7.87
6.79
6.78
7.82
8.70
8.77
8.00
6.89
6.51
7.29
8.32
8.70
8.18
7.11
6.41
6.88
7.99
8.61
8.34
7.35
6.31
6.37
7.44
8.28
8.29
7.49
6.39
6.15
7.03
8.04
8.33
7.75
6.66
6.03
6.60
7.71
8.29
7.96
6.95
6.03
6.22
7.35
8.16
8.12
7.25
6.19
6.01
6.93
7.90
8.13
7.49
6.39
5.87
6.50
7.57
8.07
7.65
6.62
5.74
5.98
7.08
7.84
7.73
6.82
5.75
5.69
6.70
7.65
7.83
7.14
6.04
5.58
6.28
7.33
7.76
7.31
6.25
5.47
5.87
7.02
7.75
7.61
6.67
5.61
5.62
6.65
7.55
7.65
6.90
5.78
5.39
6.17
7.19
7.55
7.03
5.99
5.33
5.83
6.98
7.65
7.40
6.41
5.41
5.50
6.62
7.49
7.51
6.71
5.61
5.36
6.25
7.29
7.63
7.09
6.05
5.46
6.05
7.20
7.79
7.48
6.49
5.55
5.76
6.91
7.73
7.69
6.84
5.76
5.59
6.52
7.48
7.70
7.06
5.97
5.47
6.14
7.24
7.73
7.33
6.32
5.46
5.75
6.89
7.66
7.56
6.66
5.58
5.50
6.49
7.43
7.61
6.91
5.78
5.31
6.03
7.08
7.51
Sampling Rate: 380.00 Hz
7.02
6.02
5.55
6.21
7.30
7.80
7.38
6.34
5.44
5.68
6.78
7.53
7.42
6.50
5.42
5.35
6.36
7.30
7.47
6.77
5.64
5.18
5.89
6.95
7.39
6.91
5.84
5.04
5.39
6.48
7.15
6.94
5.95
4.85
4.82
5.81
6.67
6.73
5.95
4.81
4.40
5.16
6.19
6.55
6.02
4.94
4.21
4.66
5.76
6.42
6.18
5.23
4.24
4.32
5.41
6.30
6.37
5.61
4.56
4.30
5.18
6.23
6.57
6.04
4.97
4.34
4.88
6.00
6.62
6.35
5.39
4.44
4.61
5.75
6.61
6.64
5.84
4.77
4.58
5.50
6.50
6.79
6.19
5.10
4.54
5.14
6.23
6.79
6.44
5.44
4.57
4.82
5.98
6.80
6.73
5.86
4.80
4.70
5.69
6.66
6.87
6.20
5.12
4.67
5.37
6.44
6.90
6.48
5.46
4.68
5.04
6.19
6.92
6.74
5.79
4.68
4.65
5.64
6.51
6.57
5.79
4.68
4.30
5.07
6.08
6.46
5.94
4.86
4.18
4.65
5.75
6.38
6.11
5.12
4.11
4.19
5.27
6.10
6.10
5.26
4.14
3.84
4.67
5.65
5.92
5.32
4.24
3.69
4.31
5.45
6.05
5.76
4.80
3.87
4.10
5.25
6.11
6.10
5.27
4.21
4.07
5.02
6.03
6.30
5.69
4.63
4.15
4.83
5.96
6.51
6.16
5.18
4.36
4.70
5.89
6.70
6.66
5.81
4.77
4.74
5.77
6.75
6.93
6.23
5.13
4.67
5.38
6.45
6.91
6.49
5.47
4.72
5.13
6.30
7.02
6.87
5.94
4.91
4.95
6.04
7.00
7.16
6.45
5.37
5.03
5.86
6.93
7.35
6.88
5.87
5.22
5.71
6.86
7.49
7.24
6.25
5.25
5.36
6.45
7.28
7.27
6.43
5.32
5.07
5.94
6.93
7.20
6.59
5.48
4.86
5.42
6.49
7.03
6.69
5.68
4.76
5.00
6.16
6.98
6.92
6.06
4.98
4.87
5.83
6.77
6.97
6.30
5.17
4.64
5.28
6.36
6.84
6.43
5.39
4.53
4.85
6.02
6.78
6.66
5.73
4.67
4.64
5.68
6.63
6.82
6.17
5.11
4.71
5.49
6.60
7.09
6.69
5.71
5.02
5.46
6.64
7.38
7.21
6.30
5.26
5.28
6.33
7.24
7.33
6.60
5.52
5.19
6.01
7.06
7.43
6.91
5.85
5.18
5.67
6.78
7.39
7.11
6.10
5.06
5.12
6.18
6.97
6.95
6.12
5.02
4.76
5.63
6.64
6.93
6.37
5.30
4.73
5.33
6.44
7.00
6.65
5.66
4.73
4.94
6.10
6.91
6.85
5.97
4.86
4.69
5.62
6.60
6.84
6.21
5.12
4.59
5.21
6.28
6.76
6.36
5.34
4.49
4.79
5.93
6.66
6.52
5.60
4.52
4.44
5.43
6.34
6.50
5.80
4.70
4.24
4.95
6.02
6.44
5.98
4.94
4.18
4.58
5.71
6.41
6.20
5.24
4.15
4.10
5.09
5.93
5.96
5.17
4.06
3.72
4.53
5.57
5.94
5.41
4.31
3.62
4.09
5.18
5.81
5.54
4.55
Sampling Rate: 380.00 Hz
3.85
4.28
5.40
6.09
5.88
4.90
3.81
3.77
4.78
5.61
5.64
4.82
3.69
3.32
4.08
5.08
5.41
4.84
3.72
3.02
3.48
4.56
5.17
4.90
3.92
2.93
3.05
4.15
4.96
4.95
4.10
2.99
2.75
3.63
4.62
4.92
4.34
3.27
2.71
3.28
4.37
4.90
4.54
3.52
2.60
2.79
3.90
4.67
4.59
3.72
2.64
2.50
3.44
4.37
4.56
3.90
2.79
2.28
2.94
4.02
4.48
4.05
3.03
2.21
2.53
3.67
4.40
4.25
3.33
2.23
2.15
3.14
4.03
4.13
3.38
2.25
1.81
2.52
3.55
3.96
3.51
2.48
1.77
2.20
3.34
4.02
3.83
2.88
1.84
1.89
2.95
3.84
3.91
3.15
2.06
1.75
2.58
3.63
4.01
3.49
2.41
1.76
2.26
3.36
3.96
3.69
2.70
1.72
1.83
2.91
3.71
3.67
2.82
1.73
1.51
2.42
3.44
3.75
3.16
2.08
1.52
2.12
3.24
3.82
3.52
2.52
1.64
1.89
3.05
3.86
3.77
2.89
1.81
1.68
2.65
3.60
3.78
3.09
1.97
1.46
2.11
3.15
3.59
3.15
2.08
1.26
1.59
2.72
3.47
3.32
2.38
1.31
1.26
2.29
3.23
3.39
2.69
1.61
1.21
1.97
3.04
3.48
3.01
1.97
1.23
1.63
2.74
3.40
3.20
2.23
1.16
1.15
2.17
3.03
3.05
2.23
1.08
0.70
1.48
2.51
2.90
2.38
1.33
0.65
1.13
2.25
2.87
2.62
1.65
0.63
0.71
1.79
2.65
2.67
1.88
0.78
0.51
1.38
2.39
2.68
2.09
1.00
0.40
0.98
2.07
2.64
2.31
1.29
0.33
0.49
1.61
2.43
2.40
1.54
0.43
0.22
1.11
2.08
2.35
1.75
0.68
0.15
0.78
1.86
2.39
2.02
1.00
0.14
0.40
1.53
2.30
2.20
1.30
0.22
0.10
1.09
2.04
2.24
1.58
0.50
0.04
0.75
1.86
2.36
1.98
1.00
0.25
0.64
1.82
2.60
2.51
1.64
0.61
0.58
1.62
2.56
2.71
1.98
0.86
0.44
1.18
2.24
2.67
2.22
1.20
0.48
0.89
2.02
2.72
2.54
1.60
0.53
0.54
1.57
2.44
2.51
1.76
0.68
0.33
1.12
2.15
2.50
1.96
0.89
0.20
0.67
1.79
2.43
2.19
1.23
0.26
0.37
1.48
2.36
2.39
1.61
0.54
0.32
1.22
2.24
2.57
2.01
0.93
0.33
0.93
2.05
2.65
2.34
1.34
0.38
0.55
1.66
2.48
2.45
1.61
0.54
0.38
1.32
2.31
2.58
1.97
0.89
0.38
1.03
2.13
2.63
2.24
1.23
0.37
0.62
1.76
2.51
2.40
1.52
0.44
0.35
1.33
2.28
2.47
1.79
0.69
0.23
0.91
1.98
2.43
1.98
0.92
0.10
0.44
1.58
2.33
2.19
1.27
0.21
0.20
1.24
2.17
2.30
1.58
0.47
0.08
0.87
1.96
2.39
1.93
0.90
0.18
0.60
1.73
2.43
2.24
1.30
0.26
0.32
1.40
2.28
2.34
1.57
0.47
0.15
Sampling Rate: 380.00 Hz
0.96
1.74
1.77
0.99
-0.13
-0.53
0.23
1.30
1.73
1.26
0.24
-0.46
-0.01
1.16
1.90
1.74
0.84
-0.15
-0.04
1.05
1.97
2.08
1.35
0.29
-0.02
0.83
1.88
2.27
1.77
0.72
0.07
0.58
1.72
2.36
2.11
1.15
0.16
0.28
1.38
2.21
2.20
1.38
0.28
0.03
0.90
1.92
2.25
1.71
0.67
0.11
0.70
1.84
2.43
2.16
1.20
0.31
0.56
1.75
2.62
2.61
1.80
0.78
0.67
1.65
2.68
2.99
2.41
1.37
0.87
1.53
2.66
3.20
2.85
1.85
0.97
1.25
2.42
3.21
3.12
2.26
1.22
1.12
2.09
3.05
3.24
2.55
1.45
0.97
1.66
2.74
3.23
2.82
1.80
1.01
1.37
2.55
3.30
3.17
2.27
1.21
1.17
2.18
3.10
3.24
2.53
1.42
1.02
1.76
2.81
3.21
2.72
1.66
0.93
1.33
2.46
3.13
2.93
1.97
0.92
0.94
1.99
2.87
2.93
2.15
1.06
0.74
1.57
2.63
2.99
2.47
1.41
0.72
1.21
2.30
2.91
2.64
1.65
0.64
0.73
1.81
2.65
2.64
1.83
0.74
0.49
1.35
2.36
2.67
2.10
1.03
0.47
1.08
2.19
2.76
2.43
1.44
0.51
0.72
1.86
2.67
2.62
1.78
0.73
0.62
1.60
2.58
2.83
2.21
1.13
0.64
1.30
2.38
2.89
2.54
1.53
0.68
0.96
2.10
2.88
2.77
1.88
0.82
0.75
1.76
2.70
2.88
2.18
1.06
0.61
1.32
2.41
2.90
2.51
1.51
0.74
1.11
2.25
3.01
2.89
2.00
0.96
0.98
2.02
2.96
3.12
2.41
1.34
0.96
1.75
2.83
3.25
2.76
1.72
1.00
1.45
2.60
3.30
3.11
2.16
1.12
1.16
2.21
3.10
3.18
2.43
1.34
1.01
1.86
2.93
3.33
2.83
1.80
1.18
1.72
2.85
3.49
3.26
2.33
1.39
1.52
2.65
3.51
3.53
2.71
1.63
1.42
2.33
3.34
3.68
3.11
2.05
1.48
2.06
3.16
3.70
3.35
2.34
1.42
1.63
2.78
3.61
3.55
2.68
1.61
1.47
2.44
3.39
3.58
2.91
1.80
1.26
1.90
2.97
3.46
3.08
2.07
1.26
1.58
2.73
3.49
3.39
2.48
1.42
1.36
2.37
3.29
3.44
2.74
1.65
1.24
2.00
3.08
3.54
3.10
2.08
1.36
1.80
2.96
3.64
3.43
2.47
1.43
1.47
2.55
3.44
3.52
2.75
1.68
1.39
2.23
3.27
3.64
3.14
2.11
1.50
2.04
3.19
3.84
3.58
2.63
1.66
1.79
2.91
3.74
3.73
2.92
1.85
1.65
2.55
3.55
3.84
3.26
2.20
1.62
2.21
3.31
3.86
3.52
2.53
1.62
1.86
3.01
3.82
3.74
2.85
1.76
1.63
2.56
3.48
3.67
3.00
1.87
1.35
2.00
3.06
3.52
3.08
2.03
1.19
1.50
2.65
3.40
3.26
2.34
1.25
1.17
2.18
3.10
3.23
2.51
1.37
0.93
1.63
2.68
3.09
2.59
1.52
0.76
1.17
2.30
Sampling Rate: 380.00 Hz
2.84
2.47
1.50
0.70
1.05
2.22
3.01
2.92
2.03
0.98
0.92
1.91
2.83
2.96
2.23
1.11
0.65
1.37
2.44
2.87
2.43
1.42
0.71
1.14
2.29
2.98
2.78
1.80
0.72
0.72
1.74
2.59
2.63
1.84
0.72
0.37
1.19
2.22
2.58
2.04
0.97
0.33
0.85
1.99
2.62
2.37
1.41
0.43
0.58
1.71
2.56
2.56
1.76
0.68
0.45
1.33
2.33
2.65
2.07
1.00
0.42
1.03
2.16
2.75
2.45
1.48
0.57
0.80
1.96
2.80
2.76
1.91
0.84
0.70
1.65
2.62
2.85
2.21
1.11
0.60
1.25
2.33
2.84
2.44
1.43
0.60
0.91
2.07
2.85
2.74
1.84
0.75
0.68
1.69
2.63
2.79
2.11
1.03
0.59
1.33
2.41
2.88
2.45
1.42
0.65
1.02
2.13
2.85
2.67
1.74
0.68
0.68
1.73
2.63
2.72
1.98
0.89
0.53
1.35
2.43
2.89
2.45
1.45
0.78
1.27
2.40
3.08
2.85
1.89
0.87
0.95
2.04
2.90
2.92
2.12
1.04
0.78
1.65
2.70
3.05
2.49
1.43
0.81
1.35
2.45
3.05
2.75
1.76
0.80
0.95
2.09
2.92
2.91
2.08
1.00
0.78
1.69
2.68
2.94
2.35
1.28
0.74
1.35
2.45
2.99
2.64
1.66
0.76
1.02
2.16
2.94
2.86
1.98
0.89
0.75
1.70
2.66
2.86
2.20
1.11
0.63
1.30
2.39
2.89
2.51
1.51
0.69
0.99
2.11
2.85
2.73
1.83
0.77
0.72
1.74
2.67
2.79
2.06
0.94
0.52
1.26
2.33
2.78
2.34
1.30
0.57
0.99
2.12
2.83
2.66
1.71
0.66
0.69
1.73
2.62
2.70
1.93
0.83
0.50
1.31
2.34
2.72
2.21
1.17
0.51
1.01
2.14
2.79
2.55
1.60
0.59
0.67
1.77
2.62
2.64
1.84
0.75
0.50
1.37
2.40
2.73
2.19
1.12
0.50
1.06
2.18
2.79
2.50
1.51
0.54
0.69
1.81
2.62
2.58
1.74
0.64
0.41
1.31
2.29
2.56
1.96
0.90
0.37
1.00
2.12
2.66
2.29
1.30
0.42
0.69
1.85
2.64
2.55
1.66
0.59
0.47
1.44
2.39
2.59
1.91
0.78
0.27
0.92
1.98
2.44
1.99
0.92
0.08
0.38
1.50
2.22
2.08
1.16
0.09
0.05
1.08
2.01
2.17
1.47
0.35
-0.09
0.63
1.67
2.06
1.57
0.50
-0.27
0.14
1.27
1.96
1.76
0.79
-0.29
-0.27
0.77
1.62
1.67
0.90
-0.19
-0.53
0.27
1.29
1.64
1.12
0.09
-0.56
-0.04
1.10
1.72
1.46
0.48
-0.53
-0.45
0.63
1.46
1.43
0.59
-0.50
-0.71
0.22
1.24
1.57
0.99
-0.09
-0.64
-0.04
1.09
1.65
1.30
0.26
-0.66
-0.43
0.72
1.54
1.48
0.62
-0.44
-0.52
0.49
1.48
1.71
1.07
-0.01
-0.48
0.19
1.29
1.78
1.37
0.33
-0.49
-0.17
0.97
1.72
1.58
0.65
-0.42
-0.48
0.54
1.47
1.60
Sampling Rate: 380.00 Hz
0.87
-0.12
-0.16
0.86
1.86
2.09
1.44
0.35
-0.15
0.51
1.57
2.05
1.62
0.55
-0.33
-0.06
1.03
1.75
1.60
0.66
-0.41
-0.46
0.54
1.46
1.58
0.86
-0.26
-0.71
0.03
1.10
1.57
1.14
0.14
-0.57
-0.12
1.04
1.74
1.56
0.61
-0.44
-0.42
0.64
1.55
1.64
0.88
-0.21
-0.52
0.30
1.32
1.67
1.14
0.08
-0.59
-0.11
1.01
1.62
1.36
0.37
-0.63
-0.51
0.61
1.44
1.44
0.64
-0.42
-0.60
0.32
1.33
1.61
1.02
-0.06
-0.62
-0.01
1.12
1.72
1.43
0.46
-0.41
-0.15
1.01
1.83
1.79
0.95
-0.10
-0.20
0.81
1.81
2.06
1.41
0.33
-0.14
0.54
1.65
2.17
1.79
0.78
-0.05
0.27
1.41
2.17
2.05
1.14
0.06
-0.03
0.96
1.89
2.05
1.33
0.22
-0.24
0.46
1.53
1.98
1.55
0.53
-0.22
0.20
1.34
2.05
1.88
0.92
-0.16
-0.15
0.91
1.81
1.88
1.11
-0.01
-0.38
0.42
1.47
1.84
1.33
0.27
-0.40
0.10
1.24
1.89
1.63
0.67
-0.36
-0.31
0.75
1.59
1.59
0.78
-0.32
-0.60
0.24
1.22
1.51
0.92
-0.19
-0.85
-0.34
0.76
1.32
1.00
-0.00
-0.97
-0.82
0.28
1.09
1.05
0.19
-0.90
-1.08
-0.14
0.86
1.13
0.54
-0.53
-1.07
-0.46
0.63
1.17
0.82
-0.19
-1.10
-0.85
0.29
1.07
0.99
0.11
-0.95
-1.03
-0.04
0.93
1.13
0.47
-0.61
-1.09
-0.39
0.69
1.17
0.74
-0.30
-1.12
-0.80
0.33
1.04
0.86
-0.11
-1.23
-1.29
-0.29
0.60
0.71
-0.02
-1.15
-1.60
-0.88
0.16
0.58
0.12
-0.92
-1.64
-1.19
-0.05
0.64
0.43
-0.53
-1.58
-1.55
-0.50
0.35
0.39
-0.40
-1.51
-1.80
-0.94
0.12
0.51
0.02
-1.01
-1.63
-1.08
0.08
0.73
0.47
-0.50
-1.47
-1.33
-0.22
0.62
0.60
-0.22
-1.32
-1.54
-0.63
0.35
0.61
0.01
-1.08
-1.67
-1.07
0.03
0.58
0.22
-0.78
-1.68
-1.44
-0.29
0.53
0.47
-0.38
-1.44
-1.55
-0.58
0.38
0.58
-0.09
-1.19
-1.67
-1.01
0.04
0.49
0.05
-0.98
-1.80
-1.46
-0.31
0.45
0.31
-0.61
-1.67
-1.70
-0.68
0.25
0.39
-0.31
-1.39
-1.78
-1.00
0.07
0.50
0.03
-1.00
-1.73
-1.31
-0.20
0.47
0.26
-0.72
-1.78
-1.75
-0.69
0.17
0.22
-0.54
-1.65
-1.97
-1.16
-0.14
0.20
-0.35
-1.41
-2.06
-1.55
-0.42
0.19
-0.10
-1.08
-2.04
-1.87
-0.74
0.11
0.09
-0.75
-1.82
-1.98
-1.04
-0.03
0.25
-0.35
-1.44
-1.97
-1.34
-0.24
0.28
-0.11
-1.11
-1.95
-1.63
-0.47
0.33
0.25
-0.63
-1.71
-1.77
-0.75
0.19
0.34
-0.37
-1.47
-1.92
-1.21
-0.14
0.30
-0.13
-1.13
-1.86
-1.43
-0.27
0.45
0.26
-0.68
-1.74
-1.72
-0.67
0.22
0.30
-0.46
-1.54
-1.86
-1.05
0.01
0.40
-0.11
-1.16
Sampling Rate: 380.00 Hz
-1.55
-0.78
0.33
0.80
0.35
-0.67
-1.42
-1.01
0.13
0.86
0.68
-0.25
-1.31
-1.29
-0.24
0.65
0.73
-0.05
-1.16
-1.49
-0.68
0.38
0.78
0.28
-0.76
-1.42
-0.89
0.27
0.91
0.67
-0.29
-1.29
-1.18
-0.06
0.81
0.81
0.01
-1.08
-1.30
-0.38
0.64
0.96
0.39
-0.68
-1.28
-0.72
0.40
0.99
0.68
-0.30
-1.22
-0.99
0.19
1.03
1.02
0.18
-0.87
-1.01
-0.04
0.95
1.20
0.57
-0.51
-1.03
-0.38
0.72
1.22
0.85
-0.16
-1.00
-0.71
0.44
1.21
1.10
0.19
-0.90
-0.96
0.03
0.99
1.19
0.55
-0.51
-0.93
-0.18
0.91
1.37
0.96
-0.08
-0.82
-0.41
0.74
1.48
1.34
0.43
-0.64
-0.64
0.38
1.26
1.33
0.55
-0.59
-0.96
-0.18
0.87
1.27
0.77
-0.27
-0.95
-0.46
0.69
1.35
1.12
0.15
-0.87
-0.79
0.31
1.18
1.23
0.43
-0.66
-0.95
-0.09
0.93
1.26
0.72
-0.34
-0.94
-0.39
0.73
1.32
1.03
0.06
-0.89
-0.71
0.42
1.24
1.22
0.39
-0.66
-0.80
0.17
1.18
1.46
0.87
-0.19
-0.72
-0.07
1.03
1.55
1.20
0.19
-0.67
-0.39
0.76
1.53
1.44
0.54
-0.55
-0.62
0.39
1.33
1.49
0.79
-0.31
-0.78
-0.07
1.02
1.48
1.07
0.07
-0.66
-0.25
0.92
1.65
1.50
0.59
-0.45
-0.42
0.63
1.52
1.60
0.84
-0.28
-0.64
0.16
1.20
1.56
1.03
-0.04
-0.71
-0.22
0.90
1.53
1.26
0.27
-0.73
-0.63
0.48
1.34
1.37
0.55
-0.55
-0.82
0.06
1.09
1.39
0.81
-0.25
-0.85
-0.26
0.85
1.42
1.10
0.08
-0.86
-0.66
0.48
1.29
1.25
0.39
-0.68
-0.82
0.13
1.10
1.30
0.64
-0.47
-1.00
-0.35
0.75
1.26
0.86
-0.17
-1.02
-0.74
0.41
1.20
1.11
0.25
-0.79
-0.81
0.24
1.23
1.41
0.74
-0.37
-0.81
-0.10
0.97
1.43
0.98
-0.08
-0.87
-0.51
0.62
1.35
1.18
0.24
-0.81
-0.82
0.23
1.15
1.27
0.54
-0.54
-0.88
-0.06
1.05
1.49
1.03
0.02
-0.62
-0.12
1.03
1.68
1.43
0.46
-0.58
-0.52
0.57
1.44
1.48
0.67
-0.42
-0.68
0.19
1.22
1.55
1.02
-0.02
-0.63
-0.09
1.02
1.60
1.30
0.30
-0.67
-0.51
0.63
1.46
1.42
0.57
-0.50
-0.65
0.31
1.32
1.62
1.07
0.02
-0.49
0.18
1.35
1.94
1.62
0.64
-0.22
0.07
1.25
2.08
2.04
1.17
0.11
0.01
0.99
1.95
2.12
1.45
0.35
-0.13
0.55
1.63
2.10
1.68
0.63
-0.21
0.10
1.24
2.00
1.86
0.93
-0.16
-0.23
0.78
1.67
1.80
1.06
-0.06
-0.51
0.20
1.23
1.64
1.16
0.10
-0.67
-0.27
0.85
1.51
1.28
0.29
-0.81
-0.81
0.24
1.10
1.14
0.32
-0.84
-1.20
-0.41
0.63
0.99
0.45
-0.60
-1.23
-0.70
0.45
1.10
0.84
-0.13
-1.13
-1.03
Sampling Rate: 380.00 Hz
-0.11
0.42
0.11
-0.91
-2.00
-1.98
-0.90
-0.00
0.08
-0.67
-1.72
-1.98
-1.10
-0.02
0.40
-0.05
-1.06
-1.64
-1.07
0.11
0.78
0.57
-0.36
-1.30
-1.12
0.05
0.92
0.93
0.13
-0.93
-1.14
-0.23
0.77
1.06
0.45
-0.62
-1.19
-0.58
0.52
1.05
0.70
-0.32
-1.21
-0.96
0.20
1.02
0.97
0.11
-0.95
-1.05
-0.05
0.91
1.11
0.44
-0.65
-1.15
-0.47
0.62
1.10
0.67
-0.37
-1.19
-0.85
0.31
1.07
0.95
0.05
-1.03
-1.07
-0.04
0.88
1.01
0.28
-0.84
-1.28
-0.56
0.48
0.89
0.38
-0.70
-1.48
-1.09
0.01
0.66
0.44
-0.53
-1.60
-1.59
-0.54
0.32
0.37
-0.42
-1.53
-1.86
-1.05
-0.03
0.33
-0.18
-1.25
-1.90
-1.39
-0.26
0.35
0.08
-0.90
-1.87
-1.72
-0.57
0.30
0.32
-0.48
-1.54
-1.71
-0.77
0.24
0.54
-0.05
-1.13
-1.71
-1.11
-0.01
0.54
0.18
-0.85
-1.78
-1.55
-0.43
0.37
0.29
-0.58
-1.64
-1.74
-0.74
0.20
0.39
-0.28
-1.42
-1.94
-1.30
-0.24
0.22
-0.25
-1.32
-2.16
-1.87
-0.78
-0.09
-0.31
-1.33
-2.49
-2.62
-1.69
-0.91
-0.90
-1.76
-3.02
-3.53
-2.88
-1.98
-1.74
-2.44
-3.71
-4.61
-4.37
-3.49
-3.09
-3.57
-4.78
-6.03
-6.17
-5.33
-4.75
-5.01
-6.10
-7.49
-8.00
-7.38
-6.66
-6.66
-7.57
-8.96
-9.83
-9.51
-8.70
-8.44
-9.11
-10.41
-11.56
-11.54
-10.70
-10.26
-10.68
-11.88
-13.19
-13.37
-12.54
-11.96
-12.25
-13.35
-14.65
-14.98
-14.21
-13.46
-13.48
-14.36
-15.62
-16.16
-15.53
-14.70
-14.54
-15.29
-16.51
-17.18
-16.67
-15.70
-15.36
-15.92
-17.06
-17.91
-17.59
-16.56
-16.01
-16.37
-17.41
-18.42
-18.28
-17.23
-16.52
-16.69
-17.67
-18.79
-18.88
-17.92
-17.10
-17.11
-17.93
-19.03
-19.29
-18.41
-17.48
-17.26
-17.90
-19.01
-19.48
-18.79
-17.76
-17.37
-17.86
-18.89
-19.50
-18.93
-17.81
-17.24
-17.56
-18.52
-19.32
-18.93
-17.74
-16.96
-17.09
-17.98
-18.95
-18.80
-17.63
-16.73
-16.67
-17.43
-18.40
-18.43
-17.38
-16.35
-16.11
-16.74
-17.73
-17.97
-17.06
-15.94
-15.50
-15.96
-16.92
-17.35
-16.61
-15.45
-14.86
-15.18
-16.09
-16.71
-16.16
-14.95
-14.19
-14.34
-15.20
-16.04
-15.75
-14.51
-13.59
-13.52
-14.26
-15.16
-15.02
-13.84
-12.79
-12.59
-13.23
-14.16
-14.25
-13.22
-12.12
-11.76
-12.26
-13.20
-13.49
-12.61
-11.38
-10.81
-11.11
-11.99
-12.43
-11.73
-10.49
-9.80
-9.99
-10.85
-11.59
-11.18
-9.89
-8.98
-8.94
-9.69
-10.62
-10.49
-9.29
-8.21
-7.92
-8.49
-9.45
-9.67
-8.73
-7.52
-6.95
-7.29
-8.20
-8.73
-8.09
-6.80
-6.00
-6.07
-6.87
-7.73
-7.50
-6.26
-5.27
-5.12
-5.79
-6.76
-6.85
-5.82
-4.68
-4.24
-4.67
-5.61
-6.04
-5.31
-4.08
-3.40
-3.63
-4.52
-5.30
-4.93
-3.65
-2.72
-2.67
-3.42
-4.37
-4.34
-3.23
-2.16
Sampling Rate: 377.00 Hz
-1.97
-2.63
-3.56
-3.61
-2.55
-1.44
-1.06
-1.56
-2.55
-2.99
-2.26
-1.06
-0.42
-0.69
-1.59
-2.38
-2.02
-0.77
0.13
0.14
-0.64
-1.61
-1.58
-0.47
0.59
0.87
0.28
-0.74
-1.14
-0.39
0.76
1.28
0.91
-0.06
-0.77
-0.34
0.86
1.65
1.56
0.70
-0.31
-0.24
0.85
1.82
1.99
1.32
0.27
-0.07
0.75
1.85
2.29
1.86
0.86
0.19
0.68
1.87
2.58
2.40
1.47
0.45
0.51
1.61
2.50
2.57
1.80
0.75
0.49
1.38
2.47
2.86
2.35
1.31
0.71
1.26
2.43
3.09
2.85
1.89
0.93
1.07
2.21
3.08
3.11
2.31
1.23
1.00
1.91
2.93
3.26
2.69
1.60
1.01
1.57
2.68
3.24
2.89
1.87
0.91
1.08
2.21
3.00
2.92
2.03
0.90
0.71
1.62
2.54
2.74
2.05
0.90
0.33
0.94
1.98
2.45
2.00
0.90
-0.05
0.17
1.24
1.95
1.79
0.83
-0.31
-0.48
0.42
1.26
1.33
0.56
-0.65
-1.22
-0.62
0.35
0.68
0.12
-1.06
-1.99
-1.76
-0.78
-0.22
-0.52
-1.58
-2.79
-2.91
-1.99
-1.22
-1.25
-2.13
-3.38
-3.87
-3.20
-2.29
-2.05
-2.70
-3.91
-4.72
-4.37
-3.39
-2.88
-3.27
-4.39
-5.50
-5.50
-4.50
-3.76
-3.87
-4.79
-5.98
-6.29
-5.49
-4.58
-4.41
-5.11
-6.28
-6.93
-6.41
-5.40
-4.96
-5.38
-6.43
-7.34
-7.11
-6.01
-5.26
-5.38
-6.30
-7.41
-7.56
-6.63
-5.71
-5.55
-6.24
-7.35
-7.80
-7.09
-5.98
-5.49
-5.88
-6.86
-7.57
-7.13
-5.94
-5.19
-5.28
-6.14
-7.13
-7.06
-5.96
-5.00
-4.84
-5.51
-6.51
-6.78
-5.92
-4.80
-4.32
-4.71
-5.66
-6.23
-5.65
-4.46
-3.74
-3.87
-4.71
-5.57
-5.33
-4.09
-3.13
-2.99
-3.67
-4.63
-4.73
-3.73
-2.63
-2.22
-2.70
-3.63
-4.07
-3.38
-2.17
-1.50
-1.69
-2.52
-3.24
-2.85
-1.59
-0.65
-0.57
-1.28
-2.18
-2.12
-1.00
0.09
0.42
-0.09
-1.04
-1.40
-0.60
0.59
1.18
0.87
-0.05
-0.77
-0.38
0.82
1.66
1.60
0.75
-0.26
-0.23
0.82
1.79
1.97
1.30
0.24
-0.11
0.69
1.79
2.26
1.84
0.86
0.18
0.60
1.72
2.41
2.19
1.23
0.16
0.15
1.16
1.96
1.97
1.15
-0.02
-0.45
0.24
1.16
1.43
0.82
-0.32
-1.07
-0.67
0.33
0.83
0.49
-0.57
-1.65
-1.63
-0.63
0.11
0.03
-0.85
-2.00
-2.31
-1.52
-0.60
-0.36
-1.00
-2.13
-2.76
-2.25
-1.23
-0.75
-1.13
-2.17
-3.12
-2.95
-1.86
-1.08
-1.14
-1.99
-3.06
-3.21
-2.28
-1.34
-1.11
-1.75
-2.82
-3.29
-2.59
-1.51
-1.01
-1.39
-2.38
-3.18
-2.85
-1.72
-1.00
-1.15
-2.06
-3.12
-3.17
-2.17
-1.28
-1.18
-1.90
-3.02
-3.46
-2.77
-1.78
-1.43
-1.99
-3.09
-3.84
-3.44
-2.37
-1.76
-2.05
-3.07
-4.14
-4.15
-3.16
-2.40
-2.46
-3.34
-4.51
-4.88
-4.16
-3.30
-3.14
-3.86
Sampling Rate: 380.00 Hz
-5.02
-5.47
-4.83
-3.98
-3.84
-4.62
-5.96
-6.92
-6.75
-5.99
-5.72
-6.35
-7.69
-9.06
-9.35
-8.68
-8.29
-8.75
-10.04
-11.62
-12.33
-11.96
-11.59
-11.95
-13.17
-14.78
-15.73
-15.53
-15.04
-15.18
-16.17
-17.68
-18.70
-18.56
-17.86
-17.67
-18.36
-19.63
-20.67
-20.50
-19.57
-19.00
-19.26
-20.23
-21.25
-21.13
-20.01
-19.11
-19.06
-19.79
-20.69
-20.60
-19.45
-18.36
-18.03
-18.52
-19.37
-19.48
-18.44
-17.23
-16.70
-17.03
-17.85
-18.11
-17.24
-15.96
-15.28
-15.49
-16.27
-16.73
-16.05
-14.72
-13.86
-13.86
-14.56
-15.22
-14.75
-13.37
-12.33
-12.15
-12.75
-13.48
-13.19
-11.86
-10.71
-10.36
-10.84
-11.61
-11.56
-10.44
-9.29
-8.83
-9.23
-10.10
-10.39
-9.55
-8.32
-7.70
-7.96
-8.83
-9.47
-8.99
-7.74
-6.88
-6.94
-7.77
-8.73
-8.66
-7.57
-6.61
-6.44
-7.10
-8.12
-8.42
-7.59
-6.48
-6.01
-6.43
-7.40
-8.02
-7.52
-6.35
-5.65
-5.84
-6.73
-7.68
-7.54
-6.41
-5.52
-5.45
-6.21
-7.25
-7.49
-6.60
-5.56
-5.19
-5.71
-6.73
-7.30
-6.71
-5.57
-4.95
-5.21
-6.14
-7.01
-6.76
-5.57
-4.70
-4.69
-5.45
-6.45
-6.53
-5.54
-4.54
-4.24
-4.80
-5.81
-6.23
-5.53
-4.40
-3.83
-4.12
-5.04
-5.78
-5.38
-4.17
-3.33
-3.36
-4.17
-5.16
-5.14
-4.07
-3.09
-2.86
-3.45
-4.41
-4.67
-3.79
-2.57
-1.98
-2.25
-3.07
-3.57
-2.95
-1.65
-0.79
-0.80
-1.57
-2.46
-2.27
-1.07
-0.07
0.13
-0.49
-1.42
-1.61
-0.67
0.45
0.89
0.45
-0.52
-1.08
-0.51
0.66
1.35
1.16
0.24
-0.71
-0.57
0.55
1.42
1.45
0.69
-0.35
-0.56
0.33
1.37
1.69
1.16
0.12
-0.42
0.20
1.37
2.02
1.79
0.90
0.05
0.30
1.51
2.45
2.54
1.81
0.85
0.80
1.82
2.90
3.30
2.81
1.86
1.44
2.19
3.41
4.08
3.88
3.04
2.33
2.74
3.99
4.89
4.95
4.22
3.31
3.37
4.50
5.56
5.85
5.30
4.35
4.01
4.80
5.96
6.53
6.22
5.31
4.65
5.11
6.33
7.14
7.10
6.30
5.34
5.40
6.51
7.54
7.78
7.18
6.20
5.91
6.77
7.91
8.40
8.03
7.08
6.46
6.98
8.17
8.91
8.80
7.95
7.03
7.15
8.30
9.26
9.43
8.75
7.76
7.52
8.41
9.50
9.90
9.43
8.45
7.90
8.48
9.64
10.31
10.10
9.19
8.32
8.56
9.72
10.58
10.58
9.80
8.80
8.71
9.69
10.69
10.95
10.35
9.34
8.96
9.75
10.87
11.36
10.95
9.98
9.33
9.81
10.94
11.61
11.39
10.48
9.57
9.76
10.90
11.74
11.73
10.90
9.86
9.78
10.77
11.73
11.92
11.28
10.26
9.96
10.77
11.80
12.20
11.71
10.71
10.18
10.78
11.87
12.38
12.01
11.03
10.25
10.62
11.75
12.45
12.26
11.31
10.33
10.44
11.54
12.36
12.36
11.54
10.53
10.48
11.50
12.45
12.63
11.95
10.91
10.63
Sampling Rate: 378.00 Hz
11.46
12.23
12.26
11.49
10.43
10.19
11.08
12.09
12.41
11.88
10.90
10.48
11.19
12.30
12.83
12.47
11.53
10.90
11.39
12.51
13.15
12.92
12.00
11.11
11.35
12.49
13.28
13.22
12.36
11.33
11.33
12.37
13.24
13.31
12.55
11.51
11.30
12.19
13.15
13.39
12.76
11.67
11.20
11.88
12.92
13.32
12.84
11.80
11.13
11.62
12.70
13.26
12.93
11.94
11.08
11.34
12.45
13.20
13.07
12.17
11.14
11.15
12.20
13.06
13.11
12.35
11.34
11.19
12.13
13.09
13.34
12.73
11.71
11.33
12.08
13.13
13.51
13.03
12.01
11.43
12.01
13.11
13.67
13.36
12.42
11.62
11.95
13.07
13.80
13.65
12.76
11.76
11.86
12.94
13.79
13.81
13.01
11.99
11.87
12.80
13.72
13.87
13.17
12.09
11.69
12.44
13.44
13.77
13.24
12.19
11.62
12.19
13.26
13.78
13.40
12.41
11.63
12.00
13.11
13.80
13.61
12.69
11.69
11.77
12.81
13.56
13.47
12.58
11.52
11.42
12.39
13.27
13.36
12.61
11.51
11.15
11.93
12.89
13.19
12.63
11.59
11.06
11.67
12.72
13.17
12.76
11.74
11.02
11.43
12.52
13.13
12.87
11.91
10.95
11.09
12.16
12.93
12.85
11.98
10.92
10.85
11.82
12.67
12.71
11.92
10.80
10.47
11.26
12.18
12.40
11.76
10.66
10.10
10.70
11.70
12.11
11.64
10.59
9.85
10.27
11.35
11.95
11.68
10.71
9.76
9.91
11.02
11.80
11.74
10.89
9.82
9.69
10.62
11.52
11.68
11.00
9.93
9.55
10.29
11.29
11.65
11.11
10.04
9.40
9.91
11.00
11.57
11.24
10.25
9.37
9.60
10.70
11.47
11.39
10.51
9.45
9.40
10.38
11.26
11.33
10.54
9.42
9.07
9.85
10.85
11.17
10.60
9.50
8.87
9.40
10.47
11.00
10.66
9.67
8.79
9.04
10.13
10.85
10.71
9.79
8.70
8.64
9.63
10.51
10.63
9.88
8.76
8.38
9.15
10.15
10.50
9.98
8.93
8.32
8.82
9.90
10.45
10.11
9.10
8.13
8.25
9.33
10.11
10.03
9.18
8.12
7.99
8.92
9.84
10.02
9.32
8.20
7.66
8.26
9.24
9.64
9.17
8.08
7.23
7.53
8.61
9.30
9.14
8.20
7.11
7.01
7.98
8.85
8.96
8.24
7.14
6.72
7.44
8.47
8.84
8.33
7.25
6.52
6.91
7.99
8.64
8.41
7.45
6.40
6.41
7.43
8.25
8.25
7.45
6.33
5.99
6.77
7.73
8.01
7.44
6.36
5.68
6.15
7.18
7.72
7.40
6.40
5.39
5.47
6.53
7.31
7.25
6.40
5.30
5.04
5.89
6.82
7.04
6.41
5.32
4.75
5.33
6.40
6.91
6.55
5.55
4.65
4.88
6.01
6.79
6.69
5.81
4.74
4.62
5.57
6.49
6.67
6.02
4.94
4.46
5.12
6.18
6.64
6.22
5.20
4.42
4.76
5.90
6.63
6.51
5.61
4.56
4.54
5.55
6.45
6.58
5.88
4.82
4.44
5.22
6.29
Sampling Rate: 376.00 Hz
6.59
6.02
5.01
4.60
5.33
6.44
6.93
6.52
5.50
4.70
5.06
6.19
6.94
6.80
5.89
4.84
4.81
5.81
6.69
6.77
6.02
4.90
4.48
5.22
6.26
6.66
6.17
5.14
4.45
4.91
6.03
6.69
6.49
5.54
4.51
4.56
5.61
6.45
6.46
5.65
4.55
4.24
5.06
6.06
6.37
5.80
4.70
4.05
4.54
5.60
6.17
5.85
4.86
3.91
4.08
5.19
6.00
5.97
5.14
4.05
3.85
4.73
5.66
5.91
5.31
4.22
3.67
4.24
5.27
5.72
5.31
4.27
3.35
3.55
4.62
5.33
5.17
4.24
3.15
3.04
4.01
4.93
5.12
4.45
3.37
2.92
3.64
4.73
5.22
4.82
3.82
3.05
3.40
4.51
5.21
5.04
4.11
3.06
3.04
4.06
4.95
5.07
4.36
3.26
2.86
3.59
4.64
5.06
4.59
3.57
2.89
3.35
4.47
5.16
4.97
4.04
3.04
3.12
4.20
5.09
5.16
4.41
3.36
3.10
3.94
4.99
5.36
4.84
3.81
3.20
3.73
4.84
5.48
5.24
4.29
3.33
3.45
4.53
5.35
5.32
4.49
3.38
3.12
3.94
4.88
5.13
4.52
3.41
2.78
3.30
4.34
4.83
4.43
3.39
2.46
2.64
3.73
4.49
4.40
3.52
2.44
2.29
3.20
4.11
4.28
3.62
2.52
1.98
2.62
3.68
4.18
3.80
2.79
1.95
2.22
3.34
4.10
4.00
3.13
2.08
2.04
3.04
3.95
4.12
3.43
2.32
1.87
2.55
3.56
3.96
3.47
2.42
1.65
2.02
3.09
3.74
3.51
2.54
1.45
1.43
2.42
3.26
3.29
2.51
1.42
1.09
1.87
2.88
3.21
2.67
1.61
0.91
1.37
2.44
3.03
2.77
1.78
0.77
0.86
1.92
2.72
2.70
1.88
0.78
0.53
1.38
2.37
2.67
2.10
1.01
0.41
0.94
2.02
2.56
2.22
1.19
0.20
0.31
1.37
2.14
2.06
1.15
0.02
-0.23
0.62
1.56
1.78
1.15
0.02
-0.56
0.01
1.04
1.51
1.09
0.04
-0.86
-0.62
0.50
1.27
1.19
0.34
-0.71
-0.78
0.23
1.20
1.46
0.86
-0.15
-0.56
0.17
1.27
1.79
1.42
0.44
-0.31
0.09
1.26
2.02
1.91
1.03
0.01
0.01
1.05
1.99
2.17
1.50
0.45
0.05
0.78
1.82
2.25
1.80
0.78
0.08
0.50
1.62
2.30
2.12
1.20
0.18
0.21
1.25
2.11
2.17
1.41
0.33
-0.02
0.76
1.79
2.15
1.65
0.64
0.01
0.50
1.61
2.25
2.02
1.08
0.10
0.18
1.25
2.10
2.16
1.41
0.37
0.15
1.04
2.09
2.48
1.99
1.00
0.45
1.04
2.19
2.82
2.56
1.62
0.69
0.85
1.97
2.80
2.81
2.01
0.95
0.75
1.61
2.56
2.82
2.19
1.07
0.51
1.09
2.13
2.63
2.26
1.25
0.35
0.54
1.61
2.34
2.24
1.35
0.26
0.11
1.05
1.98
2.14
1.45
0.31
-0.25
0.37
1.37
1.80
1.36
0.29
-0.58
-0.28
0.82
1.52
1.35
Sampling Rate: 380.00 Hz
0.48
-0.33
-0.06
1.09
1.88
1.82
0.95
-0.12
-0.23
0.71
1.62
1.77
1.07
-0.07
-0.61
0.01
1.03
1.48
1.07
0.06
-0.72
-0.36
0.76
1.48
1.32
0.42
-0.63
-0.65
0.37
1.28
1.39
0.66
-0.43
-0.82
-0.06
0.98
1.40
0.94
-0.08
-0.75
-0.29
0.86
1.54
1.36
0.45
-0.53
-0.44
0.64
1.52
1.59
0.86
-0.18
-0.44
0.42
1.45
1.81
1.31
0.28
-0.33
0.24
1.40
2.05
1.80
0.87
-0.06
0.10
1.22
2.07
2.08
1.29
0.25
0.04
0.93
1.91
2.20
1.62
0.56
-0.00
0.59
1.70
2.27
1.96
0.97
0.04
0.23
1.33
2.11
2.04
1.19
0.12
-0.04
0.86
1.81
2.00
1.34
0.23
-0.32
0.29
1.35
1.84
1.48
0.49
-0.35
-0.07
1.06
1.82
1.72
0.85
-0.21
-0.31
0.64
1.54
1.67
0.97
-0.13
-0.58
0.10
1.15
1.61
1.18
0.15
-0.63
-0.29
0.82
1.52
1.36
0.46
-0.58
-0.60
0.40
1.28
1.37
0.63
-0.47
-0.87
-0.12
0.92
1.31
0.82
-0.20
-0.89
-0.45
0.66
1.33
1.09
0.12
-0.90
-0.83
0.24
1.09
1.12
0.33
-0.78
-1.08
-0.28
0.69
0.99
0.44
-0.61
-1.22
-0.69
0.38
0.96
0.65
-0.35
-1.31
-1.17
-0.08
0.71
0.65
-0.19
-1.29
-1.49
-0.63
0.27
0.47
-0.20
-1.31
-1.88
-1.28
-0.22
0.26
-0.11
-1.11
-1.99
-1.75
-0.66
0.05
-0.08
-1.01
-2.10
-2.22
-1.26
-0.34
-0.17
-0.86
-1.97
-2.41
-1.70
-0.65
-0.22
-0.66
-1.69
-2.45
-2.08
-0.96
-0.26
-0.43
-1.38
-2.42
-2.41
-1.38
-0.51
-0.42
-1.13
-2.17
-2.46
-1.64
-0.59
-0.19
-0.66
-1.65
-2.23
-1.68
-0.52
0.15
-0.05
-0.97
-1.90
-1.76
-0.64
0.20
0.23
-0.57
-1.62
-1.83
-0.94
0.07
0.35
-0.20
-1.22
-1.74
-1.13
-0.03
0.51
0.15
-0.85
-1.73
-1.50
-0.36
0.45
0.39
-0.45
-1.51
-1.63
-0.71
0.21
0.40
-0.25
-1.35
-1.84
-1.18
-0.12
0.34
-0.06
-1.06
-1.84
-1.50
-0.37
0.37
0.26
-0.63
-1.67
-1.68
-0.68
0.22
0.33
-0.40
-1.50
-1.92
-1.19
-0.14
0.28
-0.20
-1.24
-1.95
-1.53
-0.41
0.24
0.04
-0.89
-1.92
-1.89
-0.84
0.04
0.08
-0.68
-1.76
-2.09
-1.29
-0.31
0.01
-0.53
-1.60
-2.26
-1.78
-0.72
-0.18
-0.52
-1.53
-2.50
-2.36
-1.29
-0.50
-0.57
-1.45
-2.57
-2.79
-1.93
-1.00
-0.78
-1.39
-2.48
-3.00
-2.39
-1.33
-0.82
-1.20
-2.20
-3.04
-2.75
-1.65
-0.93
-1.08
-2.02
-3.11
-3.20
-2.23
-1.34
-1.22
-1.95
-3.07
-3.52
-2.81
-1.78
-1.34
-1.80
-2.82
-3.51
-3.07
-1.93
-1.21
-1.34
-2.23
-3.23
-3.13
-2.04
-1.11
-0.99
-1.70
-2.73
-2.97
-2.09
-1.04
-0.64
-1.12
-2.12
-2.69
-2.13
-0.99
-0.35
-0.58
-1.49
-2.38
-2.19
-1.06
-0.21
-0.22
-1.02
-2.02
Sampling Rate: 380.00 Hz
-1.93
-0.83
0.05
0.10
-0.67
-1.72
-1.95
-1.08
-0.06
0.30
-0.21
-1.22
-1.77
-1.19
-0.06
0.53
0.24
-0.73
-1.66
-1.50
-0.39
0.41
0.36
-0.47
-1.53
-1.68
-0.76
0.21
0.48
-0.11
-1.18
-1.72
-1.09
-0.02
0.50
0.14
-0.86
-1.68
-1.39
-0.25
0.51
0.42
-0.46
-1.50
-1.59
-0.59
0.37
0.56
-0.07
-1.11
-1.52
-0.79
0.27
0.72
0.30
-0.71
-1.45
-1.06
0.07
0.79
0.64
-0.26
-1.27
-1.23
-0.18
0.74
0.86
0.13
-0.96
-1.29
-0.50
0.52
0.88
0.39
-0.64
-1.28
-0.79
0.31
0.95
0.72
-0.23
-1.23
-1.14
-0.09
0.71
0.70
-0.11
-1.20
-1.45
-0.60
0.37
0.66
0.09
-0.99
-1.58
-1.02
0.07
0.65
0.34
-0.63
-1.56
-1.39
-0.29
0.50
0.44
-0.42
-1.51
-1.69
-0.78
0.16
0.38
-0.26
-1.33
-1.84
-1.20
-0.13
0.38
0.01
-0.96
-1.79
-1.47
-0.35
0.42
0.31
-0.57
-1.63
-1.71
-0.73
0.18
0.34
-0.34
-1.44
-1.88
-1.17
-0.12
0.31
-0.13
-1.13
-1.82
-1.38
-0.25
0.46
0.27
-0.65
-1.68
-1.62
-0.55
0.35
0.46
-0.27
-1.32
-1.61
-0.77
0.30
0.70
0.21
-0.84
-1.48
-0.96
0.17
0.81
0.58
-0.38
-1.37
-1.27
-0.17
0.68
0.72
-0.07
-1.13
-1.35
-0.46
0.56
0.87
0.32
-0.71
-1.28
-0.68
0.42
0.97
0.63
-0.36
-1.26
-1.05
0.07
0.86
0.79
-0.07
-1.14
-1.27
-0.32
0.63
0.84
0.20
-0.88
-1.39
-0.75
0.31
0.78
0.40
-0.61
-1.45
-1.17
-0.07
0.66
0.54
-0.37
-1.45
-1.51
-0.52
0.37
0.50
-0.21
-1.31
-1.75
-1.03
0.02
0.44
-0.02
-1.05
-1.79
-1.40
-0.27
0.42
0.25
-0.68
-1.72
-1.71
-0.69
0.16
0.23
-0.52
-1.61
-1.95
-1.15
-0.11
0.26
-0.26
-1.31
-1.98
-1.50
-0.39
0.24
-0.01
-0.97
-1.96
-1.86
-0.79
0.02
-0.00
-0.85
-1.97
-2.24
-1.38
-0.42
-0.13
-0.72
-1.78
-2.36
-1.80
-0.74
-0.20
-0.54
-1.54
-2.42
-2.18
-1.06
-0.28
-0.36
-1.22
-2.29
-2.38
-1.42
-0.48
-0.27
-0.91
-2.00
-2.49
-1.83
-0.80
-0.36
-0.80
-1.86
-2.67
-2.35
-1.25
-0.54
-0.69
-1.59
-2.65
-2.66
-1.64
-0.75
-0.64
-1.38
-2.49
-2.90
-2.16
-1.13
-0.74
-1.22
-2.24
-2.92
-2.44
-1.31
-0.63
-0.82
-1.74
-2.71
-2.59
-1.47
-0.59
-0.57
-1.37
-2.45
-2.72
-1.89
-0.91
-0.61
-1.18
-2.25
-2.84
-2.27
-1.17
-0.58
-0.88
-1.84
-2.74
-2.53
-1.39
-0.56
-0.59
-1.42
-2.45
-2.57
-1.62
-0.66
-0.40
-1.01
-2.06
-2.54
-1.87
-0.78
-0.26
-0.62
-1.62
-2.40
-2.07
-0.95
-0.19
-0.29
-1.15
-2.17
-2.21
-1.20
-0.27
-0.11
-0.78
-1.83
-2.23
-1.48
-0.41
0.04
-0.41
-1.45
-2.19
-1.80
-0.71
-0.08
-0.31
-1.27
-2.31
-2.27
-1.23
-0.37
-0.32
-1.11
-2.20
-2.50
-1.67
Sampling Rate: 380.00 Hz
-0.91
-0.88
-1.63
-2.74
-3.11
-2.35
-1.29
-0.89
-1.34
-2.34
-2.97
-2.48
-1.36
-0.72
-0.97
-1.95
-2.95
-2.86
-1.77
-0.91
-0.89
-1.69
-2.79
-3.04
-2.19
-1.20
-0.92
-1.50
-2.56
-3.12
-2.55
-1.46
-0.91
-1.24
-2.21
-3.12
-2.90
-1.77
-0.96
-1.02
-1.88
-2.95
-3.06
-2.10
-1.14
-0.92
-1.55
-2.62
-3.09
-2.39
-1.29
-0.79
-1.17
-2.15
-2.92
-2.57
-1.42
-0.65
-0.74
-1.60
-2.60
-2.57
-1.51
-0.59
-0.46
-1.16
-2.21
-2.56
-1.78
-0.73
-0.32
-0.77
-1.79
-2.45
-1.97
-0.84
-0.18
-0.40
-1.34
-2.34
-2.27
-1.20
-0.35
-0.32
-1.10
-2.16
-2.39
-1.50
-0.47
-0.12
-0.64
-1.67
-2.24
-1.67
-0.57
0.00
-0.31
-1.27
-2.17
-1.98
-0.85
-0.04
-0.07
-0.88
-1.89
-1.98
-0.98
0.01
0.24
-0.39
-1.47
-1.99
-1.36
-0.31
0.16
-0.24
-1.24
-2.03
-1.72
-0.60
0.15
0.04
-0.86
-1.92
-1.99
-1.02
-0.13
-0.02
-0.75
-1.85
-2.24
-1.51
-0.46
-0.04
-0.49
-1.51
-2.24
-1.83
-0.70
0.01
-0.15
-1.06
-2.08
-2.03
-0.97
-0.08
0.00
-0.73
-1.79
-2.11
-1.29
-0.26
0.09
-0.45
-1.52
-2.18
-1.69
-0.59
0.04
-0.21
-1.18
-2.15
-2.03
-0.96
-0.14
-0.16
-0.98
-2.04
-2.27
-1.38
-0.40
-0.12
-0.72
-1.80
-2.36
-1.78
-0.72
-0.19
-0.52
-1.52
-2.40
-2.16
-1.05
-0.29
-0.39
-1.31
-2.41
-2.56
-1.63
-0.72
-0.54
-1.21
-2.30
-2.79
-2.11
-1.05
-0.58
-0.98
-1.98
-2.75
-2.41
-1.29
-0.58
-0.72
-1.63
-2.68
-2.71
-1.70
-0.80
-0.68
-1.40
-2.48
-2.88
-2.11
-1.07
-0.65
-1.13
-2.15
-2.83
-2.37
-1.23
-0.55
-0.72
-1.62
-2.59
-2.48
-1.39
-0.51
-0.43
-1.16
-2.19
-2.42
-1.52
-0.47
-0.12
-0.65
-1.68
-2.25
-1.68
-0.55
0.06
-0.20
-1.16
-2.07
-1.90
-0.78
0.01
-0.04
-0.88
-1.95
-2.09
-1.15
-0.17
0.11
-0.48
-1.54
-2.07
-1.45
-0.38
0.12
-0.25
-1.23
-2.04
-1.76
-0.64
0.12
0.01
-0.87
-1.92
-1.99
-1.01
-0.09
0.06
-0.62
-1.70
-2.14
-1.42
-0.37
0.07
-0.34
-1.33
-2.06
-1.66
-0.54
0.16
-0.02
-0.93
-1.99
-2.00
-0.96
-0.08
0.01
-0.74
-1.81
-2.15
-1.36
-0.32
0.08
