t,leadI,leadII,leadIII,aVR,aVL,aVF
0,926.288288288288,927.198198198198,0.90990990990997,-926.743243243243,462.689189189189,464.054054054054
0.00216708202405461,969.85791125056,975.335275661139,5.47736441057828,-972.596593455849,482.190273419991,490.406320035858
0.00433416404810922,986.453637660485,991.751531425694,5.29789376520944,-989.10258454309,490.577871947638,498.524712595452
0.00650124607216383,995.336666218155,1000.86097208298,5.52430586482876,-998.098819150569,494.906180176663,503.192638973906
0.00866832809621844,1002.36468162565,1006.8422678631,4.47758623744699,-1004.60347474437,498.943547694102,505.659927050272
0.0108354101202731,1007.09211473141,1011.149799772,4.05768504058767,-1009.12095725171,501.517214845412,507.603742406294
0.0130024921443277,1010.9522603728,1014.16128227343,3.20902190063396,-1012.55677132312,503.871619236082,508.685152087033
0.0151695741683823,1013.15793651714,1015.76152296207,2.60358644493249,-1014.45972973961,505.277175036105,509.182554703504
0.0173366561924369,1014.74836325606,1017.18763104474,2.43926778867547,-1015.9679971504,506.154547733694,509.813449416707
0.0195037382164915,1016.44420093605,1017.95052265852,1.5063217224681,-1017.19736179729,507.468939606793,509.728422190495
0.0216708202405461,1017.40691677086,1018.77615427373,1.36923750287042,-1018.0915355223,508.018839633996,510.072695888302
0.0238379022646007,1018.10826762968,1019.10716765639,0.998900026704973,-1018.60771764303,508.554683801488,510.053033841546
0.0260049842886553,1019.16029335416,1019.61884423846,0.458550884306078,-1019.38956879631,509.350871234925,510.038697561384
0.0281720663127099,1019.1169748486,1019.72184974398,0.604874895378657,-1019.41941229629,509.256049976609,510.163362319677
0.0303391483367645,1018.81516422674,1019.79700694366,0.981842716920596,-1019.3060855852,508.91666075491,510.389424830291
0.0325062303608192,1018.59492197256,1019.85185190231,1.25692992975326,-1019.22338693744,508.668996021404,510.554390916034
0.0346733123848738,1018.70436176396,1019.35153771055,0.647175946588845,-1019.02794973726,509.028592908688,509.999356828571
0.0368403944089284,1019.5947225067,1019.52672847007,-0.0679940366279652,-1019.56072548838,509.831358271663,509.729367216721
0.039007476432983,1019.43405225853,1019.65458751914,0.220535260606084,-1019.54431988883,509.606758498962,509.937561389871
0.0411745584570376,1019.58694770645,1020.01806179217,0.431114085712466,-1019.80250474931,509.577916810371,510.22458793894
0.0433416404810922,1019.69853679645,1020.28333956149,0.584802765039967,-1019.99093817897,509.556867015706,510.434071163266
0.0455087225051468,1019.50982233894,1020.47695024394,0.967127905005327,-1019.99338629144,509.271347216965,510.722039074473
0.0476758045292014,1019.37209051055,1020.07794250733,0.705851996782599,-1019.72501650894,509.333119256885,510.391897252058
0.049842886553256,1019.8118806378,1020.32704221752,0.515161579721621,-1020.06946142766,509.648359529037,510.421101898619
0.0520099685773107,1019.32238967044,1020.23868970241,0.916300031971559,-1019.78053968643,509.203044819235,510.577494867192
0.0541770506013653,1019.50545034165,1020.71451870209,1.2090683604406,-1020.10998452187,509.148190990606,510.961793531267
0.0563441326254199,1019.36889977957,1020.25133078196,0.882431002396402,-1019.81011528076,509.243234388584,510.566880892179
0.0585112146494745,1019.2692392077,1020.45358843171,1.18434922401264,-1019.86141381971,509.042444991843,510.818968827862
0.0606782966735291,1017.57556524805,1020.87136113384,3.2957958857944,-1019.22346319095,507.139884681127,512.083578509819
0.0628453786975837,1017.96038515002,1021.44642615432,3.48604100430418,-1019.70340565217,507.237172072857,512.466233579313
0.0650124607216383,1018.78155598949,1021.3258213547,2.54426536521316,-1020.05368867209,508.118645312137,511.935043359957
0.0671795427456929,1018.84056999611,1021.23779869142,2.39722869531715,-1020.03918434376,508.221670650394,511.81751369337
0.0693466247697475,1019.42395342698,1021.17355589763,1.74960247064632,-1020.2987546623,508.837175478166,511.461579184136
0.0715137067938021,1019.57957598718,1020.58635626938,1.00678028219636,-1020.08296612828,509.286397852493,510.796568275787
0.0736807888178568,1018.88268750984,1019.61747984465,0.734792334809754,-1019.25008367724,509.073947587513,510.176136089728
0.0758478708419114,1019.18453641975,1020.26113246473,1.07659604497655,-1019.72283444224,509.053970187387,510.668864254852
0.078014952865966,1019.13468275963,1020.46074211917,1.32605935953495,-1019.7977124394,508.904311700048,510.89340073935
0.0801820348900206,1019.09829737548,1020.60642598549,1.50812861000566,-1019.85236168048,508.795084382738,511.057277297746
0.0823491169140752,1019.88221036454,1020.98290866223,1.10069829769191,-1020.43255951338,509.390756033422,511.04180347996
0.0845161989381298,1019.91403196625,1020.44721356954,0.533181603287858,-1020.1806227679,509.690425181482,510.490197586414
0.0866832809621844,1019.93725676459,1020.32639604569,0.389139281101961,-1020.13182640514,509.774058741745,510.357767663398
0.088850362986239,1020.49451966314,1020.77853055017,0.28401088702833,-1020.63652510665,510.105254388055,510.531270718597
0.0910174450102936,1020.63107831612,1020.83836189778,0.207283581658203,-1020.73472010695,510.211897367231,510.522822739718
0.0931845270343482,1021.27105722446,1020.88202943517,-0.389027789290253,-1021.07654332981,510.830042506875,510.246500822939
0.0953516090584029,1020.65751700775,1020.10343128046,-0.554085727294705,-1020.38047414411,510.605801367525,509.774672776583
0.0975186910824575,1020.75004091557,1020.34564488941,-0.404396026156519,-1020.54784290249,510.577218470863,509.970624431629
0.0996857731065121,1021.08772512681,1019.98211056357,-1.10561456324933,-1020.53491784519,511.096669845032,509.438248000158
0.101852855130567,1020.52371321512,1019.71678729407,-0.806925921051743,-1020.1202502546,510.665319568088,509.454930686511
0.104019937154621,1020.11207262495,1019.52314275399,-0.588929870959419,-1019.81760768947,510.350501247954,509.467106441515
0.106187019178676,1020.35195172101,1019.92212491305,-0.429826807962968,-1020.13703831703,510.390889264486,509.746149052542
0.108354101202731,1019.98671356543,1019.94316335154,-0.0435502138911943,-1019.96493845848,510.01513188966,509.949806568823
0.110521183226785,1019.72014676639,1020.7689867608,1.04883999440642,-1020.24456676359,509.335653385992,510.908913377601
0.11268826525084,1019.79575085586,1020.83139642239,1.03564556652975,-1020.31357363913,509.380052644666,510.933520994461
0.114855347274894,1019.85093003092,1020.87694572623,1.02601569530611,-1020.36393787857,509.412457167807,510.951480710766
0.117022429298949,1019.89120220907,1020.91018960268,1.01898739361297,-1020.40069590588,509.436107407729,510.964588498148
0.119189511323004,1019.92059460813,1020.93445243941,1.01385783128114,-1020.42752352377,509.453368388423,510.974155135345
0.121356593347058,1020.21220267987,1020.95216052008,0.739957840205761,-1020.58218159997,509.736122419832,510.846059180141
0.123523675371113,1019.61456238398,1020.15461601714,0.540053633151047,-1019.88458920056,509.537254375417,510.347334825143
0.125690757395167,1019.98884696211,1020.92331417527,0.934467213154676,-1020.45608056869,509.527189874478,510.92889069421
0.127857839419222,1020.26201623645,1020.94403132718,0.682015090730602,-1020.60302378182,509.79000057286,510.813023208956
0.130024921443277,1019.65091849882,1020.1486829762,0.497764477379519,-1019.89980073751,509.576577010719,510.323223726789
0.132192003467331,1020.01538124668,1019.83835913471,-0.177022111976953,-1019.9268701907,510.09620167933,509.830668511365
0.134359085491386,1020.01122590735,1020.15218363043,0.140957723083829,-1020.08170476889,509.935134092131,510.146570676757
0.13652616751544,1019.73803694687,1019.84091406545,0.102877118581546,-1019.78947550616,509.817579914145,509.971895592017
0.138693249539495,1020.07896410483,1020.15404833076,0.075084225937303,-1020.11650621779,510.001939939444,510.11456627835
0.14086033156355,1019.78747524952,1019.84227500541,0.0547997558867337,-1019.81487512746,509.866337746817,509.948537380647
0.143027413587604,1019.57473391917,1020.15504160434,0.580307685168123,-1019.86488776175,509.497213117,510.367674644752
0.145194495611659,1019.95977840447,1020.3833123637,0.42353395922305,-1020.17154538409,509.768122222626,510.40342316146
0.147361577635714,1020.24080073023,1020.54991435943,0.309113629200283,-1020.39535754483,509.965843550514,510.429513994315
0.149528659659768,1019.63543449339,1019.86103915549,0.225604662097567,-1019.74823682444,509.704914915647,510.043321908793
0.151695741683823,1019.46376791776,1019.62842407897,0.164656161204675,-1019.54609599837,509.64955587828,509.896540120087
0.153862823707877,1019.87879055766,1019.99896383409,0.120173276432297,-1019.93887719587,509.879308640612,510.059568555261
0.156029905731932,1020.18169225331,1020.26939997262,0.0877077193031255,-1020.22554611297,510.046992267006,510.17855384596
0.158196987755987,1020.4027631743,1020.46677610841,0.0640129341043121,-1020.43476964136,510.1693751201,510.265394521257
0.160364069780041,1020.56411041272,1020.61082985504,0.0467194423158617,-1020.58747013388,510.258695485204,510.328774648678
0.162531151804096,1020.14155626867,1020.17565416343,0.0340978947590429,-1020.15860521605,510.053729186957,510.104876029096
0.16469823382815,1020.91378259898,1020.93866873566,0.0248861366781057,-1020.92622566732,510.44444823115,510.481777436167
0.166865315852205,1020.66691855356,1020.9552377577,0.288319204136656,-1020.81107815563,510.189299674713,510.621778480918
0.16903239787626,1020.21659015163,1020.96733055551,0.750740403880513,-1020.59196035357,509.732924873877,510.859035479698
0.171199479900314,1019.617764553,1020.70600019701,1.08823564401246,-1020.161882375,509.264764454492,510.897117920511
0.173366561924369,1018.10009056217,1021.05558228195,2.95549171977552,-1019.57783642206,507.572299421198,512.005537000862
0.175533643948423,1017.26258183944,1020.77041017134,3.50782833190124,-1019.01649600539,506.877376753768,512.13911925162
0.177700725972478,1014.76023781754,1021.10259150161,6.34235368406178,-1017.93141465957,504.208942066741,513.722472592833
0.179867807996533,1013.20407378928,1020.53456334642,7.33048955714196,-1016.86931856785,502.936792116067,513.93252645178
0.182034890020587,1012.87878577555,1020.66030394962,7.78151817406456,-1016.76954486258,502.548633800743,514.22091106184
0.184201972044642,1014.26231361061,1021.02223115965,6.75991754903544,-1017.64227238513,503.751198030788,513.891074354341
0.186369054068696,1016.08254144235,1021.01622527377,4.93368383142342,-1018.54938335806,505.574428805462,512.974954552597
0.188536136092751,1017.14086720645,1021.28199812714,4.14113092069704,-1019.2114326668,506.499868142875,512.711564523921
0.190703218116806,1017.64312347932,1020.66550215762,3.02237867829706,-1019.15431281847,507.310372400511,511.843940417957
0.19287030014086,1018.279848312,1020.75586882759,2.47602051559829,-1019.5178585698,507.901913898199,511.615944671596
0.195037382164915,1019.01471418774,1020.82182238033,1.80710819258775,-1019.91826828404,508.603802997578,511.314465286459
0.19720446418897,1019.28089527039,1020.8699581711,1.58906290070775,-1020.07542672075,508.845916184843,511.229510535905
0.199371546213024,1016.50344754949,1020.90508977898,4.40164222948647,-1018.70426866424,506.050902660004,512.653366004234
0.201538628237079,1012.85540731232,1020.66057415289,7.80516684057204,-1016.7579907326,502.525120235872,514.23287049673
0.203705710261133,1009.65259538263,1020.21195973021,10.5593643475864,-1014.93227755642,499.546615517519,515.385662038899
0.205872792285188,1006.77473056745,1020.4248537043,13.6501231368461,-1013.59979213588,496.562303715304,517.037488420573
0.208039874309243,1006.56543229213,1020.85038926069,14.2849569685606,-1013.70791077641,496.140237661784,517.567673114625
0.210206956333297,1008.57392694099,1021.16096374315,12.587036802158,-1014.86744534207,497.993445069417,516.874000272653
0.212374038357352,1011.66075155518,1021.11747838805,9.45672683286966,-1016.38911497162,501.102012361156,515.28710261046
0.214541120381406,1013.64349511302,1021.08574087176,7.44224575874,-1017.36461799239,503.100624677139,514.263993315249
0.216708202405461,1014.82043197029,1020.25210880703,5.43167683674096,-1017.53627038866,504.694377566772,512.841892821884
0.218875284429516,1017.03019308394,1020.45415625861,3.42396317467285,-1018.74217467128,506.803114954633,511.939059716643
0.22104236645357,1017.5623486585,1020.06130691232,2.4989582538152,-1018.81182778541,507.531695202343,511.280132583066
0.223209448477625,1017.1402704633,1020.58505689287,3.44478642956904,-1018.86266367808,506.847742016864,512.014921661218
0.225376530501679,1014.67096961945,1020.9673125627,6.29634294325285,-1017.81914109108,504.187313338099,513.631827752978
0.227543612525734,1009.35673498322,1020.70598706507,11.34925208185,-1015.03136102414,499.003741450684,516.027619573459
0.229710694549789,1003.58708036221,1020.78541648581,17.1983361236051,-1012.18624842401,493.1943721193,518.991876304708
0.231877776573843,995.864103023082,1020.30307513139,24.438972108309,-1008.08358907724,485.712565457386,522.37102361985
0.234044858597898,988.606598715036,1020.22119750198,31.6145987869453,-1004.41389810851,478.495999964046,525.917898144463
0.236211940621953,984.660535337853,1020.16143962277,35.500904284918,-1002.41098748031,474.579815526467,527.831171953844
0.238379022646007,986.373181096273,1019.84766949397,33.4744883976928,-1003.11042529512,476.44934634929,526.661078945829
0.240546104670062,988.973926023678,1019.88882252643,30.9148965027503,-1004.43137427505,479.029514760464,525.401859514589
0.242713186694116,993.033313248424,1019.64870159966,26.615388351238,-1006.34100742404,483.208962448593,523.13204497545
0.244880268718171,998.967750128601,1019.47345083286,20.5057007042616,-1009.22060048073,489.23102471217,519.989575768562
0.247047350742226,1005.46021171661,1020.15601378496,14.6958020683529,-1012.80811275079,495.382204824129,517.425907926658
0.24921443276628,1009.38822584067,1019.84370947995,10.4554836392797,-1014.61596766031,499.466371100694,515.149596559613
0.251381514790335,1012.52521876066,1019.34561991105,6.82040115039104,-1015.93541933586,502.852408805135,513.083010530722
0.253548596814389,1014.81473355672,1019.25224854514,4.43751498841311,-1017.03349105093,505.188609284154,511.844881766774
0.255715678838444,1015.94540928471,1019.4542582456,3.50884896089144,-1017.69983376516,506.21828016191,511.481553603247
0.257882760862499,1017.85125078866,1020.41216240625,2.56091161758718,-1019.13170659745,507.645169585536,511.486537011917
0.260049842886553,1017.89143631211,1020.03065796003,2.13922164791336,-1018.96104713607,507.8761073321,511.08493980397
0.262216924910608,1018.19092167865,1020.29253173355,2.10161005490261,-1019.2417267061,508.044655811874,511.197070894228
0.264384006934662,1018.9498116368,1020.21350246856,1.26369083176712,-1019.58165705268,508.843060402515,510.738596650166
0.266551088958717,1018.69321412301,1019.88566723856,1.19245311555164,-1019.28944068078,508.750380503729,510.539060177056
0.268718170982772,1019.85671908088,1020.7270235799,0.870304499019653,-1020.29187133039,509.49320729093,510.798664039459
0.270885253006826,1020.16558352309,1020.26045743174,0.0948739086463775,-1020.21302047742,510.035354807224,510.177665670193
0.273052335030881,1020.39100631762,1019.91993702676,-0.47106929086226,-1020.15547167219,510.43103780424,509.724433867947
0.275219417054936,1020.01521732016,1019.67141032445,-0.343806995713862,-1019.8433138223,510.179512157937,509.663801664367
0.27738649907899,1020.28126247846,1019.49002465458,-0.791237823880124,-1019.88564356652,510.536250151172,509.349393415351
0.279553581103045,1020.74559009648,1019.89795387392,-0.847636222562755,-1020.3217719852,510.796613159523,509.525158825679
0.281720663127099,1020.81432051228,1019.92552226878,-0.888798243501697,-1020.36992139053,510.851559377891,509.518362012638
0.283887745151154,1020.8644829793,1020.21579910239,-0.648683876919108,-1020.54014104085,510.756583428112,509.783557612733
0.286054827175209,1020.09062510864,1019.61718721062,-0.473437898028465,-1019.85390615963,510.282031503337,509.571874656294
0.288221909199263,1015.2033303589,1019.18029403991,3.9769636810056,-1017.19181219941,505.613183338949,511.578628860457
0.290388991223318,1010.55574379757,1019.13158648506,8.57584268749849,-1014.84366514131,500.989950555034,513.853714586281
0.292556073247372,1008.51451267534,1019.09603757873,10.5815249033831,-1013.80527512703,498.96649388598,514.838781241054
0.294723155271427,1009.4561387275,1019.34024864213,9.88410991463286,-1014.39819368482,499.786014406433,514.612179278382
0.296890237295482,1012.57478455925,1019.24832835788,6.67354379862934,-1015.91155645856,502.95062038031,512.960936078254
0.299057319319536,1014.85090884693,1019.72155333316,4.8706444862321,-1017.28623109004,504.990132180347,512.296098909695
0.301224401343591,1016.78228023116,1019.25646500614,2.47418477497149,-1018.01937261865,507.154047728097,510.865324890554
0.303391483367645,1017.65156721478,1019.45733560347,1.80576838869479,-1018.55445140913,507.922899413042,510.631551996084
0.3055585653917,1018.55616713174,1019.87409597303,1.31792884128743,-1019.21513155238,508.619119145226,510.596012407158
0.307725647415755,1018.67607133813,1019.63795351614,0.961882178008864,-1019.15701242714,508.857094580062,510.299917847076
0.309892729439809,1018.76358267834,1019.46560641087,0.702023732531075,-1019.11459454461,509.030779472904,510.083815071701
0.312059811463864,1017.20651501515,1019.60997615856,2.40346114340798,-1018.40824558685,507.401526935871,511.006718650983
0.314226893487919,1014.71931779412,1019.17503109836,4.45571330424059,-1016.94717444624,505.131802244939,511.8153722013
0.316393975511973,1012.36373992875,1019.12774535987,6.76400543111231,-1015.74574264431,502.799867248821,512.945875395489
0.318561057536028,1011.45500469188,1019.09323415736,7.63822946548032,-1015.27411942462,501.9083876132,513.365731811421
0.320728139560082,1010.79176992419,1019.60835879433,8.81658887013953,-1015.20006435926,500.987590527028,514.212473832237
0.322895221584137,1010.30771214893,1019.71416309887,9.40645094994102,-1015.0109376239,500.450630599494,514.560307024405
0.325062303608192,1010.22458180043,1019.79138371329,9.566801912865,-1015.00798275686,500.328889943781,514.679092813079
0.327229385632246,1009.35344099635,1019.57758648717,10.2241454908187,-1014.46551374176,499.564647752767,514.900865988996
0.329396467656301,1007.63701944443,1019.42154790977,11.7845284653408,-1013.5292836771,497.926245489544,515.603038187555
0.331563549680355,1006.11414362508,1019.57782033522,13.4636767101404,-1012.84598198015,496.325233457467,516.520748522678
0.33373063170441,1003.92205732074,1020.23218721793,16.3101298971839,-1012.07712226933,493.805963711779,518.271158557555
0.335897713728465,1000.97139568913,1019.89930418681,18.927908497689,-1010.43534993797,491.021743595718,519.413606342252
0.338064795752519,998.277561202678,1020.19666399813,21.9191027954495,-1009.2371126004,488.179229203614,521.057883396789
0.340231877776574,998.2025763196,1020.68384642113,22.4812701015251,-1009.44321137036,487.860653109038,521.582558261325
0.342398959800628,1000.8494111872,1021.03941348624,20.1900022990368,-1010.94441233672,490.329704444081,520.614707892636
0.344566041824683,1005.7529055041,1021.0287656881,15.2758601839924,-1013.3908355961,495.238522660056,518.152312936045
0.346733123848738,1009.33169037142,1021.02099445877,11.6893040873475,-1015.1763424151,498.821193142037,516.355149273058
0.348900205872792,1012.21380048775,1021.28547888719,9.07167839943725,-1016.74963968747,501.571061044157,515.178578643313
0.351067287896847,1013.50682201724,1020.93819878059,7.43137676334231,-1017.22251039891,503.03772262695,514.184787771964
0.353234369920902,1013.64005711284,1020.41458234017,6.77452522732494,-1017.02731972651,503.432765942759,513.594553783747
0.355401451944956,1010.76557958914,1020.03242413377,9.26684454462827,-1015.39900186145,500.749367522256,514.649634339198
0.357568533969011,1007.31687896499,1020.56397697636,13.2470980113676,-1013.94042797068,497.034890476812,516.905537493863
0.359735615993065,1003.98939760173,1020.68177130471,16.6923737029869,-1012.33558445322,493.648511949371,518.687072503851
0.36190269801712,1002.64148084612,1020.2274303398,17.5859494936749,-1011.43445559296,492.527765676224,518.906689916737
0.364069780041175,1001.927868387,1019.89583240886,17.9679640218588,-1010.91185039793,491.979952182572,518.931898215361
0.366236862065229,1003.56829246156,1019.65381771881,16.0855252572557,-1011.61105509018,493.74138360215,517.869671488034
0.368403944089284,1007.46710790098,1020.28765343626,12.8205455352764,-1013.87738066862,497.323281182853,516.554099485767
0.370571026113338,1011.39325897799,1021.0204107092,9.62715173120989,-1016.2068348436,500.883053623391,515.323781220206
0.372738108137393,1013.71842352906,1021.55520905307,7.83678552400761,-1017.63681629106,502.940819002525,514.695997288537
0.374905190161448,1014.87511800929,1020.59474724288,5.71962923359115,-1017.73493262608,504.577744387848,513.157188238234
0.377072272185502,1015.98948050232,1020.16391636885,4.17443586653394,-1018.07669843558,505.907522317891,512.169176117691
0.379239354209557,1017.07294725745,1020.11963334358,3.04668608613008,-1018.59629030051,507.013130585658,511.583159714854
0.381406436233611,1017.59355252645,1020.08731365266,2.49376112621087,-1018.84043308956,507.549895700121,511.290537389437
0.383573518257666,1018.24366925997,1020.33388153889,2.09021227891265,-1019.28877539943,508.076728490531,511.2120469089
0.385740600281721,1018.17784049575,1020.513837579,2.33599708324891,-1019.34583903737,507.92092170625,511.424917331124
0.387907682305775,1017.31932714549,1020.37502116514,3.0556940196534,-1018.84717415531,507.131816562916,511.715357592396
0.39007476432983,1016.69274650977,1020.00355065592,3.31080414615167,-1018.34814858285,506.690971181809,511.657177401037
0.392241846353884,1015.15481567755,1019.7324352123,4.57761953475153,-1017.44362544492,505.288598071397,512.155027373524
0.394408928377939,1014.03236641307,1020.07487571364,6.0425093005698,-1017.05362106336,503.994928556252,513.058692507107
0.396576010401994,1015.10424727301,1020.8651162101,5.76086893708691,-1017.98468174156,504.671689167963,513.312992573593
0.398743092426048,1016.15670907212,1020.90155590382,4.74484683169783,-1018.52913248797,505.705931120213,512.82320136776
0.400910174450103,1018.00546662593,1020.92815118793,2.9226845619919,-1019.46680890693,507.541391031972,511.925417874959
0.403077256474158,1018.8144584186,1020.94756159082,2.1331031722284,-1019.88101000471,508.340677623184,511.540332381526
0.405244338498212,1019.94520847686,1020.42141572906,0.47620725220122,-1020.18331210296,509.734500612329,510.448811490631
0.407411420522267,1019.96001074719,1020.57772386395,0.61771311675227,-1020.26886730557,509.671148815221,510.597718490349
0.409578502546321,1019.97081409225,1020.42164817335,0.450834081107018,-1020.1962311328,509.75999000557,510.436241127231
0.411745584570376,1019.70854263465,1020.03758108823,0.32903845357248,-1019.87306186144,509.689752090541,510.1833097709
0.413912666594431,1019.7872816524,1020.02742832379,0.240146671395223,-1019.9073549881,509.773567490501,510.133787497594
0.416079748618485,1019.57459262351,1019.74986217987,0.175269556357421,-1019.66222740169,509.699661533576,509.962565868113
0.41824683064254,1019.41936285697,1019.8174384658,0.398075608827071,-1019.61840066139,509.510643624073,510.107757037314
0.420413912666594,1019.84638179988,1019.59660238644,-0.249779413435476,-1019.72149209316,510.048080606656,509.673411486503
0.422580994690649,1020.42819513464,1020.24589518134,-0.182299953298298,-1020.33704515799,510.305247543969,510.031797614022
0.424748076714704,1020.04235934725,1019.90930885876,-0.133050488490881,-1019.97583410301,510.087704917872,509.888129185135
0.426915158738758,1019.76075949459,1019.66365342206,-0.0971060725324833,-1019.71220645832,509.928932783561,509.783273674762
0.429082240762813,1020.09554801513,1020.0246757513,-0.0708722638273684,-1020.06011188322,510.083210139478,509.976901743737
0.431249322786868,1019.79957891344,1019.74785323193,-0.0517256815049905,-1019.77371607269,509.925652297472,509.848063775214
0.433416404810922,1019.58356770309,1019.54581603576,-0.0377516673330547,-1019.56469186942,509.810659685212,509.754032184213
0.435583486834977,1019.69606947493,1019.66851665503,-0.0275528198945949,-1019.68229306498,509.86181114741,509.820481917568
0.437750568859031,1020.04833440612,1020.02822515168,-0.020109254445515,-1020.0382797789,510.034221830284,510.004057948616
0.439917650883086,1020.84574520168,1020.56091237536,-0.284832826312595,-1020.70332878852,510.565289013995,510.138039774526
0.442084732907141,1020.61726188178,1021.21984704846,0.602585166675567,-1020.91855446512,510.007338357554,510.911216107567
0.444251814931195,1020.1803485382,1020.62014157891,0.439793040716495,-1020.40024505855,509.87027774874,510.529967309815
0.44641889695525,1020.67193868404,1020.722762691,0.0508240069574413,-1020.69735068752,510.310557338543,510.386793348979
0.448585978979304,1020.49041027455,1020.79766007219,0.307249797637382,-1020.64403517337,510.091580238458,510.552454934914
0.450753061003359,1020.08776668064,1020.31201103685,0.224244356209397,-1020.19988885875,509.931761162218,510.268127696532
0.452920143027414,1020.33421217854,1020.49787552895,0.163663350402203,-1020.41604385375,510.085274414071,510.330769439675
0.455087225051468,1019.97376647056,1020.09321515019,0.119448679635298,-1020.03349081037,509.92715889546,510.106331914913
0.457254307075523,1019.71069740962,1020.3381887102,0.62749130057523,-1020.02444305991,509.541603054524,510.482840005387
0.459421389099577,1020.32916672527,1021.05729356497,0.728126839701076,-1020.69323014512,509.800519942783,510.892710202335
0.461588471123632,1020.24024028969,1020.77165914062,0.53141885092532,-1020.50594971516,509.854410719385,510.651538995773
0.463755553147687,1020.44549409496,1020.83334684221,0.387852747242164,-1020.63942046858,510.028820673861,510.610599794724
0.465922635171741,1020.05498488599,1020.33805680427,0.283071918283213,-1020.19652084513,509.885956483851,510.310564361276
0.468089717195796,1019.76997416561,1020.5168848705,0.746910704895868,-1020.14342951805,509.511531730355,510.631897787699
0.47025679921985,1019.56196086179,1020.10708900004,0.545128138254881,-1019.83452493091,509.508416361766,510.326108569148
0.472423881243905,1019.95045606789,1020.88862687707,0.938170809182566,-1020.41954147248,509.506142629354,510.913398843127
0.47459096326796,1019.69368445704,1020.91871501807,1.22503056102857,-1020.30619973755,509.234326948005,511.071872789548
0.476758045292014,1019.50628129189,1020.94067466087,1.43439336897734,-1020.22347797638,509.035943961457,511.187534014923
0.478925127316069,1019.90981867968,1020.14623313414,0.236414454465717,-1020.02802590691,509.836702112605,510.191323794303
0.481092209340124,1019.93418172356,1020.37688355644,0.442701832887224,-1020.15553264,509.745739945334,510.409792694665
0.483259291364178,1019.68180672792,1020.54522233439,0.863415606469061,-1020.11351453115,509.409195560726,510.704318970429
0.485426373388233,1019.49761240508,1020.12777092203,0.630158516954452,-1019.81269166355,509.433726944061,510.378964719493
0.487593455412287,1019.63333553461,1020.63356523749,1.00022970287864,-1020.13345038605,509.316552915867,510.816897470185
0.489760537436342,1019.46223600574,1020.73255986483,1.27032385909069,-1020.09739793528,509.095956073324,511.00144186196
0.491927619460397,1020.14782871305,1020.26449805491,0.116669341853708,-1020.20616338398,510.015579685599,510.19058369838
0.494094701484451,1020.10789186793,1020.46319847422,0.35530660628865,-1020.28554517107,509.87629263082,510.409252540253
0.496261783508506,1020.88921284521,1020.06790631721,-0.821306528005834,-1020.47855958121,510.855259686609,509.6232998946
0.49842886553256,1020.10867404766,1019.77940479192,-0.329269255742702,-1019.94403941979,510.218971651701,509.725067768086
0.500595947556615,1020.34947129049,1019.29868753395,-1.05078375654045,-1019.82407941222,510.700127523513,509.123951888702
0.50276302958067,1020.52521566236,1019.21799524124,-1.30722042112052,-1019.8716054518,510.916218041741,508.95538741006
0.504930111604724,1020.92363781235,1019.15910247266,-1.76453533968436,-1020.0413701425,511.344086576015,508.697283566489
0.507097193628779,1021.21442374356,1020.19674479883,-1.01767894472994,-1020.7055842712,511.116051344147,509.589532927052
0.509264275652833,1021.15649583727,1020.14359296928,-1.01290286799178,-1020.65004440327,511.08469935263,509.565345050642
0.511431357676888,1020.84406130283,1020.91526907226,0.0712077694337268,-1020.87966518754,510.386426766696,510.493238420847
0.513598439700943,1020.88618911054,1020.93815965873,0.0519705481876827,-1020.91217438463,510.417109281176,510.495065103457
0.515765521724997,1021.18709204118,1020.95486621107,-0.232225830111247,-1021.07097912612,510.709658935644,510.361320190477
0.517932603749052,1021.13654796406,1020.42674696077,-0.70980100329291,-1020.78164746241,510.923174483677,509.858472978738
0.520099685773107,1020.82950247148,1020.04130240655,-0.788200064932312,-1020.43540243901,510.808851268206,509.626551170808
0.522266767797161,1020.33525101418,1019.75998809298,-0.575262921193257,-1020.04761955358,510.455256967684,509.592362585894
0.524433849821216,1020.24468087016,1019.82482880059,-0.419852069573494,-1020.03475483537,510.332266469867,509.702488365506
0.52660093184527,1020.44873502503,1019.87215238825,-0.576582636782632,-1020.16044370664,510.512658830907,509.647784875733
0.528768013869325,1020.05735025866,1019.63653500286,-0.420815255798516,-1019.84694263076,510.239082757231,509.607859873533
0.53093509589338,1020.58216915378,1020.27503975338,-0.30712940039416,-1020.42860445358,510.444649277085,509.983955176494
0.533102177917434,1020.15473632865,1020.47089226737,0.316155938714019,-1020.31281429801,509.919290194969,510.39352410304
0.535269259941489,1020.38308956014,1020.61383400809,0.230744447950315,-1020.49846178411,510.076172556093,510.422289228018
0.537436341965543,1020.81990795951,1020.98831536149,0.168407401981653,-1020.9041116605,510.325750278762,510.578361381734
0.539603423989598,1020.86856094295,1020.99147203916,0.122911096211169,-1020.93001649106,510.372824923371,510.557191567688
0.541770506013653,1019.82344517321,1020.72361970889,0.900174535676683,-1020.27353244105,509.461635318767,510.811897122282
0.543937588037707,1019.60098634453,1019.98781692576,0.386830581223307,-1019.79440163514,509.607077881654,510.187323753489
0.546104670061762,1019.43862615031,1019.99110825894,0.552482108635559,-1019.71486720462,509.443072020836,510.271795183789
0.548271752085816,1019.59028478298,1020.53382284177,0.94353805878302,-1020.06205381238,509.3233733621,510.738680450275
0.550438834109871,1019.16065947022,1020.92991970877,1.76926023855196,-1020.04528958949,508.695699615832,511.34958997366
0.552605916133926,1019.11725631634,1020.94885233477,1.83159601843295,-1020.03305432556,508.642830148954,511.390224176603
0.55477299815798,1019.35573500597,1020.96267019426,1.60693518828555,-1020.15920260011,508.874399908843,511.284802691271
0.556940080182035,1018.71931856059,1020.43244264942,1.71312408883841,-1019.575880605,508.503097235873,511.072783369131
0.559107162206089,1017.44436533564,1020.58577179328,3.14140645763325,-1019.01506856446,507.151479439004,511.863589125454
0.561274244230144,1016.51384864426,1020.96783432833,4.45398568406301,-1018.74084148629,506.0299314801,512.710910006194
0.563441326254199,1016.10487302918,1020.43621166059,4.33133863141256,-1018.27054234489,505.886767198885,512.383775146003
0.565608408278253,1015.26607229328,1020.58852258267,5.32245028938996,-1017.92729743797,504.971811001943,512.955486436028
0.567775490302308,1011.14184803237,1020.699685763,9.55783773063774,-1015.92076689768,500.792005150864,515.128761746821
0.569942572326363,1006.78102751533,1020.2405050959,13.4594775805642,-1013.51076630562,496.660774967385,516.849991338231
0.572109654350417,1001.43706005486,1020.44568736213,19.0086273072635,-1010.94137370849,491.2142163738,519.727157334695
0.574276736374472,994.835236481161,1020.59543836457,25.7602018834056,-1007.71533742286,484.537517298878,523.177820123986
0.576443818398526,990.287092767447,1020.97488941534,30.6877966478883,-1005.63099109139,479.79964805978,525.831343031612
0.578610900422581,989.939376661066,1021.52198561951,31.5826089584433,-1005.73068114029,479.178383851312,526.552297288976
0.580777982446636,993.467785186995,1021.11081175002,27.6430265630248,-1007.28929846851,482.912379311985,524.376919156522
0.58294506447069,999.825159197826,1020.54056284366,20.715403645834,-1010.18286102074,489.554877775996,520.627983244747
0.585112146494745,1005.00536155218,1020.12437022167,15.1190086694835,-1012.56486588693,494.94317644135,517.621689445575
0.587279228518799,1009.05625627363,1019.82061462184,10.7643583482097,-1014.43843544774,499.14594896271,515.292486485025
0.589446310542854,1010.12168313934,1020.13923290794,10.0175497686016,-1015.13045802364,500.052066685369,515.078391338271
0.591613392566909,1008.73802862401,1019.83146206109,11.0934334370836,-1014.28474534255,498.822297593462,515.462447749088
0.593780474590963,1005.02661485236,1020.1471498441,15.1205349917336,-1012.58688234823,494.953039930314,517.633842417915
0.595947556615018,1000.15661287098,1019.83724018777,19.6806273167869,-1009.99692652937,490.237992777096,519.758933752276
0.598114638639073,996.872428388565,1020.15136697396,23.2789385853904,-1008.51189768126,486.796744901587,521.715152779673
0.600281720663127,996.906892651853,1019.8403180338,22.9334253819449,-1008.37360534283,486.986733634954,521.386871707871
0.602448802687182,997.472358604069,1019.88345710889,22.4110985048221,-1008.67790785648,487.530630049623,521.147277806857
0.604615884711236,998.695529052307,1019.37462947113,20.6791004188235,-1009.03507926172,489.008214316742,520.026864944977
0.606782966735291,1000.12856482952,1019.54357720423,19.4150123747071,-1009.83607101687,490.356776227406,519.479294789467
0.608950048759346,999.283363606581,1019.93703886962,20.6536752630346,-1009.6102012381,489.314844171773,520.295357066325
0.6111171307834,998.39634253243,1019.9540482101,21.5577056776656,-1009.17519537126,488.419318427382,520.755876943881
0.613284212807455,999.640049194623,1020.23661858346,20.5965693888332,-1009.93833388904,489.521739902895,520.416593986145
0.615451294831509,1001.08807320002,1019.90253839142,18.8144651913976,-1010.49530579572,491.136804004312,519.358501791409
0.617618376855564,1002.68521694917,1020.46918067414,17.7839637249734,-1011.57719881165,492.450626612097,519.126572199557
0.619785458879619,1003.31056996948,1020.6125848124,17.3020148429182,-1011.96157739094,493.004277563283,518.95729982766
0.621952540903673,1003.22666756301,1020.44709122003,17.2204236570265,-1011.83687939152,493.00312195299,518.83375743853
0.624119622927728,1003.97590054845,1019.78599432593,15.8100937774791,-1011.88094743719,494.082903385483,517.798044051702
0.626286704951782,1003.98241116499,1020.11396550002,16.1315543350378,-1012.0481883325,493.925428414974,518.122759917531
0.628453786975837,1003.44685047428,1020.35333322412,16.9064827498436,-1011.9000918492,493.270183862219,518.629907986984
0.630620868999892,1001.97534998352,1019.9877218469,18.012371863377,-1010.98153591521,491.981489060071,519.000046855136
0.632787951023946,1002.25216555047,1020.53135128997,18.2791857395049,-1011.39175842022,491.98648990548,519.405268514737
0.634955033048001,1002.72435388433,1020.65795965017,17.93360576584,-1011.69115676725,492.395374059245,519.295782708005
0.637122115072056,1002.52866518289,1021.02052018726,18.4918550043741,-1011.77459268507,492.018405089256,519.756187595817
0.63928919709611,1001.57537436411,1020.47466410746,18.8992897433455,-1011.02501923579,491.338042310384,519.686976925402
0.641456279120165,1000.60946476988,1020.61658686215,20.0071220922665,-1010.61302581601,490.301171338808,520.311854477207
0.643623361144219,999.634345440766,1020.72016830305,21.0858228622858,-1010.17725687191,489.27426128924,520.902995582669
0.645790443168274,999.192816867599,1019.98529793865,20.792481071047,-1009.58905740312,489.200167898276,520.388889504846
0.647957525192329,998.330257557449,1020.25942600372,21.9291684462711,-1009.29484178058,488.200544555589,521.094297224995
0.650124607216383,997.970880214915,1020.45949666917,22.4886164542507,-1009.21518844204,487.741131880332,521.474056561708
0.652291689240438,999.599684376974,1020.33536078966,20.7356764126823,-1009.96752258331,489.432003982146,520.535518601169
0.654458771264492,1002.67955045983,1020.24476098911,17.5652105292808,-1011.46215572447,492.557169965275,518.904985759197
0.656625853288547,1005.46768401242,1020.17863728748,14.7109532750638,-1012.82316064995,495.378365368676,517.444795281272
0.658792935312602,1008.58321081373,1020.67068973834,12.0874789246101,-1014.62695027603,498.247865944559,516.379084331474
0.660960017336656,1011.66752733203,1020.21934252742,8.55181519538746,-1015.94343492972,501.557856068321,514.385578861402
0.663127099360711,1014.1887527954,1020.43024199298,6.24148919757522,-1017.30949739419,503.973631798914,513.335865595277
0.665294181384765,1016.02885353832,1020.58416565784,4.55531211952052,-1018.30650959808,505.736770709399,512.56973888868
0.66746126340882,1017.37183963507,1020.42634967661,3.05451004154634,-1018.89909465584,507.15866479676,511.740429859079
0.669628345432875,1017.5415410597,1020.04101245117,2.49947139147002,-1018.79127675544,507.521034834117,511.270241921322
0.671795427456929,1018.20570901406,1020.3000888946,2.09437988054049,-1019.25289895433,508.055664566758,511.197234387569
0.673962509480984,1017.8799792342,1020.21901801561,2.33903878140836,-1019.0494986249,507.770470226396,511.279028398508
0.676129591505038,1016.02131010653,1020.43000515005,4.40869504351861,-1018.22565762829,505.806307531507,512.419350096785
0.678296673529093,1013.31399093016,1020.5839927995,7.2700018693389,-1016.94899186483,503.021994530411,513.926997334419
0.680463755553148,1010.79775842306,1020.42622351703,9.62846509396479,-1015.61199097004,500.584646664548,515.027344305496
0.682630837577202,1010.31208281763,1020.31107658626,9.99899376862902,-1015.31157970194,500.156544524499,515.155035177443
0.684797919601257,1011.30839655331,1020.22703731411,8.91864076079787,-1015.76771693371,501.194877896258,514.572839037455
0.686965001625311,1014.1967996393,1020.97617040899,6.77937076968828,-1017.58648502415,503.708714434808,513.87777058934
0.689132083649366,1015.76457026548,1020.71245190916,4.94788164367594,-1018.23851108732,505.408344310903,512.830166776417
0.691299165673421,1016.90879791821,1020.24982238837,3.3410244701596,-1018.57931015329,506.783886724024,511.795423429263
0.693466247697475,1017.20359293901,1020.72264374203,3.51905080301742,-1018.96311834052,506.842271067997,512.120847272523
0.69563332972153,1017.95905967746,1020.52741704615,2.56835736869039,-1019.2432383618,507.695351154384,511.54788720742
0.697800411745585,1018.24027617178,1020.38493205489,2.14465588310395,-1019.31260411333,508.047810144339,511.264793968995
0.699967493769639,1018.17536407141,1020.82125269285,2.64588862144296,-1019.49830838213,507.764737724983,511.733570657148
0.702134575793694,1018.66830080192,1021.40985481198,2.74155401005464,-1020.03907780695,507.963373395934,512.075704411016
0.704301657817748,1019.02806761263,1021.29912998856,2.27106237592841,-1020.16359880059,508.37850261835,511.785096182242
0.706468739841803,1019.02048497272,1020.94816195212,1.92767697939496,-1019.98432346242,508.546403996664,511.437919465757
0.708635821865858,1019.28510704196,1020.96216632277,1.67705928080113,-1020.12363668236,508.804023880581,511.319612801783
0.710802903889912,1019.4782398154,1020.43207490194,0.953835086544132,-1019.95515735867,509.262202364428,510.692954994245
0.712969985913967,1019.61919657038,1020.85565960693,1.23646303655642,-1020.23742808866,509.191366766911,511.046061321745
0.715137067938021,1019.18176055865,1020.08418542513,0.902424866481056,-1019.63297299189,509.139667846084,510.493305145805
0.717304149962076,1019.13265681466,1019.79128599771,0.658629183053677,-1019.46197140618,509.237013815801,510.224957590382
0.719471231986131,1019.366974964,1020.11782759381,0.750852629803376,-1019.7424012789,509.308061167099,510.434340111804
0.721638314010185,1019.53799060975,1020.08599573741,0.548005127661781,-1019.81199317358,509.494992741043,510.317000432535
0.72380539603424,1019.93296152834,1020.6030758785,0.670114350158087,-1020.26801870342,509.63142358909,510.636595114327
0.725972478058295,1019.95107238789,1020.71030739556,0.759235007670213,-1020.33068989173,509.595918690111,510.734771201616
0.728139560082349,1019.42397806249,1020.78856965218,1.36459158969262,-1020.10627385734,509.0296932364,511.076580620939
0.730306642106404,1015.25709457714,1020.30537645028,5.04828187314399,-1017.78123551371,505.104406351997,512.676829161713
0.732473724130458,1009.78451464265,1020.49303331715,10.7085186744978,-1015.1387739799,499.537997984077,515.600775995824
0.734640806154513,1003.89929268933,1020.35983730386,16.4605446145313,-1012.1295649966,493.7193740374,518.410190959197
0.736807888178568,1001.76524969992,1019.99246880909,18.2272191091731,-1010.8788592545,491.769015295372,519.109843959131
0.738974970202622,1003.17945001108,1020.26465961897,17.0852096078875,-1011.72205481502,493.047120201597,518.674934613428
0.741142052226677,1007.45346986581,1020.19316017887,12.7396903130592,-1013.82331502234,497.356889776377,516.466425245966
0.743309134250731,1011.38330534274,1020.41113296854,9.02782762579363,-1015.89721915564,501.177738858474,514.719480297165
0.745476216274786,1013.7111589302,1020.02990663131,6.31874770110744,-1016.87053278075,503.696205614547,513.174327166208
0.747643298298841,1015.41012841068,1019.75167095721,4.34154254653197,-1017.58089968395,505.534292932074,512.046606751872
0.749810380322895,1016.10979830849,1020.08891480258,3.97911649409627,-1018.09935655553,506.065340907195,512.034015648339
0.75197746234695,1017.9712290965,1019.79473770447,1.82350860796873,-1018.88298340048,508.073860244264,510.809123156217
0.754144544371004,1014.46697098047,1020.12034680054,5.65337582007089,-1017.2936588905,504.406797580198,512.886861310305
0.756311626395059,1011.90940996249,1020.35799057667,8.44858061418006,-1016.13370026958,501.730414674153,514.403285595423
0.758478708419114,1012.4741958476,1019.99112098672,7.51692513911917,-1016.23265841716,502.478635354239,513.754023062918
0.760645790443168,1012.6162451056,1020.80398834293,8.1877432373285,-1016.71011672426,502.214250934134,514.495865790127
0.762812872467223,1012.44976266228,1020.31662968594,7.86686702365569,-1016.38319617411,502.291447819314,514.091748354798
0.764979954491278,1010.70731921397,1019.96093399755,9.25361478357831,-1015.33412660576,500.726852215196,514.607274390563
0.767147036515332,1010.78638874641,1019.70133170891,8.9149429625005,-1015.24386022766,500.935722891956,514.308137335706
0.769314118539387,1012.46503442472,1019.78201880304,7.3169843783146,-1016.12352661388,502.574025023205,513.549501590677
0.771481200563441,1013.96033975738,1020.11106398934,6.15072423196011,-1017.03570187336,503.90480776271,513.13089411065
0.773648282587496,1015.86214770139,1020.35121557458,4.48906787318663,-1018.10668163798,505.686539914102,512.420141723882
0.775815364611551,1016.43970177992,1020.2563325054,3.81663072547508,-1018.34801714266,506.311535527224,512.036481615437
0.777982446635605,1017.13138224832,1019.64677026302,2.51538801469621,-1018.38907625567,507.307997116812,511.081079138857
0.78014952865966,1017.63620094155,1019.47204125881,1.83584031725854,-1018.55412110018,507.900180312146,510.653940788034
0.782316610683714,1018.54495215268,1019.88482880423,1.33987665154677,-1019.21489047845,508.602537750566,510.612352727886
0.784483692707769,1018.9380423672,1019.64578680632,0.70774443911796,-1019.29191458676,509.115148964043,510.17676562272
0.786650774731824,1018.95478060658,1019.47132348905,0.516542882472663,-1019.21305204781,509.219118862052,509.993933185761
0.788817856755878,1018.96699690661,1019.61414873255,0.647151825946253,-1019.29057281958,509.15992254033,510.13065027925
0.790984938779933,1019.78638153291,1019.71838884931,-0.0679926836005507,-1019.75238519111,509.927187108257,509.825198082856
0.793152020803988,1020.11424810064,1020.06462406287,-0.0496240377640333,-1020.08943608176,510.081936069201,510.007500012555
0.795319102828042,1019.81322705468,1019.77700925898,-0.0362177957039194,-1019.79511815683,509.924722425194,509.870395731638
0.797486184852097,1019.86368492607,1019.56709538099,-0.296589545085908,-1019.71539015353,510.080137235579,509.63525291795
0.799653266876151,1019.90051129006,1020.2243596767,0.323848386638588,-1020.06243548338,509.788331451713,510.274104031671
0.801820348900206,1019.92738878306,1020.43390372822,0.506514945155232,-1020.18064625564,509.710436918955,510.470209336688
0.803987430924261,1019.6768489425,1020.58683815256,0.909989210058939,-1020.13184354753,509.38342986622,510.748413681309
0.806154512948315,1020.03430641993,1020.15814396841,0.123837548482129,-1020.09622519417,509.955234435723,510.140990758446
0.80832159497237,1020.29519453935,1020.11542039297,-0.179774146374939,-1020.20530746616,510.237484342862,509.9678231233
0.810488676996424,1020.21544590083,1020.08423885684,-0.131207043997847,-1020.14984237883,510.173326472416,509.976515906419
0.812655759020479,1020.1572418524,1020.06148120638,-0.095760646020608,-1020.10936152939,510.126501249211,509.98286028018
0.814822841044534,1020.38491820108,1019.23440304095,-1.15051516013182,-1019.80966062101,510.767716680606,509.041943940408
0.816989923068588,1020.55108636987,1019.7113900271,-0.839696342769685,-1020.13123819848,510.695391356319,509.435846842164
0.819157005092643,1020.40220696377,1020.32967222783,-0.0725347359413036,-1020.3659395958,510.237370849856,510.128568745944
0.821324087116697,1021.10401688966,1020.51076543947,-0.59325145019352,-1020.80739116457,510.848634169929,509.958756994639
0.823491169140752,1020.80575986891,1020.91309140693,0.107331538021413,-1020.85942563792,510.349214165444,510.510211472477
0.825658251164807,1020.85823504692,1020.66641409134,-0.191820955576532,-1020.76232456913,510.525028001248,510.237296567883
0.827825333188861,1020.89653372962,1021.02669060863,0.130156879011224,-1020.96161216913,510.383188425304,510.578423743821
0.829992415212916,1020.65432957341,1021.55979239865,0.905462825243376,-1021.10706098603,509.874433374084,511.232627611949
0.83215949723697,1020.74771458641,1021.4085610048,0.660846418384949,-1021.07813779561,510.043434084015,511.034703711592
0.834326579261025,1020.27555863432,1021.02802949955,0.752470865236774,-1020.65179406693,509.761543884539,510.890250182395
0.83649366128508,1016.68908400319,1021.02045715613,4.33137315294357,-1018.85477057966,506.178855425123,512.675915154538
0.838660743309134,1012.45058050115,1021.55524295207,9.10466245091789,-1017.00291172661,501.672959025117,515.329952701494
0.840827825333189,1009.89744747297,1021.94555304321,12.0481055702408,-1015.92150025809,498.924670951366,516.996829306727
0.842994907357243,1008.30421540396,1022.23041843868,13.9262030347161,-1015.26731692132,497.189006184623,518.078310736697
0.845161989381298,1008.49218593471,1021.6278570424,13.1356711076899,-1015.06002148855,497.678257413508,517.381764075043
0.847329071405353,1008.62937505892,1021.99854998597,13.3691749270475,-1015.31396252245,497.630100065937,517.683862456508
0.849496153429407,1008.45934547716,1021.18847308065,12.729127603495,-1014.8239092789,497.865108936831,516.958800342073
0.851663235453462,1010.49650013808,1021.13755590714,10.6410557690623,-1015.81702802261,499.927722184509,515.889305838103
0.853830317477517,1012.79377344843,1020.83023811248,8.03646466404916,-1016.81200578045,502.378654392189,514.433351388263
0.855997399501571,1013.659955468,1020.87610034093,7.21614487292754,-1017.26802790447,503.221905297538,514.046122606929
0.858164481525626,1010.78010228005,1020.36926017973,9.58915789968682,-1015.57468122989,500.59547219018,514.97920903971
0.86033156354968,1005.43638477764,1019.99934603651,14.5629612588745,-1012.71786540707,495.436711759381,517.281153647692
0.862498645573735,1001.80646196486,1020.80999134442,19.0035293795643,-1011.30822665464,491.401466292648,519.906760361994
0.86466572759779,1000.23781019606,1021.40163578678,21.1638255907241,-1010.81972299142,489.536992302666,521.282730688752
0.866832809621844,1000.44372050622,1021.83344380782,21.389723301598,-1011.13858215702,489.52699860231,521.611583554707
0.868999891645899,999.243221807641,1021.87843999776,22.6352181901184,-1010.5608309027,488.304001808761,522.256829093939
0.871166973669953,996.475951806728,1021.64112397561,25.1651721688804,-1009.05853789117,485.655389818924,523.403148072244
0.873334055694008,993.645808350872,1021.46792035102,27.8221120001455,-1007.55686435095,482.911848175363,524.645016175582
0.875501137718063,991.580245730104,1021.07135254966,29.4911068195535,-1006.32579913988,481.044569455275,525.281229684605
0.877668219742117,993.854894648549,1020.78192000326,26.9270253547138,-1007.31840732591,483.463934646918,523.854472678988
0.879835301766172,1001.45846969303,1020.30052324532,18.8420535522978,-1010.87949646917,491.308208070364,519.571288398811
0.882002383790226,1006.19742307119,1020.21933502379,14.0219119525981,-1013.20837904749,496.087755559296,517.120623488193
0.884169465814281,1009.92627496834,1020.4302365165,10.5039615481581,-1015.17825574242,499.711156710093,515.46709903233
0.886336547838336,1012.64775436233,1021.12447408461,8.47671972227727,-1016.88611422347,502.085517320028,514.800596903444
0.88850362986239,1014.90416540443,1020.82069042556,5.91652502113766,-1017.862427915,504.493820191644,513.368607723351
0.890670711886445,1016.01068056322,1020.86913202095,4.85845145772657,-1018.43990629208,505.576114552746,512.863791739336
0.8928377939105,1014.65701408336,1020.36417439468,5.70716031131803,-1017.51059423902,504.474926886022,513.035667352999
0.895004875934554,1012.58842416435,1020.8061028435,8.21767867914286,-1016.69726350392,502.185372742605,514.511890761319
0.897171957958609,1010.26820802616,1020.85848536479,10.5902773386252,-1015.56334669548,499.838965343769,515.724381351707
0.899339039982663,1008.03450026685,1020.62656021069,12.5920599438417,-1014.33053023877,497.721220161504,516.609310077266
0.901506122006718,1004.78330526299,1020.45729107766,15.6739858146722,-1012.62029817032,494.554659724158,518.065638446167
0.903673204030773,999.438722454839,1020.60390726427,21.1651848094295,-1010.02131485955,489.136768822705,520.884546036849
0.905840286054827,995.267855680302,1019.90044554169,24.6325898613867,-1007.584150611,485.317632909458,522.266517701538
0.908007368078882,991.413305838181,1019.65718458515,28.243878746969,-1005.53524521167,481.584713545606,523.950531666059
0.910174450102936,988.600086579877,1020.56026693461,31.9601803547349,-1004.58017675724,478.319953112571,526.260223644673
0.912341532126991,990.058906733892,1021.21937597754,31.1604692436429,-1005.63914135571,479.449218745125,526.189922610589
0.914508614151046,995.175960739371,1021.16011019447,25.9841494550972,-1008.16803546692,484.595905642137,523.572129824783
0.9166756961751,1000.26139187815,1020.84669921898,20.5853073408314,-1010.55404554856,489.838042268657,520.716003279904
0.918842778199155,1005.59389947596,1020.61795816538,15.0240586894189,-1013.10592882067,495.284920393273,517.821008427401
0.92100986022321,1009.21564080951,1021.26148156394,12.0458407544348,-1015.23856118673,498.584900027537,516.653661159189
0.923176942247264,1012.12910243587,1020.92068448328,8.7915820474077,-1016.52489345958,501.668760194234,514.856133265345
0.925344024271319,1014.25547430583,1020.40179963908,6.14632533324959,-1017.32863697245,504.05457448629,513.274062486164
0.927511106295373,1016.34770603011,1020.56340718253,4.2157011524165,-1018.45555660632,506.066002438846,512.389554167471
0.929678188319428,1017.60455214553,1020.41119923235,2.80664708682502,-1019.00787568894,507.398952529351,511.608923159589
0.931845270343483,1018.5218534755,1020.57026741729,2.04841394178777,-1019.54606044639,508.236719766856,511.309340679538
0.934012352367537,1019.19134015302,1020.41620613208,1.22486597905777,-1019.80377314255,508.983237086982,510.820536055569
0.936179434391592,1019.67996084585,1020.30376546008,0.62380461423345,-1019.99186315296,509.528078115806,510.463785037156
0.938346516415646,1020.03657762325,1020.49185754596,0.455279922704108,-1020.26421758461,509.790648850275,510.473568734331
0.940513598439701,1020.29685216299,1020.35897917456,0.062127011573466,-1020.32791566877,510.117362575707,510.210553093068
0.942680680463756,1019.94649949528,1020.26199872062,0.315499225343501,-1020.10424910795,509.815500134967,510.288748972982
0.94484776248781,1020.23110920084,1020.19121813874,-0.0398910620954211,-1020.21116366979,510.135500131467,510.075663538324
0.947014844511865,1020.16867361461,1020.40971558261,0.241041967999422,-1020.28919459861,509.963815823306,510.325378775305
0.949181926535919,1020.12310538985,1021.10949700848,0.986391618637526,-1020.61630119916,509.568356885604,511.04794431356
0.951349008559974,1020.36000391594,1020.80975949959,0.449755583652859,-1020.58488170776,509.955124166141,510.629757541621
0.953516090584029,1019.99259040988,1020.59099794065,0.59840753077674,-1020.29179417526,509.697091439549,510.594702735715
0.955683172608083,1020.26474836855,1020.43133617578,0.166587807235032,-1020.34804227216,510.049080280656,510.298961991508
0.957850254632138,1021.00369358782,1020.31480802849,-0.688885559326536,-1020.65925080815,510.846289573571,509.812961234581
0.960017336656192,1019.65191468277,1020.49991689592,0.848002213152427,-1020.07591578934,509.401956234806,510.673959554535
0.962184418680247,1015.96376512727,1021.17532987668,5.21156474940631,-1018.56954750198,505.376100188934,513.193447313044
0.964351500704302,1012.73167966077,1021.12796342137,8.3962837606008,-1016.92982154107,502.167697950084,514.762123590985
0.966518582728356,1010.91307458408,1021.09339330819,10.1803187241122,-1016.00323394614,500.366377929985,515.636856016153
0.968685664752411,1011.20671423703,1021.06816252584,9.86144828880492,-1016.13743838144,500.672632974114,515.464805407321
0.970852746776465,1011.96133773743,1021.04974799607,9.08841025863478,-1016.50554286675,501.436463739398,515.06907912735
0.97301982880052,1014.1330322828,1021.30646447777,7.17343219496991,-1017.71974838029,503.479800043916,514.239948336371
0.975186910824575,1015.71803005645,1021.22367119538,5.5056411389304,-1018.47085062592,505.106194458762,513.364656167157
0.977353992848629,1016.87483083575,1020.62293260879,3.74810177304062,-1018.74888172227,506.563364531355,512.185517190916
0.979521074872684,1017.44895848675,1020.18448728308,2.73552879632655,-1018.81672288491,507.356714845212,511.460008039702
0.981688156896739,1018.94860683391,1020.40480310941,1.45619627550184,-1019.67670497166,508.746205279205,510.930499692458
0.983855238920793,1020.04311586447,1019.75513061108,-0.287985253387546,-1019.89912323777,510.165550558926,509.733572678845
0.986022320944848,1019.76131163398,1019.55112738572,-0.210184248257519,-1019.65621950985,509.985747941118,509.670471568732
0.988189402968902,1018.4750137194,1019.67239311081,1.19737939140509,-1019.0737034151,508.638817163999,510.434886251106
0.990356484992957,1015.64512369366,1020.03105435885,4.38593066518126,-1017.83808902626,505.629596514242,512.208492512014
0.992523567017012,1012.76927740168,1019.75250861903,6.98323121734722,-1016.26089301035,502.893023092166,513.367869918187
0.994690649041066,1011.48082748548,1019.54921374111,8.06838625563296,-1015.51502061329,501.706220614922,513.808799998371
0.996857731065121,1010.81061652969,1019.13068402543,8.32006749573873,-1014.97065027756,501.245274516977,513.725375760585
0.999024813089175,1011.40209207437,1019.09537892417,7.69328684980348,-1015.24873549927,501.854402612281,513.394332886986
1.00119189511323,1013.4547140977,1019.88008035094,6.42536625323351,-1016.66739722432,503.514673922236,513.152723302086
1.00335897713728,1014.41249510707,1019.64232117719,5.22982607011534,-1017.02740814213,504.591334518478,512.436073623651
1.00552605916134,1014.30105699153,1020.27926275677,5.9782057652385,-1017.29015987415,504.161425613145,513.128734261003
1.00769314118539,1012.86894351578,1020.20381818828,7.33487467250052,-1016.53638085203,502.767034421641,513.769346430391
1.00986022320945,1010.74309954413,1020.68906786237,9.94596831824242,-1015.71608370325,500.398565612942,515.317518090306
1.0120273052335,1008.65125310314,1020.77306811082,12.1218150076802,-1014.71216060698,498.26471904773,516.44744155925
1.01419438725756,1007.93500060808,1020.83437517035,12.8993745622711,-1014.38468788922,497.517813022906,516.866874866313
1.01636146928161,1007.95256059758,1020.87911974692,12.9265591493458,-1014.41584017225,497.513000724116,516.902839448135
1.01852855130567,1009.58631391806,1020.64162008631,11.0553061682537,-1015.11396700219,499.265503874903,515.848463127283
1.02069563332972,1011.58916726596,1020.19812622246,8.60895895650026,-1015.89364674421,501.490104154731,514.403542589481
1.02286271535378,1012.51062491672,1020.14460119273,7.63397627601194,-1016.32761305472,502.438324320353,513.889288734371
1.02502979737783,1011.02189536417,1020.37569249414,9.35379712996951,-1015.69879392916,500.834049117101,514.864744812055
1.02719687940189,1010.20551155991,1020.2741968331,10.0686852731808,-1015.2398541965,500.068413143367,515.171441053138
1.02936396142594,1009.06936648791,1020.7404332791,11.6710667911968,-1014.9048998835,498.699149848354,516.20575003515
1.03153104344999,1009.59093912405,1020.81055684115,11.2196177171026,-1015.2007479826,499.185660703471,516.015087279125
1.03369812547405,1009.70144946072,1020.59157987544,10.8901304147187,-1015.14651466808,499.405659523,515.740855145078
1.0358652074981,1008.16116747223,1020.1616046854,12.0004372131648,-1014.16138607882,498.080365129534,516.081020949281
1.03803228952216,1006.22653359536,1020.11794617577,13.8914125804139,-1013.17223988556,496.167560507471,517.004679378092
1.04019937154621,1006.16533413737,1020.08608228372,13.9207481463462,-1013.12570821055,496.122292995513,517.003415215033
1.04236645357027,1009.63269884746,1020.33298283191,10.7002839844534,-1014.98284083969,499.466207431503,515.516633408183
1.04453353559432,1012.16333344229,1021.05349408704,8.89016064474936,-1016.60841376466,501.63658639877,514.971827365894
1.04670061761838,1014.55061380509,1020.76888611526,6.21827231016186,-1017.65974996017,504.166170747466,513.493579212709
1.04886769964243,1016.02279933654,1020.561166755,4.53836741846226,-1018.29198304577,505.742215959036,512.54976708673
1.05103478166649,1017.09726480163,1020.94987649398,3.85261169235207,-1019.02357064781,506.622326554639,512.401244093167
1.05320186369054,1017.88145674689,1021.23357388237,3.3521171354771,-1019.55751531463,507.264669805706,512.292845508921
1.0553689457146,1018.72395057871,1021.17047244711,2.44652186840665,-1019.94721151291,508.13871435515,511.80849715776
1.05753602773865,1019.06868325652,1021.12441825657,2.05573500004846,-1020.09655075655,508.506474128238,511.590076628311
1.0597031097627,1019.59044047187,1020.82064967982,1.2302092079517,-1020.20554507584,509.180115631957,511.025429443885
1.06187019178676,1019.97124173439,1020.32878985917,0.357548124778532,-1020.15001579678,509.806846804808,510.343168991976
1.06403727381081,1020.24916717036,1020.23996523632,-0.00920193404499514,-1020.24456620334,510.129184552203,510.115381651136
1.06620435583487,1019.64154068775,1020.17513713709,0.533596449341758,-1019.90833891242,509.553972119205,510.354366793217
1.06837143785892,1018.11744342643,1019.85766653971,1.74022311327758,-1018.98755498307,508.188610156575,510.798944826492
1.07053851988298,1015.65430944839,1020.16627502003,4.5119655716428,-1017.91029223421,505.571171938374,512.339120295838
1.07270560190703,1015.47754368642,1020.12135479049,4.64381110407078,-1017.79944923846,505.416866291175,512.382582947281
1.07487268393109,1016.69931335245,1020.35872625187,3.65941289941918,-1018.52901980216,506.519950226517,512.009069575646
1.07703976595514,1017.59101435373,1021.07228276218,3.48126840845271,-1019.33164855796,507.054872972638,512.276775585317
1.0792068479792,1018.78212921412,1020.7825989131,2.00046969897346,-1019.78236406361,508.390829757574,511.391534306035
1.08137393000325,1019.9216132078,1020.84133116719,0.919717959391505,-1020.38147218749,509.500947624204,510.880524563291
1.08354101202731,1019.67263367477,1020.61404032613,0.94140665136365,-1020.14333700045,509.365613511703,510.777723488748
1.08570809405136,1020.30138614483,1020.71830972956,0.416923584728806,-1020.5098479372,509.942231280051,510.567616657144
1.08787517607541,1019.67965238189,1020.79441010594,1.11475772405345,-1020.23703124392,509.282447328918,510.954583914998
1.09004225809947,1020.03635249275,1020.57979528105,0.543442788296829,-1020.3080738869,509.746454852228,510.561619034673
1.09220934012352,1020.29668785289,1020.963472408,0.666784555113168,-1020.63008013045,509.814951648888,510.815128481558
1.09437642214758,1020.48669199832,1020.70318435201,0.216492353697731,-1020.59493817517,510.135099822309,510.459838352856
1.09654350417163,1020.62536534357,1021.32368336684,0.698318023266893,-1020.97452435521,509.963523660154,511.011000695054
1.09871058619569,1020.72657522319,1020.69592587087,-0.0306493523238487,-1020.71125054703,510.378612287757,510.332638259271
1.10087766821974,1020.53028641325,1020.77807338572,0.247786972467907,-1020.65417989949,510.141249720393,510.512930179095
1.1030447502438,1020.38702624464,1020.83802823915,0.451001994506441,-1020.6125272419,509.968012125068,510.644515116827
1.10521183226785,1020.01231248862,1020.88178591649,0.86947342786732,-1020.44704920256,509.571419530378,510.875629672179
1.10737891429191,1020.00898619334,1020.91372218548,0.904735992143287,-1020.46135418941,509.552125100597,510.909229088812
1.10954599631596,1019.73640230551,1021.20718688489,1.47078457937687,-1020.4717945952,509.132808863069,511.338985732134
1.11171307834002,1020.07777107199,1021.15121406092,1.07344298893315,-1020.61449256645,509.502164041527,511.112328524927
1.11388016036407,1020.05676073379,1021.38051885491,1.32375812112605,-1020.71863979435,509.36650130633,511.352138488019
1.11604724238812,1019.77127025709,1021.27771932252,1.50644906543164,-1020.52449478981,509.13241059583,511.392084193977
1.11821432441218,1020.10321922985,1020.93253551051,0.829316280665353,-1020.51787737018,509.636951474592,510.88092589559
1.12038140643623,1020.07533391372,1020.41044903769,0.335115123965693,-1020.2428914757,509.870109394878,510.372782080826
1.12254848846029,1020.05498198896,1020.56971989237,0.51473790340583,-1020.31235094067,509.770122042779,510.542228897888
1.12471557048434,1020.85059689872,1020.95611894816,0.105522049443266,-1020.90335792344,510.372537424638,510.530820498803
1.1268826525084,1020.8909590746,1020.9679736869,0.0770146122966935,-1020.92946638075,510.406972231153,510.522494149598
1.12904973453245,1020.92041715795,1021.2467820062,0.326364848251501,-1021.08359958207,510.297026154848,510.786573427225
1.13121681655651,1020.94191695709,1020.90995610237,-0.0319608547118833,-1020.92593652973,510.486938905899,510.438997623831
1.13338389858056,1020.68745224006,1020.12381338504,-0.563638855018098,-1020.40563281255,510.62554554754,509.780087265013
1.13555098060462,1020.77188895892,1019.82020821809,-0.951680740825964,-1020.2960485885,510.861784849871,509.434263738632
1.13771806262867,1021.3738269974,1020.13893629669,-1.23489070071651,-1020.75638164705,511.304358849061,509.452022797986
1.13988514465273,1021.00267910002,1019.83124558121,-1.17143351880702,-1020.41696234062,511.087056309413,509.329906031202
1.14205222667678,1020.73179911263,1020.1469918476,-0.58480726503501,-1020.43939548012,510.658303188835,509.781092291282
1.14421930870083,1021.07441146026,1020.37743729875,-0.696974161509843,-1020.7259243795,510.885692810884,509.840231568619
1.14638639072489,1021.59462116578,1021.08593890351,-0.508682262263846,-1021.34028003465,511.051651714021,510.288628320625
1.14855347274894,1021.16382435226,1021.33287818676,0.169053834498868,-1021.24835126951,510.497385258881,510.750966010629
1.150720554773,1021.11956618584,1021.51310528868,0.393539102839895,-1021.31633573726,510.363013541501,510.953322195761
1.15288763679705,1020.54695221426,1020.83417428386,0.287222069593213,-1020.69056324906,510.129865072335,510.560698176725
1.15505471882111,1020.39918967598,1020.60881691929,0.209627243305931,-1020.50400329764,510.094781216339,510.409222081298
1.15722180084516,1020.56150231717,1020.71449745852,0.152995141349265,-1020.63799988785,510.204253587912,510.433746299936
1.15938888286922,1020.67996519008,1020.79162774361,0.111662553527594,-1020.73579646684,510.284151318276,510.451645148568
1.16155596489327,1020.766424582,1020.84792080305,0.0814962210586145,-1020.80717269252,510.342464180468,510.464708512056
1.16372304691733,1021.36983885585,1020.61884973093,-0.750989124919329,-1020.99434429339,511.060413990386,509.933930303007
1.16589012894138,1021.26992459155,1020.72181984378,-0.548104747774232,-1020.99587221767,510.909014669663,510.086857548002
1.16805721096544,1020.65669036266,1020.25665951726,-0.400030845406718,-1020.45667493996,510.528360604036,509.928314335926
1.17022429298949,1019.93896895817,1019.64700893059,-0.291960027579876,-1019.79298894438,510.115464492876,509.677524451506
1.17239137501354,1019.41514444949,1020.55284029634,1.13769584684724,-1019.98399237292,509.138724301324,510.845268071595
1.1745584570376,1019.57314680951,1020.40348705611,0.830340246600827,-1019.98831693281,509.371403281455,510.616913651357
1.17672553906165,1019.95862006235,1021.10495115711,1.1463310947579,-1020.53178560973,509.406144483796,511.125641125933
1.17889262108571,1020.23995532143,1020.53628552633,0.296330204904052,-1020.38812042388,509.971812558261,510.416307865617
1.18105970310976,1020.17512990077,1020.12124844818,-0.053881452587575,-1020.14818917448,510.114505676679,510.033683497798
1.18322678513382,1019.85766125832,1020.3586486386,0.500987380276911,-1020.10815494846,509.678336939022,510.429818009438
1.18539386715787,1019.35580252983,1020.261757481,0.905954951169065,-1019.80878000542,509.224923789332,510.583856216085
1.18756094918193,1019.79999268994,1020.73135449525,0.931361805306437,-1020.2656735926,509.434315442318,510.831358150277
1.18972803120598,1019.85402590717,1020.80393074715,0.949904839974579,-1020.32897832716,509.4520605336,510.876917793562
1.19189511323004,1020.70393035074,1020.58674386189,-0.117186488846414,-1020.64533710631,510.410558419792,510.234778686523
1.19406219525409,1021.0540716175,1020.42823136282,-0.625840254680384,-1020.74115149016,510.839955936092,509.901195554072
1.19622927727815,1021.03946383415,1020.58269821191,-0.456765622239118,-1020.81108102303,510.748114728194,510.062966294836
1.1983963593022,1021.02880243421,1020.15512245844,-0.873679975765072,-1020.59196244633,510.951241204987,509.64072124134
1.20056344132625,1021.02102127769,1020.38337137457,-0.63764990312427,-1020.70219632613,510.829335590408,509.872860735721
1.20273052335031,1020.4750298252,1019.73948879253,-0.73554103266747,-1020.10725930886,510.605285428933,509.501973879932
1.20489760537436,1020.3466975671,1020.08002372536,-0.266673841734246,-1020.21336064623,510.306685704415,509.906674941814
1.20706468739842,1020.2530350657,1020.5987172426,0.345682176897185,-1020.42587615415,509.953676444404,510.472199709749
1.20923176942247,1019.91451985901,1020.43697006036,0.522450201346714,-1020.17574495968,509.696034828832,510.479710130852
1.21139885144653,1019.66745663822,1020.31891988415,0.651463245930927,-1019.99318826119,509.507996696144,510.485191565041
1.21356593347058,1020.02745150499,1020.23276169636,0.205310191365015,-1020.13010660068,509.911070656814,510.219035943861
1.21573301549464,1020.02003531039,1020.98034831382,0.960313003422129,-1020.5001918121,509.529861153486,510.970330658619
1.21790009751869,1020.28477885871,1020.71550112704,0.430722268334875,-1020.50013999287,509.927028295185,510.573111697688
1.22006717954275,1020.20784408102,1020.79236026484,0.584516183824348,-1020.50010217293,509.811663948596,510.688438224333
1.2222342615668,1019.88153749956,1020.84845542913,0.966917929568012,-1020.36499646434,509.457309784995,510.907686679347
1.22440134359085,1019.91354087993,1021.15955234819,1.24601146826842,-1020.53654661406,509.333764705829,511.202781908231
1.22656842561491,1019.66674213642,1020.57613586647,0.909393730052329,-1020.12143900144,509.378674203182,510.74276479826
1.22873550763896,1020.02693003029,1020.960801607,0.933871576713159,-1020.49386581865,509.546529226788,510.947336591858
1.23090258966302,1020.55996713906,1020.70123508449,0.1412679454304,-1020.63060111178,510.209349596817,510.421251514962
1.23306967168707,1020.13853232613,1020.78194828231,0.643415956177364,-1020.46024030422,509.747558184976,510.712682119243
1.23523675371113,1020.37126316955,1020.30054388461,-0.0707192849445164,-1020.33590352708,510.220991227249,510.114912299832
1.23740383573518,1020.00080790619,1021.02981872286,1.02901081666892,-1020.51531331452,509.485898544759,511.029414769763
1.23957091775924,1020.81105828093,1021.02176300965,0.210704728719406,-1020.91641064529,510.300176776104,510.616233869183
1.24173799978329,1020.59194584814,1020.47557117366,-0.116374674486565,-1020.5337585109,510.354160261316,510.179598249586
1.24390508180735,1018.54093451708,1020.61724887878,2.07631436170357,-1019.57909169793,508.232310077686,511.346781620241
1.2460721638314,1013.53198588338,1020.18033904803,6.64835316465235,-1016.85616246571,503.441816359365,513.414346106343
1.24823924585546,1007.44482993118,1020.13161933396,12.6867894027827,-1013.78822463257,497.3790202642,516.409204368374
1.25040632787951,1005.70371909082,1019.82590534142,14.1221862506032,-1012.76481221612,495.790766420107,516.974045796012
1.25257340990356,1006.05391743076,1019.87293809489,13.8190206641259,-1012.96342776283,496.117448383319,516.845979379508
1.25474049192762,1006.30950751379,1020.17742086972,13.8679133559327,-1013.24346419175,496.220797078927,517.022667112826
1.25690757395167,1004.06464244134,1020.12948951965,16.0648470783059,-1012.0970659805,493.999897681518,518.097168298977
1.25907465597573,1000.8053043418,1019.5541946978,18.7488903559963,-1010.1797495198,491.028206992904,519.151542526898
1.26124173799978,999.23696531206,1020.21494419322,20.9779788811579,-1009.72595475264,489.129493215451,520.596461537188
1.26340882002384,999.172947661009,1020.69718810796,21.5242404469487,-1009.93506788448,488.82435360703,521.110714277453
1.26557590204789,999.39638098793,1020.23868219788,20.8423012099479,-1009.8175315929,489.277039888991,520.540491703913
1.26774298407195,1000.64007726113,1020.17420071946,19.5341234583269,-1010.40713899029,490.552976901402,519.854162088893
1.269910066096,1003.97918716729,1020.39729552486,16.4181083575655,-1012.18824134607,493.780539404862,518.407701941211
1.27207714812006,1007.22668442579,1020.56011988274,13.3334354569457,-1013.89340215427,496.946624484424,516.946777669842
1.27424423014411,1010.40731876249,1020.40880001702,10.0014812545338,-1015.40805938976,500.202918753978,515.205140635779
1.27641131216817,1011.37790391608,1020.56851636488,9.19061244880515,-1015.97321014048,501.093645733637,514.879564406844
1.27857839419222,1009.9250297663,1020.41492813736,10.4898983710585,-1015.16997895183,499.717565697621,515.452413254209
1.28074547621627,1007.24372132192,1020.0326765117,12.7889551897761,-1013.63819891681,497.227383066074,516.410815850738
1.28291255824033,1003.93600395038,1020.8343173847,16.8983134343159,-1012.38516066754,493.518845258032,518.866315409506
1.28507964026438,1002.87266803323,1020.87907757242,18.0064095391859,-1011.87587280283,492.433129247024,519.442743555803
1.28724672228844,1005.06831725,1020.37143309364,15.3031158436432,-1012.71987517182,494.882600703178,517.837274468643
1.28941380431249,1008.83204788674,1020.00093192423,11.1688840374917,-1014.41648990548,498.831581924623,515.58490798086
1.29158088633655,1011.57898331215,1019.73052394724,8.1515406350893,-1015.65475362969,501.713721338529,513.941032291163
1.2937479683606,1014.12412949252,1020.07348078871,5.9493512961958,-1017.09880514062,504.087389098161,513.011416042455
1.29591505038466,1015.4413761984,1019.78347328532,4.34209708692197,-1017.61242474186,505.549639555737,512.06278518612
1.29808213240871,1016.67291673599,1019.57181311045,2.89889637446868,-1018.12236492322,506.887010180758,511.235354742461
1.30024921443277,1017.3015927353,1019.41733424664,2.11574151133379,-1018.35946349097,507.592925611984,510.766537878984
1.30241629645682,1017.49027179628,1019.84490123122,2.35462943494713,-1018.66758651375,507.567821180664,511.099765333085
1.30458337848088,1017.89813424875,1020.15695833893,2.25882409018368,-1019.02754629384,507.819655079283,511.207891214559
1.30675046050493,1018.46596633797,1020.38471128054,1.91874494256695,-1019.42533880925,508.273610697702,511.151728111552
1.30891754252898,1019.15055127286,1020.01062292645,0.860071653591945,-1019.58058709966,509.145239809634,510.435347290022
1.31108462455304,1019.65019133503,1020.27790928875,0.627717953719412,-1019.96405031189,509.511236690658,510.452813621237
1.31325170657709,1019.47453810697,1020.47298657993,0.998448472962082,-1019.97376234345,509.238044817004,510.735717526447
1.31541878860115,1019.07618247773,1020.34520631723,1.26902383950096,-1019.71069439748,508.903579319115,510.807115078366
1.3175858706252,1019.86606994375,1020.79225911,0.926189166246559,-1020.32916452687,509.469940388752,510.859224138122
1.31975295264926,1019.63209576853,1020.30806917815,0.675973409616859,-1019.97008247334,509.478061179457,510.492021293882
1.32192003467331,1018.38070632268,1020.49499858786,2.11429226517873,-1019.43785245527,508.13320702875,511.304645426518
1.32408711669737,1017.19723129722,1020.36127164448,3.16404034725849,-1018.77925147085,507.016595474981,511.762655995869
1.32625419872142,1016.33347940149,1019.99351565368,3.6600362521923,-1018.16349752758,506.336721574647,511.826775952936
1.32842128074548,1017.05385650526,1020.26542365199,3.21156714673043,-1018.65964007862,506.921144679264,511.73849539936
1.33058836276953,1018.66024410704,1020.4638740155,1.80362990845504,-1019.56205906127,508.428307099294,511.133751961977
1.33275544479359,1019.83265611953,1021.1490242043,1.31636808476844,-1020.49084016192,509.258144017382,511.232696144534
1.33492252681764,1019.87786510836,1021.10876438979,1.23089928143031,-1020.49331474907,509.323482913464,511.16983183561
1.33708960884169,1019.91086060802,1020.80922480239,0.89836419436358,-1020.3600427052,509.506248206829,510.853794498375
1.33925669086575,1019.66478595662,1020.86076390709,1.1959779504765,-1020.26277493185,509.23440400307,511.028370928784
1.3414237728898,1019.215033689,1020.62822319064,1.41318950163702,-1019.92162843982,508.900922093681,511.020706346137
1.34359085491386,1016.45537888344,1020.18834858137,3.73296969793432,-1018.32186373241,506.361204592752,511.960659139653
1.34575793693791,1012.28001227125,1019.86730883025,7.58729655899833,-1016.07366055075,502.346357856125,513.727302694622
1.34792501896197,1009.23264688618,1019.63299996214,10.4003530759621,-1014.43282342416,499.41614690511,515.016676519053
1.35009210098602,1008.35932724909,1019.73214730213,11.3728200530356,-1014.04573727561,498.493253598028,515.552483677582
1.35225918301008,1007.99209654878,1020.34482179607,12.3527252472843,-1014.16845917243,497.81968565075,516.348773521676
1.35442626503413,1008.53454413897,1019.981509834,11.4469656950316,-1014.25802698648,498.543789221968,515.714237764516
1.35659334705819,1007.57966508369,1020.25666127907,12.6769961953835,-1013.91816318138,497.451334444154,516.466828737229
1.35876042908224,1006.07228390117,1020.9977912758,14.9255073746319,-1013.53503758848,495.573388263268,517.961649325216
1.3609275111063,1007.40353701561,1020.45807555262,13.0545385370121,-1013.93080628411,497.174499239298,516.756307044816
1.36309459313035,1011.07670595032,1020.60447980845,9.52777385812067,-1015.84059287938,500.774466046102,515.066126833283
1.3652616751544,1014.02770169194,1020.71133204511,6.68363035316952,-1017.36951686853,503.672035669388,513.697481199142
1.36742875717846,1016.45162381463,1020.78931748629,4.3376936716636,-1018.62047065046,506.056965071484,512.563505578979
1.36959583920251,1017.14008347129,1021.11639088798,3.97630741668229,-1019.12823717964,506.581888027306,512.54634915233
1.37176292122657,1018.4530201107,1020.54463474284,2.09161463213934,-1019.49882742677,508.180702739281,511.31812468749
1.37393000325062,1019.14110254931,1020.39749828386,1.25639573455362,-1019.76930041658,508.942353407377,510.826947009208
1.37609708527468,1019.64329524284,1020.56026786514,0.916972622294907,-1020.10178155399,509.363161310275,510.738620243717
1.37826416729873,1019.46950503692,1020.67906423293,1.20955919600897,-1020.07428463493,509.129972920457,510.94431171447
1.38043124932279,1019.07250912282,1020.76576702402,1.69325790119558,-1019.91913807342,508.689625610813,511.229512462606
1.38259833134684,1019.59323275662,1020.8290465175,1.23581376088691,-1020.21113963706,509.178709497865,511.032430139195
1.3847654133709,1019.43296724233,1020.87523066274,1.44226342041009,-1020.15409895254,508.995351910961,511.158747041576
1.38693249539495,1017.15474875731,1020.36862545051,3.21387669320416,-1018.76168710391,506.970436032051,511.791251071857
1.38909957741901,1013.60091166491,1020.80935141894,7.20843975403511,-1017.20513154193,503.196235955437,514.008895586489
1.39126665944306,1012.8982592221,1020.32054389366,7.42228467155314,-1016.60940155788,502.737987275275,513.871414282605
1.39343374146711,1014.54668239648,1019.96379075774,5.41710836125333,-1017.25523657711,504.564787017615,512.690449559495
1.39560082349117,1016.01993002238,1020.24372912133,4.22379909895062,-1018.13182957186,505.898065461716,512.233764110142
1.39776790551522,1017.90563928613,1019.63757176145,1.73193247531299,-1018.77160552379,508.086853405411,510.68475211838
1.39993498753928,1019.2819124785,1020.27579642519,0.993883946693359,-1019.77885445185,509.144014265903,510.634840185943
1.40210206956333,1019.74606449497,1020.20128830772,0.455223812743043,-1019.97367640134,509.645420341115,510.328256060229
1.40426915158739,1020.08482296094,1020.41706523288,0.33224227193864,-1020.25094409691,509.876290344502,510.37465375241
1.40643623361144,1020.33206372301,1020.84470489321,0.512641170199686,-1020.58838430811,509.909711276403,510.678673031703
1.4086033156355,1019.97219843363,1020.61650261911,0.644304185480792,-1020.29435052637,509.663947124073,510.630403402294
1.41077039765955,1020.24986541135,1020.72010681879,0.470241407438266,-1020.48498611507,509.889812001958,510.595174113115
1.41293747968361,1020.18236271834,1020.79572170036,0.613358982011164,-1020.48904220935,509.784501868167,510.704540341184
1.41510456170766,1019.8629400853,1020.31059632821,0.447656242913581,-1020.08676820676,509.707641921192,510.379126285563
1.41727164373172,1020.17012388453,1020.22668680076,0.0565629162356345,-1020.19840534264,510.056780484145,510.141624858498
1.41943872575577,1019.85400764846,1020.43560216526,0.581594516796372,-1020.14480490686,509.636206565833,510.508598341027
1.42160580777982,1019.62329217724,1020.31792153441,0.694629357165013,-1019.97060685583,509.464331410039,510.506275445787
1.42377288980388,1019.45490592375,1019.96187684513,0.506970921378525,-1019.70839138444,509.473967501186,510.234423883254
1.42593997182793,1019.06185405076,1019.16170741662,0.0998533658581664,-1019.11178073369,509.481000342451,509.630780391238
1.42810705385199,1019.31530000659,1019.65833357726,0.343033570666989,-1019.48681679192,509.486133217961,510.000683573962
1.43027413587604,1019.23011975121,1019.48048067188,0.250360920670801,-1019.35530021154,509.489879415268,509.865420796274
1.4324412179001,1019.16795147094,1019.35067583369,0.182724362741737,-1019.25931365231,509.492613554101,509.766700098214
1.43460829992415,1019.12257833778,1019.52609479073,0.403516452958456,-1019.32433656425,509.359530942408,509.964805621846
1.43677538194821,1019.08946303838,1019.38396701498,0.294503976599231,-1019.23671502668,509.397479530893,509.839235495791
1.43894246397226,1019.60560646658,1019.82054836448,0.214941897900076,-1019.71307741553,509.695332284338,510.017745131188
1.44110954599632,1018.90168569394,1019.59887212667,0.697186432734156,-1019.2502789103,509.102249630601,510.148029279703
1.44327662802037,1019.46855833818,1019.70723931341,0.238680975226771,-1019.58789882579,509.614938681476,509.972960144316
1.44544371004443,1019.3419743925,1020.05648664335,0.714512250856956,-1019.69923051792,509.313731070819,510.385499447105
1.44761079206848,1018.97943167419,1020.85169506138,1.87226338718779,-1019.91556336778,508.553584143501,511.361979224283
1.44977787409253,1018.98498833518,1020.62160434993,1.63661601475087,-1019.80329634255,508.674186160212,511.129110182339
1.45194495611659,1018.98904382968,1020.45367407347,1.46463024378897,-1019.72135895157,508.762206792945,510.959152158628
1.45411203814064,1018.99200370715,1020.06095499248,1.06895128533426,-1019.52647934982,508.961526210907,510.564953138909
1.4562791201647,1018.99416395533,1020.31464383449,1.32047987915632,-1019.65440389491,508.836842038089,510.817561856824
1.45844620218875,1019.5360530228,1020.22964084808,0.69358782527911,-1019.88284693544,509.421232598759,510.461614336678
1.46061328421281,1019.93154739254,1020.43775815834,0.50621076580137,-1020.18465277544,509.712668313369,510.471984462071
1.46278036623686,1019.67988407779,1020.58965128444,0.909767206647075,-1020.13476768112,509.385058435572,510.749709245543
1.46494744826092,1020.03652159457,1020.70050953898,0.663987944414203,-1020.36851556677,509.686266825076,510.682248741698
1.46711453028497,1020.2968112708,1020.78141874742,0.484607476622841,-1020.53911500911,509.906101897088,510.633013112022
1.46928161230903,1019.94646965037,1020.8404698306,0.894000180237072,-1020.39346974049,509.526234735065,510.867235005421
1.47144869433308,1019.96093120684,1020.61341168498,0.652480478131565,-1020.28717144591,509.654225364356,510.632946081554
1.47361577635714,1019.97148588401,1020.71785091972,0.746365035711051,-1020.34466840186,509.612560424147,510.732107977714
1.47578285838119,1020.78965778518,1020.52391903456,-0.265738750625019,-1020.65678840987,510.527698267904,510.129090141966
1.47794994040524,1020.30617061739,1020.65253526473,0.346364647334667,-1020.47935294106,509.979902985028,510.49944995603
1.4801170224293,1020.22345672321,1020.74640502137,0.522948298156166,-1020.48493087229,509.850254212527,510.634676659761
1.48228410445335,1020.16308850135,1020.81491528014,0.651826778793179,-1020.48900189075,509.755630861279,510.733371029468
1.48445118647741,1020.65934155337,1020.59476085506,-0.064580698305349,-1020.62705120422,510.361961125837,510.265090078379
1.48661826850146,1020.21106012511,1020.70423872736,0.493178602252101,-1020.45764942624,509.858940761429,510.598708664807
1.48878535052552,1020.69435334498,1021.32445289614,0.630099551163198,-1021.00940312056,510.032126896907,510.977276223651
1.49095243254957,1021.04708189934,1020.96664371892,-0.0804381804243803,-1021.00686280913,510.563760039882,510.443102769246
1.49311951457363,1020.7642062199,1020.43534270171,-0.328863518182743,-1020.5997744608,510.546534869039,510.053239591765
1.49528659659768,1020.82790737431,1020.8580445903,0.0301372159839275,-1020.8429759823,510.398885079164,510.44409090314
1.49745367862174,1021.14455547803,1020.62623851416,-0.518316963865914,-1020.8853969961,510.831436220948,510.053960775149
1.49962076064579,1021.10550291768,1020.18690007758,-0.91860284010238,-1020.64620149763,511.012052878891,509.634148618738
1.50178784266984,1021.0770006491,1019.86625164875,-1.2107490003491,-1020.47162614892,511.143874824724,509.3277513242
1.5039549246939,1021.05619844543,1019.6322283848,-1.42397006063072,-1020.34421341511,511.240084253028,509.104129162082
1.50612200671795,1020.50070366255,1019.46142795932,-1.03927570323219,-1019.98106581094,510.769989682893,509.211076128045
1.50828908874201,1020.63559166968,1019.06661411791,-1.5689775517717,-1019.85110289379,511.102284610726,508.748818283068
1.51045617076606,1019.92357020816,1020.12924274764,0.205672539484794,-1020.0264064779,509.858948834337,510.167457643564
1.51262325279012,1020.75468682681,1020.90479565214,0.150108825331586,-1020.82974123948,510.30228900074,510.527452238737
1.51479033481417,1020.55080349253,1021.20067190999,0.649868417454854,-1020.87573770126,509.950467537538,510.92527016372
1.51695741683823,1020.4020005075,1021.14645914695,0.744458639451864,-1020.77422982723,509.828770934025,510.945458893203
1.51912449886228,1020.5635537851,1020.56657987488,0.00302608977915497,-1020.56506682999,510.280263847659,510.284802982328
1.52129158088634,1018.52021274623,1020.68367101403,2.16345826780082,-1019.60194188013,508.178377239213,511.423564640915
1.52345866291039,1015.40795571075,1020.49897304271,5.09101733196076,-1017.95346437673,505.158469189395,512.794995187337
1.52562574493445,1012.86633803448,1020.36417237567,7.49783434118842,-1016.61525520507,502.684251846645,513.931003358428
1.5277928269585,1012.90244764476,1020.26578894619,7.36334130143337,-1016.58411829547,502.769553171661,513.814565123811
1.52995990898256,1014.81989550261,1019.92382819946,5.10393269684846,-1017.37186185103,504.85798140288,512.513880448153
1.53212699100661,1015.94917669885,1020.21456269641,4.26538599756338,-1018.08186969763,505.841895350644,512.239974346989
1.53429407303066,1017.31368798872,1020.15659725114,2.84290926241965,-1018.73514261993,507.235389363152,511.499753256781
1.53646115505472,1018.03941186559,1020.38444774286,2.34503587726113,-1019.21192980423,507.847187994167,511.364741810059
1.53862823707877,1018.02876450528,1020.55074300886,2.52197850357209,-1019.28975375707,507.753393000855,511.536360756214
1.54079531910283,1016.94036874801,1020.94226878761,4.00190003959847,-1018.94131876781,506.469234354207,512.472084413605
1.54296240112688,1017.22663471303,1020.14739659764,2.92076188461147,-1018.68701565534,507.15293641421,511.534079241127
1.54512948315094,1017.97587657309,1020.37773270305,2.40185612995742,-1019.17680463807,507.787010221569,511.389794416505
1.54729656517499,1018.79286230234,1021.08615450251,2.29329220017075,-1019.93950840242,508.249785051084,511.689723351341
1.54946364719905,1019.38913426182,1021.06287932848,1.67374506665783,-1020.22600679515,508.85769459758,511.368312197567
1.5516307292231,1019.28400722374,1020.50557966355,1.22157243981076,-1019.89479344364,509.031217391963,510.863576051679
1.55379781124716,1018.66696848428,1020.09883796497,1.43186948068796,-1019.38290322463,508.617549501798,510.76535372283
1.55596489327121,1018.21662659326,1020.88260491038,2.66597831712056,-1019.54961575182,507.77532413807,511.774291613751
1.55813197529526,1018.42825978531,1020.64416371121,2.21590392590701,-1019.53621174826,508.1061779297,511.43003381856
1.56029905731932,1017.5020941084,1020.1999826713,2.69788856289904,-1018.85103838985,507.402102772748,511.448935617097
1.56246613934337,1017.36645026607,1020.41611232225,3.04966205618098,-1018.89128129416,507.158394104944,511.732887189215
1.56463322136743,1017.53760766222,1020.30369699356,2.76608933133764,-1018.92065232789,507.385759165441,511.534893162448
1.56680030339148,1017.39236961272,1020.76196378796,3.36959417524315,-1019.07716670034,507.011387718739,512.065778981604
1.56896738541554,1017.2863685245,1020.01580211368,2.72943358918633,-1018.65108531909,507.278467467654,511.372617851434
1.57113446743959,1014.77759838187,1020.01153307451,5.23393469263624,-1017.39456572819,504.771831844619,512.622733883573
1.57330154946365,1011.05549459434,1020.8188859784,9.76339138406627,-1015.93719028637,500.646051605136,515.291138681235
1.5754686314877,1007.79862784249,1020.59765884452,12.7990310020313,-1014.19814334351,497.49979842023,516.698344923277
1.57763571351176,1006.77240493425,1021.24666623071,14.474261296456,-1014.00953558248,496.149071818899,517.860463763583
1.57980279553581,1006.83389115506,1021.72034023997,14.8864490849114,-1014.27711569751,495.973721035073,518.30339466244
1.58196987755987,1007.95939133885,1022.06604827322,14.1066569343714,-1015.01271980604,496.92636720224,518.086352603797
1.58413695958392,1010.67192413963,1021.50789249819,10.835968358552,-1016.08990831891,499.917977890541,516.171930428369
1.58630404160798,1013.46211798999,1021.10052597297,7.63840798297304,-1017.28132198148,502.91185500351,514.369466977969
1.58847112363203,1016.0388360631,1020.53305583317,4.49421977007637,-1018.28594594813,505.772308146509,512.513637801624
1.59063820565608,1016.83881289502,1020.11889127669,3.28007838167389,-1018.47885208586,506.779367256673,511.699484829184
1.59280528768014,1018.23313965206,1020.08677205976,1.8536324076955,-1019.15995585591,508.189753622183,510.970202233727
1.59497236970419,1018.98062416244,1020.33348626067,1.35286209822993,-1019.65705521155,508.813881032105,510.843174179449
1.59713945172825,1019.52617108906,1020.78370529952,1.25753421045897,-1020.15493819429,509.1343184393,511.020619754989
1.5993065337523,1020.46464754833,1020.57198244458,0.107334896247494,-1020.51831499645,510.178656326041,510.339658670412
1.60147361577636,1020.33912012682,1020.41745783409,0.0783377072756366,-1020.37828898046,510.130391209771,510.247897770684
1.60364069780041,1020.24750471799,1020.03452279515,-0.212981922840299,-1020.14101375657,510.230243320414,509.910770436153
1.60580777982447,1020.18063978096,1020.29535245946,0.114712678502997,-1020.23799612021,510.032963551226,510.205032568981
1.60797486184852,1020.40199503389,1019.94540494597,-0.456590087918357,-1020.17369998993,510.429292560905,509.744407429027
1.61014194387258,1020.56354979022,1020.5004665627,-0.0630832275165858,-1020.53200817646,510.313316508866,510.218691667591
1.61230902589663,1020.68145952556,1020.36526241195,-0.316197113609746,-1020.52336096876,510.498828319586,510.024532649171
1.61447610792068,1021.03767142534,1020.80689692614,-0.230774499192194,-1020.92228417574,510.634222962264,510.288061213475
1.61664318994474,1020.7573380439,1021.12922113295,0.371883089049447,-1020.94327958842,510.192727477425,510.750552110999
1.61881027196879,1020.55273846685,1020.55399881743,0.00126035058110574,-1020.55336864214,510.275739058136,510.277629584008
1.62097735399285,1020.67356894836,1020.40433259553,-0.269236352829125,-1020.53895077195,510.471402650597,510.067548121353
1.6231444360169,1020.49160011284,1020.29509963319,-0.196500479650695,-1020.39334987301,510.344050296245,510.049299576769
1.62531151804096,1020.3587912886,1020.21537663416,-0.143414654437265,-1020.28708396138,510.251102971518,510.035980989862
1.62747860006501,1021.07233022883,1020.15719129855,-0.915138930282524,-1020.61476076369,510.993734579558,509.621026184134
1.62964568208907,1021.59310219195,1019.57441266905,-2.01868952289931,-1020.5837574305,511.805895857425,508.777861573076
1.63181276411312,1020.08209089116,1019.95954394207,-0.12254694908961,-1020.02081741662,510.102318920126,509.918498496492
1.63397984613718,1019.78975731511,1020.2406296093,0.450872294196074,-1020.0151934622,509.669442510455,510.345750951749
1.63614692816123,1020.1167118943,1019.90546581372,-0.211246080585056,-1020.01108885401,510.163978987443,509.847109866566
1.63831401018529,1020.35533766293,1020.20116102325,-0.154176639681509,-1020.27824934309,510.254757151305,510.023492191783
1.64048109220934,1019.9891847741,1019.87665991136,-0.112524862746,-1019.93292234273,510.050854818425,509.882067524306
1.64264817423339,1019.99210657456,1019.90998100248,-0.0821255720851468,-1019.95104378852,510.037116073324,509.913927715196
1.64481525625745,1019.99423903248,1019.93430019385,-0.0599388386328883,-1019.96426961316,510.027088935555,509.937180677606
1.6469823382815,1019.99579539364,1020.22220561647,0.226410222827781,-1020.10900050505,509.884692585406,510.224307919648
1.64914942030556,1020.26708750604,1020.43233160074,0.165244094699574,-1020.34970955339,510.05092170567,510.298787847719
1.65131650232961,1020.19493215717,1020.85584695695,0.660914799784678,-1020.52538955706,509.767008678692,510.758380878369
1.65348358435367,1020.14227002402,1020.89479079699,0.752520772976595,-1020.5185304105,509.69487462552,510.823655784985
1.65565066637772,1020.37399110514,1020.92321371673,0.549222611594473,-1020.64860241093,509.912384246771,510.736218164163
1.65781774840178,1020.00279887303,1021.48427043189,1.48147155885852,-1020.74353465246,509.260663657085,511.482870995372
1.65998483042583,1020.81251137571,1021.35344176649,0.540930390778499,-1021.0829765711,510.135790492465,510.947186078632
1.66215191244989,1020.0526939566,1020.44748864212,0.394794685519628,-1020.25009129936,509.828949635541,510.42114166382
1.66431899447394,1019.76830214503,1020.32659680571,0.558294660684282,-1020.04744947537,509.60500374217,510.442445733197
1.666486076498,1020.1010529717,1020.23836464987,0.137311678174001,-1020.16970881078,509.981870646761,510.187838164022
1.66865315852205,1020.34390909554,1020.44412517089,0.100216075352819,-1020.39401713321,510.121846510091,510.272170623121
1.6708202405461,1020.25099991706,1020.594298209,0.343298291938481,-1020.42264906303,509.95385081256,510.468798250467
1.67298732257016,1019.37272209467,1020.43374485613,1.06102276146134,-1019.9032334754,509.155849666604,510.747383808796
1.67515440459421,1019.27202890549,1020.31656598888,1.04453708338701,-1019.79429744719,509.113745911053,510.680551536134
1.67732148661827,1019.46869481874,1020.50119993239,1.03250511365138,-1019.98494737556,509.218094852543,510.76685252302
1.67948856864232,1018.80176157824,1020.63595386914,1.83419229089577,-1019.71885772369,508.483784643672,511.235073080016
1.68165565066638,1019.12547313118,1020.7343031928,1.60883006161487,-1019.92988816199,508.758321534783,511.171566627206
1.68382273269043,1016.39001366665,1020.80608283574,4.41606916908347,-1018.5980482512,505.986972248785,512.61107600241
1.68598981471449,1011.96214966195,1020.31815833851,8.35600867656183,-1016.14015400023,501.803070492692,514.337083507535
1.68815689673854,1006.83940714033,1019.96204967513,13.122642534798,-1013.40072840773,496.858382302767,516.542346104964
1.6903239787626,1004.99169881585,1019.97230219114,14.9806033752842,-1012.48200050349,495.005547720284,517.47645278321
1.69249106078665,1006.34472249167,1019.70962871438,13.3649062227107,-1013.02717560303,496.489908134481,516.537267468547
1.69465814281071,1010.03378053538,1019.78807432094,9.75429378556339,-1014.91092742816,500.139743374908,514.771184053253
1.69682522483476,1012.45606042075,1019.84532735959,7.38926693884412,-1016.15069389017,502.533396740953,513.61729714922
1.69899230685881,1014.2239463482,1020.15726934608,5.93332299788085,-1017.19060784714,504.145311675158,513.04529617198
1.70115938888287,1016.05453933421,1020.38493826717,4.33039893296245,-1018.21973880069,505.862070200623,512.357668600066
1.70332647090692,1016.8502738299,1020.28094480311,3.43067097321193,-1018.5656093165,506.709801428342,511.855807888159
1.70549355293098,1017.1608794967,1019.93488960748,2.77401011078257,-1018.54788455209,507.193434692959,511.354449859133
1.70766063495503,1017.92788553692,1020.22263579635,2.29475025943157,-1019.07526066663,507.816567638744,511.258693027891
1.70982771697909,1018.7578363427,1020.16248935298,1.40465301028041,-1019.46016284784,508.67659166621,510.783571181631
1.71199479900314,1018.82325835901,1019.84843563304,1.02517727402903,-1019.33584699602,508.89904054249,510.436806453534
1.7141618810272,1019.14116242309,1019.6192254764,0.478063053308801,-1019.38019394975,509.331549684891,510.048644264854
1.71632896305125,1018.83287030574,1019.72209407927,0.889223773534354,-1019.27748219251,508.971823266102,510.305658926404
1.71849604507531,1018.87802143083,1019.5270158782,0.648994447370114,-1019.20251865452,509.114513491731,510.088005162786
1.72066312709936,1019.18113091088,1019.92495168869,0.743820777814449,-1019.55304129979,509.218655066532,510.334386233254
1.72283020912342,1019.13219727014,1020.21538266806,1.08318539791196,-1019.6737899691,509.024505936116,510.649284032984
1.72499729114747,1019.36663956829,1020.42735191422,1.06071234592901,-1019.89699574126,509.152963611182,510.744032130076
1.72716437317152,1020.07805824702,1020.04174392807,-0.036314318947575,-1020.05990108754,510.057186282982,510.00271480456
1.72933145519558,1019.78681411483,1020.03046654659,0.2436524317676,-1019.90864033071,509.771580841529,510.13705948918
1.73149853721963,1020.6548762416,1020.29239203165,-0.362484209955255,-1020.47363413663,510.508680225779,509.964953910846
1.73366561924369,1021.01826978067,1020.48355671987,-0.534713060802119,-1020.75091325027,510.776491420736,509.974421829533
1.73583270126774,1020.47302166219,1020.89323329195,0.420211629757432,-1020.68312747707,510.026405016216,510.656722460852
1.7379997832918,1020.61538813367,1020.38176455761,-0.233623576065497,-1020.49857634564,510.424505854868,510.07407049077
1.74016686531585,1021.25960584226,1019.73831606715,-1.52128977510995,-1020.49896095471,511.390447808686,509.108513146021
1.74233394733991,1020.91931549947,1020.07916781903,-0.840147680435507,-1020.49924165925,510.87973158995,509.619510069297
1.74450102936396,1020.40080049474,1020.86824877655,0.467448281810221,-1020.63452463565,509.966676106467,510.667848529182
1.74666811138802,1020.56267796324,1020.90384218799,0.341164224750514,-1020.73326007561,510.110756869244,510.62250320637
1.74883519341207,1020.14051080431,1020.92981981822,0.789309013909133,-1020.53516531127,509.675600895203,510.859564416067
1.75100227543613,1020.37270714957,1020.67862321841,0.305916068843658,-1020.52566518399,510.033395540361,510.492269643627
1.75316935746018,1020.54217420977,1021.03560136418,0.493427154405822,-1020.78888778698,510.024373527684,510.764514259292
1.75533643948423,1020.39570247909,1021.56629585824,1.1705933791518,-1020.98099916866,509.612554549967,511.368444618695
1.75750352150829,1020.28880099631,1021.14315130251,0.854350306198057,-1020.71597614941,509.717225345055,510.998750804352
1.75967060353234,1019.67046718942,1020.29400945328,0.623542263864124,-1019.98223832135,509.523462462777,510.458775858573
1.7618376855564,1019.48933631334,1019.94442476126,0.455088447916751,-1019.7168805373,509.517123932712,510.199756604587
1.76400476758045,1019.3571390686,1019.95943875723,0.60229968863257,-1019.65828891291,509.377419689982,510.280869222931
1.76617184960451,1019.53081194259,1020.2405528408,0.709740898211862,-1019.88568239169,509.410535522187,510.475146869504
1.76833893162856,1019.65756601083,1020.44572220844,0.788156197612238,-1020.05164410964,509.43470490661,510.616939203028
1.77050601365262,1020.02023289203,1020.59546379694,0.575230904902128,-1020.30784834448,509.722500993566,510.585347350919
1.77267309567667,1020.28492306244,1020.43459555325,0.149672490810644,-1020.35975930784,510.067625285814,510.29213402203
1.77484017770073,1021.01841796283,1020.58734307676,-0.431074886071428,-1020.80288051979,510.724746424451,510.078134095343
1.77700725972478,1021.28359844763,1020.42866869607,-0.85492975156069,-1020.85613357185,511.069264099597,509.786869472256
1.77917434174884,1021.74729498907,1020.58301739687,-1.16427759220596,-1021.16515619297,511.455786290639,509.70936990233
1.78134142377289,1021.54540860567,1020.42551162547,-1.11989698020022,-1020.98546011557,511.332652792937,509.652807322636
1.78350850579694,1021.12790687097,1020.85086944037,-0.277037430599535,-1020.98938815567,510.702472150785,510.286916004886
1.785675587821,1021.09335203524,1020.35084556369,-0.742506471545425,-1020.72209879946,510.917929253391,509.804169546073
1.78784266984505,1020.79797619116,1020.796374879,-0.00160131215920956,-1020.79717553508,510.399788751657,510.397386783418
1.79000975186911,1020.31224175432,1020.31107304658,-0.0011687077321767,-1020.31165740045,510.156705231025,510.154952169426
1.79217683389316,1020.49804391665,1019.95687851883,-0.541165397821715,-1020.22746121774,510.519604657238,509.707856560505
1.79434391591722,1020.63365047066,1019.69837184296,-0.935278627693492,-1020.16601115681,510.784464549175,509.381546607635
1.79651099794127,1021.0027782836,1020.32017098701,-0.6826072965913,-1020.6614746353,510.842692790094,509.818781845207
1.79867807996533,1020.73187150115,1019.96351859413,-0.768352907019903,-1020.34769504764,510.750112204087,509.597582843557
1.80084516198938,1020.8043080807,1020.24353048442,-0.56077759627874,-1020.52391928256,510.682542838488,509.841376444069
1.80301224401344,1020.58701925644,1020.71805163502,0.131032378577743,-1020.65253544573,510.22799343893,510.424542006797
1.80517932603749,1020.69858856969,1020.79422173724,0.0956331675486126,-1020.74640515347,510.301477701073,510.444927452396
1.80734640806155,1019.96954810431,1020.57965780132,0.610109697017606,-1020.27460295281,509.679719203644,510.59488374917
1.8095134900856,1019.70761866122,1021.23352828115,1.52590961993167,-1020.47057347118,509.090854520644,511.379718950541
1.81168057210965,1019.78660729613,1021.44059537722,1.65398808109569,-1020.61360133667,509.066309607515,511.547291729159
1.81384765413371,1019.84425666065,1021.05140958727,1.20715292662601,-1020.44783312396,509.31855186701,511.129281256949
1.81601473615776,1020.1564879031,1020.49720854418,0.340720641075677,-1020.32684822364,509.907883631013,510.418964592626
1.81818181818182,1019.84405551212,1021.17335320299,1.32929769086275,-1020.50870435756,509.257378910631,511.251325446925
1.82034890020587,1020.1563410961,1021.12652075835,0.970179662249507,-1020.64143092723,509.593080716927,511.048350210301
1.82251598222993,1020.65441700156,1020.82218417768,0.167767176117991,-1020.73830058962,510.243324912723,510.4949756769
1.82468306425398,1019.93730975969,1020.60006601478,0.662756255084787,-1020.26868788724,509.637276752304,510.631411134931
1.82685014627804,1020.22440212941,1019.89764202961,-0.326760099798094,-1020.06102207951,510.275581114603,509.785440964906
1.82901722830209,1020.16377850019,1020.19545088302,0.0316723828257182,-1020.1796146916,510.066053058683,510.113561632921
1.83118431032615,1020.11953272099,1020.41280482473,0.293272103732193,-1020.26616877286,509.913130308631,510.353038464229
1.8333513923502,1020.35739642577,1020.30128303704,-0.0561133887314327,-1020.3293397314,510.206754907249,510.122584824152
1.83551847437426,1020.53099977312,1020.49004576492,-0.0409540081965361,-1020.51052276902,510.285976890657,510.224545878362
1.83768555639831,1020.65770309778,1020.08750064555,-0.570202452224521,-1020.37260187167,510.613952775002,509.758649096665
1.83985263842236,1020.20986430847,1019.79370559074,-0.416158717731605,-1020.00178494961,510.313011513103,509.688773436506
1.84201972044642,1020.42332437376,1020.11959351875,-0.30373085501185,-1020.27145894626,510.363527614387,509.907931331869
1.84418680247047,1020.8492730883,1020.35744079863,-0.491832289665012,-1020.60335694346,510.670552688981,509.932804254483
1.84635388449453,1021.43030532353,1020.53103215838,-0.899273165156274,-1020.98066874095,511.164789244345,509.81587949661
1.84852096651858,1021.85436809112,1020.92788294583,-0.926485145291508,-1021.39112551848,511.390426618207,510.00069890027
1.85068804854264,1022.16386766782,1020.67720960412,-1.48665806369911,-1021.42053863597,511.825262865762,509.595275770213
1.85285513056669,1021.84944158756,1020.7644134347,-1.08502815286181,-1021.30692751113,511.467234870213,509.839692640921
1.85502221259075,1020.80949103045,1020.55790239688,-0.25158863356728,-1020.68369671366,510.530539832007,510.153156881656
1.8571892946148,1021.13111442386,1021.21765023436,0.0865358104989582,-1021.17438232911,510.522289306681,510.652093022429
1.85935637663886,1020.55538062405,1020.61853824779,0.0631576237433364,-1020.58695943592,510.246111500151,510.340847935766
1.86152345866291,1020.13518488663,1020.181280086,0.0460951993620711,-1020.15823248632,510.044544843636,510.113687642679
1.86369054068697,1020.36882006163,1019.8621499328,-0.506670128826386,-1020.11548499722,510.437745095229,509.677739901989
1.86585762271102,1020.53933724279,1019.62923477289,-0.910102469897424,-1020.08428600784,510.724719856344,509.359566151498
1.86802470473507,1020.9339443601,1019.45924309027,-1.47470126982978,-1020.19659372519,511.204322814965,508.99227091022
1.87019178675913,1020.68163348968,1019.87548814042,-0.8061453492586,-1020.27856081505,510.743889419468,509.53467139558
1.87235886878318,1019.95717354448,1019.90912579274,-0.0480477517417057,-1019.93314966861,510.00261064811,509.930539020497
1.87452595080724,1020.23889958934,1020.2038322362,-0.0350673531421535,-1020.22136591277,510.136983471241,510.084382441528
1.87669303283129,1019.9042031694,1020.14876569141,0.244562522014803,-1020.0264844304,509.82982032369,510.196664106712
1.87886011485535,1019.65992706639,1019.56826329202,-0.091663774370204,-1019.6140951792,509.87579542038,509.738299758824
1.8810271968794,1020.02195609377,1019.68489964557,-0.337056448192129,-1019.85342786967,510.179506270979,509.67392159869
1.88319427890346,1019.74586830677,1019.49986975181,-0.245998554961602,-1019.62286902929,509.995933430868,509.626935598426
1.88536136092751,1020.35483598608,1020.44545168072,0.0906156946443843,-1020.4001438334,510.132110145716,510.268033687682
1.88752844295157,1020.79928726399,1020.86542256583,0.0661353018431328,-1020.83235491491,510.366575981071,510.465778933836
1.88969552497562,1020.85351105642,1020.90177949565,0.0482684392262627,-1020.87764527603,510.402621308598,510.475023967437
1.89186260699967,1020.62292974263,1021.46862679877,0.845697056146832,-1021.0457782707,509.888616343241,511.157161927461
1.89402968902373,1020.72479761497,1021.34202435804,0.617226743067135,-1021.0334109865,510.053785435951,510.979625550552
1.89619677104778,1020.25883282506,1021.2496243531,0.990791528037562,-1020.75422858908,509.634020648513,511.120207940569
1.89836385307184,1019.91875131766,1020.37171814786,0.452966830196829,-1020.14523473276,509.732892243734,510.412342489029
1.90053093509589,1018.31976388267,1020.27129618115,1.95153229847722,-1019.29553003191,508.184115792099,511.111414239814
1.90269801711995,1015.53181556472,1020.7383162563,5.20650069157841,-1018.13506591051,505.162657436571,512.972408473939
1.904865099144,1013.22689259137,1020.53885553333,7.31196294196593,-1016.88287406235,502.957464824701,513.92540923765
1.90703218116806,1011.00434645341,1020.3932803637,9.3889339102933,-1015.69881340856,500.807706271558,514.891107136998
1.90919926319211,1011.81364086764,1020.28703323044,8.47339236280504,-1016.05033704904,501.670124252416,514.380212796623
1.91136634521617,1013.48492421611,1021.01995805584,7.53503383972577,-1017.25244113598,502.974945188194,514.277495947782
1.91353342724022,1014.97485619807,1020.20409762746,5.22924142938916,-1017.58947691277,504.872807384342,512.716669528426
1.91570050926428,1017.14289864733,1020.68927180932,3.54637316199148,-1018.91608522832,506.798262742668,512.117822485655
1.91786759128833,1017.9147623257,1021.04337317211,3.12861084640792,-1019.4790677489,507.393075739645,512.085992009257
1.92003467331238,1018.20794602477,1020.76149942836,2.55355340359347,-1019.48472272656,507.827196310587,511.657526415977
1.92220175533644,1018.15176811444,1020.28561941558,2.13385130113841,-1019.21869376501,508.008958406652,511.20973535836
1.92436883736049,1017.03014216808,1020.4786137681,3.44847160002689,-1018.75437796809,506.790835284024,511.963542684065
1.92653591938455,1015.4010618029,1020.07915707369,4.67809527078987,-1017.7401094383,505.361483266055,512.37862617224
1.9287030014086,1013.67177519427,1019.78761608665,6.1158408923751,-1016.72969564046,503.777967150949,512.951728489512
1.93087008343266,1012.1395098932,1020.38530534388,8.24579545068445,-1016.26240761854,501.946857221258,514.315550397285
1.93303716545671,1011.02119558145,1020.55136892364,9.53017334219044,-1015.78628225254,500.745511119629,515.040771132915
1.93520424748077,1011.82593809907,1021.2128818195,9.38694372042892,-1016.51940995929,501.219497189321,515.299912769964
1.93737132950482,1012.68343063847,1021.15537047357,8.47193983509533,-1016.91940055602,502.105745401688,514.813655154331
1.93953841152888,1013.84957866546,1021.11339617499,7.26381750952805,-1017.48148742023,503.292880577968,514.18860684226
1.94170549355293,1014.97084077087,1021.62307391766,6.65223314678519,-1018.29695734427,504.159303812044,514.137653532222
1.94387257557699,1014.16824968214,1021.99505905209,7.82680936995075,-1018.08165436712,503.170720156095,514.910934211021
1.94603965760104,1013.58248356162,1020.91576903237,7.33328547075325,-1017.249126297,503.124599045434,514.124527251564
1.94820673962509,1011.53402852603,1020.39821212777,8.86418360173252,-1015.9661203269,501.334922462151,514.63119786475
1.95037382164915,1009.76882013118,1020.29063264781,10.5218125166283,-1015.02972638949,499.623503807276,515.406222582218
1.9525409036732,1009.56111859693,1019.94196022076,10.3808416238288,-1014.75153940884,499.59013848655,515.161400922294
1.95470798569726,1010.76030998173,1020.22779623953,9.4674862577973,-1015.49405311063,500.646411861967,514.847641248663
1.95687506772131,1013.25646963593,1020.16625567038,6.90978603444398,-1016.71136265316,503.173341800745,513.538020852411
1.95904214974537,1015.3484324656,1020.39149688014,5.04306441453502,-1017.86996467287,505.152684025534,512.717280647337
1.96120923176942,1016.33492611809,1020.28573156604,3.95080544795121,-1018.31032884207,506.192060335069,512.118268506996
1.96337631379348,1018.13553722987,1020.47869562042,2.3431583905475,-1019.30711642514,507.896189419662,511.410927005483
1.96554339581753,1018.63923342902,1020.61952923684,1.98029580781349,-1019.62938133293,508.329468810606,511.299912522326
1.96771047784159,1019.54716539482,1020.72231577694,1.17515038211775,-1020.13474058588,509.186007506353,510.94873307953
1.96987755986564,1019.66950147636,1020.79733389474,1.12783241837701,-1020.23341768555,509.270834528993,510.962583156558
1.9720446418897,1020.29910012928,1021.12224161388,0.823141484602161,-1020.71067087158,509.73797932234,510.972691549243
1.97421172391375,1020.21829637138,1021.62952970629,1.41123333490248,-1020.92391303884,509.403531518241,511.520381520595
1.9763788059378,1020.15932225063,1020.91914592183,0.759823671206618,-1020.53923408623,509.69974928971,510.83948479652
1.97854588796186,1020.92674899054,1020.9409891533,0.0142401627597337,-1020.93386907192,510.456254413893,510.477614658032
1.98071296998591,1020.94653820577,1020.95693130011,0.0103930943321302,-1020.95173475294,510.468072555721,510.48366219722
1.98288005200997,1018.79973154661,1020.96856657692,2.1688350303109,-1019.88414906176,508.315448258149,511.568700803616
1.98504713403402,1017.50305425398,1020.97705851143,3.47400425744911,-1019.2400563827,507.014524998264,512.225531384437
1.98721421605808,1017.9074634461,1020.98325629707,3.07579285097404,-1019.44535987159,507.415835297563,512.029524574024
1.98938129808213,1018.4727751947,1020.71762350056,2.244848305853,-1019.59519934763,508.113963444426,511.481235903205
1.99154838010619,1018.88536446278,1020.79390926597,1.90854480318899,-1019.83963686437,508.488409829795,511.351227034579
1.99371546213024,1018.91633396526,1020.5794297461,1.66309578084372,-1019.74788185568,508.626619092209,511.121262763474
1.9958825441543,1018.6687806524,1020.15273698898,1.48395633658288,-1019.41075882069,508.592412157907,510.818346662781
1.99804962617835,1018.75826161664,1020.11147414262,1.35321252598044,-1019.43486787963,508.702524545332,510.732343334302
2.00021670820241,1018.01310010694,1020.62167113427,2.60857102733416,-1019.31738562061,507.702264539803,511.615121080804
2.00238379022646,1017.7394048198,1020.18356660374,2.44416178393476,-1018.96148571177,507.647621517934,511.313864193836
2.00455087225051,1018.07996243839,1019.86381873357,1.7838562951855,-1018.97189058598,508.148053071601,510.82383751438
2.00671795427457,1018.59867251268,1020.44092137238,1.84224885969809,-1019.51979694253,508.378211826493,511.14158511604
2.00888503629862,1017.62646877889,1020.32180372469,2.69533494579537,-1018.97413625179,507.465566916548,511.508569335241
2.01105211832268,1016.64675571112,1021.04533508507,4.3985793739588,-1018.84604539809,506.124088168578,512.721957229516
2.01321920034673,1018.3631241213,1020.22261889461,1.85949477331519,-1019.29287150795,508.25181467399,511.041056833963
2.01538628237079,1018.80533630799,1020.43263322922,1.62729692123287,-1019.61898476861,508.589019693379,511.029965075228
2.01755336439484,1018.85792591361,1020.04559846301,1.18767254940224,-1019.45176218831,508.835126682105,510.616635506209
2.0197204464189,1019.70677674621,1020.57359217872,0.866815432511771,-1020.14018446247,509.41998065685,510.720203805617
2.02188752844295,1019.78599282969,1020.41863268856,0.632639858872608,-1020.10231275912,509.576676485407,510.525636273716
2.02405461046701,1019.57365198426,1020.03538025538,0.461728271120592,-1019.80451611982,509.55596185657,510.248554263251
2.02622169249106,1019.958988761,1020.83629069523,0.877301934223965,-1020.39763972812,509.54084341339,510.856796314726
2.02838877451512,1019.6999119901,1020.88051778085,1.18060579074961,-1020.29021488548,509.259653099677,511.030561785801
2.03055585653917,1017.88988914698,1020.64264043269,2.75275128570843,-1019.26626478984,507.568568930638,511.6976958592
2.03272293856322,1017.10916764231,1020.4690271278,3.35985948549478,-1018.78909738505,506.874654078405,511.914443306648
2.03489002058728,1017.89014396122,1020.61247274756,2.72232878634418,-1019.25130835439,507.583907587436,511.667400766952
2.03705710261133,1018.18997846438,1020.71716564208,2.5271871776996,-1019.45357205323,507.831395643339,511.622176409888
2.03922418463539,1018.67896702585,1020.7935751008,2.11460807495337,-1019.73627106332,508.282179475447,511.454091587877
2.04139126665944,1018.76569607803,1020.30902964586,1.54333356783081,-1019.53736286195,508.6111812551,510.926181606846
2.0435583486835,1019.36930716176,1020.49569957925,1.12639241749127,-1019.9325033705,509.121457372134,510.811045998371
2.04572543070755,1018.99938032605,1019.82147083495,0.822090508900942,-1019.4104255805,509.088644908574,510.321780671926
2.04789251273161,1018.99954773482,1019.59954538602,0.599997651200624,-1019.29954656042,509.199775041808,510.099771518609
2.05005959475566,1019.26982612894,1020.2480431113,0.978216982363733,-1019.75893462012,509.145804573287,510.613130046832
2.05222667677972,1018.92677471221,1020.72134514771,1.79457043550644,-1019.82405992996,508.566102138351,511.25795779161
2.05439375880377,1019.75702561419,1021.33693791077,1.57991229658478,-1020.54698176248,509.088556658801,511.458425103678
2.05656084082783,1019.55251044197,1021.24591204116,1.69340159919329,-1020.39921124156,508.929554421387,511.469656820177
2.05872792285188,1019.13309010207,1020.36900874005,1.23591863797787,-1019.75104942106,508.948585732048,510.802463689015
2.06089500487593,1019.09713498426,1019.99916252482,0.902027540560198,-1019.54814875454,509.09755372185,510.45059503269
2.06306208689999,1019.34104957674,1020.26954498581,0.928495409070251,-1019.80529728128,509.206277083837,510.599020197442
2.06522916892404,1018.97875670316,1019.3862570979,0.407500394744034,-1019.18250690053,509.285628154207,509.896878746323
2.0673962509481,1019.5248081355,1019.5520635554,0.0272554198920716,-1019.53843584545,509.748776357806,509.789659487644
2.06956333297215,1019.9233403814,1019.9432325803,0.0198921989010614,-1019.93328648085,509.95172409125,509.981562389601
2.07173041499621,1019.67389424169,1019.68841243949,0.0145181978001574,-1019.68115334059,509.829688021946,509.851465318647
2.07389749702026,1019.49183752616,1019.50243354263,0.0105960164792123,-1019.49713553439,509.740620754838,509.756514779557
2.07606457904432,1019.6291207751,1019.90701042378,0.277889648677956,-1019.76806559944,509.675615563213,510.09245003623
2.07823166106837,1019.99947231344,1020.47244455918,0.472972245744472,-1020.23595843631,509.763250033846,510.472708402462
2.08039874309243,1019.99961487124,1020.8851231505,0.88550827925701,-1020.44236901087,509.557053295991,510.885315714877
2.08256582511648,1019.99971891617,1021.18631405686,1.1865951406952,-1020.59301648651,509.406561887736,511.186454598778
2.08473290714054,1019.99979485271,1020.86582394517,0.866029092459598,-1020.43280939894,509.566882880125,510.865926518815
2.08689998916459,1019.72969406265,1020.36176001612,0.632065953470033,-1020.04572703939,509.548814054592,510.496912984797
2.08906707118864,1020.0728751026,1021.07449693618,1.00162183357077,-1020.57368601939,509.535626634517,511.038059384873
2.0912341532127,1019.78303122907,1021.0543711261,1.27133989702861,-1020.41870117759,509.255845666023,511.162855511565
2.09340123523675,1019.30133426658,1020.22921379302,0.927879526446077,-1019.7652740298,509.186727370066,510.578546659735
2.09556831726081,1019.76023936636,1020.16729026299,0.40705089663652,-1019.96376481467,509.67659423486,510.287170579814
2.09773539928486,1019.8250121909,1020.12209575926,0.297083568362268,-1019.97355397508,509.763964311267,510.209589663811
2.09990248130892,1019.60213002266,1019.81895461958,0.216824596924198,-1019.71054232112,509.692652712866,510.017889608252
2.10206956333297,1019.43946085668,1019.86786515373,0.428404297050179,-1019.65366300521,509.505528279816,510.148134725391
2.10423664535703,1019.32073777637,1019.90356220326,0.582824426881189,-1019.61214998982,509.368956674747,510.243193315068
2.10640372738108,1019.23408847371,1019.65945926123,0.425370787528664,-1019.44677386747,509.404358843088,510.042415024381
2.10857080940514,1019.17084801841,1020.02161466908,0.850766650672313,-1019.59623134374,509.160040683867,510.436190659875
2.11073789142919,1019.39484857682,1020.28593154383,0.891082967011585,-1019.84039006033,509.251882804904,510.588507255421
2.11290497345325,1019.28817778104,1019.93852914922,0.650351368180395,-1019.61335346513,509.318913206431,510.294440258702
2.1150720554773,1019.21032476337,1020.76560451702,1.55527975365385,-1019.9879646402,508.827522504858,511.160442135339
2.11723913750135,1019.69381664578,1020.82892791279,1.1351112670061,-1020.26137227928,509.279352689386,510.982019589896
2.11940621952541,1020.04669019277,1020.87514409982,0.828453907058929,-1020.46091714629,509.609118142853,510.851799003441
2.12157330154946,1020.03407654716,1021.17903090872,1.14495436156096,-1020.60655372794,509.444561092798,511.161992635139
2.12374038357352,1020.02487055626,1021.13066459661,1.1057940403474,-1020.57776757644,509.459538257958,511.118229318479
2.12590746559757,1019.47783919725,1020.28489610855,0.807056911296854,-1019.8813676529,509.335391142978,510.545976509923
2.12807454762163,1019.34874796984,1020.20792965509,0.859181685247677,-1019.77833881246,509.244783142296,510.533555670167
2.13024162964568,1019.52468775128,1020.96222480275,1.43753705146662,-1020.24345627701,509.043575349907,511.199880927107
2.13240871166974,1019.38294009598,1020.70227379507,1.31933369908893,-1020.04260694552,509.031803198445,511.010803747079
2.13457579369379,1019.54964266215,1020.5125501669,0.9629075047485,-1020.03109641452,509.293367578699,510.737728835822
2.13674287571785,1019.9414657064,1020.64423776728,0.702772060882921,-1020.29285173684,509.619346822759,510.673504914084
2.1389099577419,1020.49759153317,1020.47019293253,-0.0273986006377527,-1020.48389223285,510.262495066903,510.221397165946
2.14107703976596,1020.63332030138,1019.80285496729,-0.830465334093788,-1020.21808763433,510.731892817737,509.486194816596
2.14324412179001,1020.19206867599,1019.85611492251,-0.335953753472722,-1020.02409179925,510.264011214729,509.76008058452
2.14541120381406,1020.41033634193,1020.16514258186,-0.245193760070379,-1020.2877394619,510.327765051002,509.959974410897
2.14757828583812,1020.02932521833,1019.85037207566,-0.178953142675255,-1019.93984864699,510.104139180504,509.835709466491
2.14974536786217,1019.75124661656,1019.62063877702,-0.130607839547565,-1019.68594269679,509.940927228056,509.745015468734
2.15191244988623,1020.08860510019,1019.72312556795,-0.365479532246354,-1019.90586533407,510.227042316221,509.678823017851
2.15407953191028,1019.7945116701,1019.5277687038,-0.266742966298125,-1019.66114018695,510.0306273182,509.630512868753
2.15624661393434,1019.57986940702,1019.38518871004,-0.194680696979617,-1019.48252905853,509.887275051999,509.59525400653
