t,leadI,leadII,leadIII,aVR,aVL,aVF
0,-18.4655344702601,-21.4063034624066,-2.94076899214656,19.9359189663334,-7.76238273905676,-12.1735362272766
0.00216333153055706,-15.7239224150667,-19.314328449098,-3.59040603403128,17.5191254320823,-6.0667581905177,-11.4523672415646
0.00432666306111412,-18.6237451110724,-23.7387731711387,-5.11502806006638,21.1812591411056,-6.75435852550299,-14.4269006156026
0.00648999459167117,-24.7775385188897,-32.0294419544239,-7.25190343553413,28.4034902366568,-8.7628175416778,-19.640672694979
0.00865332612222823,-31.5649297767447,-41.2766767819733,-9.71174700522852,36.420803279359,-10.9265913857581,-25.4942118936009
0.0108166576527853,-37.2250292411438,-49.344604492876,-12.1195752517322,43.2848168670099,-12.5527269947058,-30.7320898723041
0.0129799891833423,-41.303655488801,-55.3545386671003,-14.0508831782993,48.3290970779507,-13.6263861552509,-34.7027109226998
0.0151433207138994,-44.3610972538763,-59.5619386173332,-15.2008413634569,51.9615179356048,-14.5801279452097,-37.3813899903951
0.0173066522444565,-47.3013484352383,-62.8113210866031,-15.5099726513648,55.0563347609207,-15.8956878919367,-39.160646868984
0.0194699837750135,-50.7793174563039,-65.9490029334333,-15.1696854771294,58.3641601948686,-17.8048159895873,-40.5593442052814
0.0216333153055706,-54.844499624881,-69.4028074121691,-14.5583077872881,62.123653518525,-20.1430959187965,-41.9805575997286
0.0237966468361276,-58.862707802646,-72.9738341861184,-14.1111263834724,65.9182709943822,-22.3757907095868,-43.5424802847954
0.0259599783666847,-61.8356752285506,-75.9676487640959,-14.1319735355453,68.9016619963232,-23.8518508465027,-45.0498111498206
0.0281233098972418,-63.0431076261427,-77.6807748009026,-14.6376671747598,70.3619412135226,-24.2027202256915,-46.1592209878312
0.0302866414277988,-62.5638957850174,-77.9175867486895,-15.3536909636721,70.2407412668534,-23.6051024106727,-46.6356388561808
0.0324499729583559,-61.2664238200576,-77.1604328729552,-15.8940090528976,69.2134283465064,-22.68620738358,-46.5272209629264
0.0346133044889129,-60.3240061445644,-76.31510360773,-15.9910974631656,68.3195548761472,-22.1664543406994,-46.1531005354478
0.03677663601947,-60.6384061159149,-76.2536401689715,-15.6152340530566,68.4460231424432,-22.5115860314291,-45.9344371110141
0.038939967550027,-62.4638195542361,-77.4184784789716,-14.9546589247354,69.9411490166038,-23.7545803147503,-46.1865687018535
0.0411032990805841,-65.291461178233,-79.608923735499,-14.317462557266,72.450192456866,-25.4869993104835,-46.9631931463825
0.0432666306111412,-68.0412079103593,-82.0478282427837,-14.0066203324244,75.0445180765715,-27.0172937889674,-48.027224287604
0.0454299621416982,-69.6235560822538,-83.7939852321708,-14.170429149917,76.7087706572123,-27.7265634661684,-48.9822071910439
0.0475932936722553,-69.6003665775202,-84.2898697444373,-14.6895031669171,76.9451181609787,-27.4554317053015,-49.4896864556772
0.0497566252028123,-68.4171863313338,-83.6645892879278,-15.247402956594,76.0408878096308,-26.5848916873699,-49.4559961222609
0.0519199567333694,-67.0564967494378,-82.6081409262895,-15.5516441768517,74.8323188378636,-25.752426286293,-49.0798925515706
0.0540832882639264,-66.4794947804547,-81.9608784995091,-15.4813837190544,74.2201866399819,-25.4990555307002,-48.7211311092818
0.0562466197944835,-67.1992523783714,-82.287647529866,-15.0883951514946,74.7434499541187,-26.0554286134384,-48.6880213406803
0.0584099513250406,-69.0430527630994,-83.6021524661206,-14.5590997030213,76.32260261461,-27.241976530039,-49.080626084571
0.0605732828555976,-71.1740195281787,-85.3434187878966,-14.1693992597178,78.2587191580376,-28.5023101342305,-49.7564090238072
0.0627366143861547,-72.5174515254181,-86.6785560446789,-14.1611045192608,79.5980037850485,-29.1781735030787,-50.4198302819698
0.0648999459167117,-72.4373458758488,-86.9994940102815,-14.5621481344327,79.7184199430652,-28.937598870708,-50.7808210723571
0.0670632774472688,-71.1506745067111,-86.266628894481,-15.1159543877699,78.708651700596,-28.0173600594706,-50.6912916411254
0.0692266089778259,-69.5421711450285,-84.9834527683228,-15.4412816232942,77.2628119566756,-27.0504447608672,-50.2123671958085
0.0713899405083829,-68.6045398054833,-83.9041223700481,-15.2995825645647,76.2543310877657,-26.6524786204593,-49.6018524673064
0.07355327203894,-68.9470502779327,-83.6735534338643,-14.7265031559316,76.3103018558985,-27.1102735610006,-49.2000282948979
0.075716603569497,-70.545246862822,-84.5182185040153,-13.9729716411933,77.5317326834186,-28.2861376108143,-49.2455950726043
0.0778799351000541,-72.7198517171987,-86.0842433038225,-13.3643915866238,79.4020475105106,-29.6777300652874,-49.7243174452232
0.0800432666306111,-74.4224005716126,-87.5600177497965,-13.137617178184,80.9912091607046,-30.6423916967143,-50.3488174639903
0.0822065981611682,-74.826691766508,-88.1252469198201,-13.2985551533121,81.4759693431641,-30.7640683065979,-50.7119010365661
0.0843699296917253,-73.8530431170002,-87.4714387245325,-13.6183956075323,80.6622409207664,-30.1173237547339,-50.5449171660324
0.0865332612222823,-72.1792103576321,-85.9872328940643,-13.8080225364322,79.0832216258482,-29.1855939105999,-49.8976277152482
0.0886965927528394,-70.7787400436865,-84.4888078195664,-13.7100677758799,77.6337739316265,-28.5343361339033,-49.0994377977232
0.0908599242833964,-70.4084827849797,-83.7552906424238,-13.3468078574441,77.0818867137017,-28.5308374637678,-48.551049249934
0.0930232558139535,-71.2893506177064,-84.1531748461596,-12.8638242284532,77.721262731933,-29.2127631946266,-48.5084995373064
0.0951865873445105,-72.9818978762379,-85.4609017842408,-12.4790039080029,79.2213998302394,-30.2514469841175,-48.9699528461219
0.0973499188750676,-74.5409268712906,-86.9505392453079,-12.4096123740173,80.7457330582993,-31.0656572486366,-49.6800758096626
0.0995132504056247,-75.0196854359448,-87.7588966255718,-12.739211189627,81.3892910307583,-31.1402371231589,-50.2490539075994
0.101676581936182,-74.060409669038,-87.3869707940709,-13.3265611250329,80.7236902315544,-30.3669242720026,-50.3567659595519
0.103839913466739,-72.1263472201671,-85.9832583605506,-13.8569111403835,79.0548027903588,-29.1347180398918,-49.9200847504671
0.106003244997296,-70.2059109493513,-84.2228841154681,-14.0169731661168,77.2143975324097,-28.0944688916172,-49.1199286407925
0.108166576527853,-69.2493697482977,-82.9300800348611,-13.6807102865635,76.0897248915794,-27.7843297308671,-48.3053951607123
0.11032990805841,-69.7034672483057,-82.684355571449,-12.9808883231433,76.1939114098774,-28.3612894625812,-47.8326219472962
0.112493239588967,-71.296209513108,-83.5412857785109,-12.2450762654029,77.4187476458094,-29.5255666238526,-47.8931810219569
0.114656571119524,-73.1295423624617,-84.9686591348752,-11.8391167724135,79.0491007486685,-30.6452127950241,-48.4038879536444
0.116819902650081,-74.138967974964,-86.0935934711574,-11.9546254961934,80.1162807230607,-31.0921712393853,-49.0241094836754
0.118983234180638,-73.7235895604611,-86.1973743513544,-12.4737847908933,79.9604819559077,-30.6249023847839,-49.3355795711238
0.121146565711195,-72.0986741528492,-85.1488809724112,-13.050206819562,78.6237775626302,-29.5242336666436,-49.0995438959866
0.123309897241752,-70.1194451015543,-83.451433085843,-13.3319879842886,76.7854390936986,-28.3937285586329,-48.3917105350658
0.125473228772309,-68.7721526670548,-81.9178731822738,-13.145720515219,75.3450129246643,-27.8132160759179,-47.5317968487464
0.127636560302866,-68.6952748052588,-81.2494816310001,-12.5542068257413,74.9723782181294,-28.0705339897588,-46.9018442283707
0.129799891833423,-69.8920098469885,-81.7035913732553,-11.8115815262669,75.7978006101219,-29.0402141603608,-46.7575864497611
0.131963223363981,-71.6786781565423,-82.9370674264081,-11.2583892698658,77.3078727914752,-30.2101444433383,-47.097728348137
0.134126554894538,-72.985757828861,-84.1483375382666,-11.1625797094056,78.5670476835638,-30.9115890597277,-47.6554586238361
0.136289886425095,-72.9816311277792,-84.5235761493032,-11.5419450215239,78.7526036385412,-30.7198430531276,-48.0327605854135
0.138453217955652,-71.6175267059475,-83.7256020146433,-12.1080753086958,77.6715643602954,-29.7547256986259,-47.9168386616695
0.140616549486209,-69.6410568500004,-82.0771624110791,-12.4361055610788,75.8591096305398,-28.6024756444608,-47.256633986079
0.142779881016766,-68.0990614886796,-80.3386635369866,-12.239602048307,74.2188625128331,-27.9297297201863,-46.2891327926468
0.144943212547323,-67.7586549409803,-79.2921633271004,-11.5335083861202,73.5254091340403,-28.11257327743,-45.4128358566103
0.14710654407788,-68.7562362034333,-79.3608281290622,-10.6045919256288,74.0585321662477,-29.0758221389023,-44.9827100273455
0.149269875608437,-70.5168907891299,-80.3807371020196,-9.86384631288968,75.4488139455747,-30.3265222381201,-45.1222917074546
0.151433207138994,-71.9878810950765,-81.6426359748782,-9.65475487980166,76.8152585349774,-31.1665631076374,-45.6486954273399
0.153596538669551,-72.2017265404841,-82.2559205054228,-10.0541939649387,77.2288235229534,-31.0737662877727,-46.1550572351807
0.155759870200108,-70.854920734217,-81.6610834723048,-10.8061627380878,76.2580021032609,-30.0243789980646,-46.2336231051963
0.157923201730665,-68.4486389765948,-79.9421781384127,-11.4935391618179,74.1954085575038,-28.4775499073884,-45.7178586501153
0.160086533261222,-65.9308658232666,-77.7322208313358,-11.8013550080692,71.8315433273012,-27.0647554075987,-44.7667879197025
0.162249864791779,-64.1803713811745,-75.8462679385303,-11.6658965573558,70.0133196598524,-26.2572374119093,-43.7560822479431
0.164413196322336,-63.6190261270999,-74.8686222569114,-11.2495961298115,69.2438241920057,-26.1847149986442,-43.0591091933615
0.166576527852893,-64.0153959365282,-74.8270811102859,-10.8116851737577,69.4212385234071,-26.6018553813852,-42.8193831420218
0.168739859383451,-64.5384661839275,-75.1370730621049,-10.5986068781774,69.8377696230162,-26.9699296528751,-42.8678399701412
0.170903190914008,-64.1818448888205,-74.9418123526336,-10.7599674638132,69.5618286207271,-26.7109387125037,-42.8508899082234
0.173066522444565,-62.4206046741384,-73.6590843292661,-11.2384796551277,68.0398445017022,-25.5910625095054,-42.4487819921969
0.175229853975122,-59.6117639168563,-71.3582719160161,-11.7465079991597,65.4850179164362,-23.9326279588483,-41.5523899575879
0.177393185505679,-56.8089533818112,-68.7302314471852,-11.9212780653741,62.7695924144982,-22.4438376582186,-40.3257547562797
0.179556517036236,-55.174942671665,-66.7195449224999,-11.5446022508349,60.9472437970825,-21.815170210415,-39.1320735866674
0.181719848566793,-55.4098779305748,-66.0745452301882,-10.6646672996134,60.7422115803815,-22.3726053154807,-38.3696062649008
0.18388318009735,-57.4427338153184,-67.0068008635208,-9.56406704820233,62.2247673394196,-23.9393333835581,-38.2854339558615
0.186046511627907,-60.4376367373802,-69.0718988444147,-8.63426210703449,64.7547677908975,-25.9016873151729,-38.8530804757246
0.188209843158464,-63.1610150852446,-71.3676523447122,-8.20663725946753,67.2643337149784,-27.4771889128886,-39.7871448020898
0.190373174689021,-64.6325808479841,-73.004221899074,-8.37164105108991,68.818401373529,-28.1304698984471,-40.6879314750819
0.192536506219578,-64.6548538009756,-73.5696571777393,-8.9148033767637,69.1122554893575,-27.870025212106,-41.2422302772515
0.194699837750135,-63.8172858509594,-73.2793513724459,-9.46206552148652,68.5483186117027,-27.1776101647364,-41.3707084469662
0.196863169280692,-63.0496895641072,-72.76389140003,-9.71420183592284,67.9067904820686,-26.6677438640922,-41.2390466179764
0.199026500811249,-63.1139742567477,-72.6992131519561,-9.58523889520842,67.9065937043519,-26.7643676807696,-41.1422260235823
0.201189832341806,-64.2535329983643,-73.4546652320067,-9.2011322336424,68.8540991151855,-27.5262003823609,-41.3278987328245
0.203353163872363,-66.0374654880608,-74.8496420089161,-8.81217652085536,70.4435537484885,-28.6126444836027,-41.8309092648857
0.20551649540292,-67.5121597631333,-76.1763809140868,-8.66422115095349,71.84427033861,-29.4239693060899,-42.4203010325201
0.207679826933478,-67.730203037257,-76.5951239228598,-8.86492088560283,72.1626634800584,-29.4326410758271,-42.7300224042313
0.209843158464035,-66.3698661570513,-75.6802956553421,-9.31042949829089,71.0250809061967,-28.5297183293802,-42.4953625768165
0.212006489994592,-63.9530472411626,-73.6999308435632,-9.7468836024006,68.8264890423629,-27.103081819381,-41.7234072229819
0.214169821525149,-61.5126684514382,-71.4395337689608,-9.92686531752258,66.4761011101995,-25.7929015669578,-40.6831995432417
0.216333153055706,-60.0294496363416,-69.7729902625046,-9.743540626163,64.9012199494231,-25.1429545050893,-39.7582654443338
0.218496484586263,-59.982301715854,-69.2708756492111,-9.2885739333571,64.6265886825325,-25.3468638912484,-39.2797247912841
0.22065981611682,-61.1380696322235,-69.9439547194765,-8.80588508725299,65.54101217585,-26.1660922724853,-39.3749199033647
0.222823147647377,-62.640805478948,-71.1992754706395,-8.55846999169142,66.9200404747938,-27.0411677436283,-39.8788727311654
0.224986479177934,-63.4448964768858,-72.1358138490359,-8.69091737215012,67.7903551629609,-27.3769895523678,-40.413365610593
0.227149810708491,-62.9274679659654,-72.0620770425978,-9.13460907663233,67.4947725042816,-26.8964294446666,-40.598343059615
0.229313142239048,-61.2542754863932,-70.8764666898354,-9.62219120344218,66.0653710881143,-25.8160421414755,-40.2493289466388
0.231476473769605,-59.2148269083017,-69.0827731918894,-9.86794628358768,64.1488000500956,-24.673440312357,-39.4753597377386
0.233639805300162,-57.7266109135379,-67.4946833892383,-9.76807247570048,62.6106471513881,-23.9792692189187,-38.6313779324694
0.235803136830719,-57.3821731259139,-66.8176561675675,-9.43548304165364,62.0999146467407,-23.9733450421301,-38.1265696046106
0.237966468361276,-58.1878202006555,-67.2870810059327,-9.0992608052772,62.7374506032941,-24.5442796976891,-38.1931709056049
0.240129799891833,-59.5297796771693,-68.508232235055,-8.9784525578857,64.0190059561122,-25.2756635596418,-38.7433423964704
0.24229313142239,-60.4547082619176,-69.6286137984259,-9.1739055365083,65.0416610301718,-25.6404013627047,-39.4012596674671
0.244456462952948,-60.2237992069913,-69.8226914194885,-9.59889221249728,65.0232453132399,-25.312453497247,-39.7107918159929
0.246619794483505,-58.8009318949738,-68.7843241976414,-9.98339230266754,63.7926280463076,-24.4087697961531,-39.3838582501544
0.248783126014062,-56.8684901403801,-66.8794214108812,-10.0109312705011,61.8739557756307,-23.4287794349395,-38.4451763406911
0.250946457544619,-55.3731851998983,-64.9034641940208,-9.53027899412251,60.1383246969595,-22.9214531028879,-37.2168715940716
0.253109789075176,-55.0056504265044,-63.6529962829129,-8.64734585640849,59.3293233547086,-23.1791522850479,-36.1501710696607
0.255273120605733,-55.8835952246822,-63.5435380460344,-7.65994282135227,59.7135666353583,-24.1118262016649,-35.6017404336934
0.25743645213629,-57.4687677508055,-64.4009682208917,-6.93220047008623,60.9348679858486,-25.2682836403596,-35.666584345489
0.259599783666847,-58.791746939079,-65.5207073917056,-6.72896045262652,62.1562271653923,-26.0313932432263,-36.124833922166
0.261763115197404,-58.9858594189084,-66.0411622618484,-7.05530284294002,62.5135108403784,-25.9652782879842,-36.5482325523942
0.263926446727961,-57.8161318602257,-65.4452753043353,-7.62914344410962,61.6307035822805,-25.093494208058,-36.5372093742225
0.266089778258518,-55.8003985043229,-63.8511356394213,-8.05073713509842,59.8257670718721,-23.8748306846122,-35.9509363872599
0.268253109789075,-53.8683198126985,-61.9161927245751,-8.0478729118766,57.8922562686368,-22.910223450411,-34.9820328182259
0.270416441319632,-52.8563364496254,-60.4583035716244,-7.60196712199894,56.6573200106249,-22.6271846638132,-34.0301353468116
0.272579772850189,-53.1260533966679,-60.0356518066769,-6.90959841000893,56.5808526016724,-23.1082274933295,-33.4726251083429
0.274743104380746,-54.4066539293814,-60.6755804657276,-6.26892653634621,57.5411171975545,-24.0688636965176,-33.4722535010369
0.276906435911303,-55.8891682750782,-61.8431477327985,-5.95397945772032,58.8661580039384,-24.9675944086789,-33.8985635952594
0.27906976744186,-56.6200530593795,-62.70006812562,-6.08001506624043,59.6600605924997,-25.2700189965695,-34.3900415959302
0.281233098972418,-56.0617806216407,-62.5789358627978,-6.51715524115707,59.3203582422192,-24.7723126902418,-34.5480455519774
0.283396430502975,-54.4235624788106,-61.3787720160423,-6.9552095372317,57.9011672474264,-23.7341764707894,-34.166990776637
0.285559762033532,-52.5007679057615,-59.5885109952132,-7.08774308945175,56.0446394504874,-22.7065124081549,-33.3381270423325
0.287723093564089,-51.1902182486039,-57.9689898120574,-6.77877156345352,54.5796040303307,-22.2057233425752,-32.3738806877555
0.289886425094646,-51.031115135264,-57.1699299805014,-6.13881484523745,54.1005225578827,-22.4461501450133,-31.6543724128694
0.292049756625203,-51.9511119711879,-57.4350466173408,-5.48393464615299,54.6930792942644,-23.2335886625174,-31.4594906317469
0.29421308815576,-53.2691632003757,-58.4393231343873,-5.17015993401162,55.8542431673815,-24.049501633182,-31.8047415341995
0.296376419686317,-54.0242151630455,-59.4112267504974,-5.38701158745192,56.7177209567714,-24.3186017877968,-32.3991191689747
0.298539751216874,-53.5295651826678,-59.5791810047427,-6.04961582207486,56.5543730937052,-23.7399746802965,-32.8143984134088
0.300703082747431,-51.7912420200815,-58.6439312385286,-6.85268921844707,55.217586629305,-22.4692764008172,-32.7483102284878
0.302866414277988,-49.4917045874815,-56.9313184233858,-7.43961383590431,53.2115115054337,-21.0260453757886,-32.1854661296451
0.305029745808545,-47.5905472072805,-55.1637712023691,-7.57322399508865,51.3771592048248,-20.0086616060959,-31.3684975987289
0.307193077339102,-46.8344512882915,-54.0567329091971,-7.22228162090562,50.4455920987443,-19.8060848336929,-30.6395072650513
0.309356408869659,-47.3976008555671,-53.977628110749,-6.58002725518197,50.6876144831581,-20.4087868001925,-30.2788276829655
0.311519740400216,-48.7486230110659,-54.759459751022,-6.01083673995616,51.754041381044,-21.3688931355549,-30.3851482454891
0.313683071930773,-49.87859371448,-55.7379382507183,-5.85934453623835,52.8082659825992,-22.0096245891208,-30.7986413934783
0.31584640346133,-49.8848877268357,-56.0991491147063,-6.21426138787051,52.992018420771,-21.8353131694826,-31.1567052512884
0.318009734991888,-48.5233318980152,-55.3779634013993,-6.85463150338407,51.9506476497072,-20.8343501973156,-31.1162974523917
0.320173066522445,-46.3162649687993,-53.7412111967888,-7.42494622798942,50.0287380827941,-19.445659370405,-30.5830787123891
0.322336398053002,-44.2094445882236,-51.8644857284431,-7.65504114021955,48.0369651583334,-18.277201724002,-29.7597634343313
0.324499729583559,-43.0698483339105,-50.5314968855671,-7.46164855165659,46.8006726097388,-17.804099891127,-28.9965727186119
0.326663061114116,-43.2874451615529,-50.2318387880808,-6.94439362652788,46.7596419748168,-18.1715257675125,-28.5881162073043
0.328826392644673,-44.5797588520312,-50.9264676641468,-6.34670881211561,47.753113258089,-19.1165250199578,-28.6365882381312
0.33098972417523,-46.0780050865397,-52.0301777373394,-5.95217265079961,49.0540914119396,-20.0629162178701,-28.9911751940695
0.333153055705787,-46.7722861547586,-52.6840309940629,-5.91174483930423,49.7281585744107,-20.4302706577272,-29.2978879166835
0.335316387236344,-46.1061469550895,-52.2577923706971,-6.1516454156076,49.1819696628933,-19.9772507697409,-29.2047188931523
0.337479718766901,-44.2868360641227,-50.7430299972383,-6.45619393311566,47.5149330306805,-18.9153210655035,-28.599611965177
0.339643050297458,-42.1211317111669,-48.7288655002103,-6.60773378904347,45.4249986056886,-17.7566989610617,-27.6682996446269
0.341806381828015,-40.5613930008032,-47.0252517865814,-6.46385878577818,43.7933223936923,-17.0487671075125,-26.7445552861798
0.343969713358572,-40.2460513192191,-46.2502450129743,-6.00419369375514,43.2481481660967,-17.120928812732,-26.1272193533647
0.346133044889129,-41.1976239838824,-46.5658930285975,-5.36826904471513,43.88175850624,-17.9146774695836,-25.9670810366563
0.348296376419686,-42.7749974771559,-47.5850230263591,-4.81002554920318,45.1800102517575,-18.9824859639763,-26.1975242877811
0.350459707950243,-43.9833183119538,-48.5309106727784,-4.54759236082461,46.2571144923661,-19.7178629755646,-26.5392515168015
0.3526230394808,-44.0445101549333,-48.6640729272188,-4.61956277228548,46.3542915410761,-19.7124736913239,-26.6418178497522
0.354786371011358,-42.8460955151934,-47.7193472727201,-4.87325175752672,45.2827213939567,-18.9864218788333,-26.2962995151234
0.356949702541915,-40.9590232001625,-46.0411507913967,-5.08212759123418,43.5000869957796,-17.9384478044642,-25.5616391913154
0.359113034072472,-39.2735393879768,-44.3645700057387,-5.09103061776194,41.8190546968577,-17.0912543851074,-24.7278003117503
0.361276365603029,-38.5306020861896,-43.4177502060735,-4.8871481198839,40.9741761461315,-16.8217269831528,-24.1524491629787
0.363439697133586,-38.9636906884913,-43.5361176333528,-4.57242694486153,41.2499041609221,-17.1956318718149,-24.0542722891072
0.365603028664143,-40.1361200933651,-44.4504117036274,-4.31429161026232,42.2932658984962,-17.9109142415514,-24.3823516569449
0.3677663601947,-41.1161765183105,-45.401617521617,-4.2854410033065,43.2588970199637,-18.415367757502,-24.8435292624617
0.369929691725257,-41.0249781826976,-45.5776104738013,-4.55263229110373,43.3012943282494,-18.2361729457969,-25.0651213824525
0.372093023255814,-39.5874375216107,-44.5953802283038,-5.00794270669311,42.0914088749572,-17.2897474074588,-24.8016614674984
0.374256354786371,-37.2775291958455,-42.697838265715,-5.42030906986955,39.9876837307803,-15.928610062988,-24.0590736677923
0.376419686316928,-35.0285908629163,-40.5857101347797,-5.55711927186339,37.807150498848,-14.7357357955265,-23.0714147033216
0.378583017847485,-33.7449336934747,-39.0604644139019,-5.3155307204272,36.4026990536883,-14.2147014865238,-22.1879975671646
0.380746349378042,-33.872440116692,-38.6694881679617,-4.79704805126963,36.2709641423268,-14.5376960327112,-21.7332681096156
0.382909680908599,-35.1823989434572,-39.4385904608489,-4.25619151739178,37.310494702153,-15.4631037130327,-21.8473909891204
0.385073012439156,-36.8549053907295,-40.800487918729,-3.94558252799951,38.8276966547292,-16.454661431365,-22.3730352233643
0.387236343969713,-37.8890173863678,-41.863613241741,-3.9745958553732,39.8763153140544,-16.9572107654973,-22.9191045485571
0.38939967550027,-37.6618040744673,-41.9314110009451,-4.26960692647779,39.7966075377062,-16.6960985739948,-23.1005089637115
0.391563007030827,-36.2722982386678,-40.9005674054403,-4.62826916677246,38.5864328220541,-15.8220145359477,-22.7644182861064
0.393726338561385,-34.432982881152,-39.2643679486698,-4.83138506751776,36.8486754149109,-14.8007989068171,-22.0478765080938
0.395889670091942,-33.031634438288,-37.7930395586147,-4.76140512032674,35.4123369984514,-14.1351146589806,-21.2772223394707
0.398053001622499,-32.6724626375732,-37.1274088114057,-4.45494617383251,34.8999357244894,-14.1087582318703,-20.7911774926191
0.400216333153056,-33.3768679481197,-37.4566507671109,-4.07978281899119,35.4167593576153,-14.6485425645642,-20.768216793051
0.402379664683613,-34.5321295069127,-38.3892741621446,-3.85714465523183,36.4607018345287,-15.3374924258405,-21.1232094086882
0.40454299621417,-35.2030699420991,-39.1331874893015,-3.93011754720239,37.1681287157003,-15.6364761974484,-21.531652518252
0.406706327744727,-34.7070187635757,-38.9697735188031,-4.26275475522735,36.8383961411894,-15.2221320041742,-21.6162641370152
0.408869659275284,-33.0412632305388,-37.7124208543706,-4.67115762383184,35.3768420424547,-14.1850528033535,-21.1917892391012
0.411032990805841,-30.851976900643,-35.8000362852683,-4.94805938462522,33.3260065929556,-12.9519587580089,-20.3740478349467
0.413196322336398,-29.0435613190426,-34.0141106447942,-4.9705493257516,31.5288359819184,-12.0365059966455,-19.4923299852729
0.415359653866955,-28.3348146922671,-33.0697917811721,-4.73497708890498,30.7023032367196,-11.7999188016811,-18.9023844350385
0.417522985397512,-28.9341270749983,-33.2793406564903,-4.34521358149203,31.1067338657443,-12.2944567467531,-18.8122771189912
0.419686316928069,-30.3903367458493,-34.3684272240358,-3.97809047818656,32.3793819849425,-13.2061231338313,-19.1732588511112
0.421849648458626,-31.7687263524889,-35.5645892392034,-3.79586288671451,33.6666577958462,-13.9864317328872,-19.680226062959
0.424012979989183,-32.1940242428749,-36.0230652434608,-3.82904100058592,34.1085447431679,-14.1824916211445,-19.9260531220234
0.42617631151974,-31.3913558467429,-35.3328336427539,-3.94147779601094,33.3620947447484,-13.724939025366,-19.6371557193824
0.428339643050297,-29.7995434513863,-33.7278394694336,-3.92829601804724,31.76369146041,-12.9356237166695,-18.8280677437404
0.430502974580855,-28.2521768311344,-31.9142015201724,-3.66202468903798,30.0831891756534,-12.2950760710482,-17.7881131046052
0.432666306111412,-27.5075695958683,-30.6847588652426,-3.17718926937435,29.0961642305555,-12.165190163247,-16.9309740673085
0.434829637641969,-27.8761798640387,-30.5304778906461,-2.65429802660742,29.2033288773424,-12.6109409187156,-16.5923879586268
0.436992969172526,-29.0583658085223,-31.3992732504618,-2.34090744193949,30.228819529492,-13.3587291832914,-16.8700903462006
0.439156300703083,-30.259413311123,-32.7030578905934,-2.44364457947047,31.4812356008582,-13.9078843658262,-17.573351235032
0.44131963223364,-30.6192728933297,-33.6172054517489,-2.99793255841922,32.1182391725393,-13.8106701674552,-18.3075690050841
0.443482963764197,-29.7414912418864,-33.5484620526328,-3.80697081074642,31.6449766472596,-12.96726021557,-18.6777164316896
0.445646295294754,-27.934936777908,-32.4707908152148,-4.53585403730678,30.2028637965614,-11.6995413703006,-18.5033224262608
0.447809626825311,-26.007602072268,-30.9009530037517,-4.89335093148368,28.4542775380099,-10.5571255703922,-17.8971519676177
0.449972958355868,-24.8018116917818,-29.5746240699102,-4.77281237812846,27.188217880846,-10.0144996568267,-17.1737182240194
0.452136289886425,-24.7897629136901,-29.0688800426729,-4.2791171289828,26.9293214781815,-10.2553228923537,-16.6739985858279
0.454299621416982,-25.8707070905874,-29.5375378891102,-3.66683079852282,27.7041224898488,-11.1019381460323,-16.6021843438165
0.456462952947539,-27.3845574575374,-30.6138745239269,-3.2293170663895,28.9992159907321,-12.0776201955739,-16.9215957951582
0.458626284478096,-28.4186190504566,-31.563703508779,-3.14508445832234,29.9911612796178,-12.6367672960671,-17.3543939835507
0.460789616008653,-28.318075250415,-31.6901970720071,-3.3721218215921,30.0041361612111,-12.4729767144115,-17.5311594467996
0.46295294753921,-27.0482212895754,-30.7424569484941,-3.69423565891869,28.8953391190348,-11.6769928153284,-17.2183463037064
0.465116279069767,-25.1728745706761,-29.0477313988364,-3.87485682816032,27.1103029847563,-10.6490088712579,-16.4612941134984
0.467279610600325,-23.5331566754805,-27.3195068857506,-3.78635021027011,25.4263317806156,-9.8734032326052,-15.5529285480104
0.469442942130882,-22.8395576339331,-26.2827054911172,-3.44314785718414,24.5611315625251,-9.69820488837446,-14.8629266741507
0.471606273661439,-23.3246049958875,-26.3014140963991,-2.97680910051157,24.8130095461433,-10.173897947688,-14.6391115984553
0.473769605191996,-24.5832279640265,-27.1649030297509,-2.58167506572435,25.8740654968887,-11.0007764491511,-14.8732890477376
0.475932936722553,-25.7601185181719,-28.1711435952436,-2.41102507707173,26.9656310567077,-11.6745467205501,-15.2910843361577
0.47809626825311,-26.0527299190842,-28.5333686216916,-2.48063870260745,27.2930492703879,-11.7860456082384,-15.5070036621495
0.480259599783667,-25.1902065369613,-27.8529471055223,-2.66274056856101,26.5215768212418,-11.2637329842001,-15.2578438370416
0.482422931314224,-23.5565749651056,-26.3258308784515,-2.76925591334589,24.9412029217786,-10.3936595258799,-14.5475433958987
0.484586262844781,-21.9298751463381,-24.6039144052722,-2.67403925893407,23.2668947758051,-9.62791794370202,-13.6389768321031
0.486749594375338,-21.0628803336662,-23.4442005745528,-2.38132024088662,22.2535404541095,-9.34078004638978,-12.9127604077197
0.488912925905895,-21.3275014750665,-23.3296682227572,-2.00216674769075,22.3285848489119,-9.66266736368787,-12.665917485224
0.491076257436452,-22.5010559310337,-24.2207836997063,-1.71972776867261,23.36091981537,-10.3906640811805,-12.9702557341895
0.493239588967009,-23.821492431898,-25.5510317234148,-1.72953929151672,24.6862620776564,-11.0459765701907,-13.6402855074657
0.495402920497566,-24.4196428206982,-26.5215909904687,-2.10194816977057,25.4706169055834,-11.1588473254638,-14.3117695801196
0.497566252028123,-23.8529106539816,-26.552431071497,-2.69952041751546,25.2026708627393,-10.576695118233,-14.6259757445062
0.49972958355868,-22.3260672215925,-25.5822852503451,-3.25621802875258,23.9541762359688,-9.53492459641996,-14.4192516395488
0.501892915089237,-20.517941391328,-24.0529096758524,-3.53496828452441,22.2854255335902,-8.49148655340177,-13.7939389801884
0.504056246619795,-19.2108315671,-22.6525025837249,-3.44167101662487,20.9316670754125,-7.88458027523758,-13.0470868001749
0.506219578150352,-18.928054085933,-21.9757693681881,-3.0477152822551,20.4519117270605,-7.94016940183894,-12.5117423252216
0.508382909680909,-19.6726141318175,-22.2293082545864,-2.55669412276882,20.9509611932019,-8.55796000452436,-12.3930011886776
0.510546241211466,-20.8717797258363,-23.0939929503801,-2.22221322454382,21.9828863381082,-9.32478325064622,-12.658103087462
0.512709572742023,-21.6673094316622,-23.8705177749133,-2.20320834325105,22.7689136032877,-9.73205054420558,-13.0368630590822
0.51487290427258,-21.4322244668718,-23.8942198763241,-2.46199540945224,22.6632221715979,-9.48511452870979,-13.1781076428882
0.517036235803137,-20.1396854025287,-22.9389228593978,-2.79923745686909,21.5393041309632,-8.67022397282979,-12.8690801581334
0.519199567333694,-18.3511562895658,-21.3270522992931,-2.97589600972734,19.8391042944295,-7.68763013991924,-12.1514741545102
0.521362898864251,-16.8896593352339,-19.7258085510879,-2.83614921585402,18.3077339431609,-7.02675505968992,-11.280978883471
0.523526230394808,-16.4058858230603,-18.7888732212083,-2.382987398148,17.5973795221343,-7.01144921245617,-10.5859303096782
0.525689561925365,-17.0389588990189,-18.8266012559481,-1.78764235692915,17.9327800774835,-7.62565827104488,-10.3071218064386
0.527852893455922,-18.3152899579808,-19.6416017378096,-1.32631177982884,18.9784458478952,-8.49448908907597,-10.4839567588192
0.530016224986479,-19.3700816790169,-20.6138688188171,-1.24378713980019,19.991975248917,-9.06314726960836,-10.9288279793087
0.532179556517036,-19.4301307464238,-21.0369149810962,-1.6067842346724,20.23352286376,-8.9116732558757,-11.3218496078843
0.534342888047593,-18.265868732566,-20.5246876513438,-2.25881891877782,19.3952781919549,-8.00352490689409,-11.3917532850608
0.53650621957815,-16.3140911636455,-19.2158419452905,-2.90175078164495,17.764966554468,-6.70617019100028,-11.0587963634677
0.538669551108707,-14.4279274274011,-17.67861198405,-3.25068455664891,16.0532697057256,-5.58862143537611,-10.4646482703495
0.540832882639264,-13.4343702675394,-16.617595067869,-3.18322480032964,15.0259826677042,-5.12557273360486,-9.90040993409932
0.542996214169822,-13.727406957,-16.5135374984219,-2.7861305414219,15.1204722277109,-5.47063820778905,-9.6498340199219
0.545159545700379,-15.0509927696969,-17.3416135320596,-2.29062076236275,16.1963031508783,-6.38018600366706,-9.81611714721119
0.547322877230936,-16.5971450413549,-18.5464287975596,-1.94928375620469,17.5717869194573,-7.32393064257511,-10.2478562768821
0.549486208761493,-17.4479508539243,-19.3458596032943,-1.89790874937,18.3969052286093,-7.77502105227717,-10.6218841763322
0.55164954029205,-17.1065789169428,-19.185268582196,-2.07868966525314,18.1459237495694,-7.51394462584484,-10.6319791237245
0.553812871822607,-15.7588231972954,-18.0385338659965,-2.27971066870103,16.898678531646,-6.73955626429721,-10.1591222673487
0.555976203353164,-14.1238024350709,-16.3946167170298,-2.27081428195888,15.2592095760503,-5.92649407655601,-9.33271549949433
0.558139534883721,-13.0282807301773,-14.9841131343216,-1.9558324041443,14.0061969322495,-5.53622416301651,-8.46997276923297
0.560302866414278,-12.978021017995,-14.4170757855416,-1.43905476754659,13.6975484017683,-5.7694831252242,-7.92806527654409
0.562466197944835,-13.9045303756725,-14.8810401978232,-0.976509822150632,14.3927852867478,-6.46401027676094,-7.92877500998689
0.564629529475392,-15.1646169984712,-16.0099779401381,-0.845360941666826,15.5872974693047,-7.15962802840221,-8.42766944090245
0.566792861005949,-15.8730587507955,-17.0516823684101,-1.17862361761465,16.4623705596028,-7.34721756659042,-9.11515299301239
0.568956192536506,-15.4303495431502,-17.2998773141069,-1.86952777095672,16.3651134286285,-6.78041088609673,-9.58470254253182
0.571119524067063,-13.8728789889351,-16.4974862973467,-2.62460730841158,15.1851826431409,-5.62413584026176,-9.56104680287913
0.57328285559762,-11.8341335474931,-14.9492255563636,-3.11509200887045,13.3916795519283,-4.35952076931133,-9.032158782617
0.575446187128177,-10.1956734473262,-13.3259739558924,-3.13030050856619,11.7608237016093,-3.53268646938,-8.22813723222929
0.577609518658734,-9.64751637401446,-12.3158198034448,-2.6683034294303,10.9816680887296,-3.48960647229208,-7.49206161643752
0.579772850189291,-10.3604266223527,-12.298140436505,-1.9377138141522,11.3292835294288,-4.21135640410027,-7.11792712532858
0.581936181719849,-11.8750999946408,-13.1400778279105,-1.26497783326968,12.5075889112757,-5.30506108068558,-7.2025278305901
0.584099513250406,-13.3018868776195,-14.2241191871969,-0.922232309577396,13.7630030324082,-6.18982728402105,-7.57317574838714
0.586262844780963,-13.8152790392812,-14.7912536654563,-0.975974626175088,14.3032663523688,-6.41965220655307,-7.8836141458157
0.58842617631152,-13.1298791508116,-14.4074442508298,-1.27756510001814,13.7686617008207,-5.92615702539675,-7.84250467542395
0.590589507842077,-11.622761778428,-13.2071405799301,-1.58437880150214,12.4149511791791,-5.01919148846292,-7.39575969071613
0.592752839372634,-10.0752808013365,-11.7849062233154,-1.70962542197887,10.9300935123259,-4.18282768967882,-6.74726582264712
0.594916170903191,-9.24336045266759,-10.8547440638966,-1.61138361122903,10.0490522582821,-3.81598842071928,-6.23306383756282
0.597079502433748,-9.49008405162951,-10.8656278007446,-1.37554374911511,10.1778559261871,-4.0572701512572,-6.12058577492986
0.599242833964305,-10.5990497262238,-11.7421208650694,-1.14307113884558,11.1705852956466,-4.72798929368912,-6.4425960019575
0.601406165494862,-11.8491929575615,-12.8956910795141,-1.04649812195257,12.3724420185378,-5.40134741780446,-6.97109460073331
0.603569497025419,-12.4118305446395,-13.5470806477547,-1.13525010311525,12.9794555961971,-5.63829022076212,-7.341165375435
0.605732828555976,-11.8610648248102,-13.1717819146228,-1.31071708981261,12.5164233697165,-5.27517386749881,-7.24124950221773
0.607896160086533,-10.4151041691351,-11.7824075884636,-1.36730341932849,11.0987558787994,-4.52390037490332,-6.57485550389606
0.61005949161709,-8.76757516867434,-9.91353552538891,-1.14596035671457,9.34055534703162,-3.81080740597989,-5.52974794105174
0.612222823147647,-7.68706587655382,-8.34865676021894,-0.661590883665127,8.01786131838638,-3.51273749644434,-4.50512382194204
0.614386154678204,-7.64202470636968,-7.72785705645617,-0.0858323500864913,7.68494088141293,-3.7780961781416,-3.90684470327133
0.616549486208761,-8.57448988564755,-8.2220296886843,0.35246019696325,8.39825978716593,-4.4634750413054,-3.93478474586053
0.618712817739319,-9.87905905241362,-9.42290738873737,0.456151663676252,9.6509832205755,-5.16760535804494,-4.48337786253056
0.620876149269876,-10.6904638450588,-10.53679829461,0.15366555044875,10.6136310698344,-5.42206469775377,-5.19156637208064
0.623039480800433,-10.3922521870691,-10.8334879212769,-0.441235734207822,10.612870054173,-4.97550822643063,-5.63736182774237
0.62520281233099,-8.98465823301675,-10.0708988771609,-1.08624064414417,9.52777855508883,-3.94920879443629,-5.57856976065254
0.627366143861547,-7.06086050414143,-8.60039173637671,-1.53953123223528,7.83062612025907,-2.76066463595308,-5.06996148430599
0.629529475392104,-5.46137823921825,-7.128539786072,-1.66716154685375,6.29495901264512,-1.89710834618225,-4.39785066646287
0.631692806922661,-4.8467887137009,-6.33985513539864,-1.49306642169773,5.59332192454977,-1.67686114600158,-3.91646077854818
0.633856138453218,-5.38856496917526,-6.56667211985638,-1.17810715068111,5.97761854451582,-2.10522890924707,-3.87238963526875
0.636019469983775,-6.66180718575271,-7.59474282927056,-0.932935643517851,7.12827500751163,-2.86443577111743,-4.2638392363942
0.638182801514332,-7.82184170825343,-8.72837978939123,-0.906538081137796,8.27511074882233,-3.45765181355782,-4.81745893526451
0.640346133044889,-8.08134366541512,-9.17059616859569,-1.08925250318057,8.62596991700541,-3.49604558111727,-5.12992433588813
0.642509464575446,-7.2001250102667,-8.49100933212173,-1.29088432185503,7.84556717119422,-2.95462034420584,-4.89094682698838
0.644672796106003,-5.60262184135621,-6.86138747304483,-1.25876563168862,6.23200465720052,-2.1719281048338,-4.06007655236672
0.64683612763656,-4.09230846537076,-4.9471456160274,-0.854837150656635,4.51972704069908,-1.61873565735706,-2.90099138334202
0.648999459167117,-3.42636052256057,-3.56528488683784,-0.138924364277273,3.49582270469921,-1.64371807914165,-1.85210462555756
0.651162790697674,-3.95362694336495,-3.28521137905642,0.668415564308532,3.61941916121069,-2.31102125383674,-1.30839790737394
0.653326122228231,-5.39977319406552,-4.12712029394055,1.27265290012497,4.76344674400303,-3.33621304709524,-1.42723369690779
0.655489453758789,-6.9345532348305,-5.52360266360193,1.41095057122857,6.22907794921622,-4.17275190302954,-2.05632604618668
0.657652785289346,-7.61617753854873,-6.63037544751404,0.985802091034685,7.12327649303138,-4.30098981479171,-2.82228667823968
0.659816116819903,-6.9597548752019,-6.81974214767945,0.140012727522446,6.88974851144067,-3.54988380136217,-3.3398647100785
0.66197944835046,-5.2086057339867,-6.02234460082968,-0.813738866842982,5.61547516740819,-2.19743343357186,-3.41804173383633
0.664142779881017,-3.16539041598639,-4.7088755814583,-1.54348516547191,3.93713299872235,-0.810952625257244,-3.1261803734651
0.666306111411574,-1.74762338929227,-3.58751797291387,-1.8398945836216,2.66757068110307,0.046135597164664,-2.71370627826774
0.668469442942131,-1.54020132300252,-3.23168798770308,-1.69148666470056,2.3859446553528,0.075642670849021,-2.46158732620182
0.670632774472688,-2.52755749171649,-3.79536544764352,-1.26780795592703,3.16146146968001,-0.629874767894734,-2.53158670178527
0.672796106003245,-4.07083566156484,-4.91194277614181,-0.841107114576971,4.49138921885333,-1.61486427349394,-2.87652494535939
0.674959437533802,-5.21260770378862,-5.85979108105857,-0.647183377269954,5.5361993924236,-2.28271216325933,-3.25348722916426
0.677122769064359,-5.23503819382191,-5.9666910898286,-0.731652896006693,5.60086464182525,-2.25169264890761,-3.34917199291765
0.679286100594916,-4.09220372420791,-5.01539939873317,-0.92319567452526,4.55380156147054,-1.58450402484132,-2.96929753662921
0.681449432125473,-2.40277401225703,-3.37957378140726,-0.976799769150233,2.89117389683214,-0.712987121553397,-2.17818677527875
0.68361276365603,-1.05893550927993,-1.8162141813886,-0.757278672108669,1.43757484533427,-0.150828418585633,-1.28674642674864
0.685776095186587,-0.749115595473597,-1.05256639919122,-0.303450803717624,0.900840997332409,-0.222832395877987,-0.678008601454422
0.687939426717144,-1.63248578751387,-1.40821090654623,0.224274880967641,1.52034834703005,-0.928380334240757,-0.591968012789295
0.690102758247702,-3.2417729447931,-2.63100169264794,0.610771252145156,2.93638731872052,-1.92627209846913,-1.01011522025139
0.692266089778259,-4.69116890031938,-4.0130701352706,0.678098765048787,4.35211951779499,-2.68463383268409,-1.6674856851109
0.694429421308816,-5.16810009079157,-4.76299606861011,0.405104022181462,4.96554807970084,-2.78660205648652,-2.17894602321432
0.696592752839373,-4.40108486049945,-4.44267207255479,-0.0415872120553331,4.42187846652712,-2.17974882422206,-2.24212964230506
0.69875608436993,-2.78498239898369,-3.18997506952309,-0.4049926705394,2.98747873425339,-1.18999486422214,-1.79748387003124
0.700919415900487,-1.13524411530861,-1.61134186917229,-0.476097753863684,1.37329299224045,-0.329573180722463,-1.04371981151799
0.703082747431044,-0.260745283242386,-0.457767765063295,-0.197022481820909,0.35925652415284,-0.0318614007107385,-0.327395123442102
0.705246078961601,-0.56866424966222,-0.259253995053086,0.309410254609134,0.413959122357653,-0.439037252135677,0.0250781297780236
0.707409410492158,-1.83950663010378,-1.04789886768219,0.791607762421592,1.44370274889299,-1.31555719626269,-0.128145552630301
0.709572742022715,-3.29683146418617,-2.30891386035569,0.987917603830482,2.80287266227093,-2.14237453400833,-0.660498128262603
0.711736073553272,-4.03302477572467,-3.25071622963083,0.782308546093844,3.64187050267775,-2.40766666090926,-1.23420384176849
0.713899405083829,-3.55709607429898,-3.27092474870869,0.286171325590288,3.41401041150384,-1.92163369994464,-1.4923767115592
0.716062736614386,-2.07559671051229,-2.30914984373339,-0.233553133221108,2.19237327712284,-0.921021788645589,-1.27135148847725
0.718226068144943,-0.346493963039734,-0.852492501287543,-0.505998538247809,0.599493232163638,0.0797522876040375,-0.679245519767676
0.7203893996755,0.761619446823204,0.366908262908453,-0.394711183914751,-0.564263854865828,0.578165315368977,-0.0139014605031491
0.722552731206057,0.728501217687665,0.757816003851417,0.0293147861637522,-0.743158610769541,0.349593215761956,0.393565395007585
0.724716062736614,-0.362517005804079,0.166314612365852,0.528831618169932,0.0981011967191137,-0.445674311987005,0.347573115267892
0.726879394267171,-1.85497144736678,-1.01231533782305,0.842656109543725,1.43364339259492,-1.34881377845525,-0.0848296141396645
0.729042725797729,-2.85251604098562,-2.02428229801512,0.828233742970497,2.43839916950037,-1.84037489197806,-0.598024277522313
0.731206057328286,-2.72381592596025,-2.20668839909462,0.517127526865636,2.46525216252743,-1.62047172641294,-0.84478043611449
0.733369388858843,-1.46008905943688,-1.38410353562602,0.0759855238108571,1.42209629753145,-0.76803729162387,-0.654059005907584
0.7355327203894,0.346437159338279,0.0530780562621089,-0.29335910307617,-0.199757607800194,0.319898131207225,-0.120140523407031
0.737696051919957,1.84979850861282,1.39433328168252,-0.455465226930301,-1.62206589514767,1.15263186777156,0.46943402737611
0.739859383450514,2.37723083065924,1.99447039804909,-0.382760432610155,-2.18585061435417,1.3799956316347,0.805854982719467
0.742022714981071,1.73079492636225,1.58973450538457,-0.141060420977681,-1.66026471587341,0.935927673669966,0.724337042203445
0.744186046511628,0.304262109735248,0.441878126151835,0.137616016416587,-0.373070117943541,0.0833230466593307,0.289747071284211
0.746349378042185,-1.06488282005949,-0.759897494015888,0.304985326043607,0.912390157037692,-0.684934073051551,-0.227456083986141
0.748512709572742,-1.55803825331503,-1.27414023612937,0.283898017185663,1.4160892447222,-0.920968135250348,-0.495121109471853
0.750676041103299,-0.882131880621216,-0.754735504437008,0.127396376184208,0.818433692529112,-0.504764128402712,-0.3136695641264
0.752839372633856,0.56851384187587,0.558762765581776,-0.00975107629409422,-0.563638303728823,0.289132459084982,0.274505844643841
0.755002704164413,1.97498603060259,2.01330779030116,0.0383217596985617,-1.99414691045187,0.968332135452016,1.02581477499986
0.75716603569497,2.56212301406873,2.91192710382848,0.349804089759743,-2.7370250589486,1.10615946215449,1.63086559679411
0.759329367225527,2.00549657775682,2.85020027733322,0.844703699576399,-2.42784842754502,0.580396439090208,1.84745198845481
0.761492698756084,0.6180607839446,1.90337119785551,1.28531041391091,-1.26071599090005,-0.333624814983153,1.59434080588321
0.763656030286641,-0.779146601374919,0.621302993906056,1.40044959528097,0.0789218037344313,-1.08979809832795,1.01087629459352
0.765819361817198,-1.31156390018447,-0.232223921637456,1.07933997854701,0.771893910910961,-1.19545193936574,0.423558028454778
0.767982693347756,-0.5764467436735,-0.116325885692902,0.460120857980598,0.346386314683201,-0.518283800827049,0.171897486143848
0.770146024878313,1.12309156988573,0.966850180952804,-0.156241388932926,-1.04497087541927,0.639666479409328,0.405304396009939
0.77230935640887,2.96654665016334,2.49499895722022,-0.471547692943119,-2.73077280369178,1.71904717155323,1.01172563213855
0.774472687939427,4.07238453920786,3.73340099226499,-0.33898354694287,-3.90289276573642,2.20568404307537,1.69720872266106
0.776636019469984,3.94488390032416,4.10596541912906,0.161081518804906,-4.02542465972661,1.89190119075963,2.13352346896698
0.778799351000541,2.7199087374776,3.48047607657861,0.760567339101016,-3.1001924070281,0.97967069918829,2.12052170783981
0.780962682531098,1.12034085213349,2.27231835577857,1.15197750364507,-1.69632960395603,-0.015818325755788,1.71214792971182
0.783126014061655,0.0830116125672191,1.24718113688016,1.16416952431294,-0.665096374723689,-0.54057895587286,1.20567533059655
0.785289345592212,0.224514588790555,1.07653302577927,0.852018436988715,-0.650523807284912,-0.31375192409908,0.964275731383992
0.787452677122769,1.49714442256342,1.94465279389908,0.447508371335658,-1.72089860823125,0.524818025613882,1.19608058261737
0.789616008653326,3.24444473713802,3.46590646895578,0.221461731817755,-3.3551756030469,1.51149150266014,1.84368410038677
0.791779340183883,4.57762772817051,4.91756330738161,0.339935579211101,-4.74759551777606,2.11884607447971,2.62874944329636
0.79394267171444,4.83658565007366,5.61559861372177,0.779012963648114,-5.22609213189772,2.02878634321277,3.19730578868494
0.796106003244997,3.92666359927651,5.24884015052743,1.32217655125092,-4.58775187490197,1.30224352401279,3.28550835088917
0.798269334775554,2.41153775368792,4.05414265750375,1.64260490381582,-3.23284020559583,0.384466424936051,2.84837378065978
0.800432666306111,1.26270308144885,2.74785192430954,1.4851488428607,-2.0052775028792,-0.111222880705924,2.11650038358512
0.802595997836668,1.32046035177882,2.1733353115809,0.85287495980208,-1.74689783167986,0.23379269598837,1.51310513569149
0.804759329367225,2.81477910285071,2.8313078882511,0.0165287854003964,-2.82304349555091,1.39912515872516,1.42391833682575
0.806922660897783,5.26858200412687,4.61464649919361,-0.653935504933258,-4.94161425166024,2.96125875453006,1.98035549713018
0.80908599242834,7.79111841461852,6.90032312503507,-0.890795289583451,-7.3457207698268,4.34095685210099,3.00476391772581
0.811249323958897,9.53090533854638,8.88876705674272,-0.642138281803653,-9.20983619764455,5.08652181017501,4.12331438746953
0.813412655489454,10.0402124016771,9.98773998588143,-0.0524724157957053,-10.0139761937793,5.04634240873642,4.96763378504286
0.815575987020011,9.48706850398619,10.085376392768,0.598307888781761,-9.78622244837707,4.44438030760222,5.34184214077486
0.817739318550568,8.64027240673033,9.61318435407992,0.972911947349587,-9.12672838040513,3.83368022969037,5.29304815071475
0.819902650081125,8.43077189124193,9.308585489194,0.87781359795207,-8.86967869021797,3.77647914664493,5.09319954357304
0.822065981611682,9.27366182566647,9.7317570058986,0.458095180232135,-9.50270941578253,4.40778332271717,5.09492609306537
0.824229313142239,10.750464279879,10.8689470605455,0.118482780666454,-10.8097056702122,5.31599074960627,5.49371492060595
0.826392644672796,11.9235077656181,12.1368853751964,0.213377609578316,-12.0301965704073,5.85506507801989,6.17513149238737
0.828555976203353,11.931378789901,12.7380267772726,0.806647987371548,-12.3347027835868,5.56236540126474,6.77233738232206
0.83071930773391,10.4137599572641,12.0850963988566,1.67133644159244,-11.2494281780604,4.37121175783585,6.87821642022452
0.832882639264467,7.66471374692176,10.1027729755942,2.43805922867242,-8.88374336125797,2.61332725912467,6.2704161021333
0.835045970795024,4.54367566387086,7.32789453034309,2.78421886647223,-5.93578509710697,0.879728398699314,5.05605669840766
0.837209302325581,2.09426306044861,4.70078903153757,2.60652597108896,-3.39752604599309,-0.256131455320173,3.65365750131326
0.839372633856138,1.02062628945745,3.06836515099758,2.04773886154013,-2.04449572022752,-0.513556286041336,2.55805200626885
0.841535965386696,1.37359946698035,2.73624166317416,1.3626421961938,-2.05492056507725,0.00547863539327409,2.04944192968398
0.843699296917253,2.6064571634675,3.38996359376546,0.783506430297962,-2.99821037861648,0.911475366584767,2.08673501203171
0.84586262844781,3.88976325957228,4.35082118716298,0.461057927590701,-4.12029222336763,1.71435266599079,2.40593955737684
0.848025959978367,4.50539555478124,4.94027924566825,0.434883690887006,-4.72283740022475,2.03525593194712,2.68758146827763
0.850189291508924,4.18359026714606,4.78782614795006,0.604235880803998,-4.48570820754806,1.78967719317103,2.69603101437703
0.852352623039481,3.26293037366437,4.0115755979283,0.748645224263925,-3.63725298579634,1.25714257470023,2.38011041109611
0.854515954570038,2.52304494074212,3.17488190101005,0.651836960267929,-2.84896342087609,0.935603990237098,1.91335943063899
0.856679286100595,2.69775480359237,2.94818905674032,0.250434253147944,-2.82297193016635,1.22366027522222,1.59931165494413
0.858842617631152,3.98582191381118,3.66731583601563,-0.318506077795547,-3.82656887491341,2.15216399580336,1.67440487911004
0.861005949161709,5.90355998875151,5.11824990643817,-0.785310082313345,-5.51090494759484,3.34443503553243,2.16646991206241
0.863169280692266,7.56122434566637,6.67323000949176,-0.887994336174614,-7.11722717757907,4.22460934092049,2.89261783665857
0.865332612222823,8.16276322555186,7.63563684212568,-0.527126383426179,-7.89920003383877,4.34494480448902,3.55425522934975
0.86749594375338,7.4096455977689,7.5737901400114,0.164144542242497,-7.49171786889015,3.6227505277632,3.86896734112695
0.869659275283937,5.65188759967302,6.53889496031962,0.887007360646606,-6.09539127999632,2.38244011951321,3.71295116048312
0.871822606814494,3.75309934854695,5.09649031472975,1.3433909661828,-4.42479483163835,1.20485419118208,3.21994064045627
0.873985938345051,2.65150672200548,4.05663132858018,1.4051246065747,-3.35406902529283,0.623191057715388,2.73087796757744
0.876149269875608,2.83812911115083,4.0042502324481,1.16612112129727,-3.42118967179947,0.836003994926784,2.58518567687268
0.878312601406166,4.11387069992631,4.97150750296197,0.85763680303566,-4.54268910144414,1.62811694844532,2.91457215299882
0.880475932936723,5.74921861611585,6.45781420716514,0.708595591049288,-6.1035164116405,2.52031151253328,3.58320489910722
0.88263926446728,6.88988814671825,7.71935244618186,0.829464299463609,-7.30462029645005,3.03021192362732,4.27440837282273
0.884802595997837,6.96563745560024,8.13981072170367,1.17417326610342,-7.55272408865196,2.89573209474841,4.65699199390355
0.886965927528394,5.96177109281007,7.53978190916342,1.57801081635336,-6.75077650098675,2.19188013822836,4.55889636275839
0.889129259058951,4.46360344749829,6.29713880185056,1.83353535435228,-5.38037112467443,1.315034046573,4.06533707810142
0.891292590589508,3.35863983372519,5.15648165660514,1.79784182287995,-4.25756074516516,0.780399005422623,3.47716173974254
0.893455922120065,3.3092029582842,4.80155221683867,1.49234925855447,-4.05537758756144,0.908426849864867,3.14695073769657
0.895619253650622,4.3679185988305,5.46751305774566,1.09959445891516,-4.91771582828808,1.63416206995767,3.28355375833041
0.897782585181179,5.9779912290897,6.8218752789094,0.843884049819707,-6.39993325399955,2.56705358963499,3.83287966436455
0.899945916711736,7.30220451175882,8.16248470136011,0.860280189601298,-7.73234460655947,3.22096216107876,4.51138244548071
0.902109248242293,7.6666242976406,8.79713974277564,1.13051544513505,-8.23188202020812,3.26805442625277,4.96382759395534
0.90427257977285,6.91221387867384,8.3953123664366,1.48309848776276,-7.65376312255522,2.71455769545554,4.93920542709968
0.906435911303407,5.51228930911793,7.17725388428073,1.6649645751628,-6.34477159669933,1.92366236697757,4.42110922972176
0.908599242833964,4.33792285954013,5.83389020183307,1.49596734229294,-5.0859065306866,1.42097775862359,3.66492877206301
0.910762574364521,4.13346015075916,5.15088749441944,1.01742734366027,-4.6421738225893,1.55801640354944,3.08415741903985
0.912925905895078,5.0644993910845,5.5586074067154,0.4941080156309,-5.31155339889995,2.2851956877268,3.02635771117315
0.915089237425636,6.65659648363635,6.89955002440018,0.242953540763835,-6.77807325401827,3.20682147143626,3.57125178258201
0.917252568956193,8.09622654449254,8.5247990373239,0.428572492831364,-8.31051279090822,3.83382702583059,4.47668576507763
0.91941590048675,8.65139124901162,9.63687688136019,0.985485632348571,-9.14413406518591,3.83295280833153,5.31118125685438
0.921579232017307,8.00432102785913,9.68963197574763,1.6853109478885,-8.84697650180338,3.15950503998532,5.68747146181806
0.923742563547864,6.4289742073037,8.6772603242942,2.2482861169905,-7.55311726579895,2.0903440451566,5.46277322064235
0.925905895078421,4.72905518283793,7.1682243892495,2.43916920641158,-5.94863978604371,1.14494298821317,4.80369679783054
0.928069226608978,3.82421472955727,5.99712721192608,2.17291248236882,-4.91067097074168,0.825651123594227,4.08501984714745
0.930232558139535,4.19816165766451,5.77498629065045,1.57682463298593,-4.98657397415748,1.31066851233929,3.67590546181819
0.932395889670092,5.63090356812108,6.558697337025,0.927793768903911,-6.09480045257304,2.35155489960859,3.74324555296445
0.934559221200649,7.36376047340403,7.88316509623326,0.519404622829228,-7.62346278481864,3.4221779252874,4.20128485953124
0.936722552731206,8.53068611934904,9.05216088513609,0.521474765787048,-8.79142350224257,4.004605676781,4.78681782546157
0.938885884261763,8.58575107018649,9.46783376940692,0.882082699220433,-9.02679241979671,3.85183418548303,5.17495823431368
0.94104921579232,7.56347030777764,8.91712012063979,1.35364981286216,-8.24029521420871,3.10491024745774,5.13538496675098
0.943212547322877,6.09778984317643,7.73263149738264,1.63484165420621,-6.91521067027954,2.23147409448511,4.68373657579443
0.945375878853434,5.09862957690828,6.64409072735157,1.54546115044329,-5.87136015212992,1.7765842132325,4.09477593889743
0.947539210383991,5.20152347487851,6.33315493115143,1.13163145627291,-5.76733920301497,2.0349460093028,3.73239319371217
0.949702541914548,6.38489753691385,7.01080802692877,0.625910490014917,-6.69785278192131,2.87949352344947,3.81835925847184
0.951865873445105,8.02202822128507,8.31674308550336,0.294714864218292,-8.16938565339422,3.86365667853339,4.30572897486083
0.954029204975663,9.26969518610554,9.55037030731708,0.280675121211544,-9.41003274671131,4.494510032447,4.91552271426431
0.95619253650622,9.49685154862703,10.0416151966539,0.544763648026901,-9.76923337264049,4.47604395030007,5.29318942234042
0.958355868036777,8.57075764630486,9.48653658902884,0.915778942723989,-9.02864711766685,3.82748935179043,5.20115776587642
0.960519199567334,6.96106298741313,8.1347819964675,1.17371900905437,-7.54792249194031,2.89367198917938,4.65425050276093
0.962682531097891,5.55374563445054,6.70287708054008,1.14913144608954,-6.12831135749531,2.2023070941805,3.92600426331481
0.964845862628448,5.15474558591706,5.97875540733648,0.824009821419423,-5.56675049662677,2.16536788224882,3.40138261437795
0.967009194159005,5.99702192107193,6.3551802514117,0.358158330339762,-6.17610108624181,2.81943179536609,3.35666929087573
0.969172525689562,7.61171583312753,7.62431278279249,0.0125969496649532,-7.61801430796001,3.79955944173129,3.81845486622872
0.971335857220119,9.12401119577936,9.12964257198766,0.00563137620829934,-9.12682688388351,4.55918990978553,4.56763697409798
0.973499188750676,9.7422706767893,10.1198886975579,0.377618020768637,-9.93107968717362,4.68232632801033,5.24875335916329
0.975662520281233,9.1432219550403,10.1155165977841,0.972294642743805,-9.62936927641221,4.08546365614825,5.54390562026396
0.97782585181179,7.63120985010349,9.16333775881023,1.53212790870674,-8.39727380445686,3.04954097069837,5.34773283375849
0.979989183342347,6.02870497848369,7.84235506694796,1.81365008846427,-6.93553002271582,2.10752744500971,4.82800257770612
0.982152514872904,5.24847882691162,6.95359260133159,1.70511377441997,-6.10103571412161,1.77168252624583,4.32935318787578
0.984315846403461,5.74892428343685,7.05921138659508,1.31028710315823,-6.40406783501597,2.21931859013931,4.18474924487666
0.986479177934018,7.26076336706822,8.1674601026682,0.906696735599979,-7.71411173486821,3.17703331573412,4.53707841913409
0.988642509464575,8.96490191302757,9.74767707907603,0.782775166048452,-9.3562894960518,4.09106337348956,5.26522612256224
0.990805840995132,9.9643767191416,11.0224328925589,1.05805617341727,-10.4934048058502,4.45316027286216,6.04024453298807
0.99296917252569,9.73774114681953,11.3511138625766,1.61337271575709,-10.5444275046981,4.06218421553122,6.48224328916686
0.995132504056247,8.38904383625135,10.5532917339383,2.16424789768695,-9.47116778509482,3.1123979692822,6.35876981581262
0.997295835586804,6.62999835069979,9.04556385387778,2.41556550317799,-7.83778110228879,2.1072164237609,5.73056467852788
0.999459167117361,5.42329771309576,7.65766461118687,2.23436689809111,-6.54048116214132,1.59446540750233,4.94601575463899
1.00162249864792,5.43170323123823,7.15794637180238,1.72624314056415,-6.29482480152031,1.85273004533704,4.44209475618327
1.00378583017847,6.65128004669197,7.8000702797988,1.14879023310684,-7.22567516324538,2.75124490679256,4.47443025645282
1.00594916170903,8.45251107484904,9.20705950766694,0.754548432817899,-8.82978529125799,3.84898132101557,4.98080397024242
1.00811249323959,9.94743504638376,10.6164710378262,0.669035991442428,-10.281953042105,4.63919952747067,5.64275351463431
1.01027582477015,10.4332457645451,11.2955122633381,0.862266498792906,-10.8643790139416,4.78548963287612,6.07888938106548
1.0124391563007,9.72158502428846,10.9085314067838,1.18694638249536,-10.3150582155361,4.26731932089655,6.04773889463959
1.01460248783126,8.27808125442567,9.69352058049995,1.41543932607428,-8.98580091746281,3.4313209641757,5.55447995328711
1.01676581936182,7.02710537674159,8.36504469737019,1.33793932062861,-7.69607503705589,2.84458302805649,4.8514920089994
1.01892915089237,6.79680928987051,7.72777638244406,0.930967092573553,-7.26229283615729,2.93292109864848,4.32937173750881
1.02109248242293,7.78655964235392,8.19806079892422,0.411501156570296,-7.99231022063907,3.68752924289181,4.30478097774726
1.02325581395349,9.47476888721221,9.56495678118134,0.0901878939691301,-9.51986283419677,4.69229049662154,4.82757233757523
1.02541914548405,10.9716122298576,11.1381012489126,0.166489019055064,-11.0548567393851,5.40256160540125,5.65229513398384
1.0275824770146,11.501154989297,12.1389232844803,0.637768295183321,-11.8200391368886,5.43169334705682,6.3883457898318
1.02974580854516,10.7573191891394,12.0840402331949,1.32672104405549,-11.4206797111672,4.71529907254197,6.7053806386252
1.03190914007572,9.07468252663909,11.0149909399466,1.94030841330755,-10.0448367332929,3.56718705666577,6.4776496766271
1.03407247160627,7.32347721739299,9.5133541703326,2.18987695293961,-8.4184156938628,2.56680013222669,5.85161556163611
1.03623580313683,6.45339173953653,8.42821535489395,1.97482361535742,-7.44080354721524,2.23928406208955,5.20151948512569
1.03839913466739,6.93626815707944,8.38765668361097,1.45138852653153,-7.6619624203452,2.74243981527395,4.91952260507125
1.04056246619794,8.51041837004891,9.42227733651288,0.911858966463967,-8.96634785328089,3.79927970179247,5.16706815148842
1.0427257977285,10.3584700725784,10.9737821357156,0.615312063137225,-10.666126104147,4.87157900472059,5.79454709942642
1.04488912925906,11.5439130562854,12.2283839665619,0.684470910276502,-11.8861485114236,5.42972107300443,6.45642743841918
1.04705246078962,11.4697076054763,12.5380899286168,1.06838232314041,-12.0038987670466,5.20066264116797,6.80323612587858
1.04921579232017,10.1887883309461,11.7393861686916,1.55059783774547,-10.9640872498188,4.31909524660031,6.64499200321852
1.05137912385073,8.41417612233681,10.2553513589238,1.84117523658696,-9.33476374063029,3.28650044287492,6.04826329775537
1.05354245538129,7.14923109735147,8.9045058010619,1.75527470371043,-8.02686844920669,2.69697819682052,5.32989025238616
1.05570578691184,7.10612592404237,8.43495465085286,1.32882872681049,-7.77054028744762,2.88864859861594,4.88189168883167
1.0578691184424,8.28905886457224,9.05630244431549,0.767243579743251,-8.67268065444387,3.76090764241449,4.91177301202937
1.06003244997296,10.0214079357045,10.3394830901413,0.318075154436769,-10.1804455129229,4.85166639063388,5.32877912228903
1.06219578150352,11.3578538567077,11.5227116896364,0.164857832928703,-11.440282773172,5.59649801188948,5.84378476128254
1.06435911303407,11.5765340939488,11.930951677777,0.354417583828166,-11.7537428858629,5.61105825506031,6.14268463080256
1.06652244456463,10.511498715883,11.2796137577997,0.76811504191673,-10.8955562368413,4.87169183698312,6.02386439985821
1.06868577609519,8.65726065667138,9.81452953874225,1.15726888207087,-9.23589509770682,3.74999588730026,5.48589921040656
1.07084910762574,6.96312739289883,8.22594806669483,1.262820673796,-7.59453772979683,2.85015335955141,4.74438437024541
1.0730124391563,6.30746033280161,7.29657206986812,0.989111737066509,-6.80201620133487,2.65917429786755,4.14284190346731
1.07517577068686,6.97298544100394,7.46410099916022,0.491115558156281,-7.21854322008208,3.24093494142383,3.97760827865825
1.07733910221741,8.50762883225977,8.57799753111797,0.0703686988582035,-8.54281318168887,4.21863006670078,4.32418311498809
1.07950243374797,10.021861969672,9.99044178638596,-0.0314201832860022,-10.006151878029,5.02664107647898,4.97951080154998
1.08166576527853,10.6667361426745,10.9099676102018,0.243231467527266,-10.7883518764381,5.21175233757361,5.57659953886451
1.08382909680909,10.0258672874037,10.8105663083746,0.784699020970919,-10.4182167978891,4.62058413321637,5.79763266467275
1.08599242833964,8.33836774891321,9.71016998849774,1.37180223958453,-9.02426886870548,3.48328275466434,5.54098611404113
1.0881557598702,6.44052008034609,8.1787734983358,1.73825341798971,-7.30964678934095,2.35113333117819,4.95851345816276
1.09031909140076,5.30542330237134,7.01712375124055,1.71170044886921,-6.16127352680594,1.79686142675106,4.36441210005488
1.09248242293131,5.45682978290634,6.78985781061635,1.33302802771001,-6.12334379676135,2.06190087759816,4.06144291916318
1.09464575446187,6.69937115893021,7.53280385400205,0.833432695071849,-7.11608750646613,2.93296923192918,4.18311827453695
1.09680908599243,8.27612091970556,8.78291445140948,0.50679353170392,-8.52951768555752,3.88466369400082,4.6448539915567
1.09897241752299,9.29092881098373,9.84033493406289,0.549406123079166,-9.56563187252331,4.37076134395228,5.19487052857103
1.10113574905354,9.16562661492409,10.1067301931701,0.941103578246015,-9.6361784040471,4.11226151833904,5.52391688570806
1.1032990805841,7.94125982678563,9.39513328956446,1.45387346277883,-8.66819655817504,3.2436931820034,5.42450337617164
1.10546241211466,6.2755932875186,8.07057522505724,1.79498193753864,-7.17308425628792,2.24030567498998,4.93277858129794
1.10762574364521,5.06496633024616,6.86488557905912,1.79991924881296,-5.96492595465264,1.6325235407166,4.33240241393604
1.10978907517577,4.90398566283346,6.43471059896416,1.5307249361307,-5.66934813089881,1.68663036335138,3.98271776754743
1.11195240670633,5.76683677696786,6.97585099348132,1.20901421651345,-6.37134388522459,2.27891128022721,4.09243260499738
1.11411573823688,7.08030299812472,8.14782611307828,1.06752311495356,-7.6140645556015,3.00638994158558,4.60767461401592
1.11627906976744,8.0725329955155,9.29538094291189,1.22284794739639,-8.6839569692137,3.42484252405956,5.25911444515414
1.118442401298,8.16105613494224,9.78525695341466,1.62420081847242,-8.97315654417845,3.26842765823491,5.70472888594354
1.12060573282856,7.23330794786986,9.30965641319253,2.07634846532267,-8.27148218053119,2.5784797412736,5.6930024392576
1.12276906435911,5.75328271424698,8.07048088769341,2.31719817344643,-6.91188180097019,1.71804227040028,5.19383953056992
1.12493239588967,4.55006022055096,6.71888727080827,2.16882705025731,-5.63447374567961,1.19061658514683,4.44385716053279
1.12709572742023,4.32704311890629,5.99555195496799,1.6685088360617,-5.16129753693714,1.32926714142229,3.83203039551485
1.12925905895078,5.25034450909854,6.29600702412938,1.04566251503084,-5.77317576661396,2.10234099703385,3.67083476958011
1.13142239048134,6.87323563916806,7.46720596484494,0.593970325676878,-7.1702208020065,3.13963265674559,4.03058814526091
1.1335857220119,8.39177889607606,8.90838352387081,0.516604627794749,-8.65008120997344,3.93758713414066,4.71249407583278
1.13574905354246,9.06897677948359,9.87016604240463,0.801189262921042,-9.46957141094411,4.13389375828127,5.33567765266284
1.13791238507301,8.59032474805414,9.82914723383809,1.23882248578394,-9.20973599094611,3.6757511311351,5.53398485981101
1.14007571660357,7.23129119152424,8.79565078673292,1.56435959520869,-8.01347098912858,2.83346579815777,5.1800051909708
1.14223904813413,5.76983913695148,7.35028839706956,1.58044926011809,-6.56006376701052,2.09469493841669,4.46536882859382
1.14440237966468,5.07292102633562,6.30935150878051,1.23643048244489,-5.69113626755806,1.91824527194537,3.7728909956127
1.14656571119524,5.56731082953763,6.23692222613522,0.669611396597588,-5.90211652783643,2.44884971647002,3.4532668113664
1.1487290427258,6.98625342031889,7.14605192182668,0.159798501507794,-7.06615267107279,3.41322745940555,3.65292521166724
1.15089237425635,8.55058808024441,8.52650980232562,-0.0240782779187896,-8.53854894128501,4.2873331790816,4.25121576220342
1.15305570578691,9.42686331577218,9.62789689143182,0.201033575659636,-9.527380103602,4.61291487005627,4.91446523354573
1.15521903731747,9.15267989862745,9.83958163606954,0.686901737442085,-9.4961307673485,4.23288908059268,5.26324168675581
1.15738236884803,7.84601876715823,9.0078639653936,1.16184519823537,-8.42694136627591,3.34208678446143,5.08485458181448
1.15954570037858,6.17109128315545,7.55030509413811,1.37921381098266,-6.86069818864678,2.39593873608639,4.46475945256039
1.16170903190914,5.0064674485473,6.24333938699758,1.23687193845028,-5.62490341777244,1.88479775504851,3.74010566272393
1.1638723634397,4.9344673902222,5.76615544105755,0.831688050835353,-5.35031141563987,2.05138966969342,3.29892174594645
1.16603569497025,5.91833411636014,6.32212649986764,0.403792383507493,-6.12023030811389,2.75727086642632,3.36295944168756
1.16819902650081,7.37281433088238,7.56073921947143,0.187924888589052,-7.4667767751769,3.59244472114666,3.87433205403024
1.17036235803137,8.5076393654758,8.78620633148117,0.278566966005371,-8.64692284847848,4.11453619973521,4.53238664874327
1.17252568956193,8.71451806138326,9.31833585865274,0.603817797269485,-9.016426960018,4.05535013205689,4.96107682796112
1.17468902109248,7.85833976385115,8.83654459883815,0.978204834986997,-8.34744218134465,3.44006746443208,4.90737471691257
1.17685235262304,6.39082872149237,7.56597499293997,1.1751462714476,-6.97840185721617,2.60784122502238,4.37056063219379
1.1790156841536,5.14972302320855,6.18700520495969,1.03728218175114,-5.66836411408412,2.05622042072871,3.61214369335541
1.18117901568415,4.86570459591415,5.45310539630924,0.587400800395088,-5.1594049961117,2.13915189775953,3.02025309835216
1.18334234721471,5.72348130105034,5.75148613850271,0.0280048374523716,-5.73748371977653,2.84773823179898,2.88974548797754
1.18550567874527,7.27865342478404,6.90611941838151,-0.372534006402532,-7.09238642158277,3.82559371559329,3.26679270598949
1.18766901027582,8.71855905017206,8.30795324994986,-0.4106058002222,-8.51325615006096,4.56458242519713,3.94867372486383
1.18983234180638,9.28112306815875,9.24950959842016,-0.0316134697385877,-9.26531633328946,4.65636826894867,4.60894806434079
1.19199567333694,8.62988093555535,9.27135256704821,0.641471631492863,-8.95061675130178,3.99420465203124,4.95641209927054
1.1941590048675,7.04972405142387,8.38741990403551,1.33769585261165,-7.71857197772969,2.85601409940611,4.86255787832358
1.19632233639805,5.34552124815593,7.10357111357516,1.75804986541922,-6.22454618086554,1.79373569136835,4.43081048949719
1.19848566792861,4.40100288498573,6.15862439036255,1.75762150537682,-5.27981363767414,1.32169068980446,3.95812294786968
1.20064899945917,4.66443559841203,6.0941120054776,1.42967640706557,-5.37927380194481,1.61737959567323,3.76189420627158
1.20281233098972,5.9330547632163,6.94172998920695,1.00867522599064,-6.43739237621163,2.46218976861283,3.9752026075988
1.20497566252028,7.51093988202614,8.22581685836596,0.714876976339823,-7.86837837019605,3.39803145284316,4.47034691735289
1.20713899405084,8.57272911979619,9.23796010139436,0.665230981598171,-8.90534461059528,3.95374906909901,4.95159554149627
1.2093023255814,8.55820592926389,9.40546647390639,0.847260544642495,-8.98183620158514,3.8554726923107,5.12636350927444
1.21146565711195,7.47827916240411,8.58527444827334,1.10699528586923,-8.03177680533872,3.18564193826744,4.84613486707129
1.21362898864251,5.96559653071917,7.16397315706331,1.19837662634414,-6.56478484389124,2.38360995218751,4.18117489170373
1.21579232017307,4.92336914845438,5.87410770249573,0.950738554041351,-5.39873842547506,1.98631529720652,3.41242312826854
1.21795565170362,4.96377363585123,5.37667696006562,0.412903324214398,-5.17022529795842,2.27543515581841,2.89479014214001
1.22011898323418,6.0545426251585,5.88151630036376,-0.173026324794748,-5.96802946276113,3.11378447497663,2.8542449877845
1.22228231476474,7.57280681813181,7.05301412591444,-0.519792692217365,-7.31291047202313,4.04629975517459,3.26661071684854
1.22444564629529,8.6747576948505,8.21621303603663,-0.458544658813864,-8.44548536544357,4.56665117683218,3.87883418861139
1.22660897782585,8.74789178032727,8.71627269866855,-0.0316190816587181,-8.73208223949791,4.38975543099299,4.34232680850491
1.22877230935641,7.71635190735361,8.24897896792103,0.532627060567421,-7.98266543763732,3.5918624233931,4.39080301424423
1.23093564088697,6.09435636640808,7.03684807418499,0.942491707776909,-6.56560222029653,2.57593232931558,3.98966989098095
1.23309897241752,4.74014604832179,5.74831296110945,1.00816691278766,-5.24422950471562,1.86598956776707,3.37823993694855
1.23526230394808,4.37527361653609,5.12751453334022,0.752240916804126,-4.75139407493815,1.81151634986598,2.93987772507217
1.23742563547864,5.16746169715998,5.55242648430378,0.384964787143801,-5.35994409073188,2.39124845500809,2.96869563572379
1.23958896700919,6.64970307194287,6.82759224406149,0.177889172118626,-6.73864765800218,3.23590694991212,3.50274070809006
1.24175229853975,7.99368293010946,8.30914948243885,0.315466552329397,-8.15141620627416,3.83910818889003,4.31230801738413
1.24391563007031,8.45284733369294,9.25280698274572,0.799959649052781,-8.85282715821933,3.82644384232008,5.02638331589925
1.24607896160087,7.73338772557113,9.18893002801309,1.45554230244196,-8.46115887679211,3.13892271156459,5.32223616522752
1.24824229313142,6.16221209072643,8.16487801758008,2.00266592685365,-7.16354505415325,2.07977308193639,5.08377197221687
1.25040562466198,4.56032260666308,6.7460693090169,2.18574670235382,-5.65319595783999,1.18728795215463,4.46590800568536
1.25256895619254,3.79376775083421,5.71444603675728,1.92067828592307,-4.75410689379574,0.936544732455566,3.81756216134018
1.25473228772309,4.27340074992453,5.61896690846022,1.34556615853569,-4.94618382919238,1.46391729569442,3.48226653349796
1.25689561925365,5.74769827358756,6.48711619986445,0.739417926276886,-6.117407236726,2.50414017365534,3.61326706307067
1.25905895078421,7.46622817169155,7.84707298632691,0.380844814635353,-7.65665057900923,3.5426916785281,4.11395890048113
1.26122228231476,8.57874201532667,8.98835794665594,0.40961593132927,-8.7835499809913,4.0845630419987,4.6989869389926
1.26338561384532,8.55789148050999,9.30596720256288,0.748075722052889,-8.93192934153644,3.90490787922855,5.02702146230789
1.26554894537588,7.46401612459324,8.60109579906444,1.1370796744712,-8.03255596182884,3.16346822506102,4.86908773676782
1.26771227690644,5.93599119977469,7.22734327325375,1.29135207347906,-6.58166723651422,2.32231956314781,4.25934767336641
1.26987560843699,4.85763252271866,5.9322269099968,1.07459438727814,-5.39492971635773,1.89151906772026,3.50341064863747
1.27203893996755,4.84383618619373,5.41122301028355,0.567386824089823,-5.12752959823864,2.13822468105195,2.98930491718669
1.27420227149811,5.87852332640796,5.89194309704538,0.0134197706374266,-5.88523321172667,2.93255177788527,2.95268143384141
1.27636560302866,7.34358987153455,7.03480500377097,-0.308784867763578,-7.18919743765276,3.82618736964906,3.3630100680037
1.27852893455922,8.39301794441128,8.15254552826956,-0.240472416141728,-8.27278173634042,4.31674518027651,3.95603655606391
1.28069226608978,8.409733609943,8.58401772674419,0.174284116801189,-8.4968756683436,4.11772474657091,4.37915092177269
1.28285559762034,7.30995384474527,8.04021077596387,0.730256931218605,-7.67508231035457,3.28984845676333,4.38523385359124
1.28501892915089,5.60757386265101,6.7738986338094,1.16632477115839,-6.1907362482302,2.22062454574631,3.97011170248389
1.28718226068145,4.17400031158007,5.46371494644639,1.28971463486631,-4.81885762901323,1.44214283835688,3.37671479065635
1.28934559221201,3.75223266870125,4.83079527020695,1.07856260150569,-4.2915139694541,1.33683503359778,2.95467893585632
1.29150892374256,4.53392358599864,5.21697075627594,0.683047170277305,-4.87544717113729,1.92543820786067,2.95000896327662
1.29367225527312,6.06479230871322,6.39750702691052,0.332714718197295,-6.23114966781187,2.86603879525796,3.36511087255391
1.29583558680368,7.50081284469618,7.72814736481048,0.227334520114297,-7.61448010475333,3.63673916229094,3.97774094246239
1.29799891833423,8.05316256719993,8.50137725816288,0.448214690962942,-8.2772699126814,3.8024739381185,4.47479597456291
1.30016224986479,7.38721427328491,8.29282248224685,0.905608208961937,-7.84001837776588,3.24080303216149,4.59921534560439
1.30232558139535,5.81263304473568,7.17617008699709,1.36353704226141,-6.49440156586638,2.22454800123713,4.26985356462925
1.30448891292591,4.15260154353507,5.72409344359421,1.57149190005914,-4.93834749356464,1.29055482173796,3.64779267182668
1.30665224445646,3.28894341451239,4.7143784042226,1.42543498971021,-4.00166090936749,0.931754212401088,3.06990669696641
1.30881557598702,3.66022547661666,4.68336377894798,1.02313830233132,-4.17179462778232,1.31854358714267,2.85325104063965
1.31097890751758,5.04436554790072,5.63588469668342,0.591519148782695,-5.34012512229207,2.22642319955902,3.11370192273306
1.31314223904813,6.70712061248234,7.06260862428977,0.355488011807424,-6.88486461838605,3.17581630033746,3.70904831804859
1.31530557057869,7.79104288706354,8.2120229749295,0.420980087865956,-8.00153293099652,3.68503139959879,4.31650153139773
1.31746890210925,7.7434296051221,8.48190043807143,0.738470832949332,-8.11266502159677,3.50247938608639,4.61018563551038
1.31963223363981,6.6077477985571,7.74157948602749,1.13383168747039,-7.17466364229229,2.73695805554335,4.43770558674894
1.32179556517036,5.03474844267033,6.41544869564535,1.38070025297502,-5.72509856915784,1.82702409484766,3.89807447431019
1.32395889670092,3.92321652437654,5.26615799650347,1.34294147212692,-4.59468726044,1.29013752612481,3.3045497343152
1.32612222823148,3.87486751745394,4.9658823671499,1.09101484969597,-4.42037494230192,1.39192633387898,3.02844860842293
1.32828555976203,4.85862737660842,5.70818258954007,0.849555212931648,-5.28340498307425,2.00453608183839,3.27886890123586
1.33044889129259,6.28324099262169,7.10740916436696,0.824168171745271,-6.69532507849432,2.72953641043821,3.96578866805611
1.33261222282315,7.35705990703424,8.41965006617143,1.06259015913719,-7.88835498660283,3.14723487394853,4.74112011265431
1.3347755543537,7.4880968040801,8.93047388757806,1.44237708349796,-8.20928534582908,3.02285986029107,5.18642548553801
1.33693888588426,6.56160141992915,8.3203382868053,1.75873686687615,-7.44096985336722,2.4014322765265,5.03953757684072
1.33910221741482,5.02982137311785,6.8627540604439,1.83293268732605,-5.94628771678088,1.5984443428959,4.34784337388498
1.34126554894538,3.71647317183009,5.31289186396309,1.596418692133,-4.51468251789659,1.06002723984854,3.45465527804804
1.34342888047593,3.35208695695154,4.47982924815933,1.1277422912078,-3.91595810255544,1.11217233287187,2.80378576968356
1.34559221200649,4.1406272298903,4.76977150227846,0.62914427238816,-4.45519936608438,1.75574147875107,2.69945788733331
1.34775554353705,5.65869992150948,5.99581181865771,0.337111897148233,-5.8272558700836,2.66079401218062,3.16646185790297
1.3499188750676,7.10902081990773,7.49705021849395,0.388029398586227,-7.30303551920084,3.36049571066075,3.94253980854009
1.35208220659816,7.72931273127939,8.47439744291586,0.745084711636466,-8.10185508709763,3.49211400982146,4.60974107727616
1.35424553812872,7.15400319930579,8.3950666467052,1.24106344739941,-7.7745349230055,2.95646987595319,4.81806504705231
1.35640886965928,5.63395646884436,7.27494517161992,1.64098870277556,-6.45445082023214,1.9964838830344,4.45796693719774
1.35857220118983,3.96912277380815,5.68240445525402,1.71328168144586,-4.82576361453108,1.12792054618114,3.69784306834994
1.36073553272039,3.06128243704913,4.42200769346609,1.36072525641696,-3.74164506525761,0.850278590316087,2.89136647494152
1.36289886425095,3.37131662675978,4.07045153251285,0.69913490575307,-3.72088407963631,1.33609086050335,2.38479321913296
1.3650621957815,4.68151921035475,4.67254898373014,-0.00897022662461211,-4.67703409704244,2.34524471848968,2.33178937855276
1.36722552731206,6.26060276320042,5.76239223185098,-0.498210531349436,-6.0114974975257,3.37940664727493,2.63209085025077
1.36938885884262,7.26472525723319,6.64168774717878,-0.623037510054409,-6.95320650220598,3.9438813836438,3.00932511856218
1.37155219037317,7.14928449923267,6.74727300774373,-0.402011491488942,-6.9482787534882,3.77564799536081,3.17263075812739
1.37371552190373,5.94986637089774,5.95561129140381,0.00574492050607489,-5.95273883115077,2.97206072519583,2.98067810595494
1.37587885343429,4.30554066934474,4.68064064602775,0.375099976683011,-4.49309065768625,1.96522034633087,2.52787031135538
1.37804218496485,3.11734828972371,3.65073017029394,0.533381880570232,-3.38403923000882,1.29198320457674,2.09205602543209
1.3802055164954,3.02078603941487,3.47148446013986,0.45069842072499,-3.24613524977737,1.28504380934494,1.96109144043243
1.38236884802596,4.03778242556927,4.28182935585406,0.244046930284789,-4.15980589071166,1.89686774764224,2.26293814306942
1.38453217955652,5.58769120243533,5.69677149730535,0.109080294870019,-5.64223134987034,2.73930545378266,2.90292589608768
1.38669551108707,6.81477593089296,7.01624300031705,0.201467069424091,-6.915509465605,3.30665443073443,3.60885503487057
1.38885884261763,7.04890183673341,7.5744284834261,0.52552664669269,-7.31166516007976,3.26168759502036,4.0499775650594
1.39102217414819,6.14774848155305,7.07294073125122,0.925192249698171,-6.61034460640214,2.61127811592744,3.9990664904747
1.39318550567875,4.57299977584534,5.75614975096529,1.18314997511995,-5.16457476340532,1.69492490036269,3.46964986304262
1.3953488372093,3.15762294015402,4.30858457877642,1.1509616386224,-3.73310375946522,1.00333065076581,2.72977310869941
1.39751216873986,2.63304320139895,3.48111868965917,0.848075488260221,-3.05708094552906,0.892483856569363,2.1645970889597
1.39967550027042,3.20487922563854,3.67380705158013,0.468927825941591,-3.43934313860933,1.36797569984847,2.07136743876086
1.40183883180097,4.46083237010832,4.72829191364751,0.267459543539189,-4.59456214187792,2.09668641328457,2.49787572859335
1.40400216333153,5.63172769481569,6.02545905869965,0.393731363883958,-5.82859337675767,2.61899816546587,3.20959521129181
1.40616549486209,6.01679208762428,6.82853441220023,0.811742324575945,-6.42266324991225,2.60252488152417,3.82013836838809
1.40832882639264,5.33851306135595,6.67381596788492,1.33530290652897,-6.00616451462043,2.00160507741349,4.00455943720695
1.4104921579232,3.89295115175881,5.61338442428379,1.72043327252499,-4.7531677880213,1.08625893961691,3.66690884840439
1.41265548945376,2.42059304908586,4.21209260618024,1.79149955709438,-3.31634282763305,0.314546745995742,3.00179608163731
1.41481882098432,1.70135149610718,3.24871158963278,1.5473600935256,-2.47503154286998,0.0769957012907909,2.39803584157919
1.41698215251487,2.10975585597774,3.25866730736062,1.14891145138289,-2.68421158166918,0.480422202297426,2.20378937937176
1.41914548404543,3.41644421246298,4.23950384417623,0.823059631713249,-3.8279740283196,1.29669229037486,2.53128173794474
1.42130881557599,4.92772138691805,5.68170671073248,0.753985323814433,-5.30471404882527,2.08686803155181,3.21784601727346
1.42347214710654,5.86175310288805,6.84921480878476,0.987461705896706,-6.35548395583641,2.43714569849567,3.91833825734073
1.4256354786371,5.7399146004802,7.14547509285698,1.40556049237678,-6.44269484666859,2.16717705405171,4.27551779261688
1.42779881016766,4.63018093544149,6.41067474983048,1.78049381438899,-5.52042784263599,1.42484356052625,4.09558428210974
1.42996214169822,3.15756747614405,5.03848417228154,1.8809166961375,-4.09802582421279,0.638325390003274,3.45970043420952
1.43212547322877,2.18367852586489,3.7945324443947,1.61085391852981,-2.9891054851298,0.286412303667539,2.70269318146226
1.43428880475933,2.28862029573239,3.36866080910846,1.08004051337607,-2.82864055242043,0.604289891178162,2.22435066124227
1.43645213628989,3.4408797103674,3.97132318856642,0.530443478199025,-3.70610144946691,1.45521811608419,2.25088333338272
1.43861546782044,5.05005083889047,5.24318337684621,0.193132537955741,-5.14661710786834,2.42845915046736,2.71815795740098
1.440778799351,6.29389356175088,6.47558476172779,0.181691199976903,-6.38473916173934,3.05610118088699,3.32863798085235
1.44294213088156,6.52596777008102,6.99046780511197,0.464500035030952,-6.75821778759649,3.03073386752503,3.72748392007146
1.44510546241211,5.60342807060449,6.49355873441481,0.890130663810325,-6.04849340250965,2.35664870339708,3.69184469911257
1.44726879394267,4.00323171994477,5.24764901252806,1.24441729258329,-4.62544036623641,1.37940721368074,3.24603315255567
1.44943212547323,2.59607777203317,3.96271721650024,1.36663944446708,-3.27939749426671,0.614719163783047,2.66467833048366
1.45159545700379,2.13939326760169,3.40267103366597,1.26327776606428,-2.77103215063383,0.438057750768706,2.33297439986512
1.45375878853434,2.84499542230132,3.9354349595467,1.09043953724538,-3.39021519092401,0.877277942527968,2.51293724839604
1.4559221200649,4.30883533780455,5.3313465965096,1.02251125870504,-4.82009096715707,1.64316203954975,3.17692892760732
1.45808545159546,5.77637606548244,6.91949907208878,1.14312300660634,-6.34793756878561,2.31662652943805,4.03131103934756
1.46024878312601,6.54228631774461,7.97113788354411,1.4288515657995,-7.25671210064436,2.55671737597256,4.6999947246718
1.46241211465657,6.29556426365402,8.06903250138733,1.77346823773331,-7.18229838252068,2.26104801296036,4.92125036956032
1.46457544618713,5.32252516470651,7.31328452820055,1.99075936349405,-6.31790484645353,1.66588290060623,4.6520219458473
1.46673877771769,4.4470461102027,6.31512066111108,1.86807455090838,-5.38108338565689,1.28948577964716,4.09159760600973
1.46890210924824,4.58307988451828,5.91866832988573,1.33558844536745,-5.25087410720201,1.62374571957542,3.62712838762659
1.4710654407788,6.13614639049403,6.71433545130983,0.578189060815795,-6.42524092090193,2.77897866483912,3.64626225606281
1.47322877230936,8.72491936644143,8.65505510620717,-0.0698642602342545,-8.6899872363243,4.39739181333784,4.29259542298646
1.47539210383991,11.385022251865,11.0636984910362,-0.32132376082879,-11.2243603714506,5.8531730063469,5.37118736510372
1.47755543537047,13.0439858356064,12.9785551044884,-0.0654307311180702,-13.0112704700474,6.55470828336225,6.45656218668515
1.47971876690103,12.9962518201346,13.5929715418244,0.596719721689787,-13.2946116809795,6.19976604922239,7.09484563175707
1.48188209843158,11.2251547908273,12.6281241986195,1.40296940779216,-11.9266394947234,4.91109269151758,7.01554680320581
1.48404542996214,8.46296204507379,10.4962855093445,2.03332346427076,-9.47962377720917,3.21481929040151,6.26480448680765
1.4862087614927,5.85588099566466,8.10497804167724,2.24909704601258,-6.98042951867095,1.80339197482604,5.17703754384491
1.48837209302326,4.31853012629735,6.35601112087188,2.03748099457454,-5.33727062358462,1.1405245658614,4.19674605772321
1.49053542455381,4.03066091060818,5.65144338939113,1.62078247878294,-4.84105214999965,1.20493921591262,3.63611293408703
1.49269875608437,4.46169453488793,5.73569919241347,1.27400465752554,-5.0986968636507,1.5938449386812,3.5048519249695
1.49486208761493,4.80269490085799,5.94354735669476,1.14085245583678,-5.37312112877638,1.8309212225106,3.54219990626577
1.49702541914548,4.42937464853271,5.63444398848826,1.20506933995554,-5.03190931851049,1.61215265428859,3.4197566642219
1.49918875067604,3.20837241178,4.5457768206022,1.3374044088222,-3.8770746161911,0.935484001478898,2.9415906147122
1.5013520822066,1.58267091125754,2.93118380523502,1.34851289397747,-2.25692735824628,0.117079008640037,2.13984834960624
1.50351541373716,0.329252844829483,1.4254845058079,1.09623166097842,-0.877368675318692,-0.383489408074468,1.26085808339316
1.50567874526771,0.0885620977679409,0.678224442804051,0.58966234503611,-0.383393270285996,-0.250550123634085,0.633943393920081
1.50784207679827,1.00495738247916,0.987787703287623,-0.0171696791915394,-0.996372542883392,0.511063530835351,0.485309012048042
1.51000540832883,2.66362665744276,2.15526691553519,-0.508359741907576,-2.40944678648897,1.58599319967517,0.823453586813805
1.51216873985938,4.2861491999021,3.59098604831009,-0.695163151592013,-3.93856762410609,2.49065617574706,1.44791144835904
1.51433207138994,5.08540445560965,4.59994319689078,-0.485461258718871,-4.84267382625021,2.78543285716426,2.05724096908595
1.5164954029205,4.65277854599196,4.71181639745701,0.059037851465046,-4.68229747172448,2.29687034726346,2.38542712446103
1.51865873445105,3.22098313997059,3.91669094770163,0.69570780773104,-3.56883704383611,1.26263766611978,2.30619937771634
1.52082206598161,1.58465616270386,2.69844638345241,1.11379022074855,-2.14155127307813,0.235432970977655,1.90611830210048
1.52298539751217,0.628168218134796,1.78496217182403,1.15679395368924,-1.20656519497942,-0.264312867777221,1.47087806275664
1.52514872904273,0.804006401100224,1.72282029247118,0.918813891370952,-1.2634133467857,-0.0574037451353639,1.32081709192106
1.52731206057328,1.92269709572279,2.57187245591786,0.649175360195066,-2.24728477582032,0.636760867763861,1.61052390805646
1.52947539210384,3.29976316466556,3.89903140316125,0.599268238495689,-3.5993972839134,1.35024746308493,2.24914982082847
1.5316387236344,4.13142205547874,5.02064927869817,0.889227223219429,-4.57603566708846,1.62109741612966,2.9549382509588
1.53380205516495,3.91659332084207,5.34745609683618,1.4308627759941,-4.63202470883912,1.24286527242398,3.38915943641514
1.53596538669551,2.7394685145987,4.69127627797264,1.95180776337394,-3.71537239628567,0.393830375612378,3.32154202067329
1.53812871822607,1.25899234591468,3.40353425270063,2.14454190678595,-2.33126329930766,-0.442774780435634,2.77403807974329
1.54029204975663,0.341270858580071,2.21195511608932,1.87068425750925,-1.2766129873347,-0.76470669946459,2.04131968679929
1.54245538128718,0.547647390971232,1.78455934706918,1.23691195609795,-1.16610336902021,-0.34463228256336,1.51073565158357
1.54461871281774,1.834791683295,2.33406563221148,0.499273948916485,-2.08442865775324,0.667758867189256,1.41666979056398
1.5467820443483,3.59892552396084,3.53325628398635,-0.0656692399744898,-3.5660909039736,1.83229738196767,1.73379352200593
1.54894537587885,4.98573438171459,4.71564731157319,-0.270087070141397,-4.85069084664389,2.62791072592799,2.2227801207159
1.55110870740941,5.31432781761504,5.21969811851987,-0.0946296990951723,-5.26701296806745,2.70447875835511,2.56253420971235
1.55327203893997,4.43399149225001,4.73425772360315,0.300266231353138,-4.58412460792658,2.06686263044844,2.51726197747814
1.55543537047052,2.84350924026656,3.48533544787938,0.641826207612812,-3.16442234407297,1.10084151632688,2.06358082774609
1.55759870200108,1.43720759812956,2.13889147596041,0.701683877830849,-1.78804953704498,0.367761860149354,1.42028767689563
1.55976203353164,0.978599560572476,1.43340026084231,0.454800700269832,-1.20599991070739,0.261899430151322,0.94410048055607
1.5619253650622,1.67335729730829,1.75997275148649,0.0866154541782045,-1.71666502439739,0.793370921565042,0.923294102832349
1.56408869659275,3.09967043414271,2.94994411530019,-0.149726318842518,-3.02480727472145,1.62469837649262,1.40010889822884
1.56625202812331,4.45867704284454,4.37810505897615,-0.0805719838683885,-4.41839105091034,2.26962451335646,2.14876653755388
1.56841535965387,4.98034070355923,5.30528539377923,0.324944690220001,-5.14281304866923,2.32769800666961,2.81511504199961
1.57057869118442,4.3166387114661,5.25168284437682,0.935044132910718,-4.78416077792146,1.69079728927769,3.09336348864377
1.57274202271498,2.7577612235426,4.22933130867172,1.47157008512912,-3.49354626610716,0.643095569206741,2.85045069690042
1.57490535424554,1.11342922387749,2.7551808054146,1.64175158153711,-1.93430501464605,-0.264161178829813,2.19846619347586
1.5770686857761,0.257143950425522,1.59164937661725,1.33450542619173,-0.924396663521385,-0.538680737883102,1.46307740140449
1.57923201730665,0.62311776108276,1.31419998160735,0.691082220524592,-0.968658871345056,-0.033982229720916,1.00264110106597
1.58139534883721,1.98824312837139,1.99289788928843,0.0046547609170311,-1.99057050882991,0.991794183727182,0.998776325102728
1.58355868036777,3.62091018259126,3.18824034757671,-0.432669835014551,-3.40457526508398,2.0267900088029,1.37778525628108
1.58572201189832,4.66563939326313,4.21526096758478,-0.450378425678355,-4.44045018042395,2.55800890947074,1.88244127095321
1.58788534342888,4.56207700786696,4.49498371542837,-0.0670932924385887,-4.52853036164767,2.31458515015277,2.21394521149489
1.59004867495944,3.34597524282185,3.84647543648626,0.500500193664408,-3.59622533965406,1.42273752457872,2.17348781507533
1.59221200648999,1.68279566936853,2.62362432778825,0.940828658419711,-2.15320999857839,0.370983505474412,1.78222649310398
1.59437533802055,0.503361943182455,1.56249453732244,1.05913259413999,-1.03292824025245,-0.277885325478767,1.31081356573122
1.59653866955111,0.442122867524763,1.34470786874182,0.902585001217062,-0.893415368133294,-0.23023106684615,1.12364643497944
1.59870200108167,1.49412676828949,2.18354887056055,0.689422102271056,-1.83883781942502,0.402352333009217,1.4364854864158
1.60086533261222,3.05294329625387,3.71460520295861,0.66166190670474,-3.38377424960624,1.19564069477457,2.18813355483168
1.60302866414278,4.24796425888783,5.20089866046419,0.952934401576364,-4.72443145967601,1.64751492865573,3.07691653102028
1.60519199567334,4.41094490722634,5.9138633627968,1.50291845557045,-5.16240413501157,1.45401322582795,3.70839090918362
1.60735532720389,3.43248960860804,5.50651296014582,2.07402335153777,-4.46950128437693,0.679233128535136,3.79026815584179
1.60951865873445,1.83142891539497,4.21192816036259,2.38049924496761,-3.02167853787878,-0.27453516478632,3.2962137026651
1.61168199026501,0.485915504467592,2.75001219404186,2.26409668957427,-1.61796384925473,-0.889090592553339,2.50705444180807
1.61384532179557,0.143276828957546,1.93829876414307,1.79502193518552,-1.04078779655031,-0.825872553113987,1.86666034966429
1.61600865332612,1.00560737923324,2.22669207969021,1.22108470045697,-1.61614972946172,-0.107738660611863,1.72388839007359
1.61817198485668,2.63278511395275,3.4571416017868,0.824356487834049,-3.04496335786977,0.904214313059351,2.14074904481042
1.62033531638724,4.1959154144864,4.9755373230969,0.779621908610494,-4.58572636879165,1.70814675293795,2.8775796158537
1.62249864791779,4.91806320782231,5.99526352014784,1.07720031232553,-5.45666336398507,1.92043144774839,3.53623191623668
1.62466197944835,4.44365418199406,5.99377976551084,1.55012558351677,-5.21871697375245,1.44676429923864,3.77195267451381
1.62682531097891,3.01417648908184,4.97354087587113,1.95936438678929,-3.99385868247649,0.527406051146277,3.46645263133021
1.62898864250946,1.39793316533551,3.488123472576,2.09019030724049,-2.44302831895575,-0.346128570952494,2.78915688990825
1.63115197404002,0.493442070019189,2.35772461158317,1.86428254156398,-1.42558334080118,-0.685420235772398,2.11100357657358
1.63331530557058,0.793926119477735,2.18315259676743,1.38922647728969,-1.48853935812258,-0.297650178905979,1.78618953702856
1.63547863710114,2.10757369522898,2.99449372516981,0.886920029940825,-2.55103371019939,0.610326832644079,1.94070687755532
1.63764196863169,3.69345988747077,4.26290083806868,0.569440950597912,-3.97818036276972,1.56200946843643,2.41617089433329
1.63980530016225,4.6743283632719,5.20940712319614,0.535078759924236,-4.94186774323402,2.06962480167383,2.87224294156019
1.64196863169281,4.50114723978161,5.22388919229831,0.722741952516699,-4.86251821603996,1.88920264363245,2.9733155724075
1.64413196322336,3.27073028184757,4.20065942715209,0.929929145304516,-3.73569485449983,1.17040056827153,2.5652942862283
1.64629529475392,1.71085435286786,2.61529497584366,0.904440622975807,-2.16307466435576,0.403206864946024,1.75986779940973
1.64845862628448,0.768002243712786,1.27365788157553,0.505655637862739,-1.02083006264416,0.131173302925023,0.889656759719132
1.65062195781504,1.04106799320594,0.853002319362014,-0.188065673843925,-0.947035156283976,0.614566833524932,0.332468322759045
1.65278528934559,2.44180745729503,1.52546127439873,-0.916346182896309,-1.98363436584688,1.67907682009567,0.304557545751209
1.65494862087615,4.27007952135905,2.89830200412641,-1.37177751723264,-3.58419076274273,2.82092851929584,0.763262243446887
1.65711195240671,5.62194905040388,4.2531793490452,-1.36876970135868,-4.93756419972454,3.49535937588128,1.44220482384326
1.65927528393726,5.85087963518524,4.90070277079785,-0.950176864387389,-5.37579120299154,3.40052824978631,1.97526295320523
1.66143861546782,4.85177784845058,4.49503250672167,-0.356745341728908,-4.67340517758613,2.60426159508974,2.06914358249638
1.66360194699838,3.13560692246151,3.23272391834818,0.0971169958866653,-3.18416542040485,1.51924496328742,1.66492045711742
1.66576527852893,1.62560436447484,1.80725265896778,0.181648294492934,-1.71642851172131,0.721978034990955,0.994450476730356
1.66792861005949,1.14655180417964,1.02433043541205,-0.122221368767594,-1.08544111979585,0.634386586473618,0.451054533322227
1.67009194159005,1.92399355810393,1.31141659765517,-0.612576960448754,-1.61770507787955,1.26828525927634,0.349419818603209
1.67225527312061,3.46992569865414,2.49336815824901,-0.976557540405123,-2.98164692845158,2.22324161952963,0.758405308921946
1.67441860465116,4.88687069099489,3.92842625991501,-0.958444431079876,-4.40764847545495,2.92265756103738,1.48499091441757
1.67658193618172,5.3487745521899,4.85852041110356,-0.490254141086343,-5.10364748164673,2.91951434663812,2.18413313500861
1.67874526771228,4.52101070137232,4.78910234293027,0.268091641557955,-4.6550565221513,2.12645952990718,2.52859699224411
1.68090859924283,2.77006230795267,3.75101060336588,0.980948295413208,-3.26053645565927,0.894557006269731,2.36597944938954
1.68307193077339,1.00416431734474,2.32554035054435,1.32137603319961,-1.66485233394454,-0.158605857927435,1.82345819187198
1.68523526230395,0.149614387246778,1.34866497522159,1.19905058797481,-0.749139681234185,-0.524718100364018,1.2738577815982
1.68739859383451,0.610274828597436,1.41876853731463,0.808493708717194,-1.01452168295603,-0.0991094400598787,1.11363112301591
1.68956192536506,2.07424239996842,2.54301332369243,0.468770923724014,-2.30862786183042,0.802735738122202,1.50589212370822
1.69172525689562,3.73368382143395,4.14545439045068,0.411770569016727,-3.93956910594232,1.66095662620861,2.2786124797337
1.69388858842618,4.72795853302851,5.38450652001439,0.656547986985873,-5.05623252652145,2.03570527302132,3.02052725350013
1.69605191995673,4.54934403264069,5.59096378586341,1.04161975322272,-5.07015390925205,1.75386213970898,3.31629176954307
1.69821525148729,3.28303831811486,4.63191274586329,1.34887442774844,-3.95747553198908,0.967081945183211,2.99039358680587
1.70037858301785,1.6106955726054,3.011734912689,1.4010393400836,-2.3112152426472,0.104828116260903,2.2063871263863
1.7025419145484,0.467011992197039,1.60230985632071,1.13529786412367,-1.03466092425887,-0.334142935963315,1.36880386022219
1.70470524607896,0.484538887654924,1.1322173527014,0.647678465046477,-0.808378120178163,-0.0815697886957762,0.889947908873939
1.70686857760952,1.61929626051894,1.77360595743149,0.154309696912545,-1.69645110897521,0.732493281803198,0.963957827172015
1.70903190914008,3.20121834003341,3.08712809741851,-0.1140902426149,-3.14417321872596,1.65765429132416,1.48651892740181
1.71119524067063,4.34205158310566,4.30119128746832,-0.0408602956373443,-4.32162143528699,2.1914559393715,2.13016549591549
1.71335857220119,4.41250851556297,4.71519613434783,0.302687618784861,-4.5638523249554,2.05491044838905,2.50894187656635
1.71552190373175,3.33326406872344,4.03352168888286,0.700257620159423,-3.68339287880315,1.31650322428201,2.36688965452114
1.7176852352623,1.62274036161124,2.5258522596883,0.903111898077058,-2.07429631064977,0.35981423176709,1.71448207888268
1.71984856679286,0.166156999245226,0.922893955316148,0.756736956070922,-0.544525477280687,-0.295289978412848,0.839815455693535
1.72201189832342,-0.264794431700452,0.0235133128664007,0.288307744566853,0.120640559417026,-0.276551088133653,0.155910528716627
1.72417522985398,0.542702644761256,0.23810924415761,-0.304593400603646,-0.390405944459433,0.423648022682451,-0.0332420782230178
1.72633856138453,2.13050318545618,1.38178890195445,-0.748714283501733,-1.75614604370531,1.43960873447896,0.316537309226357
1.72850189291509,3.62930964004396,2.80065028761503,-0.828659352428929,-3.21497996382949,2.22898449623644,0.985995467593051
1.73066522444565,4.21141204634792,3.70940781421065,-0.502004232137272,-3.96040993027929,2.3567081392426,1.60370179103669
1.7328285559762,3.50347437295244,3.58592052576512,0.0824461528126736,-3.54469744935878,1.71051411006989,1.8341833392889
1.73499188750676,1.79344416911498,2.46532655114755,0.671882382032564,-2.12938536013126,0.560780893541209,1.56860446659005
1.73715521903732,-0.0949631526115988,0.947185915583612,1.04214906819521,-0.426111381486006,-0.568556110403405,0.994667491889411
1.73931855056787,-1.26746847622769,-0.156338406376229,1.11113006985146,0.711903441301958,-1.18929927303957,0.477395831737614
1.74148188209843,-1.27507486026849,-0.308366475454803,0.96670838481369,0.791720667861648,-1.12089162254109,0.329170954679443
1.74364521362899,-0.326541291356135,0.465775744232275,0.792317035588409,-0.0696172264380701,-0.559429163472272,0.629046389910342
1.74580854515955,0.882641014023427,1.63755255606091,0.754911542037486,-1.26009678504217,0.0638647359929705,1.1962320490492
1.7479718766901,1.56830434413151,2.4934516467863,0.92514730265479,-2.0308779954589,0.321578520738359,1.70929947472054
1.75013520822066,1.26004928938672,2.50220124601214,1.24215195662542,-1.88112526769943,0.00894866638065217,1.87217660131878
1.75229853975122,0.0445060555876617,1.5687848739089,1.52427881832124,-0.806645464748281,-0.739886381366788,1.54653184611507
1.75446187128177,-1.45909912992855,0.105808133435719,1.56490726336427,0.676645498246415,-1.51200319664641,0.835357698399994
1.75662520281233,-2.44304700142973,-1.16455328538196,1.27849371604777,1.80380014340584,-1.86077035873875,0.0569702153329077
1.75878853434289,-2.38273601666305,-1.62392647860659,0.758809538056466,2.00333124763482,-1.57077277735976,-0.43255847027506
1.76095186587345,-1.30504634473342,-1.09696433591765,0.208082008815777,1.20100534032554,-0.756564176774601,-0.444441163550936
1.763115197404,0.257327308215817,0.0812193739088838,-0.176107934306934,-0.169273341062351,0.216717621261376,-0.0474442801990249
1.76527852893456,1.53414711770058,1.24611050424509,-0.288036613455484,-1.39012881097284,0.911091865578031,0.479036945394805
1.76744186046512,1.88707829893468,1.7390493562963,-0.148028942638383,-1.81306382761549,1.01755362078653,0.795510206828958
1.76960519199567,1.14024469217369,1.25473978937262,0.114495097198925,-1.19749224077316,0.512874797487384,0.684617443285771
1.77176852352623,-0.289232098328264,0.0236295520907586,0.312861650419022,0.132801273118753,-0.301046874373643,0.168245601254891
1.77393185505679,-1.59494289699748,-1.30210504565492,0.29283785134256,1.4485239713262,-0.94389037417002,-0.50463359715618
1.77609518658734,-2.04803830672831,-2.02752016625088,0.0205181404774351,2.03777923648959,-1.03427822360287,-1.00350101288672
1.7782585181179,-1.41371110982737,-1.81059774125541,-0.396886631428042,1.61215442554139,-0.508412239199663,-1.10374218634173
1.78042184964846,-0.0681239327577261,-0.823649239595797,-0.755525306838071,0.445886586176761,0.343700687040172,-0.789587273216934
1.78258518117902,1.2211411284909,0.3664951816396,-0.854645946851297,-0.793818155065249,1.0378935376711,-0.244075382605848
1.78474851270957,1.72405384742253,1.09407643375642,-0.62997741366611,-1.40906514058947,1.17701563054432,0.232049510045154
1.78691184424013,1.14011369924518,0.928719707110129,-0.211393992135047,-1.03441670317765,0.675753845690112,0.358662857487541
1.78907517577069,-0.231624274553916,-0.0705207104396388,0.161103564114277,0.151072492496777,-0.196363919334096,0.045291426837319
1.79123850730124,-1.62987579354819,-1.34544969412313,0.284426099425063,1.48766274383566,-0.957150946486625,-0.530511797349031
1.7934018388318,-2.26058847817386,-2.16474268282618,0.0958457953476803,2.21266558050002,-1.17821713676077,-1.03444844373925
1.79556517036236,-1.76013048232559,-2.06057743069479,-0.300446948369194,1.91035395651019,-0.7298417669782,-1.18051218953199
1.79772850189291,-0.383493785417629,-1.06875681798047,-0.685263032562843,0.726125301699051,0.150884623572607,-0.877009925271657
1.79989183342347,1.15753816704727,0.302067165174319,-0.855471001872951,-0.729802666110794,1.00650458446011,-0.276701918349316
1.80205516495403,2.07164949313163,1.33360718536481,-0.738042307766824,-1.70262833924822,1.40484590044923,0.297782438798992
1.80421849648459,1.87786398726351,1.48735973649527,-0.390504250768232,-1.68261186187939,1.13418411901587,0.548427742863521
1.80638182801514,0.668649210944274,0.705883422402992,0.0372342114587179,-0.687266316673633,0.315707499742778,0.371558816930855
1.8085451595457,-0.885274622975854,-0.542519156360468,0.342755466615386,0.713896889668161,-0.61401504479562,-0.0998818448725411
1.81070849107626,-1.89964420137964,-1.51304649919901,0.386597702180634,1.70634535028932,-1.14312095178014,-0.563224398509187
1.81287182260681,-1.81077775276637,-1.60142172762586,0.209356025140504,1.70609974019611,-1.01006688895343,-0.696032851242679
1.81503515413737,-0.677524541207201,-0.675232332413947,0.00229220879325354,0.676378436810574,-0.339908375000227,-0.336470061810347
1.81719848566793,0.892383252351631,0.856081946673587,-0.0363013056780441,-0.874232599512609,0.464342279014837,0.409890320497771
1.81936181719849,2.06720245904242,2.24753726398869,0.180334804946274,-2.15736986151556,0.943433827048074,1.21393603446748
1.82152514872904,2.20939687604381,2.79507323897983,0.585676362936029,-2.50223505751182,0.811860256553889,1.69037480095793
1.8236884802596,1.22131688783552,2.20521962972607,0.983902741890552,-1.7132682587808,0.118707072972484,1.59456118580831
1.82585181179016,-0.366552191491274,0.783376367768455,1.14992855925973,-0.208412088138591,-0.758240375375502,0.966652463514092
1.82801514332071,-1.66941017366169,-0.703384789481277,0.966025384180417,1.18639748157149,-1.31771777892106,0.13132029734957
1.83017847485127,-1.95067434919048,-1.46297720234382,0.487697146846663,1.70682577576715,-1.21918574801857,-0.487640027748578
1.83234180638183,-1.02762484971,-1.12193282936585,-0.094307979655857,1.07477883953792,-0.466658435027069,-0.608120404510855
1.83450513791239,0.639192693694939,0.108917029458107,-0.530275664236833,-0.374054861576523,0.584734178965886,-0.210679317389363
1.83666846944294,2.19572911203931,1.5853355486167,-0.610393563422606,-1.89053233032801,1.40306133773096,0.487470992597049
1.8388318009735,2.85647098194799,2.57056431600045,-0.285906665947549,-2.71351764897422,1.57118882394777,1.14232882502645
1.84099513250406,2.30975187228826,2.58790056666534,0.278148694377079,-2.4488262194768,1.01580158895559,1.43302463052121
1.84315846403461,0.87993432851069,1.64287166504074,0.762937336530047,-1.26140299677571,0.0584984959903214,1.20290450078539
1.84532179556517,-0.608971969202729,0.236820256965276,0.845792226168005,0.186075856118727,-0.727382097685367,0.54130624156664
1.84748512709573,-1.28387567617982,-0.880676960679961,0.403198715499854,1.08227631842989,-0.843537195839835,-0.238739122590053
1.84964845862628,-0.750469892781879,-1.13738300738471,-0.386913114602831,0.943926450083295,-0.181778389089524,-0.76214806099377
1.85181179015684,0.686747621321459,-0.471338740618487,-1.15808636193995,-0.107704440351486,0.922416991630702,-0.814712551279217
1.8539751216874,2.23773103154539,0.653076755241354,-1.58465427630404,-1.44540389339337,1.91119265392472,-0.465788760531342
1.85613845321796,3.08326471340167,1.52989779262935,-1.55336692077233,-2.30658125301551,2.318315817087,-0.0117345640714883
1.85830178474851,2.77718661540661,1.6058389444437,-1.17134767096292,-2.19151277992515,1.97426714318476,0.21724563674039
1.86046511627907,1.45117691691372,0.785396594767815,-0.665780322145907,-1.11828675584077,1.05847861952981,0.0598081363109539
1.86262844780963,-0.206556405951382,-0.492081993066342,-0.28552558711496,0.349319199508862,0.0394845905817893,-0.388803790090651
1.86479177934018,-1.27774460512484,-1.47904533809343,-0.201300732968597,1.37839497160914,-0.53822193607812,-0.840173035531015
1.86695511087074,-1.13490308729108,-1.5511526556036,-0.416249568312521,1.34302787144734,-0.35932675948928,-0.983701111958061
1.8691184424013,0.195574789161921,-0.560901346703035,-0.756476135864957,0.182663278770557,0.476025462513439,-0.658688741283996
1.87128177393186,2.04910652896705,1.09588854437059,-0.953217984596462,-1.57249753666882,1.50116225678175,0.0713352798870623
1.87344510546241,3.4846815765204,2.68561656850157,-0.799065008018838,-3.08514907251099,2.14187329226962,0.943275780241364
1.87560843699297,3.78651588368278,3.48436096613605,-0.302154917546734,-3.63543842490942,2.04433540061476,1.59110302429466
1.87777176852353,2.83073518228867,3.1365695469003,0.305834364611628,-2.98365236459449,1.26245040883852,1.72120195575597
1.87993510005408,1.15513998266206,1.87565068312121,0.720510700459148,-1.51539533289163,0.217314641101455,1.29808069179018
1.88209843158464,-0.306434618909861,0.431909459932144,0.738344078842005,-0.062737420511142,-0.522389348875933,0.585126769387075
1.8842617631152,-0.744220714943793,-0.376487970627649,0.367732744316144,0.560354342785721,-0.555976729629969,-0.00437761315575269
1.88642509464575,0.0580282796819422,-0.109527371688553,-0.167555651370495,0.0257495460033053,0.112791965526219,-0.138541511529524
1.88858842617631,1.62897373539741,1.06126501159305,-0.567708723804356,-1.34511937349523,1.09834122960088,0.246778143894348
1.89075175770687,3.11116512448064,2.47413116948191,-0.637033954998733,-2.79264814698128,1.87409953973969,0.918548607241589
1.89291508923743,3.71512533707161,3.35318360678163,-0.36194173028998,-3.53415447192662,2.03853353368079,1.49562093824582
1.89507842076798,3.09200132337043,3.20921804015745,0.117216716787019,-3.15060968176394,1.4873923032917,1.66321737847223
1.89724175229854,1.52613586211745,2.10100771528453,0.574871853167083,-1.81357178870099,0.475632004475184,1.33793978422581
1.8994050838291,-0.157574358746001,0.637801009969139,0.79537536871514,-0.240113325611569,-0.47647486373057,0.71658818934214
1.90156841535965,-1.03740518634541,-0.350821671518652,0.686583514826757,0.694113428932031,-0.861994350586083,0.167880921654052
1.90373174689021,-0.641839573526866,-0.308283903954688,0.333555669572178,0.475061738740777,-0.487697621549522,0.0126358828087451
1.90589507842077,0.793351791660815,0.733924317840336,-0.0594274738204789,-0.763638054750575,0.426389632740647,0.337248422009928
1.90805840995133,2.4957029414487,2.20987809290688,-0.285824848541819,-2.35279051717779,1.39076389499526,0.962026622182531
1.91022174148188,3.58325896003419,3.35005383137615,-0.233205128658034,-3.46665639570517,1.90823204434611,1.55842435135906
1.91238507301244,3.49114526515664,3.57037427185883,0.0792290067021892,-3.53075976850774,1.70595812922723,1.82480163928051
1.914548404543,2.2527715616709,2.76675516436269,0.513983602691792,-2.5097633630168,0.869393979489554,1.64036938352724
1.91671173607355,0.533474967037148,1.40251180151668,0.869036834479533,-0.967993384276915,-0.167780933721192,1.13577431799811
1.91887506760411,-0.702371575924881,0.278931686623784,0.981303262548666,0.211719944650549,-0.841837419236773,0.630117474586225
1.92103839913467,-0.766147016500302,0.0688603665875006,0.835007383087803,0.348643324956401,-0.800577199794053,0.451933874837652
1.92320173066522,0.346471964814843,0.915854532852194,0.569382568037351,-0.631163248833518,-0.111455301611254,0.742618550444772
1.92536506219578,1.99405636484787,2.36364056116843,0.369584196320557,-2.17884846300815,0.812236084263657,1.36661237874449
1.92752839372634,3.29260943478812,3.63553430920226,0.342924874414145,-3.46407187199519,1.47484228018699,1.9892295918082
1.9296917252569,3.5814791272596,4.04933174287986,0.46785261562026,-3.81540543506973,1.55681325581967,2.25859217925006
1.93185505678745,2.71965577430439,3.34002258555764,0.620366811253254,-3.02983917993101,1.04964448152557,1.98019469840545
1.93401838831801,1.16932869408646,1.80200987125209,0.632681177165638,-1.48566928266927,0.268323758460409,1.21734552420887
1.93618171984857,-0.188141628490465,0.186661565693882,0.374803194184347,0.000740031398291818,-0.281472411337406,0.280732379939114
1.93834505137912,-0.540525704831466,-0.676833265657887,-0.136307560826421,0.608679485244677,-0.202109072002523,-0.406570413242154
1.94050838290968,0.34219372456536,-0.349374611423685,-0.691568335989046,0.00359044342916232,0.516881030277203,-0.520471473706365
1.94267171444024,1.97115090613481,0.972861124979487,-0.998289781155325,-1.47200601555715,1.48472034364507,-0.0127143280879189
1.9448350459708,3.45105986011044,2.58729992375161,-0.863759936358832,-3.01917989193103,2.15740989823464,0.861769993696389
1.94699837750135,3.97704023624342,3.67841173160624,-0.298628504637175,-3.82772598392483,2.1378343704403,1.68989161348453
1.94916170903191,3.22567547502754,3.73121975645623,0.505544281428696,-3.47844761574189,1.36006559679942,2.11838201894246
1.95132504056247,1.53625369058335,2.78071672123516,1.24446303065181,-2.15848520590925,0.145895329965765,2.01258987594349
1.95348837209302,-0.196104471858144,1.40375756162563,1.59986203348377,-0.603826544883741,-0.897983252670958,1.5018097975547
1.95565170362358,-1.00253329744461,0.4222567598384,1.42479005728301,0.290138268803105,-1.21366167736381,0.923523408560705
1.95781503515414,-0.431249822536785,0.436821865134299,0.868071687671084,-0.0027860212987566,-0.649660755103935,0.652446776402691
1.95997836668469,1.20713365037318,1.46871572509392,0.261582074720739,-1.33792468773355,0.472775787826222,0.865148899907331
1.96214169821525,3.055840267552,2.95610108883194,-0.099739178720061,-3.00597067819197,1.57778972313603,1.42818095505594
1.96430502974581,4.17714721527598,4.09146730959377,-0.085679905682202,-4.13430726243488,2.13141356047909,2.00289370195579
1.96646836127637,4.00333727084489,4.2519990183968,0.248661747551902,-4.12766814462084,1.8773377616465,2.25033038297435
1.96863169280692,2.62656857505449,3.30850085819455,0.681932283140058,-2.96753471662452,0.972318145957217,1.9952165706673
1.97079502433748,0.813812312217132,1.71428653998261,0.900474227765476,-1.26404942609987,-0.0433309577741718,1.30738038387404
1.97295835586804,-0.387728237221321,0.289316274838425,0.677044512059746,0.0492059811914478,-0.532386374640534,0.483180393449086
1.97512168739859,-0.284358663498759,-0.243258026167032,0.0411006373317271,0.263808344832896,-0.162729650415243,-0.101078694417652
1.97728501892915,1.05800139033992,0.338226513659996,-0.719774876679924,-0.698113951999958,0.888888133509922,-0.190774181509964
1.97944835045971,2.89850439300212,1.66841993329769,-1.23008445970443,-2.28346216314991,2.06429442635327,0.219167736796634
1.98161168199026,4.26106558376568,3.0078671838575,-1.25319839990818,-3.63446638381159,2.75713199183693,0.877334391974663
1.98377501352082,4.42261187495904,3.60392929652517,-0.818682578433869,-4.0132705857421,2.62064722669645,1.39262335904565
1.98593834505138,3.26445131016403,3.06875092065468,-0.195700389509352,-3.16660111540935,1.73007584983669,1.43652526557266
1.98810167658194,1.38335298517775,1.6263931167116,0.243040131533851,-1.50487305094468,0.57015642682195,0.934716624122726
1.99026500811249,-0.193014151203691,0.0388304787757594,0.231844629979451,0.0770918362139659,-0.212429390591571,0.135337554377605
1.99242833964305,-0.609570856544713,-0.833607377591609,-0.224036521046896,0.721589117068161,-0.192767167748908,-0.528821949319253
1.99459167117361,0.31494301405063,-0.549921611372929,-0.864864625423558,0.11748929866115,0.589903819737094,-0.707393118398243
1.99675500270416,2.02861879856125,0.678658485276841,-1.34996031328441,-1.35363864191905,1.68928955592283,-0.335650914003784
1.99891833423472,3.5988929389523,2.13974227599013,-1.45915066296217,-2.86931760747122,2.52902180095723,0.340295806513984
2.00108166576528,4.19839252767449,3.01686128733298,-1.18153124034151,-3.60762690750374,2.689961884008,0.917665023495738
2.00324499729584,3.47790756589095,2.80583206048758,-0.672075505403368,-3.14186981318927,2.07499153564716,1.06687827754211
2.00540832882639,1.74267093933558,1.56615024278206,-0.17652069655352,-1.65441059105882,0.959595817944549,0.694814773114269
2.00757166035695,-0.149391119642271,-0.0928131419410105,0.0565779777012603,0.121102130791641,-0.102984548671766,-0.0181175821198751
2.00973499188751,-1.2346619892533,-1.32387430512329,-0.0892123158699878,1.27926814718829,-0.572724836691656,-0.706543310496638
2.01189832341806,-1.0139057725487,-1.51248941040687,-0.498583637858169,1.26319759147778,-0.257661067345264,-1.00553652413252
2.01406165494862,0.256820161988451,-0.612678413122318,-0.869498575110769,0.177929125566933,0.56315936854961,-0.741088494116543
2.01622498647918,1.74859708980421,0.855061630789086,-0.893535459015121,-1.30182936029665,1.32106627440966,-0.0192369141130175
2.01838831800973,2.56257775903161,2.10536776103758,-0.45720999799403,-2.33397276003459,1.50989387851282,0.824078881521773
2.02055164954029,2.20561729700809,2.48486263355061,0.279245336542517,-2.34523996527935,0.963185980232789,1.38205398504656
2.02271498107085,0.818413632389449,1.78973295333259,0.971319320943143,-1.30407329286102,-0.0764528442768468,1.38052613713787
2.02487831260141,-0.881030491813288,0.402011271158493,1.28304176297178,0.239509610327397,-1.08203612739253,0.842526517065137
2.02704164413196,-1.95941690902383,-0.876083295695963,1.08333361332787,1.4177501023599,-1.52137526117585,0.103625158815952
2.02920497566252,-1.79694907060955,-1.28607236863861,0.510876701970945,1.54151071962408,-1.15391288629025,-0.38759783333383
2.03136830719308,-0.443065153232915,-0.578789633473557,-0.135724480240642,0.510927393353236,-0.153670336496137,-0.357257056857099
2.03353163872363,1.42217921099861,0.847588401854223,-0.574590809144388,-1.13488380642642,0.998385010071499,0.136498796354918
2.03569497025419,2.86630249862244,2.19102825635438,-0.675274242268061,-2.52866537748841,1.77078837044525,0.757877007043159
2.03785830178475,3.17653879622233,2.68719766654684,-0.489341129675494,-2.93186823138458,1.83293996294891,1.09892826843567
2.04002163331531,2.2033249992702,2.00506052669623,-0.198264472573971,-2.10419276298322,1.20079473592209,0.903398027061129
2.04218496484586,0.471261368938044,0.42584783983177,-0.0454135291062743,-0.448554604384907,0.258337449022159,0.190217155362748
2.04434829637642,-1.0608172330053,-1.28914181744849,-0.228324584443187,1.17497952522689,-0.416246324281057,-0.758733200945837
2.04651162790698,-1.5556255985608,-2.31399141046737,-0.758365811906569,1.93480850451408,-0.398629893327115,-1.53617861118697
2.04867495943753,-0.79574306955384,-2.20500178695406,-1.40925871740022,1.50037242825395,0.306757823923191,-1.80713025217714
2.05083829096809,0.722300913939036,-1.10257140608918,-1.82487232002822,0.190135246075072,1.27358661698363,-1.4637218630587
2.05300162249865,2.11251741596041,0.374763643092109,-1.7377537728683,-1.24364052952626,1.92513559441436,-0.681495064888098
2.0551649540292,2.59480734443419,1.44801159331225,-1.14679575112194,-2.02140946887322,1.87080154777807,0.150607921095154
2.05732828555976,1.87028041608399,1.56775536509531,-0.302525050988684,-1.71901789058965,1.08640273353634,0.632615157053313
2.05949161709032,0.271188183227466,0.718933532726036,0.44774534949857,-0.495060857976751,-0.0882785831355521,0.583339441112303
2.06165494862088,-1.35899734876112,-0.544383872206929,0.814613476554191,0.951690610484024,-1.08680541265766,0.135114802173631
2.06381828015143,-2.11825160734901,-1.41468057213414,0.703571035214868,1.76646608974157,-1.41091132128194,-0.355554768459636
2.06598161168199,-1.596176297101,-1.31784240404733,0.278333893053673,1.45700935057416,-0.937255095077336,-0.519754255496827
2.06814494321255,-0.103662479313257,-0.250861080684098,-0.147198601370841,0.177261779998678,0.0217680610287916,-0.199029841027469
2.0703082747431,1.54820439791,1.23688312217524,-0.311321275734759,-1.39254376004262,0.92976283682238,0.462780923220241
2.07247160627366,2.50717276070402,2.36040692733244,-0.14676583337157,-2.43378984401823,1.32696929703779,1.10682054698044
2.07463493780422,2.29265670541995,2.50001915537982,0.207362449959863,-2.39633793039989,1.04264712773005,1.35369080266984
2.07679826933478,1.02715565485713,1.53430982486685,0.507154170009719,-1.28073273986199,0.260000742423707,1.02073199743829
2.07896160086533,-0.586436551295034,-0.0406571407082215,0.545779410586812,0.313546846001628,-0.566107980940923,0.252561134939295
2.08112493239589,-1.61976199955837,-1.36154303643004,0.258218963128329,1.49065251799421,-0.938990481343351,-0.551662036650856
2.08328826392645,-1.460841553336,-1.71073384448104,-0.249892291145047,1.58578769890852,-0.605474631095474,-0.980313067813044
2.085451595457,-0.178959811639747,-0.924088393141817,-0.74512858150207,0.551524102390782,0.283084384931161,-0.834608487321943
2.08761492698756,1.53843385791056,0.561944183619149,-0.976489674291415,-1.05018902076486,1.25746176610099,-0.207272745336133
2.08977825851812,2.799580597348,1.97755818269664,-0.822022414651361,-2.38856939002232,1.81080150599968,0.577767884022639
2.09194159004868,2.96327360868786,2.60269971857531,-0.360573890112551,-2.78298666363159,1.66192374940021,1.12106291423138
2.09410492157923,1.932232966615,2.11372815509958,0.18149518848459,-2.02298056085729,0.875368889065203,1.14761167179209
2.09626825310979,0.240271212859783,0.778841688597147,0.538570475737364,-0.509556450728465,-0.149149631438791,0.658706082167256
2.09843158464035,-1.18274430254634,-0.650895180950938,0.531849121595403,0.91681974174864,-0.857296712070872,-0.0595230296777673
2.1005949161709,-1.55131825805681,-1.37277587350709,0.17854238454972,1.46204706578195,-0.864930321303266,-0.597116744478686
2.10275824770146,-0.700802042341834,-1.00370391346311,-0.302901871121279,0.852252977902473,-0.198950085610277,-0.653302892292196
2.10492157923202,0.850242956152247,0.234022436014801,-0.616220520137446,-0.542132696083524,0.733231738144847,-0.191099042061323
2.10708491076257,2.23486372567055,1.66274410751482,-0.572119618155731,-1.94880391659269,1.40349167191314,0.545312244679546
2.10924824229313,2.70060389734384,2.49841832651966,-0.202185570824188,-2.59951111193175,1.45139473408402,1.14811637784773
2.11141157382369,1.96674824369057,2.25127144165417,0.284523197963598,-2.10900984267237,0.841112522863487,1.26789731980888
