t,leadI,leadII,leadIII,aVR,aVL,aVF
0,281.973076886093,242.376903124441,-39.5961737616519,-262.174990005267,160.784625323873,101.390364681395
0.00279759406910057,262.136746925214,241.145598181195,-20.991148744019,-251.641172553204,141.563947834616,110.077224718588
0.00559518813820115,256.547461672775,242.630171817784,-13.9172898549906,-249.58881674528,135.232375763883,114.356440981397
0.00839278220730172,253.289910599814,236.615424883217,-16.6744857165974,-244.952667741515,134.982198158206,109.97046958331
0.0111903762764023,246.920511978641,233.888308216547,-13.0322037620932,-240.404410097594,129.976357870367,110.428052227227
0.0139879703455029,239.123725838737,226.052461429029,-13.0712644097077,-232.588093633883,126.097495124222,106.490598509661
0.0167855644146034,226.615652100054,219.345625771225,-7.27002632882986,-222.98063893564,116.942839214442,106.037799721197
0.019583158483704,217.883873350761,218.07568120767,0.191807856908895,-217.979777279216,108.846032746926,109.13374453229
0.0223807525528046,216.793498500805,223.489231231268,6.69573273046294,-220.141364866037,105.048882885171,115.092481980866
0.0251783466219052,225.16941541799,226.99074941759,1.8213339996002,-226.08008241779,111.674040709195,114.406041708595
0.0279759406910057,232.302008717088,230.67304557161,-1.62896314547791,-231.487527144349,116.965485931283,114.522041213066
0.0307735347601063,241.50558720106,245.977548286174,4.47196108511349,-243.741567743617,118.516813057973,125.224754685644
0.0335711288292069,257.140637313672,264.727793814523,7.58715650085094,-260.934215564098,124.776740406411,136.157475157687
0.0363687228983075,268.270925848208,287.982420456432,19.7114946082243,-278.12667315232,124.279715619992,153.846957532328
0.039166316967408,285.097250924033,313.12030237767,28.023051453637,-299.108776650852,128.537099735198,170.571676915654
0.0419639110365086,308.219848012818,333.315974025706,25.0961260128877,-320.767911019262,141.561860999965,179.206050019297
0.0447615051056092,333.64594428295,354.659387992077,21.0134437091264,-344.152666137513,156.316250286912,187.836415850601
0.0475590991747098,352.757841266094,370.135282104953,17.3774408388585,-361.446561685524,167.690200213618,193.756361471906
0.0503566932438103,361.612849944483,372.182081130383,10.5692311858996,-366.897465537433,175.521809379292,191.375656158141
0.0531542873129109,350.52996813152,357.923772461349,7.39380432982841,-354.226870296434,171.568081900846,182.658788395588
0.0559518813820115,325.736294737661,331.296736138988,5.56044140132639,-328.516515438325,160.087926668168,168.428588770157
0.058749475451112,306.393483913459,303.859873449399,-2.53361046405962,-305.126678681429,154.463547188759,150.66313149267
0.0615470695202126,290.380451025493,277.622923309002,-12.7575277164905,-284.001687167248,151.568989370992,132.432697796256
0.0643446635893132,273.102546271059,256.528982375498,-16.5735638955614,-264.815764323278,144.83805508331,119.977709239968
0.0671422576584138,256.016138301583,232.23551299545,-23.7806253061324,-244.125825648516,139.898381803857,104.227443844659
0.0699398517275143,236.366260089839,218.714582612264,-17.6516774775754,-227.540421351052,127.008968783707,100.531452567344
0.0727374457966149,222.628047227386,216.809048073716,-5.81899915367077,-219.718547650551,114.223523190529,105.495024460022
0.0755350398657155,219.717890543841,222.086048724788,2.36815818094757,-220.901969634314,108.674866181447,112.227103452868
0.0783326339348161,228.915511906944,230.06119361331,1.14568170636616,-229.488352760127,113.884915100289,115.603437659838
0.0811302280039166,237.896272290913,237.523007317083,-0.373264973829521,-237.709639803998,119.134768632371,118.574871171627
0.0839278220730172,244.940964340717,242.580426369726,-2.36053797099109,-243.760695355221,123.650751155854,120.109944199367
0.0867254161421178,245.462264774896,244.167799106711,-1.2944656681851,-244.815031940804,123.378365221541,121.436666719263
0.0895230102112183,234.9400244775,239.920572337615,4.98054786011477,-237.430298407557,114.979738308693,122.450560098865
0.0923206042803189,226.975302635682,235.67303315664,8.69773052095837,-231.324167896161,109.138786057362,122.185381838799
0.0951181983494195,226.264140352987,233.259859803387,6.99571945040006,-229.762000078187,109.634210451293,120.127789626893
0.0979157924185201,232.713099269708,237.433456362925,4.72035709321673,-235.073277816316,113.996371088246,121.076906728071
0.100713386487621,237.574892066053,235.269803103516,-2.30508896253713,-236.422347584785,119.939990514295,116.48235707049
0.103510980556721,241.65336385367,238.505675937648,-3.14768791602185,-240.079519895659,122.400525884846,117.678994010813
0.106308574625822,239.30825243014,241.572216356888,2.26396392674818,-240.440234393514,118.522144251696,121.918090141818
0.109106168694922,232.813454828137,244.588407730728,11.7749529025906,-238.700931279433,110.519250962773,128.181680316659
0.111903762764023,231.739774651254,242.916484275889,11.1767096246353,-237.328129463571,110.281532513309,127.046596950262
0.114701356833124,233.941039101644,239.780319628012,5.83928052636841,-236.860679364828,114.050879287638,122.80980007719
0.117498950902224,239.654954992391,239.100636842982,-0.554318149408942,-239.377795917686,120.1046365709,119.273159346786
0.120296544971325,244.856561988053,239.986916050743,-4.8696459373094,-242.421739019398,124.863103962681,117.558635056717
0.123094139040425,242.807303103149,242.375533344561,-0.43176975858745,-242.591418223855,121.619536430868,120.971881792987
0.125891733109526,237.106319300284,243.097792937969,5.99147363768503,-240.102056119126,115.557422831299,124.544633287827
0.128689327178626,230.979937320834,243.009245252948,12.0293079321133,-236.994591286891,109.47531469436,127.51927659253
0.131486921247727,233.666662065652,242.965672733841,9.29901066818914,-238.316167399747,112.183825698731,126.132341701015
0.134284515316828,242.492665836047,240.611235971104,-1.88142986494367,-241.551950903575,122.187047850495,119.36490305308
0.137082109385928,245.540011302004,242.282989714257,-3.25702158774743,-243.91150050813,124.398516444876,119.512984063255
0.139879703455029,251.759515360555,250.298154711252,-1.46136064930249,-251.028835035904,126.610438004929,124.418397030975
0.142677297524129,249.367974082764,255.851398963252,6.48342488048783,-252.609686523008,121.442274601138,131.16741192187
0.14547489159323,242.269385152341,255.775234535745,13.5058493834045,-249.022309844043,114.381767884468,134.640541959575
0.14827248566233,239.873670296867,246.982527157592,7.10885686072479,-243.42809872723,116.382406718071,127.045692009159
0.151070079731431,242.182703113011,243.038348332469,0.85564521945841,-242.61052572274,120.663528946776,121.946996775964
0.153867673800532,246.149243225654,243.092339255153,-3.05690397050111,-244.620791240403,124.603073598078,120.017717642326
0.156665267869632,248.671465968255,243.873042949628,-4.79842301862658,-246.272254458941,126.734944493441,119.537309965501
0.159462861938733,247.245049482309,248.565134415712,1.32008493340348,-247.905091949011,122.962482274453,124.942609674558
0.162260456007833,240.867363310761,251.716033208982,10.848669898221,-246.291698259872,115.00934670627,131.282351553602
0.165058050076934,240.616815719668,251.809662019313,11.1928462996455,-246.21323886949,114.711984710011,131.501254159479
0.167855644146034,249.09227474536,253.533456092065,4.44118134670489,-251.312865418712,122.325546699328,128.987318719385
0.170653238215135,255.464352298728,254.334757154592,-1.12959514413575,-254.89955472666,128.296973721432,126.602581005228
0.173450832284236,258.207002810034,254.160368892436,-4.04663391759809,-256.183685851235,131.126818363816,125.056867487419
0.176248426353336,257.810212180523,257.144124024191,-0.666088156331227,-257.477168102357,129.238150168427,128.23901793393
0.179046020422437,249.086350787455,257.155196893768,8.06884610631272,-253.120773840611,120.508752340571,132.61202150004
0.181843614491537,243.065579710924,257.404884157952,14.3393044470281,-250.235231934438,114.363137631948,135.87209430249
0.184641208560638,247.289238476585,256.070356636837,8.78111816025233,-251.679797556711,119.254060158166,132.425737398545
0.187438802629738,253.558546187307,252.076399223289,-1.48214696401752,-252.817472705298,127.520346575662,125.297126129636
0.190236396698839,254.094434029275,248.583042235636,-5.51139179363983,-251.338738132455,129.802912911458,121.535825220998
0.19303399076794,254.806960789103,252.236606723414,-2.57035406568926,-253.521783756259,128.688657427396,124.833126328862
0.19583158483704,251.01784837165,255.417412261394,4.39956388974386,-253.217630316522,123.309142240953,129.908488075569
0.198629178906141,247.225851565308,260.540245819023,13.3143942537148,-253.883048692166,116.955728655797,136.927320036369
0.201426772975241,252.687887374019,267.280944679649,14.5930573056294,-259.984416026834,119.047415034195,140.937000992639
0.204224367044342,261.921112357805,269.695123956608,7.77401159880282,-265.808118157207,127.073550379501,138.734567777706
0.207021961113442,267.364331217118,266.940025641754,-0.424305575363633,-267.152178429436,133.894318396241,133.257860033195
0.209819555182543,269.251040361413,265.72360970403,-3.52743065738377,-267.487325032721,136.389235509399,131.098089523323
0.212617149251644,263.347576588152,262.485070465366,-0.862506122785931,-262.916323526759,132.105041355469,130.81128217129
0.215414743320744,253.098263964187,258.087427160631,4.98916319644425,-255.592845562409,124.054550383871,131.538295178538
0.218212337389845,249.428366453128,259.325983088074,9.89761663494613,-254.377174770601,119.765374909091,134.61179986151
0.221009931458945,260.70601963911,268.924125871676,8.21810623256567,-264.815072755393,126.243956703272,138.571116052121
0.223807525528046,268.548089238076,270.114772657327,1.56668341925069,-269.331430947702,133.490702909413,135.840728038289
0.226605119597146,270.015611899044,265.696278442056,-4.31933345698877,-267.85594517055,137.167472678017,130.688472492533
0.229402713666247,270.099955296084,268.858934186668,-1.24102110941669,-269.479444741376,135.67048820275,133.808956538625
0.232200307735348,266.2923526079,274.049729934583,7.75737732668239,-270.171041271242,129.267487640609,140.903553630633
0.234997901804448,263.842756171016,278.421441578119,14.5786854071037,-271.132098874568,124.632035381956,146.500063492612
0.237795495873549,268.268276520972,279.968194685122,11.6999181641507,-274.118235603047,128.28417917841,145.834056424637
0.240593089942649,276.759774479519,280.34790461961,3.5881301400911,-278.553839549564,136.585822169714,141.96801737985
0.24339068401175,282.555839783193,280.809773943166,-1.74606584002623,-281.68280686318,142.150952811609,139.53185405157
0.24618827808085,283.162422637537,280.899680084325,-2.26274255321238,-282.031051360931,142.712582595375,139.318468765556
0.248985872149951,278.756283063002,281.288769528148,2.53248646514561,-280.022526295575,138.111898298928,141.910627996647
0.251783466219052,273.607013369931,283.135127114884,9.52811374495383,-278.371070242408,132.039449812488,146.331620429919
0.254581060288152,271.144635572793,284.584480140073,13.4398445672797,-277.864557856433,128.852395502757,149.012162353676
0.257378654357253,279.385100096751,287.399094873324,8.01399477657299,-283.392097485037,135.685552660089,147.706544824948
0.260176248426353,287.026686094734,287.219182135894,0.192496041159927,-287.122934115314,143.417095026787,143.705839088527
0.262973842495454,287.360600343581,281.858634158603,-5.50196618497819,-284.609617251092,146.43128326428,138.178333986812
0.265771436564554,284.854500560862,280.622180202847,-4.23232035801487,-282.738340381855,144.543410459439,138.194929922416
0.268569030633655,276.349770082053,281.510936758812,5.16116667675897,-278.930353420432,135.594301702647,143.336051717785
0.271366624702756,268.622118069706,279.635321823214,11.0132037535082,-274.12871994646,128.804457158099,145.324262788361
0.274164218771856,273.320130703555,282.465370550726,9.14523984717096,-277.89275062714,132.087445428192,145.805305198948
0.276961812840957,281.052562873998,284.051978356409,2.99941548241156,-282.552270615204,139.026573695793,143.525696919411
0.279759406910057,288.983761757131,288.391676336343,-0.592085420788294,-288.687719046737,144.78792358896,143.899795457777
0.282557000979158,290.843552545219,290.317156585908,-0.526395959311003,-290.580354565563,145.684974252265,144.895380313298
0.285354595048258,279.964469918441,279.920588442363,-0.0438814760777291,-279.942529180402,140.004175697259,139.938353483143
0.288152189117359,267.121368332082,273.163485531599,6.04211719951689,-270.142426931841,130.539625566283,139.602801365558
0.29094978318646,269.040784045312,278.405011902876,9.36422785756446,-273.722897974094,129.838278093874,143.88461988022
0.29374737725556,278.228463016094,284.829895368292,6.60143235219874,-281.529179192193,135.813515331947,145.715663860246
0.296544971324661,287.166542391577,288.38698969769,1.22044730611282,-287.776766044634,142.973047542732,144.803718501902
0.299342565393761,288.626315615562,285.545892414198,-3.08042320136394,-287.08610401488,145.853369408463,141.232734606417
0.302140159462862,282.790463655741,279.984717549597,-2.80574610614434,-281.387590602669,142.798104880943,138.589485721726
0.304937753531963,270.664196773242,274.096171650803,3.43197487756112,-272.380184212023,133.61611094784,138.764073264182
0.307735347601063,261.070636261713,272.13324672743,11.0626104657166,-266.601941494572,125.004012897998,141.597928596573
0.310532941670164,261.141077563992,264.881812057464,3.74073449347202,-263.011444810728,128.70017153526,134.311273275468
0.313330535739264,262.89841636116,258.005181884176,-4.89323447698331,-260.451799122668,133.895825419072,126.555973703597
0.316128129808365,263.916346692206,256.841270109702,-7.07507658250438,-260.378808400954,135.495711637355,124.883096763599
0.318925723877465,264.065296452564,259.410681169604,-4.65461528295992,-261.737988811084,134.359955867762,127.378032943322
0.321723317946566,257.606475805681,259.953934236604,2.34745843092264,-258.780205021143,127.629508687379,131.150696333763
0.324520912015667,251.674548874046,261.862152878851,10.1876040048044,-256.768350876449,120.743472434621,136.024878441828
0.327318506084767,250.518229925946,259.236306080548,8.71807615460162,-254.877268003247,120.900076885672,133.977191117575
0.330116100153868,255.308363935737,259.488622711809,4.18025877607286,-257.398493323773,125.564052579832,131.834440743941
0.332913694222968,261.363034585915,258.430920811022,-2.93211377489359,-259.896977698469,132.147574180405,127.749403518064
0.335711288292069,260.348396962349,256.342296068754,-4.00610089359429,-258.345346515551,132.177248927971,126.16809758758
0.338508882361169,254.08023243231,252.91074166283,-1.16949076948046,-253.49548704757,127.624861600895,125.870625446675
0.34130647643027,240.790200812715,245.975268076639,5.18506726392411,-243.382734444677,117.802566774395,125.580167670281
0.344104070499371,232.075328302452,236.900057970321,4.82472966786975,-234.487693136386,113.625299317291,120.862393819096
0.346901664568471,235.82439730702,237.947659251418,2.12326194439845,-236.886028279219,116.850567681311,120.035460597908
0.349699258637572,242.7867175082,241.719918923694,-1.06679858450562,-242.253318215947,121.926758046353,120.326560169594
0.352496852706672,250.865125321799,248.412997496164,-2.45212782563436,-249.639061408982,126.658626573717,122.980434835265
0.355294446775773,248.066679188173,245.78415907842,-2.28252010975311,-246.925419133297,125.174599648963,121.750819484334
0.358092040844873,237.16541486151,242.84387408658,5.6784592250699,-240.004644474045,115.74347781822,124.261166655825
0.360889634913974,228.979161291293,239.364763704105,10.3856024128113,-234.171962497699,109.296779439241,124.875183058458
0.363687228983075,233.197902114237,238.797761958723,5.59985984448554,-235.99783203648,113.799021134876,122.198810901604
0.366484823052175,240.027703076185,240.873863024129,0.846159947943818,-240.450783050157,119.590771564121,120.860011486036
0.369282417121276,245.899132615736,244.297598743827,-1.60153387190834,-245.098365679782,123.750333243822,121.34803243596
0.372080011190376,246.640539845941,242.504472753903,-4.13606709203793,-244.572506299922,125.388303468989,119.184202830932
0.374877605259477,242.336539244307,245.283257344019,2.94671809971263,-243.809898294163,119.694910572297,124.114987721866
0.377675199328577,235.623659497925,245.891177165089,10.2675176671636,-240.757418331507,112.678070915381,128.079347416126
0.380472793397678,236.273657982465,246.854875712482,10.581217730017,-241.564266847474,112.846220126224,128.71804672125
0.383270387466779,242.790416912022,247.165453234539,4.37503632251742,-244.97793507328,119.207690294752,125.770244778528
0.386067981535879,249.519342235058,246.51142652684,-3.00791570821877,-248.015384380949,126.263628971639,121.75175540931
0.38886557560498,247.484018304898,242.417467883181,-5.06655042171687,-244.95074309404,126.275284363308,118.675458730732
0.39166316967408,244.354553044327,242.992816931134,-1.3617361131931,-243.67368498773,122.85814457876,120.81554040897
0.394460763743181,237.631189481246,246.055474375559,8.42428489431336,-241.843331928403,114.603452293466,127.239879634936
0.397258357812281,233.096146606476,246.100472854313,13.0043262478368,-239.598309730395,110.04591017932,129.552399551075
0.400055951881382,239.963566368031,249.405573766388,9.44200739835668,-244.684570067209,115.260779484837,129.423790582372
0.402853545950483,255.381298808156,259.039415853342,3.65811704518643,-257.210357330749,125.861590881485,131.348766449264
0.405651140019583,261.690181397782,263.82910863781,2.13892724002773,-262.759645017796,129.775627078877,132.984017938919
0.408448734088684,262.237385827177,263.005416976168,0.768031148991327,-262.621401401672,130.734677339093,131.88672406258
0.411246328157784,253.288640074279,258.194237222307,4.90559714802779,-255.741438648293,124.191521463125,131.549917185167
0.414043922226885,239.687588917644,247.809295694571,8.12170677692697,-243.748442306107,115.782941070358,127.965501235749
0.416841516295985,234.900276651468,240.59046093619,5.69018428472188,-237.745368793829,114.605046183373,123.140322610456
0.419639110365086,238.128931497591,239.75477441235,1.62584291475841,-238.94185295497,118.251544291416,120.690308663554
0.422436704434187,247.834350819071,246.943341064013,-0.891009755057894,-247.388845941542,124.362680287065,123.026165654478
0.425234298503287,254.443527123989,253.422039580464,-1.02148754352567,-253.932783352226,127.732507333757,126.200276018469
0.428031892572388,253.77852987446,255.938490195678,2.15996032121842,-254.858510035069,125.809284776621,129.049225258448
0.430829486641488,246.434941040081,251.997574879982,5.56263383990148,-249.216257960032,120.43615360009,128.780104359942
0.433627080710589,241.226555161245,253.451313202325,12.2247580410799,-247.338934181785,114.500898560083,132.838035621702
0.436424674779689,245.677971162932,248.458423299916,2.78045213698388,-247.068197231424,121.448759512974,125.61943771845
0.43922226884879,247.438841930505,245.166715955611,-2.27212597489338,-246.302778943058,124.855483952699,121.447294990359
0.442019862917891,253.603748180769,250.074315348718,-3.52943283205079,-251.839031764743,128.56659050641,123.272441258334
0.444817456986991,254.10965529665,251.165646656769,-2.94400863988125,-252.637650976709,128.526831968266,124.110819008444
0.447615051056092,248.414684153019,256.106397452887,7.69171329986827,-252.260540802953,120.361485426575,131.899055376378
0.450412645125192,238.144649008949,248.824926569059,10.6802775601105,-243.484787789004,113.732185724419,129.752602064585
0.453210239194293,237.470152050312,242.939106349676,5.46895429936322,-240.204629199994,116.000598875475,124.204030324519
0.456007833263394,242.305969804925,241.93086761281,-0.375102192114895,-242.118418708868,121.34053599852,120.777882710348
0.458805427332494,249.478774342523,245.992237631632,-3.48653671089184,-247.735505987077,126.482655526708,121.25285046037
0.461603021401595,252.68798722927,249.474610472006,-3.21337675726309,-251.081298850638,127.950681993266,123.130616857372
0.464400615470695,248.740987185965,254.487042311836,5.74605512587158,-251.6140147489,121.497466030046,130.116548718854
0.467198209539796,245.499205097998,257.638228707715,12.1390236097162,-251.568716902857,116.680090744141,134.888626158715
0.469995803608896,247.707460057328,256.578740216414,8.87128015908624,-252.143100136871,119.418089949121,132.72501018775
0.472793397677997,253.120913582638,258.699165674489,5.57825209185108,-255.910039628563,123.771330745393,132.13870888317
0.475590991747098,257.176003012436,257.07838776132,-0.0976152511163946,-257.127195386878,128.636809131776,128.490386255102
0.478388585816198,257.507433133534,254.125708067322,-3.38172506621234,-255.816570600428,130.444579099873,125.371991500555
0.481186179885299,253.831433982963,251.234257004295,-2.59717697866807,-252.532845493629,128.214305480816,124.318540012814
0.483983773954399,243.418350695918,249.733266502735,6.31491580681683,-246.575808599327,118.551717444551,128.024091154776
0.4867813680235,241.343046962011,252.701172667036,11.3581257050249,-247.022109814523,114.992460628493,132.02964918603
0.4895789620926,248.01839898502,254.74792531551,6.72952633048968,-251.383162150265,120.644436327265,130.738725823
0.492376556161701,254.4143086909,255.39784061684,0.983531925939985,-254.90607465387,126.71538838248,128.19068627139
0.495174150230802,258.226403036087,255.618099038899,-2.60830399718768,-256.922251037493,130.417353516637,126.504897520856
0.497971744299902,259.711689601426,259.200045311469,-0.511644289956962,-259.455867456447,130.111666945691,129.344200510756
0.500769338369003,254.185515427181,260.979002882058,6.79348745487667,-257.58225915462,123.696013986152,133.886245168467
0.503566932438103,245.472311396743,256.768394632586,11.2960832358433,-251.120353014665,117.08811408045,134.032238934215
0.506364526507204,245.363763322455,252.345224593533,6.98146127107771,-248.854493957994,119.191151025689,129.663342932305
0.509162120576304,249.200555666911,251.331396623452,2.13084095654071,-250.265976145182,123.534857355185,126.731118789996
0.511959714645405,254.038372774513,250.775984949363,-3.26238782515003,-252.407178861938,128.650380299831,123.756798562106
0.514757308714506,256.735733718036,253.630679790919,-3.10505392711741,-255.183206754477,129.920393822577,125.262812931901
0.517554902783606,256.989718342673,258.632413892484,1.64269554981109,-257.811066117579,127.673511396431,130.137554721148
0.520352496852707,251.278064976657,261.565455265155,10.2873902884983,-256.421760120906,120.495337344079,135.926422776827
0.523150090921807,248.391295353109,259.498128856092,11.1068335029834,-253.944712104601,118.642230925063,135.302481179538
0.525947684990908,248.025399078759,251.342951742962,3.31755266420379,-249.684175410861,122.353923207277,127.330252203583
0.528745279060008,250.625756943347,248.448533604723,-2.17722333862395,-249.537145274035,126.401490140985,123.13565513305
0.531542873129109,256.062976553812,253.677878248629,-2.38509830518231,-254.87042740122,129.224037429497,125.646389971723
0.53434046719821,255.731460377442,254.599461158114,-1.13199921932824,-255.165460767778,128.431729798385,126.733730969393
0.53713806126731,248.309861053337,254.260261554198,5.95040050086124,-251.285061303767,121.179730276238,130.10533102753
0.539935655336411,245.121737996794,257.817029935949,12.6952919391554,-251.469383966371,116.213223028819,135.256160937552
0.542733249405511,249.332776062357,260.17136849135,10.8385924289929,-254.752072276853,119.247091816682,135.504980460171
0.545530843474612,261.531827466946,266.114052048419,4.58222458147219,-263.822939757683,128.474801442737,135.348138314945
0.548328437543712,265.614293522639,264.097859247682,-1.51643427495634,-264.856076385161,133.565363898798,131.290712486363
0.551126031612813,263.11291837321,260.081656832101,-3.03126154110936,-261.597287602655,133.07208995716,128.525197645496
0.553923625681914,254.141494360831,254.124240905674,-0.0172534551576859,-254.132867633252,127.079373907994,127.053493725258
0.556721219751014,243.634301948458,249.834078756153,6.19977680769492,-246.734190352305,118.717262570382,128.016927781924
0.559518813820115,240.437353584971,248.33667345785,7.8993198728796,-244.387013521411,116.269016856046,128.117996665365
0.562316407889215,246.928167290338,251.10127217421,4.17310488387216,-249.014719732274,121.377531203233,127.637188529041
0.565114001958316,253.48267180292,251.352970274021,-2.12970152889832,-252.41782103847,127.806186665909,124.611634372561
0.567911596027416,259.980980595829,259.156705331475,-0.824275264354299,-259.568842963652,130.402627930092,129.16621503356
0.570709190096517,260.763183713916,264.351159134669,3.58797542075257,-262.557171424293,128.587604146582,133.969567277711
0.573506784165618,255.815263776566,265.761098333031,9.94583455646466,-260.788181054799,122.934714610051,137.853466444748
0.576304378234718,253.988645276332,267.56837209271,13.5797268163774,-260.778508684521,120.204459229977,140.574049454544
0.579101972303819,260.22952702199,268.737152642705,8.5076256207148,-264.483339832348,125.860950700638,138.62238913171
0.581899566372919,265.123438818084,265.66150952614,0.538070708055329,-265.392474172112,132.292684055015,133.099790117098
0.58469716044202,266.233550601656,262.183987644595,-4.0495629570608,-264.208769123126,135.141556779358,129.067212343767
0.58749475451112,263.322100657721,260.214958113115,-3.10714254460561,-261.768529385418,133.214621601163,128.553907784255
0.590292348580221,258.507122433213,263.351267480668,4.84414504745473,-260.929194956941,126.831488692879,134.097706264061
0.593089942649322,254.933465471754,266.088498949922,11.1550334781681,-260.510982210838,121.889215996793,138.621766214045
0.595887536718422,256.880661574843,268.848636374803,11.9679747999599,-262.864648974823,122.456343387442,140.408305587381
0.598685130787523,264.769770478028,267.257143511499,2.48737303347173,-266.013456994763,131.141198722278,134.872258272486
0.601482724856623,269.993099662147,269.25183954086,-0.741260121287212,-269.622469601503,135.367179891717,134.255289709786
0.604280318925724,271.401593149458,268.87922533271,-2.52236781674844,-270.140409241084,136.961980483103,133.178428757981
0.607077912994824,267.620792316155,268.919412206895,1.29861989073919,-268.270102261525,133.161086212708,135.109016048817
0.609875507063925,259.982499414052,270.93227403453,10.9497746204785,-265.457386724291,124.516362396787,140.941024327504
0.612673101133026,258.401637274842,269.712487746157,11.3108504713152,-264.0570625105,123.545393401763,140.511669108736
0.615470695202126,263.607830226978,268.839471528804,5.2316413018259,-266.223650877891,129.188094462576,137.035556415315
0.618268289271227,270.439651673077,271.554954823942,1.11530315086458,-270.997303248509,134.662174261106,136.335128987403
0.621065883340327,275.353961945438,272.766093309839,-2.58786863559851,-274.060027627639,138.970915290518,135.08911233712
0.623863477409428,272.7210362845,271.292342720817,-1.42869356368317,-272.006689502658,137.074864924092,134.931824578567
0.626661071478528,267.531155863792,272.606575691331,5.07541982753872,-270.068865777562,131.227868018127,138.840997759435
0.629458665547629,260.101108615382,270.61965109374,10.5185424783575,-265.360379854561,124.791283068512,140.569096786049
0.63225625961673,257.771886531098,265.697415306459,7.92552877536048,-261.734650918778,124.923178877869,136.81147204091
0.63505385368583,261.290384000099,260.358157045926,-0.932226954173586,-260.824270523012,131.111305477136,129.712965045876
0.637851447754931,263.259757268041,257.563207122778,-5.69655014526325,-260.411482195409,134.478153706652,125.933328488757
0.640649041824031,265.776395176647,264.092279618665,-1.6841155579823,-264.934337397656,133.730255367315,131.204082030341
0.643446635893132,262.357571366455,265.479699762308,3.12212839585294,-263.918635564381,129.617721485301,134.30091407908
0.646244229962233,257.134021140369,268.288921284441,11.1549001440717,-262.711471212405,122.989560498149,139.721910714256
0.649041824031333,256.82568790678,268.126055200133,11.3003672933532,-262.475871553456,122.762660306713,139.713211246743
0.651839418100434,261.718564451345,265.945004719824,4.22644026847826,-263.831784585585,128.746062091434,135.085722494151
0.654637012169534,266.989269255291,265.50854363236,-1.48072562293135,-266.248906443825,134.234997439111,132.013909004714
0.657434606238635,265.089591893991,259.307710375149,-5.78188151884262,-262.19865113457,135.435736706417,126.762914428153
0.660232200307735,258.760599785687,256.728156749894,-2.03244303579237,-257.74437826779,130.39652141074,127.347856857051
0.663029794376836,249.503850064172,253.9952194976,4.49136943342762,-251.749534780886,122.506240315372,129.243294465514
0.665827388445936,244.074565100908,252.240968783039,8.16640368213137,-248.157766941973,117.954080709388,130.203686232585
0.668624982515037,245.450599727419,250.032379320268,4.58177959284905,-247.741489523843,120.434410067285,127.307079456558
0.671422576584138,248.33191080879,247.200850357228,-1.1310604515628,-247.766380583009,124.731485630177,123.034894952832
0.674220170653238,252.342843209062,248.181366185907,-4.16147702315504,-250.262104697484,128.252160116109,122.009944581376
0.677017764722339,255.137623660623,251.201154307277,-3.93646935334613,-253.16938898395,129.537046506985,123.632342476965
0.679815358791439,250.703110986032,257.196089953049,6.49297896701628,-253.949600469541,122.105066009508,131.844534460032
0.68261295286054,244.954035610145,256.98384365151,12.0298080413643,-250.968939630827,116.46211378439,134.506825846437
0.685410546929641,243.56708114539,252.38712122386,8.82004007846973,-247.977101184625,117.37352053346,130.603580651165
0.688208140998741,246.366016728196,248.036265583868,1.67024885567182,-247.201141156032,122.347883936262,124.85325721977
0.691005735067842,250.647764878219,247.485198275901,-3.16256660231866,-249.06648157706,126.905165740269,122.161315836791
0.693803329136942,252.204664836801,246.475015672157,-5.72964916464352,-249.339840254479,128.967157000722,120.372683253757
0.696600923206043,248.670000661686,249.152380678929,0.482380017242377,-248.911190670308,124.093810322222,124.817380348086
0.699398517275143,243.492819536074,252.048453921157,8.55563438508369,-247.770636728615,117.468592575495,130.30204415312
0.702196111344244,243.363200552356,255.491383259475,12.1281827071193,-249.427291905915,115.617508922618,133.809782983297
0.704993705413344,248.411271589109,253.708219956646,5.2969483675362,-251.059745772877,121.557161610787,129.502584162091
0.707791299482445,255.252913963982,254.051273441532,-1.20164052244974,-254.652093702757,128.227277243216,126.424816459541
0.710588893551546,256.336182872717,252.949008340132,-3.38717453258536,-254.642595606424,129.861678702651,124.780916903773
0.713386487620646,250.598082104213,245.887640847753,-4.71044125646063,-248.242861475983,127.654261680337,120.588599795646
0.716184081689747,235.77805087423,235.170264040682,-0.607786833547863,-235.474157457456,118.192918853889,117.281238603567
0.718981675758847,226.615383682616,233.949038961488,7.33365527887253,-230.282211322052,109.640864201872,120.64134712018
0.721779269827948,233.01221593291,242.66543600292,9.65322007000998,-237.838825967915,111.67949793145,126.159328036465
0.724576863897049,244.606408496612,249.384854792439,4.77844629582609,-246.995631644525,119.913981100393,127.081650544132
0.727374457966149,252.26584487327,251.329253031271,-0.936591841998819,-251.797548952271,126.601218357634,125.196330594636
0.73017205203525,256.368078541624,254.519712463217,-1.84836607840691,-255.44389550242,129.108222310015,126.335673192405
0.73296964610435,259.180124297452,266.92268813272,7.74256383526767,-263.051406215086,125.718780231092,137.332625983994
0.735767240173451,264.951516766343,284.869989692143,19.9184729257998,-274.910753229243,122.516521920272,152.394231308971
0.738564834242551,283.681505614864,307.056998202292,23.3754925874274,-295.369251908578,130.153006513718,165.216245394859
0.741362428311652,306.928605812173,327.952679884065,21.0240740718924,-317.440642848119,142.95226587014,174.488376977979
0.744160022380753,332.186536251099,349.718813272124,17.5322770210245,-340.952674761611,157.327129615037,183.625545146574
0.746957616449853,354.194484997049,368.910382627028,14.7158976299792,-361.552433812038,169.739293683535,191.813140128504
0.749755210518954,363.71961517166,379.087677351946,15.3680621802862,-371.403646261803,174.175776495687,197.227869766116
0.752552804588054,356.749887301708,374.059979383194,17.3100920814861,-365.404933342451,169.719897610111,195.68503573234
0.755350398657155,343.330562634902,358.046251631934,14.7156889970319,-350.688407133418,164.307436818935,186.380970314483
0.758147992726255,326.486953557063,327.171307008235,0.684353451172115,-326.829130282649,162.901300052945,163.927830229703
0.760945586795356,307.989563545888,293.220329480825,-14.7692340650632,-300.604946513356,161.379398805476,139.225547707881
0.763743180864457,287.350467137124,263.117277376128,-24.2331897609965,-275.233872256626,155.79182844906,119.442043807566
0.766540774933557,263.022487693474,239.145647535953,-23.8768401575209,-251.084067614713,143.449663925497,107.634403689216
0.769338369002658,241.827834465271,226.200697495209,-15.627136970062,-234.01426598024,128.727485717667,105.286780262574
0.772135963071758,225.005255210305,221.3353574566,-3.66989775370584,-223.170306333453,114.337576482006,108.832729851447
0.774933557140859,226.90843239876,226.240125262369,-0.668307136391292,-226.574278830565,113.788369767576,112.785909062989
0.77773115120996,236.893752124919,234.433817112132,-2.45993501278707,-235.663784618525,119.676843568853,115.986941049672
0.78052874527906,247.457353871349,241.722000581081,-5.73535329026836,-244.589677226215,126.596353580809,117.993323645406
0.783326339348161,252.136642733769,249.586612478239,-2.55003025552998,-250.861627606004,127.343336494649,123.518291111354
0.786123933417261,251.063257981798,253.351977911562,2.28871992976428,-252.20761794668,124.387269026017,127.820348920663
0.788921527486362,240.467235108513,250.033974610935,9.56673950242143,-245.250604859724,115.450247803046,129.800357056678
0.791719121555462,235.583303162812,246.896781915315,11.313478752503,-241.240042539063,112.134912205154,129.105130333909
0.794516715624563,240.42672041826,245.4625493176,5.03582889933918,-242.94463486793,117.695445759461,125.249189108469
0.797314309693663,247.812785472392,248.743762759645,0.930977287253825,-248.278274116019,123.440904092569,124.83737002345
0.800111903762764,252.86898337215,251.888889365233,-0.980094006917113,-252.378936368691,126.924538689534,125.454397679158
0.802909497831865,255.404553804883,254.172923726963,-1.23163007792002,-254.788738765923,128.318091941402,126.470646824522
0.805707091900965,247.299229792793,254.128213989198,6.828984196405,-250.713721890995,120.235122798194,130.478599092801
0.808504685970066,242.096927363322,253.369422001513,11.2724946381912,-247.733174682418,115.412216362565,132.320958319852
0.811302280039166,242.503936554825,249.43707165613,6.9331351013044,-245.970504105478,117.785400726761,128.185103378717
0.814099874108267,247.317784947684,248.626194326235,1.30840937855154,-247.97198963696,123.004687784566,124.967301852393
0.816897468177368,254.22428962171,254.143702027786,-0.0805875939238092,-254.183995824748,127.152438607817,127.031557216931
0.819695062246468,259.615926510643,258.912146973553,-0.703779537089929,-259.264036742098,130.159853023867,129.104183718232
0.822492656315569,256.524871031987,260.570374423975,4.04550339198744,-258.547622727981,126.23968382,132.307938907981
0.825290250384669,245.562876777169,255.082634591107,9.51975781393816,-250.322755684138,118.021559481616,132.301196202523
0.82808784445377,239.169704449522,249.508393111825,10.3386886623028,-244.339048780674,114.41550789361,129.923540887064
0.83088543852287,242.907731664596,243.833654068071,0.925922403475283,-243.370692866334,120.99090463056,122.379788235773
0.833683032591971,248.338066343225,246.096107863311,-2.24195847991317,-247.217087103268,125.290012411569,121.927074691699
0.836480626661071,253.319610684945,250.06136132498,-3.25824935996516,-251.690486004962,128.288930022455,123.401555982507
0.839278220730172,253.719034184372,252.581688507962,-1.13734567641038,-253.150361346167,127.428189930391,125.722171415776
0.842075814799273,248.288947801541,255.930674491712,7.6417266901704,-252.109811146626,120.323610555685,131.786200590941
0.844873408868373,242.355583555425,254.383679746254,12.0280961908288,-248.36963165084,115.163743682298,133.205887968542
0.847671002937474,244.177147952373,251.065885288891,6.88873733651741,-247.621516620632,118.644205307928,128.977311312704
0.850468597006574,252.759290762634,251.659323669972,-1.09996709266198,-252.209307216303,126.929628927648,125.279678288655
0.853266191075675,258.818501123155,256.343008796556,-2.47549232659895,-257.580754959855,130.646996724877,126.933758234978
0.856063785144776,260.339473186583,257.25107360451,-3.08839958207341,-258.795273395547,131.713936384328,127.081337011218
0.858861379213876,252.612223888559,255.885132614503,3.27290872594381,-254.248678251531,124.669657581308,129.579020670224
0.861658973282977,244.077328580758,255.232155010849,11.1548264300906,-249.654741795803,116.461251075334,133.19349072047
0.864456567352077,247.949747315981,258.326382439144,10.3766351231625,-253.138064877562,118.786556096409,134.351508781153
0.867254161421178,255.569570399602,262.037694983936,6.46812458433385,-258.803632691769,124.550722907634,134.252909784135
0.870051755490278,264.155937447254,265.802654593243,1.6467171459891,-264.979296020248,131.254610150632,133.724685869616
0.872849349559379,266.818626679399,262.693633675198,-4.12499300420131,-264.756130177299,135.4718098418,129.284320335498
0.87564694362848,263.318827758177,260.632400933396,-2.68642682478111,-261.975614345787,133.002627291479,128.972987054308
0.87844453769758,252.32978236802,260.90683597666,8.57705360864009,-256.61830917234,121.87636437969,134.74194479265
0.881242131766681,248.70596046945,259.241787181585,10.5358267121349,-253.973873825517,119.085066878657,134.88880694686
0.884039725835781,252.829560332386,257.261597483276,4.43203715089078,-255.045578907831,124.198761590747,130.846817317084
0.886837319904882,260.611262740538,260.901861779251,0.29059903871223,-260.756562259895,130.160331850913,130.596230408981
0.889634913973982,264.377816805971,261.772847630789,-2.60496917518225,-263.07533221838,133.491392990577,129.583939227803
0.892432508043083,266.004725512414,263.806615916116,-2.1981095962974,-264.905670714265,134.101417554355,130.804253159909
0.895230102112184,258.28430174998,264.198981925992,5.9146801760113,-261.241641837986,126.184810786984,135.056831051001
0.898027696181284,253.605336707963,267.309883239572,13.7045465316089,-260.457609973767,119.950395088177,140.50721488559
0.900825290250385,255.763059733748,266.022403711081,10.2593439773331,-260.892731722415,122.751857878208,138.140873844207
0.903622884319485,264.182612629294,267.959937648816,3.77732501952221,-266.071275139055,130.202643804886,135.868631334169
0.906420478388586,268.944045698833,269.605275769459,0.661230070625493,-269.274660734146,134.141407814104,135.133252920042
0.909218072457686,273.33223632698,273.308174958282,-0.0240613686982556,-273.320205642631,136.678148847839,136.642056794792
0.912015666526787,269.007648140004,274.590047547164,5.58239940715993,-271.798847843584,131.712624366422,140.086223477162
0.914813260595888,263.396786754556,274.55446064002,11.1576738854649,-268.975623697288,126.119556434545,142.856067262743
0.917610854664988,260.422741251823,273.223511336537,12.8007700847148,-266.82312629418,123.810985583554,143.012140710626
0.920408448734089,265.404285743387,269.527805847433,4.12352010404675,-267.46604579541,130.64038281967,136.82566297574
0.923206042803189,269.443597480181,267.949653360761,-1.49394411941972,-268.696625420471,135.4687707998,133.227854620671
0.92600363687229,275.747708196603,272.447996167196,-3.29971202940669,-274.0978521819,139.523710113005,134.574142068895
0.92880123094139,275.676532168419,276.936913865661,1.26038169724166,-276.30672301704,137.208075235589,139.098647781451
0.931598825010491,270.057179264123,279.325886450356,9.26870718623371,-274.691532857239,130.394236038944,144.297296818295
0.934396419079592,268.396813862345,282.013467030816,13.6166531684715,-275.20514044658,127.390080346937,147.815060099644
0.937194013148692,272.294378907014,279.934993930957,7.64061502394327,-276.114686418986,132.326881941535,143.78780447745
0.939991607217793,276.281423352772,278.331396196728,2.04997284395643,-277.30640977475,137.115725254408,140.190684520342
0.942789201286893,278.841631222183,276.398846847144,-2.4427843750384,-277.620239034664,140.642207798611,136.978031236053
0.945586795355994,276.696868561408,273.676960476231,-3.01990808517701,-275.18691451882,139.858388323293,135.328526195527
0.948384389425094,272.776224584203,275.283401722921,2.50717713871791,-274.029813153562,135.134523722743,138.895289430819
0.951181983494195,270.908465296854,285.17960917122,14.2711438743668,-278.044037234037,128.318660711243,149.725376522794
0.953979577563296,276.04613282262,291.07783063268,15.0316978100595,-283.56198172765,130.50721750628,153.05476422137
0.956777171632396,283.047227734649,288.676578502773,5.62935076812386,-285.861903118711,138.708938483263,147.152964635449
0.959574765701497,289.773077770578,289.142311675626,-0.630766094951468,-289.457694723102,145.201921932765,144.255772790337
0.962372359770597,292.784390427131,290.425721832438,-2.35866859469263,-291.605056129785,147.571529510912,144.033526618873
0.965169953839698,288.295153217726,289.628745413511,1.33359219578568,-288.961949315618,143.48078051097,145.481168804648
0.967967547908798,276.741654701823,281.968704884105,5.22705018228265,-279.355179792964,135.75730225977,143.597877533194
0.970765141977899,271.951829100235,280.669860750499,8.7180316502637,-276.310844925367,131.616898724986,144.693946200381
0.973562736047,277.074567785642,283.062910179728,5.98834239408552,-280.068738982685,135.543112695778,144.525626286907
0.9763603301161,285.445611193629,285.957300361283,0.511689167653515,-285.701455777456,142.466961012988,143.234494764468
0.979157924185201,289.603832050914,287.260049183546,-2.34378286736728,-288.43194061723,145.97380745914,142.458133158089
0.981955518254301,294.207113638646,291.241984539223,-2.96512909942271,-292.724549088935,148.586121369034,144.1384277199
0.984753112323402,285.089297007655,290.748056278525,5.65875927086978,-287.91867664309,139.715268868393,148.203407774697
0.987550706392503,275.241630980201,282.302766229048,7.06113524884728,-278.772198604625,134.090247865677,144.681950738948
0.990348300461603,271.255292455154,276.735919304392,5.48062684923758,-273.995605879773,132.887332802958,141.108273076815
0.993145894530704,273.14475463852,272.450445204411,-0.694309434108732,-272.797599921466,136.919532036314,135.878067885151
0.995943488599804,278.302440530122,277.673421302215,-0.629019227906781,-277.987930916169,139.465729879015,138.522201037154
0.998741082668905,284.82544424551,280.809030876988,-4.0164133685218,-282.817237561249,144.420928807016,138.396308754233
1.00153867673801,279.055411258687,281.923720364375,2.8683091056883,-280.489565811531,138.093551076499,142.396014735032
1.00433627080711,272.274580937092,281.543066682072,9.26848574497984,-276.908823809582,131.503047596056,145.405776213526
1.00713386487621,268.017455518399,275.311552315436,7.29409679703735,-271.664503916918,130.361679360681,141.302824556237
1.00993145894531,269.712093064145,271.823275247174,2.11118218302857,-270.76768415566,133.800455440558,136.967228715101
1.01272905301441,271.725261483947,267.35993432017,-4.36532716377712,-269.542597902059,138.045294323862,131.497303578197
1.01552664708351,270.529791792643,263.961534406059,-6.56825738658438,-267.245663099351,138.549024589614,128.696638509737
1.01832424115261,263.398093139333,257.896841770017,-5.50125136931536,-260.647467454675,134.449672254324,126.197795200351
1.02112183522171,253.465611457425,254.494786816683,1.02917535925883,-253.980199137054,126.218218049083,127.761981087971
1.02391942929081,246.614488464858,255.599351563212,8.9848630983544,-251.106920014035,118.814812683252,132.292107330783
1.02671702335991,251.215604132179,257.690777877932,6.47517374575278,-254.453191005056,122.370215193213,132.082975811842
1.02951461742901,256.316584614713,255.4491298385,-0.867454776212867,-255.882857226607,128.592019695463,127.290837531144
1.03231221149811,254.523994895289,248.727916792364,-5.79607810292518,-251.625955843826,130.160036499107,121.465919344719
1.03510980556721,250.113465689968,242.704518568083,-7.40894712188563,-246.408992129025,128.761206405927,117.647785723098
1.03790739963631,240.351120085258,241.054474472142,0.703354386884371,-240.7027972787,119.823882849187,120.878914429513
1.04070499370541,233.310216126606,242.230835819446,8.92061969283938,-237.770525973026,112.194798216884,125.575727756143
1.04350258777451,236.708242696513,246.592069274418,9.88382657790507,-241.650155985466,113.412208059304,128.237947926162
1.04630018184361,243.942706071381,244.987633844237,1.04492777285631,-244.465169957809,121.448889149262,123.016280808547
1.04909777591272,251.84954556569,247.7963756551,-4.05316991058976,-249.822960610395,127.95135773814,121.871602872255
1.05189536998182,252.660879750557,248.291051374807,-4.36982837575019,-250.475965562682,128.515354063153,121.960611499528
1.05469296405092,247.997856155507,247.583484542205,-0.414371613301967,-247.790670348856,124.206113884404,123.584556464451
1.05749055812002,236.878444825853,243.970633917853,7.09218909200064,-240.424539371853,114.893127866926,125.531411504927
1.06028815218912,230.283755724426,238.639570714868,8.35581499044198,-234.461663219647,110.963970366992,123.497692852655
1.06308574625822,232.354465638779,233.726127227517,1.37166158873737,-233.040296433148,115.491402025021,117.548894408127
1.06588334032732,238.691378641047,238.124379702827,-0.566998938220024,-238.407879171937,119.629188789633,118.778690382303
1.06868093439642,244.676186682992,242.685157184672,-1.99102949832007,-243.680671933832,123.333608090656,120.347063843176
1.07147852846552,245.998813721006,243.662219710032,-2.33659401097398,-244.830516715519,124.16770386599,120.662812849529
1.07427612253462,241.304134836437,248.038126988783,6.73399215234576,-244.67113091261,117.285071342046,127.386059570564
1.07707371660372,235.174124458796,246.666226057077,11.492101598281,-240.920175257937,111.841011430258,129.079163827679
1.07987131067282,235.238304136152,243.286636386517,8.04833225036515,-239.262470261335,113.594985942894,125.667484318441
1.08266890474192,238.26597041892,239.678430963792,1.41246054487257,-238.972200691356,118.426754937024,120.545445754332
1.08546649881102,242.122910164176,239.441394993817,-2.68151517035824,-240.782152578996,122.402212667267,118.37993991173
1.08826409288012,246.220220816365,243.602124214162,-2.61809660220229,-244.911172515263,124.419158709283,120.49201380598
1.09106168694922,242.487549855183,242.449892346261,-0.0376575089219671,-242.468721100722,121.262603682053,121.20611741867
1.09385928101832,233.785760549061,240.343958586359,6.55819803729787,-237.06485956771,113.613781255882,123.451078311828
1.09665687508742,227.945301414894,237.025279695127,9.07997828023309,-232.48529055501,109.43266156733,123.05262898768
1.09945446915653,233.167394997384,237.377382903264,4.20998790588024,-235.272388950324,114.478703545752,120.793685404572
1.10225206322563,241.092175564761,235.442146447187,-5.65002911757401,-238.267161005974,123.371102341168,114.896058664807
1.10504965729473,243.076765601683,241.076554585517,-2.00021101616605,-242.0766600936,122.538488308925,119.538171784676
1.10784725136383,242.751538652713,243.111273319733,0.359734667020376,-242.931405986223,121.195901992846,121.735503993377
1.11064484543293,238.831844244175,245.921954045602,7.09010980142673,-242.376899144888,115.870867221374,126.506031923514
1.11344243950203,233.571100758183,249.110463776122,15.5393630179391,-241.340782267152,109.015868870122,132.32491339703
1.11624003357113,234.549791056279,243.109023447917,8.5592323916382,-238.829407252098,112.99527933232,125.834127919778
1.11903762764023,237.615985072791,237.051774316549,-0.564210756242716,-237.33387969467,119.090097914517,118.243781780153
1.12183522170933,238.980832833675,234.584010038023,-4.39682279565221,-236.782421435849,121.688827814664,115.093593621185
1.12463281577843,235.769740924268,231.826758648502,-3.94298227576613,-233.798249786385,119.856361600017,113.941888186368
1.12743040984753,236.75802527263,241.892934984076,5.1349097114458,-239.325480128353,115.811557780592,123.513922347761
1.13022800391663,236.106442795448,249.960947949533,13.8545051540844,-243.03369537249,111.125968820682,131.907726551809
1.13302559798573,240.731482346242,250.344649227762,9.61316688152024,-245.538065787002,115.559157732361,129.978908054641
1.13582319205483,247.591866168122,254.576516872662,6.9846507045396,-251.084191520392,120.303607731791,130.780583788601
1.13862078612393,252.300842933091,251.2746934041,-1.02614952899063,-251.787768168596,126.663496231041,125.124271937555
1.14141838019303,253.433004858909,250.893232133838,-2.53977272507029,-252.163118496373,127.986388791989,124.176729704384
1.14421597426213,250.668012698652,250.63562756307,-0.0323851355819045,-250.651820130861,125.350198917117,125.301621213744
1.14701356833124,243.503639365761,253.128060670032,9.62442130427129,-248.315850017896,116.939609030745,131.376240987152
1.14981116240034,238.993001685765,251.098789914354,12.105788228589,-245.04589580006,113.443606728588,131.602289071472
1.15260875646944,239.232815049079,243.412628841461,4.17981379238117,-241.32272194527,117.526500628349,123.796221316921
1.15540635053854,242.470592060051,240.167176564765,-2.30341549528632,-241.318884312408,122.387003777669,118.931880534739
1.15820394460764,245.579287456971,239.843836717877,-5.73545073909392,-242.711562087424,125.657369098032,117.054192989392
1.16100153867674,244.695994681277,241.146359313619,-3.5496353676576,-242.921176997448,124.122815024467,118.798361972981
1.16379913274584,238.256346552559,243.535777189053,5.27943063649332,-240.896061870806,116.488457958033,124.407603912773
1.16659672681494,232.595535897867,243.036666361159,10.441130463292,-237.816101129513,111.077202717288,126.738898412226
1.16939432088404,234.117874231509,242.56905067104,8.45117643953122,-238.343462451274,112.833348895989,125.510113555285
1.17219191495314,240.55112866367,244.223152278888,3.67202361521851,-242.387140471279,118.439552524226,123.947587947053
1.17498950902224,251.118174629779,249.513085548851,-1.60508908092856,-250.315630089315,126.361631855354,123.953998233961
1.17778710309134,255.311339020341,252.313419799756,-2.99791922058495,-253.812379410049,129.154629120463,124.657750289586
1.18058469716044,249.711970950788,252.183331383409,2.47136043262159,-250.947651167098,123.620305259083,127.327345908015
1.18338229122954,238.262156354433,246.893463388908,8.63130703447439,-242.577809871671,114.815424659979,127.762385211691
1.18617988529864,233.939644490133,244.160063202568,10.2204187124355,-239.04985384635,111.859612888849,127.190240957502
1.18897747936774,239.462582790275,242.755294434543,3.29271164426785,-241.108938612409,118.084935573004,123.024003039405
1.19177507343684,246.170397211905,244.841125069327,-1.32927214257808,-245.505761140616,123.749834677242,121.755926463374
1.19457266750594,247.427451767676,241.935734585398,-5.49171718227788,-244.681593176537,126.459584474977,118.22200870156
1.19737026157505,242.816245168714,240.123825940419,-2.69241922829522,-241.470035554567,122.754332198505,118.715703356062
1.20016785564415,233.744039474278,238.871289589707,5.12725011542892,-236.307664531993,114.308394679425,121.999269852568
1.20296544971325,230.790577243182,242.632909582353,11.8423323391718,-236.711743412767,109.474122452005,127.237620960763
1.20576304378235,239.219617182732,247.633127265847,8.41351008311446,-243.426372224289,115.403053549809,128.023318674481
1.20856063785145,249.01760484542,251.224686172622,2.20708132720193,-250.121145509021,123.405261759109,126.715883749912
1.21135823192055,253.659725481935,251.399963445731,-2.25976203620411,-252.529844463833,127.95974375907,124.570100704764
1.21415582598965,252.581202290193,251.187052697312,-1.39414959288138,-251.884127493752,126.987675941537,124.896451552215
1.21695342005875,243.694791937163,246.061222885569,2.36643094840579,-244.878007411366,120.664180494379,124.213826916987
1.21975101412785,235.789875377097,243.53197853666,7.74210315956279,-239.660926956879,114.023886108767,125.637040848111
1.22254860819695,235.061465653872,246.88389649493,11.8224308410578,-240.972681074401,111.619517406407,129.353163667994
1.22534620226605,246.168004997678,247.162764215366,0.994759217687601,-246.665384606522,122.586622889995,124.078761716527
1.22814379633515,252.523960455294,251.24404732667,-1.2799131286244,-251.884003890982,126.901936791959,124.982067099023
1.23094139040425,256.652271913904,257.471321203079,0.819049289174814,-257.061796558491,127.916611312365,129.145185246127
1.23373898447335,257.665101842459,258.066831923644,0.401730081185349,-257.865966883052,128.631685880637,129.234281002415
1.23653657854245,248.914972369928,258.003561641395,9.08858927146673,-253.459267005661,119.913191549231,133.546075456431
1.23933417261155,241.407456650354,250.172354469194,8.76489781883987,-245.789905559774,116.321279415757,129.468626144017
1.24213176668065,240.995705558599,245.550084283447,4.55437872484788,-243.272894921023,118.220663416876,125.052231504147
1.24492936074976,245.752523409588,243.176862286026,-2.57566112356227,-244.464692847807,124.164092266575,120.300600581232
1.24772695481886,249.441641090452,241.455700574392,-7.98594051606023,-245.448670832422,128.713790803256,116.734880029166
1.25052454888796,247.655525965114,245.30674430092,-2.34878166419338,-246.481135133017,125.002153814654,121.478981318363
1.25332214295706,244.536646684674,250.894601053264,6.35795436859053,-247.715623868969,119.089346158042,128.626277710927
1.25611973702616,243.891121608701,258.18915229988,14.2980306911795,-251.040136954291,114.796545458761,136.24359149553
1.25891733109526,247.866440935374,259.096022430061,11.2295814946871,-253.481231682718,118.318429720344,135.162801962374
1.26171492516436,254.095933955776,258.277121034323,4.181187078547,-256.186527495049,124.957373438614,131.229154056435
1.26451251923346,256.463768432093,254.97521980845,-1.4885486236426,-255.719494120272,128.976158527868,126.743335592404
1.26731011330256,254.292469484154,250.902097559786,-3.39037192436842,-252.59728352197,128.841420704261,123.755862817709
1.27010770737166,248.946768852634,247.729901313747,-1.21686753888639,-248.338335083191,125.08181819576,123.256516887431
1.27290530144076,240.096722791488,249.400431467845,9.30370867635739,-244.748577129666,115.396507057565,129.352070072101
1.27570289550986,242.041161662013,254.229163724363,12.1880020623501,-248.135162693188,114.926579799831,133.208582893357
1.27850048957896,253.613604343491,262.163665079058,8.55006073556663,-257.888634711275,122.531771803962,135.356862907312
1.28129808364806,265.718527602831,266.890229633681,1.17170203085021,-266.304378618256,132.27341278599,134.030965832265
1.28409567771716,269.561799767425,270.069211075657,0.507411308232577,-269.815505421541,134.527194229596,135.288311191945
1.28689327178626,268.504092698058,265.353230729577,-3.15086196848148,-266.928661713817,135.82747733327,131.101184380548
1.28969086585536,256.380059962221,262.201993484152,5.82193352193127,-259.291026723187,125.279063220145,134.011963503042
1.29248845992447,249.946536637162,259.752171376841,9.80563473967902,-254.849354007001,120.070450948741,134.77890305826
1.29528605399357,251.584465246587,257.249551899603,5.66508665301589,-254.417008573095,122.959689296786,131.45731927631
1.29808364806267,257.313184828987,258.801195188667,1.48801035967961,-258.057190008827,127.912587234654,130.144602774173
1.30088124213177,266.295914498128,264.479412312795,-1.81650218533201,-265.387663405461,134.05620834173,131.331455063732
1.30367883620087,268.848898453976,267.039035726373,-1.80986272760344,-267.943967090175,135.32938059079,132.614586499385
1.30647643026997,260.815396322026,264.716024771691,3.90062844966502,-262.765710546858,128.45738393618,134.308326610678
1.30927402433907,250.130593127272,259.820304219778,9.68971109250649,-254.975448673525,120.220441017383,134.755007656142
1.31207161840817,248.173878182246,257.225645842198,9.05176765995225,-252.699762012222,119.561055261147,133.138706751075
1.31486921247727,250.527334787647,252.363105701308,1.83577091366089,-251.445220244477,124.345781936993,127.099438307484
1.31766680654637,254.919166352239,250.103749000909,-4.81541735132967,-252.511457676574,129.867291851784,122.64416582479
1.32046440061547,258.653758275112,254.309549493824,-4.34420878128836,-256.481653884468,131.4989835282,124.982670356268
1.32326199468457,254.851055494221,253.628159279533,-1.22289621468838,-254.239607386877,128.036975854455,126.202631532422
1.32605958875367,244.866792550903,250.333173056149,5.46638050524635,-247.599982803526,119.700206022828,127.899776780698
1.32885718282277,239.381915203207,249.311015294938,9.92910009173087,-244.346465249072,114.726407555738,129.620057693334
1.33165477689187,243.827927277063,250.777732994487,6.94980571742386,-247.302830135775,118.43906077982,128.863769355955
1.33445237096097,249.82320847371,246.902016384668,-2.92119208904205,-248.362612429189,126.372200281376,121.990412147813
1.33724996503007,249.095509405837,244.747721128851,-4.3477882769854,-246.921615267344,126.721648841411,120.199966425933
1.34004755909917,244.044926916533,239.337857740159,-4.7070691763742,-241.691392328346,124.375998046454,117.315394281893
1.34284515316828,235.723833929983,238.464882789486,2.74104885950229,-237.094358359735,116.491392535241,120.602965824494
1.34564274723738,229.951625297523,240.591145307084,10.6395200095606,-235.271385302303,109.656052643981,125.615332658322
1.34844034130648,233.192456197075,241.97564649768,8.78319030060456,-237.584051347378,112.204632948235,125.379418399142
1.35123793537558,243.007607699671,246.803284045932,3.79567634626133,-244.905445872802,119.605965676705,125.299480196097
1.35403552944468,248.906336177835,247.901575016661,-1.00476116117349,-248.403955597248,124.955548669504,123.448406927744
1.35683312351378,250.676381077174,245.797340029408,-4.87904104776607,-248.236860553291,127.77771106247,120.459149490821
1.35963071758288,244.971645848644,246.56171057177,1.5900647231264,-245.766678210207,121.690790562759,124.075887647448
1.36242831165198,235.002813115622,243.821622117463,8.81880900184117,-239.412217616542,113.09200205689,126.320215559652
1.36522590572108,228.229334461789,237.106014476668,8.87668001487918,-232.667674469228,109.676327223455,122.991347245774
1.36802349979018,232.187481781829,237.116567615395,4.9290858335653,-234.652024698612,113.629197974132,121.02282672448
1.37082109385928,241.410880554203,241.490009777768,0.0791292235643937,-241.450445165986,120.665875665319,120.784569500666
1.37361868792838,245.207275966545,244.277963381028,-0.929312585516499,-244.742619673786,123.068294276031,121.674325397756
1.37641628199748,246.982402881998,245.864301052221,-1.11810182977717,-246.423351967109,124.050252355888,122.373099611222
1.37921387606658,237.754157229829,244.649114235926,6.89495700609709,-241.201635732878,115.429600111866,125.772035621012
1.38201147013568,234.585421382013,245.016931377696,10.431509995683,-239.801176379855,112.076955693165,127.72422068669
1.38480906420478,234.227230986054,239.459935890032,5.23270490397809,-236.843583438043,114.497263041038,122.346320397005
1.38760665827388,236.284261276858,233.558421775557,-2.72583950130095,-234.921341526207,119.505050389079,115.416291137128
1.39040425234299,237.218638047945,230.835989644413,-6.38264840353233,-234.027313846179,121.800643225739,112.22667062044
1.39320184641209,234.574763842646,227.630036929453,-6.94472691319285,-231.10240038605,120.759745377919,110.34265500813
1.39599944048119,226.988032277419,227.1108763078,0.12284403038052,-227.04945429261,113.432594123519,113.61686016909
1.39879703455029,219.560742756795,228.998046132671,9.43730337587556,-224.279394444733,105.06171969046,119.217674754273
1.40159462861939,228.377085025135,241.753013305273,13.3759282801379,-235.065049165204,107.500578372498,127.564470792705
1.40439222268849,249.381025970705,262.167822747777,12.7867967770723,-255.774424359241,118.297114596816,137.477309762425
1.40718981675759,273.558881171543,284.120429655325,10.5615484837823,-278.839655413434,131.49866634388,147.340989069554
1.40998741082669,295.897134806728,311.859107062214,15.9619722554855,-303.878120934471,139.967581275621,163.91053965885
1.41278500489579,313.954561418605,332.739788285643,18.7852268670376,-323.347174852124,147.584667275784,175.76250757634
1.41558259896489,326.303566967946,355.30067121648,28.9971042485344,-340.802119092213,148.653231359706,192.148887732507
1.41838019303399,339.574501698946,369.724506241533,30.1500045425863,-354.64950397024,154.71224857818,199.937255392059
1.42117778710309,352.375077496303,375.90293991911,23.5278624228066,-364.139008707707,164.423607536748,199.715401170958
1.42397538117219,359.898915187573,370.82892787664,10.9300126890665,-365.363921532106,174.484451249253,190.879470282853
1.42677297524129,351.548158504643,350.028687471755,-1.51947103288813,-350.788422988199,176.533814768766,174.254608219433
1.42957056931039,330.18101263295,319.999305303512,-10.1817073294388,-325.090158968231,170.181359981195,154.908798987036
1.43236816337949,300.445137858555,290.112191926089,-10.3329459324665,-295.278664892322,155.389041895511,139.889622996811
1.43516575744859,268.126481561563,261.634787751947,-6.49169380961644,-264.880634656755,137.30908768559,127.571546971165
1.43796335151769,251.93136108805,242.355182896815,-9.57617819123499,-247.143271992433,130.753769639643,116.38950235279
1.4407609455868,244.998791904566,231.664299526285,-13.334492378281,-238.331545715426,129.166642141424,109.164903574002
1.4435585396559,242.432704033505,227.543403170384,-14.8893008631203,-234.988053601945,128.661002448313,106.327051153632
1.446356133725,239.771867231725,224.621060766788,-15.1508064649365,-232.196463999257,127.461336848331,104.735127150926
1.4491537277941,236.543880125169,230.631692463377,-5.91218766179196,-233.587786294273,121.22803389348,112.359752400792
1.4519513218632,233.520857661626,239.568271442018,6.04741378039236,-236.544564551822,113.736721940617,122.807842611205
1.4547489159323,237.57784298256,248.813463836183,11.2356208536224,-243.195653409372,113.171111064469,130.024542344903
1.4575465100014,245.400065300551,251.483302489654,6.08323718910222,-248.441683895103,119.658414055725,128.783269839378
1.4603441040705,248.448405680816,248.113594558968,-0.334811121847991,-248.281000119892,124.391608401332,123.88939171856
1.4631416981396,249.377947086392,246.093747358984,-3.28419972740795,-247.735847222688,126.3310734069,121.404773815788
1.4659392922087,244.941672725425,244.272379580003,-0.669293145421733,-244.607026152714,122.805482935423,121.801543217291
1.4687368862778,237.113991017114,242.042507009985,4.9285159928709,-239.57824901355,116.092737512122,123.485511501428
1.4715344803469,231.192376060025,241.583187272666,10.3908112126412,-236.387781666346,110.400782423692,125.986999242654
1.474332074416,234.605404356093,243.343633674717,8.73822931862492,-238.974519015405,112.933587518734,126.040931496671
1.4771296684851,243.199878603777,246.395886103439,3.19600749966185,-244.797882353608,120.001935552058,124.79594680155
1.4799272625542,247.731780699436,246.947022750416,-0.784757949019337,-247.339401724926,124.258269324227,123.081132400698
1.4827248566233,247.748107880851,246.057665817423,-1.69044206342801,-246.902886849137,124.719274972139,122.183611876997
1.4855224506924,245.579201209941,247.760895693109,2.18169448316735,-246.670048451525,121.698753363387,124.971295088138
1.48832004476151,236.895423600755,246.321054070232,9.42563046947635,-241.608238835494,113.73489656564,127.873342269854
1.49111763883061,234.244831760816,243.157302681521,8.91247092070569,-238.701067221168,112.666180420055,126.034886801113
1.49391523289971,238.711545528315,241.474460514311,2.76291498599622,-240.093003021313,117.974315271159,122.118687750154
1.49671282696881,248.33060328311,247.769408058808,-0.561195224302679,-248.050005670959,124.445899253707,123.604106417253
1.49951042103791,255.173535376299,253.363159951553,-1.81037542474596,-254.268347663926,128.491955400523,125.776392263404
1.50230801510701,255.571116575048,257.389313174576,1.81819659952833,-256.480214874812,126.87645998776,129.603754887052
1.50510560917611,245.064802817138,253.417099922116,8.35229710497808,-249.240951369627,118.35625285608,130.884698513547
1.50790320324521,244.397653210151,257.348626632431,12.9509734222798,-250.873139921291,115.723339893936,135.149800027355
1.51070079731431,249.446131902087,258.92057985974,9.47444795765372,-254.183355880914,119.985841972216,134.197513908697
1.51349839138341,256.017960725242,255.783253737464,-0.234706987778566,-255.900607231353,128.126333856511,127.774273374843
1.51629598545251,258.437415899653,254.253363194231,-4.18405270542252,-256.345389546942,131.310734302538,125.034655244404
1.51909357952161,258.301222749594,258.212466838442,-0.0887559111519067,-258.256844794018,129.194989330373,129.061855463645
1.52189117359071,250.92280348378,254.927614637118,4.00481115333736,-252.925209060449,123.458996165221,129.466212895227
1.52468876765981,242.788723875942,253.253257189403,10.464533313461,-248.020990532672,116.16209528124,131.858895251432
1.52748636172891,246.746376361044,257.285643347302,10.5392669862583,-252.016009854173,118.103554687393,133.91245516678
1.53028395579801,255.687975928962,261.423053589111,5.7350776601487,-258.555514759036,124.976449134407,133.57906562463
1.53308154986711,261.554601997787,257.551058658881,-4.00354333890539,-259.552830328334,132.779072668346,126.773757659988
1.53587914393621,259.35460467547,254.2932754692,-5.06132920626919,-256.823940072335,132.207966940869,124.615973131466
1.53867673800532,252.874410094485,251.709924304255,-1.16448579023071,-252.29216719937,127.019447942358,125.272719257012
1.54147433207442,245.327804625042,253.95556786307,8.62776323802854,-249.641686244056,118.350020693507,131.291665550549
1.54427192614352,246.545936656041,257.991471332205,11.4455346761642,-252.268703994123,117.550200989938,134.718503004185
1.54706952021262,253.702088346827,261.395786915734,7.69369856890683,-257.54893763128,123.00419488896,134.54474274232
1.54986711428172,262.103881199151,263.178584601459,1.07470340230753,-262.641232900305,130.514588898422,132.126644001883
1.55266470835082,265.050191304169,263.152052870104,-1.89813843406444,-264.101122087137,133.474164869117,130.62695721802
1.55546230241992,263.604586354886,259.729390182195,-3.87519617269112,-261.666988268541,133.739891263789,127.927097004752
1.55825989648902,252.790873304222,259.478045991272,6.68717268705021,-256.134459647747,123.051850308586,133.082609339161
1.56105749055812,247.289866890058,258.666374644376,11.3765077543176,-252.978120767217,117.95667956787,135.021441199347
1.56385508462722,257.306089804015,266.065344000802,8.75925419678634,-261.685716902409,124.273417803615,137.412299098794
1.56665267869632,268.876766648527,274.295333585082,5.41856693655421,-271.586050116804,131.729099855987,139.856950260818
1.56945027276542,276.098325178169,275.140008245293,-0.95831693287596,-275.619166711731,138.528321055523,137.090845656209
1.57224786683452,275.822217071177,274.912858929176,-0.909358142000428,-275.367538000176,138.365787606588,137.001750393588
1.57504546090362,272.292807841547,276.21327513012,3.92046728857241,-274.253041485833,134.186170276487,140.066871209346
1.57784305497272,263.374240066312,272.953155441103,9.57891537479077,-268.163697753708,126.897662345761,141.266035407947
1.58064064904182,263.438211351686,274.739170895332,11.3009595436454,-269.088691123509,126.06862590402,143.020065219488
1.58343824311092,270.017683481886,275.025489009414,5.00780552752826,-272.52158624565,132.504938977179,140.016647268471
1.58623583718003,275.822549187124,274.333965228612,-1.48858395851244,-275.078257207868,138.655566572818,136.42269063505
1.58903343124913,276.754284819681,271.779119774093,-4.97516504558723,-274.266702296887,140.864724932634,133.401977364253
1.59183102531823,272.718109270716,272.293503925761,-0.424605344954728,-272.505806598239,136.571357307835,135.934449290403
1.59462861938733,266.087842836986,272.166224470688,6.07838163370155,-269.127033653837,130.004730601642,139.122303052195
1.59742621345643,264.959384832605,278.657169775197,13.6977849425919,-271.808277303901,125.630799945006,146.177477358894
1.60022380752553,275.160472620338,284.479857974893,9.31938535455475,-279.820165297616,132.920543632892,146.899621664724
1.60302140159463,284.158425704502,287.805095140803,3.64666943630101,-285.981760422652,140.2558781341,145.725882288552
1.60581899566373,286.271569125701,285.343009967963,-0.928559157737823,-285.807289546832,143.600064141719,142.207225405113
1.60861658973283,287.428190588403,285.129824529017,-2.29836605938635,-286.27900755871,144.863278323895,141.415729234815
1.61141418380193,284.040856212516,288.93285019103,4.89199397851462,-286.486853201773,139.574431117001,146.912422084772
1.61421177787103,278.558259150399,294.481903582245,15.9236444318463,-286.520081366322,131.317307359276,155.202774007046
1.61700937194013,281.921879674648,293.041693188893,11.1198135142451,-287.481786431771,135.401033080201,152.080753351569
1.61980696600923,287.62124107681,290.877765720566,3.25652464375611,-289.249503398688,142.182358216527,147.067145182161
1.62260456007833,290.88923641183,290.214143240908,-0.675093170921969,-290.551689826369,145.782164791376,144.769525034993
1.62540215414743,291.751969664811,287.734975430024,-4.01699423478732,-289.743472547417,147.884481949799,141.858990597618
1.62819974821653,285.356481072868,285.854321936176,0.497840863308568,-285.605401504522,142.42932010478,143.176081399742
1.63099734228563,278.758925154088,287.980945040226,9.2220198861375,-283.369935097157,134.768452633975,148.601482463182
1.63379493635474,277.638594092175,288.812924583415,11.1743304912399,-283.225759337795,133.232131800467,149.993627537327
1.63659253042384,283.90755658675,289.969730295558,6.06217370880711,-286.938643441154,138.922691438972,148.015952002182
1.63939012449294,289.037266431002,288.77582805075,-0.261438380251832,-288.906547240876,144.649352405627,144.257194835249
1.64218771856204,294.38723291731,291.981704398608,-2.40552851870206,-293.184468657959,148.396380718006,144.788087939953
1.64498531263114,297.794635513305,295.505520355812,-2.28911515749371,-296.650077934559,150.0418753354,146.608202599159
1.64778290670024,290.968017479772,297.338837529759,6.37082004998638,-294.153427504766,142.298598714893,151.854828789873
1.65058050076934,285.383999385612,295.669486502702,10.2854871170906,-290.526742944157,137.54925613426,152.977486809896
1.65337809483844,287.411436548067,296.234522545845,8.82308599777815,-291.822979546956,139.294175275144,152.528804271812
1.65617568890754,296.699920287242,299.326926134411,2.6270058471693,-298.013423210827,147.036457220036,150.97696599079
1.65897328297664,300.885139894985,297.847903254293,-3.03723664069133,-299.366521574639,151.961188267838,147.405333306801
1.66177087704574,295.814713886582,290.014253071626,-5.80046081495584,-292.914483479104,150.807587350769,142.106896128335
1.66456847111484,280.943847621866,278.058335468874,-2.88551215299259,-279.50109154537,141.91467988743,137.586411657941
1.66736606518394,267.873582883181,276.348954879273,8.47537199609212,-272.111268881227,129.699105443544,142.412163437683
1.67016365925304,269.610354847524,279.494766083741,9.88441123621629,-274.552560465632,129.862971805654,144.689588659978
1.67296125332214,280.451397842118,285.955246929379,5.50384908726141,-283.203322385748,137.473774377428,145.72954800832
1.67575884739124,288.047637399367,285.282656754677,-2.76498064468973,-286.665147077022,145.406309022028,141.258838054994
1.67855644146034,285.700318375634,279.722351577199,-5.9779667984343,-282.711334976416,145.839142587034,136.872192389382
1.68135403552944,277.379246407405,272.453024459838,-4.92622194756683,-274.916135433622,141.152734177486,133.763401256136
1.68415162959855,264.976321519848,269.954719080084,4.97839756023677,-267.465520299966,129.998961979805,137.466558320161
1.68694922366765,258.393951911571,268.366937180398,9.97298526882679,-263.380444545985,124.210483321372,139.169961224613
1.68974681773675,263.360702647221,270.063055539155,6.70235289193454,-266.711879093188,128.329174877643,138.382704215545
1.69254441180585,270.987109635181,269.3725624491,-1.61454718608013,-270.17983604214,136.30082841063,133.87900763151
1.69534200587495,272.180691920393,266.202086978725,-5.97860494166724,-269.191389449559,139.07964843103,130.111741018529
1.69813959994405,269.012822170352,259.76870159321,-9.24412057714153,-264.390761881781,139.128471373747,125.262290508034
1.70093719401315,255.884503115698,255.718061253514,-0.166441862183916,-255.801282184606,128.025472488941,127.775809695665
1.70373478808225,246.60252561922,255.698377534272,9.09585191505226,-251.150451576746,118.753336852084,132.397114724662
1.70653238215135,245.580331909658,253.347855250491,7.76752334083312,-249.464093580075,118.906404284413,130.557689295662
1.70932997622045,253.041898736651,254.983424995342,1.94152625869162,-254.012661865996,125.550186238979,128.462475627017
1.71212757028955,259.242453010921,257.394960640247,-1.84749237067399,-258.318706825584,130.544972690798,127.773734134787
1.71492516435865,259.688044686971,254.223683144371,-5.46436154259979,-256.955863915671,132.576203114785,124.379660800885
1.71772275842775,252.376817205028,252.634434695689,0.257617490661431,-252.505625950358,126.059599857183,126.446026093175
1.72052035249685,245.331260423071,253.414553544974,8.08329312190324,-249.372906984023,118.623983650584,130.748923333439
1.72331794656595,243.08816829326,252.573374240699,9.48520594743954,-247.83077126698,116.80148117291,131.029290094069
1.72611554063505,247.835560340704,251.723877887799,3.88831754709582,-249.779719114252,121.973621396804,127.806097717448
1.72891313470415,252.51159675376,250.135597021032,-2.37599973272776,-251.323596887396,127.443798243244,123.879798644152
1.73171072877326,253.367014154591,247.044852323068,-6.32216183152229,-250.205933238829,129.844587993056,120.361345245773
1.73450832284236,249.618491783808,245.566482894593,-4.05200888921493,-247.5924873392,126.835250336511,120.757237002689
1.73730591691146,240.193443978762,244.787514277386,4.59407029862413,-242.490479128074,117.799686840069,124.690792288005
1.74010351098056,235.182264982928,247.039921627517,11.8576566445884,-241.111093305222,111.66230416917,129.448789136053
1.74290110504966,237.917979696447,246.072377511638,8.15439781519115,-241.995178604043,114.881790940628,127.113387663415
1.74569869911876,245.692869077122,245.247927456507,-0.44494162061531,-245.470398266814,123.068905348869,122.401492917946
1.74849629318786,249.268862992414,247.016265451853,-2.25259754056131,-248.142564222133,125.760730266488,122.381833955646
1.75129388725696,253.121013907721,251.216009210222,-1.90500469749864,-252.168511558971,127.51300930261,124.655502256362
1.75409148132606,249.411870125936,254.427359627147,5.01548950121182,-251.919614876542,122.198190312362,129.72142456418
1.75688907539516,244.119202125986,257.384266793475,13.2650646674895,-250.75173445973,115.427068729248,135.324665730482
1.75968666946426,244.018465461356,254.739724864089,10.721259402733,-249.379095162723,116.648603029312,132.730492133411
1.76248426353336,248.410429145013,252.336557678527,3.92612853351352,-250.37349341177,122.24215030575,128.13134310602
1.76528185760246,249.034766859673,247.042544697306,-1.992222162367,-248.038655778489,125.51349451102,122.525161267469
1.76807945167156,250.943725327128,244.946580268321,-5.99714505880712,-247.945152797725,128.470435192968,119.474717604757
1.77087704574066,246.680770902866,244.937042416489,-1.74372848637665,-245.808906659678,124.212249694621,121.596656965056
1.77367463980976,239.615888173255,244.608139067893,4.99225089463758,-242.112013620574,117.311818639309,124.800194981265
1.77647223387886,233.526347797094,243.497008787949,9.97066099085436,-238.511678292522,111.77784340312,126.733834889402
1.77926982794796,236.859801063516,243.543732847243,6.68393178372762,-240.201766955379,115.087934639894,125.113832315485
1.78206742201707,246.353800141736,245.523790771514,-0.830009370221404,-245.938795456625,123.591904755979,122.346890700646
1.78486501608617,250.234480327433,247.450401973148,-2.78407835428442,-248.842441150291,126.509279340859,122.333161809432
1.78766261015527,250.23232544191,247.368860930247,-2.86346451166287,-248.800593186078,126.547894976786,122.252698209292
1.79046020422437,245.507174769543,250.106069133077,4.59889436353382,-247.80662195131,120.454140203005,127.352481748305
1.79325779829347,236.714392427806,247.371316507132,10.6569240793257,-242.042854467469,113.02873417424,129.014120293229
1.79605539236257,238.942242081602,247.489774586841,8.54753250523947,-243.216008334221,115.197354788181,128.01865354604
1.79885298643167,246.011356705497,248.771177948356,2.75982124285832,-247.391267326927,121.62576773132,125.765499595607
1.80165058050077,252.523317836235,249.918051398577,-2.60526643765854,-251.220684617406,127.564292136947,123.656392480459
1.80444817456987,256.806564285125,254.517794635096,-2.28876965002928,-255.66217946011,129.547666967577,126.114512492533
1.80724576863897,253.782675366589,253.985923898438,0.203248531848516,-253.884299632514,126.78971341737,127.094586215143
1.81004336270807,245.614462438734,254.440339738044,8.82587729931032,-250.027401088389,118.394292569712,131.633108518677
1.81284095677717,242.783233215579,254.668369715964,11.8851365003849,-248.725801465772,115.449048357597,133.276753108175
1.81563855084627,248.891912332143,253.655265029467,4.76335269732388,-251.273588680805,122.06427981741,129.209308863395
1.81843614491537,256.282766043547,255.562021800895,-0.720744242651961,-255.922393922221,128.5017551431,127.420638779122
1.82123373898447,260.02213568663,257.645794103057,-2.37634158357309,-258.833964894844,131.199238635102,127.634726259742
1.82403133305357,255.625294343722,253.05316414127,-2.57213020245197,-254.339229242496,129.098712273087,125.240516969409
1.82682892712267,243.502213888158,246.427474235274,2.92526034711614,-244.964844061716,120.288476770521,124.676367291195
1.82962652119178,237.294194622705,246.820123294806,9.52592867210106,-242.057158958756,113.884132975302,128.173025983454
1.83242411526088,239.953420353621,246.665358299325,6.71193794570345,-243.309389326473,116.620741203959,126.688648122514
1.83522170932998,247.213175123966,249.230498070393,2.01732294642713,-248.22183659718,122.59792608877,125.62391050841
1.83801930339908,250.296860116703,248.739413353189,-1.55744676351475,-249.518136734946,125.927153440109,123.590983294837
1.84081689746818,254.957911516572,252.86490783987,-2.09300367670181,-253.911409678221,128.525457596637,125.385952081584
1.84361449153728,251.004759666526,256.750149267081,5.7453896005546,-253.877454466804,122.629685032986,131.247769433818
1.84641208560638,247.094346311597,260.513937717534,13.4195914059372,-253.804142014566,116.83737745283,136.966764561736
1.84920967967548,246.24711632423,255.607698859802,9.3605825355726,-250.927407592016,118.443266894329,132.484140697687
1.85200727374458,248.473064845435,250.863963783051,2.39089893761624,-249.668514314243,123.041082953909,126.627431360334
1.85480486781368,246.836542797522,240.669272235422,-6.16727056210067,-243.752907516472,126.501906679812,117.251000836661
1.85760246188278,244.66683765395,236.020371150954,-8.64646650299647,-240.343604402452,126.656652078473,113.686952323979
1.86040005595188,239.412694695883,236.032069286683,-3.38062540919952,-237.722381991283,121.396660052541,116.325721938742
1.86319765002098,233.884734751521,239.909723555523,6.02498880400208,-236.897229153522,113.929872973759,122.967356179763
1.86599524409008,233.501802923938,246.145951495323,12.6441485713856,-239.823877209631,110.428827176276,129.395050033354
1.86879283815918,241.763894642265,250.074058054908,8.31016341264294,-245.918976348587,116.726865614811,129.192110733776
1.87159043222828,252.835608280911,254.914498940653,2.07889065974203,-253.875053610782,125.378358810585,128.496694800198
1.87438802629738,260.526025266225,262.19882850418,1.67280323795501,-261.362426885202,129.426611014135,131.935815871067
1.87718562036648,262.791068140617,264.665354528577,1.87428638796024,-263.728211334597,130.458390876328,133.269820458269
1.87998321443559,257.346807839709,263.837793741506,6.49098590179756,-260.592300790607,125.427910968956,135.164389821652
1.88278080850469,249.535948860478,262.12740984256,12.5914609820815,-255.831679351519,118.472243939198,137.359435412321
1.88557840257379,249.455766961096,258.034226968957,8.57846000786094,-253.744996965026,120.438653476617,133.306343488409
1.88837599664289,251.614440322284,250.857149832055,-0.757290490229025,-251.235795077169,126.185865406256,125.049929670913
1.89117359071199,253.147382222027,249.363967245341,-3.7834149766858,-251.255674733684,128.465398599357,122.790276134328
1.89397118478109,255.011251603993,251.097017535652,-3.91423406834099,-253.054134569823,129.462742836167,123.591391733656
1.89676877885019,254.56538753045,255.928807599629,1.36342006917906,-255.247097565039,126.600983730635,128.646113834404
1.89956637291929,249.789073594222,262.20214962544,12.4130760312188,-255.995611609831,118.687998781501,137.30761282833
1.90236396698839,248.536685136957,260.454557269769,11.9178721328113,-254.495621203363,118.309406502073,136.18621470129
1.90516156105749,251.240715739355,252.441457706264,1.20074196690851,-251.84108672281,125.019986886223,126.821099836586
1.90795915512659,256.060359426019,254.131576651978,-1.92878277404117,-255.095968038999,128.99457110003,126.101396938968
1.91075674919569,259.863633517288,259.844374683144,-0.0192588341436135,-259.854004100216,129.941446175716,129.9125579245
1.91355434326479,262.058880833009,264.633392730774,2.57451189776532,-263.346136781892,129.742184467622,133.60395231427
1.91635193733389,256.421855596671,266.099217029026,9.67736143235481,-261.260536312849,123.372247082158,137.88828923069
1.91914953140299,251.680498333372,263.610047763978,11.9295494306064,-257.645273048675,119.875474451383,137.769798597292
1.92194712547209,253.328882177975,261.273221845578,7.94433966760332,-257.301052011777,122.692271255186,134.608780756591
1.92474471954119,258.162335982937,259.027012889783,0.864676906846171,-258.59467443636,128.648829538046,129.945844898315
1.9275423136103,261.4276490174,258.278077950691,-3.14957106670897,-259.852863484045,132.288610042054,127.564253441991
1.9303399076794,261.506390776173,256.571190614679,-4.93520016149324,-259.038790695426,133.220795468833,125.817995226593
1.9331375017485,258.300591334558,263.566544611268,5.26595327671072,-260.933567972913,126.517319028923,134.416248943989
1.9359350958176,254.142121330653,264.355552548774,10.2134312181214,-259.248836939713,121.964345056266,137.284491883448
1.9387326898867,252.330728825725,266.12311482945,13.7923860037258,-259.226921827587,119.269171410999,139.957750416588
1.9415302839558,261.03638729665,264.725844895804,3.6894575991538,-262.881116096227,128.673464848748,134.207651247479
1.9443278780249,265.265238193465,262.33485956894,-2.93037862452417,-263.800048881202,134.097808408994,129.702240472208
1.947125472094,263.254565840215,258.932461911989,-4.32210392822577,-261.093513876102,133.78833488422,127.305178991882
1.9499230661631,257.835075665911,253.940754464505,-3.89432120140583,-255.887915065208,130.864698433658,125.02321663155
1.9527206602322,247.213384954609,253.154401134899,5.94101618028986,-250.183893044754,120.63618438716,129.547708657594
1.9555182543013,239.533733964814,247.047654755413,7.51392079059914,-243.290694360113,116.009906587107,127.280787773006
1.9583158483704,241.636641113796,246.503266321949,4.86662520815338,-244.069953717873,118.385007952821,125.684945765051
1.9611134424395,246.693241892673,244.910235588336,-1.78300630433699,-245.801738740505,124.238124098505,121.563614642
1.9639110365086,249.742357972551,246.227795434437,-3.51456253811361,-247.985076703494,126.628460255332,121.356616448162
1.9667086305777,249.389951189825,245.951998775306,-3.43795241451997,-247.670974982565,126.413951802173,121.257023180393
1.9695062246468,242.786074205468,245.161546177338,2.37547197187064,-243.973810191403,120.205301116798,123.768509074604
1.9723038187159,234.856881032495,243.87142761995,9.0145465874553,-239.364154326223,112.92116722252,126.442987103703
1.97510141278501,232.665973351486,241.000898503258,8.33492515177252,-236.833435927372,112.165524099857,124.667911827515
1.97789900685411,238.407948387635,239.415799268416,1.00785088078064,-238.911873828025,118.700048753427,120.211825074598
1.98069660092321,244.030485812363,242.265950211266,-1.76453560109735,-243.148218011814,122.89751070673,120.250707305084
1.98349419499231,245.580532118791,242.706267786876,-2.8742643319151,-244.143399952834,124.227398225353,119.916001727481
1.98629178906141,239.145379134424,237.925502955802,-1.21987617862197,-238.535441045113,120.182627656523,118.35281338859
1.98908938313051,231.102666771168,238.30153098899,7.1988642178213,-234.702098880079,111.951901276673,122.750197603405
1.99188697719961,229.405541891943,241.085942185583,11.6804002936401,-235.245742038763,108.862570799151,126.383171239612
1.99468457126871,238.877211339292,249.022662488754,10.1454511494623,-243.949936914023,114.365880094915,129.584056819108
1.99748216533781,243.731850290919,243.822768320147,0.0909180292276233,-243.777309305533,121.820466130846,121.956843174687
2.00027975940691,244.789055981556,241.035750212656,-3.75330576890033,-242.912403097106,124.271180875228,118.641222221878
2.00307735347601,242.658698068075,240.305629114022,-2.35306895405259,-241.482163591049,122.505883511064,118.976280079985
2.00587494754511,237.838979655791,243.150434038841,5.31145438304986,-240.494706847316,116.263762636371,124.230944210945
2.00867254161421,230.263310996672,240.338277497046,10.0749665003737,-235.300794246859,110.094172248149,125.20662199871
2.01147013568331,229.811749052568,237.052335504266,7.2405864516987,-233.432042278417,111.285581300435,122.146460977983
2.01426772975241,234.582712585642,235.801361824132,1.21864923848977,-235.192037204887,116.682031673576,118.510005531311
2.01706532382151,239.117025309052,236.265262273391,-2.85176303566118,-237.691143791222,120.984394172357,116.706749618865
2.01986291789061,242.140367010834,240.358187066714,-1.78217994412014,-241.249277038774,121.961273477477,119.288003561297
2.02266051195971,236.642637436033,239.997622446887,3.35498501085414,-238.32012994146,116.64382621259,121.676303728871
2.02545810602882,228.034090181798,235.546481271685,7.51239108988719,-231.790285726741,110.260849545955,121.529436180786
2.02825570009792,224.051818316659,232.273593360521,8.2217750438619,-228.16270583859,107.915021636399,120.247684202191
2.03105329416702,227.083410880756,228.696987413469,1.61357653271313,-227.890199147112,112.734917174021,115.155281973091
2.03385088823612,231.779313839154,229.167586263082,-2.61172757607181,-230.473450051118,117.195520707613,113.277929343505
2.03664848230522,237.489598912154,233.969903117571,-3.51969579458316,-235.729751014863,120.504647353369,115.225103661494
2.03944607637432,244.073009028819,246.218269008061,2.14525997924201,-245.14563901844,120.963874524789,124.181764493652
2.04224367044342,254.408335346513,272.728604742114,18.3202693956007,-263.568470044314,118.044032975456,145.524437068857
2.04504126451252,273.962336121668,306.072958787961,32.1106226662936,-290.017647454814,120.925856727687,169.091790727127
2.04783885858162,305.398609194466,335.185528273094,29.786919078628,-320.29206873378,137.805845057919,182.486223675861
2.05063645265072,338.791170277842,365.152125472046,26.3609551942037,-351.971647874944,156.215107541819,195.756540333125
2.05343404671982,362.306585215865,381.910930114226,19.6043448983616,-372.108757665045,171.351120158752,200.757637506294
2.05623164078892,369.985156825925,384.58901674411,14.6038599181853,-377.287086785017,177.69064845387,199.596438331148
2.05902923485802,359.697474337353,372.888954521591,13.1914801842378,-366.293214429472,173.252997076558,193.040217352915
2.06182682892712,335.293333981427,342.629035693318,7.33570171189103,-338.961184837373,163.978816134768,174.982368702605
2.06462442299622,311.559560179873,308.184373447938,-3.37518673193409,-309.871966813905,157.467373455903,152.404593358002
2.06742201706532,288.37050368786,271.402266483125,-16.9682372047353,-279.886385085493,152.669370446298,127.217014639195
2.07021961113442,263.540118837454,238.030367586573,-25.5097512508804,-250.785243212014,144.524935044167,106.260308167846
2.07301720520352,241.313654061088,215.182008068124,-26.1316459929641,-228.247831064606,133.722650027026,94.52518103758
2.07581479927263,226.448825983796,207.422047774006,-19.0267782097901,-216.935436878901,122.737802096793,94.1976347821081
2.07861239334173,217.84954073759,212.202962910599,-5.64657782699047,-215.026251824095,111.74805928229,103.278192541804
2.08140998741083,218.474288427716,222.401639366077,3.92735093836063,-220.437963896896,107.273468744678,113.164495152219
2.08420758147993,230.868982984684,235.009733757796,4.1407507731125,-232.93935837124,113.364116105786,119.575242265454
2.08700517554903,242.718744990175,242.998991884783,0.280246894608183,-242.858868437479,121.219249047783,121.639619389696
2.08980276961813,246.256906366616,243.143451146586,-3.11345522003009,-244.700178756601,124.685180793323,120.014997963278
2.09260036368723,242.76184481307,240.050834549778,-2.71101026329211,-241.406339681424,122.736427538181,118.669912143243
2.09539795775633,234.078636296898,239.174604014044,5.09596771714547,-236.626620155471,114.491334289876,122.135285865595
2.09819555182543,226.388207238658,238.19351806739,11.8053108287318,-232.290862653024,107.291448204963,124.999414448061
2.10099314589453,229.689766897783,236.50332038015,6.8135534823671,-233.096543638967,111.438106707708,121.658436931259
2.10379073996363,235.15447643931,236.613119153824,1.45864271451427,-235.883797796567,116.847916862398,119.035880934169
2.10658833403273,237.435983284328,236.047829005163,-1.38815427916424,-236.741906144745,119.412068781746,117.329837363
2.10938592810183,238.319595239673,232.985343858301,-5.33425138137176,-235.652469548987,121.826923310522,113.825546238465
2.11218352217093,232.926553546335,231.262189527103,-1.66436401923193,-232.094371536719,117.295458782784,114.798912753936
2.11498111624003,230.502155715034,240.51457703517,10.0124213201368,-235.508366375102,110.244867197448,125.263499177654
2.11777871030913,232.573083850356,245.120442258046,12.5473584076901,-238.846763054201,110.012862721333,128.833900332868
2.12057630437823,240.256300518167,244.484784575329,4.2284840571626,-242.370542546748,118.013908230502,124.356634316246
2.12337389844734,246.780996442896,247.247514960311,0.466518517414926,-247.014255701604,123.157238962741,123.857016738863
2.12617149251644,248.915823572954,246.682307521057,-2.23351605189666,-247.799065547005,125.574669812425,122.22439573458
2.12896908658554,244.530175280956,244.097347138711,-0.432828142244347,-244.313761209834,122.4815017116,121.832259498234
2.13176668065464,234.724314930067,239.640813341274,4.91649841120639,-237.182564135671,114.903908259431,122.27865587624
2.13456427472374,225.220832421415,233.796856765311,8.57602434389591,-229.508844593363,108.32240403876,121.186440554603
2.13736186879284,228.681269050777,235.631987111994,6.95071806121624,-232.156628081385,110.865275494781,121.291352586605
2.14015946286194,236.952677591259,236.990607499544,0.0379299082852356,-236.971642545401,118.457373841487,118.514268703915
2.14295705693104,244.243870400332,242.856131239691,-1.38773916064068,-243.550000820012,122.815804780486,120.734196039525
2.14575465100014,244.098379237522,242.556499614146,-1.54187962337593,-243.327439425834,122.820129430449,120.507309995385
2.14855224506924,235.824379140115,238.761268277916,2.93688913780073,-237.292823709015,116.443745001157,120.849078707858
2.15134983913834,229.202821633829,239.266095403205,10.0632737693765,-234.234458518517,109.569773932226,124.664684586291
2.15414743320744,232.387491784897,243.592793082911,11.2053012980139,-237.990142433904,110.591095243442,127.399047190462
2.15694502727654,242.996209000546,248.996258446424,6.00004944587789,-245.996233723485,118.498079777334,127.498153946151
2.15974262134564,248.902978352352,247.666600812124,-1.23637754022741,-248.284789582238,125.06967794629,123.215111635948
2.16254021541474,249.049037264431,244.105268205459,-4.94376905897118,-246.577152734945,126.996403161701,119.580749573244
2.16533780948384,241.718469141886,244.267650519735,2.54918137784887,-242.993059830811,119.584643882019,123.408415948792
2.16813540355294,233.382915131353,242.440731954007,9.05781682265368,-237.91182354268,112.16254915435,125.74927438833
2.17093299762205,231.489915855578,242.837949340148,11.3480334845704,-237.163932597863,110.070941185504,127.092991412359
2.17373059169115,240.268975233985,245.846612596695,5.57763736270988,-243.05779391534,117.345668935638,125.712124979702
2.17652818576025,247.8076994245,249.232075599466,1.42437617496637,-248.519887511983,123.191661624767,125.328225887216
2.17932577982935,249.851899073692,244.047864542853,-5.804034530839,-246.949881808272,127.827966802265,119.121915006007
2.18212337389845,246.81497591025,242.655264617831,-4.15971129241893,-244.735120264041,125.487343601335,119.247776662706
2.18492096796755,242.492880454262,248.842705370321,6.34982491605894,-245.667792912291,118.071527769101,127.59626514319
2.18771856203665,241.091699779734,254.810013644915,13.7183138651815,-247.950856712325,113.686692957276,134.264163755048
2.19051615610575,247.101218094787,257.744906569728,10.6436884749411,-252.423062332257,118.228764809923,134.194297522334
2.19331375017485,254.535364107408,258.694467038853,4.15910293144415,-256.61491557313,125.188130587982,131.426784985148
2.19611134424395,257.669311580129,253.565456857563,-4.10385472256596,-255.617384218846,130.886583151348,124.730801067499
2.19890893831305,255.858981057091,248.3058361816,-7.5531448754908,-252.082408619346,131.706062966291,120.376345653055
2.20170653238215,247.727461746249,249.743771785997,2.01631003974808,-248.735616766123,122.85557585325,125.880040912872
2.20450412645125,242.875166288666,252.414382353944,9.53921606527797,-247.644774321305,116.667975111694,130.976799209611
2.20730172052035,246.823282269024,260.760837911832,13.937555642808,-253.792060090428,116.442863313108,137.34919677732
2.21009931458945,253.226308975482,256.142868996252,2.91656002077016,-254.684588985867,125.154874477356,129.529714508511
2.21289690865855,258.185077534457,255.967384750607,-2.21769278385025,-257.076231142532,130.201385159154,126.874845983378
2.21569450272765,260.062065514855,256.471892842049,-3.59017267280541,-258.266979178452,131.82611909383,126.440860084622
2.21849209679675,259.386248668228,259.479541344688,0.0932926764598392,-259.432895006458,129.646477995884,129.786417010574
2.22128969086586,251.951154443218,259.51998920799,7.56883476477171,-255.735571825604,122.191159839223,133.544411986381
2.22408728493496,245.853059376702,256.538825124638,10.6857657479354,-251.19594225067,117.583646814383,133.612295436287
2.22688487900406,251.92308225057,259.137845056692,7.21476280612214,-255.530463653631,122.354159722224,133.176303931407
2.22968247307316,260.994988597523,265.567749633072,4.57276103554841,-263.281369115297,128.211113780987,135.07025533431
2.23248006714226,269.677692015655,270.18776483426,0.510072818604669,-269.932728424958,134.583809598525,135.348918826432
2.23527766121136,271.72638912313,271.511492843433,-0.214896279697143,-271.618940983281,135.970642701413,135.648298281868
2.23807525528046,262.660989795101,265.808858943541,3.14786914844024,-264.234924369321,129.75656032333,134.478364045991
2.24087284934956,253.039829787455,263.567614101323,10.5277843138675,-258.303721944389,121.256022736794,137.047699207595
2.24367044341866,254.797178016374,264.669094424971,9.87191640859754,-259.733136220673,122.462630803888,137.270505416784
2.24646803748776,264.585967465959,269.591438005457,5.00547053949748,-267.088702735708,129.790248463231,137.298454272477
2.24926563155686,271.896475297031,271.797402864806,-0.099072432225455,-271.846939080918,135.997773864628,135.84916521629
2.25206322562596,278.247850296181,277.809581069822,-0.438269226358898,-278.028715683001,139.34305976127,138.685655921732
2.25486081969506,278.902708545374,284.014872808474,5.11216426309977,-281.458790676924,136.895272141137,144.563518535787
2.25765841376416,273.147581760837,285.033685070238,11.8861033094011,-279.090633415538,130.630739225718,148.45989418982
2.26045600783326,270.626498266344,283.05021869562,12.4237204292765,-276.838358480982,129.101388918534,147.736969562448
2.26325360190236,273.027272016738,279.245348943597,6.21807692685809,-276.136310480168,133.40459754494,142.731712935227
2.26605119597146,274.809876605317,272.619836304341,-2.19004030097653,-273.714856454829,138.499958453147,135.214898001682
2.26884879004057,275.069881994257,270.558889481377,-4.51099251288019,-272.814385737817,139.790437253569,133.023948484248
2.27164638410967,272.801309061795,271.146051608456,-1.65525745333889,-271.973680335125,137.228283257567,134.745397077558
2.27444397817877,270.235104528934,276.995379073854,6.76027454491924,-273.615241801394,131.737414992008,141.877826809386
2.27724157224787,269.848371037671,283.875514003889,14.0271429662174,-276.86194252078,127.910614035727,148.951328485053
2.28003916631697,271.974779045892,280.954349412423,8.97957036653105,-276.464564229158,131.497604339681,144.966959889477
2.28283676038607,277.70064843082,278.306505236454,0.605856805634403,-278.003576833637,138.547395812593,139.456181021044
2.28563435445517,282.183196427099,280.93334662616,-1.2498498009387,-281.55827152663,141.716523114019,139.841748412611
2.28843194852427,283.381031710077,280.60427223601,-2.77675947406772,-281.992651973044,143.078895592073,138.913756380971
2.29122954259337,274.51691553644,276.061359036956,1.54444350051665,-275.289137286698,136.486236017962,138.802901268737
2.29402713666247,268.353141237332,278.247115180924,9.89397394359219,-273.300128209128,129.22958364687,144.070544562258
2.29682473073157,270.1857838082,283.410580178968,13.2247963707683,-276.798181993584,128.480493718716,148.317688274868
2.29962232480067,274.198180966659,278.430802944932,4.23262197827336,-276.314491955795,134.982779494193,141.331712461603
2.30241991886977,274.069425958748,271.449263161416,-2.62016279733149,-272.759344560082,138.34479437804,134.414550182042
2.30521751293887,270.822157411423,262.296002227395,-8.52615518402831,-266.559079819409,139.674156297726,126.884923521683
2.30801510700797,262.168769164758,256.94827843342,-5.22049073133752,-259.558523799089,133.694629948048,125.863893851041
2.31081270107707,248.746384664214,252.805732145179,4.05934748096473,-250.776058404696,122.343518591625,128.432539813072
2.31361029514617,243.07729903928,250.030811018885,6.95351197960485,-246.554055029083,118.061893529838,128.492161499245
2.31640788921528,246.805087193283,249.805176345739,3.00008915245613,-248.305131769511,121.902499020413,126.402632749098
2.31920548328438,252.277315492716,249.180774177939,-3.09654131477731,-250.729044835327,127.686928403747,123.042116431581
2.32200307735348,254.932575570271,248.002287966546,-6.93028760372491,-251.467431768408,130.931431586998,120.53600018141
2.32480067142258,255.371941168108,248.256773006631,-7.11516816147707,-251.814357087369,131.243554664792,120.570802422577
2.32759826549168,248.356519824437,252.860272432125,4.50375260768789,-250.608396128281,121.926383608374,128.682012519906
2.33039585956078,238.413215517126,248.454865366189,10.041649849063,-243.434040441657,114.185782834031,129.248257607626
2.33319345362988,235.40587598995,243.421314025007,8.01543803505703,-239.413595007478,113.695218977446,125.718376030032
2.33599104769898,239.965167210364,239.630194205709,-0.334973004655467,-239.797680708037,120.15007010751,119.647610600527
2.33878864176808,243.643209119127,236.900695745124,-6.74251337400338,-240.271952432125,125.192861246565,115.07909118556
2.34158623583718,242.853390627593,237.945658264977,-4.90773236261634,-240.399524446285,123.880561495105,116.51896295118
2.34438382990628,238.402680441279,238.52652358374,0.123843142460743,-238.464602012509,119.139418649409,119.3251833631
2.34718142397538,230.695977297878,236.481170972719,5.78519367484071,-233.588574135298,112.455391811519,121.13318232378
2.34997901804448,228.137504492277,238.644107972757,10.5066034804796,-233.390806232517,108.815450505899,124.575355726618
2.35277661211358,233.24971586502,236.509216617981,3.25950075296126,-234.879466241501,114.995107556029,119.884358685471
2.35557420618268,235.420838855012,233.002289056192,-2.41854979881981,-234.211563955602,118.919694326916,115.291869628686
2.35837180025178,237.355102956002,232.41002505749,-4.94507789851181,-234.882564006746,121.150090427257,113.732473579489
2.36116939432088,235.579968502909,232.921817752494,-2.6581507504153,-234.250893127701,119.119059626662,115.131833501039
2.36396698838998,226.255428536831,230.052234960566,3.79680642373529,-228.153831748699,111.229311056548,116.924520692151
2.36676458245909,218.605398645488,226.695125304928,8.08972665943949,-222.650261975208,105.257835993024,117.392425982184
2.36956217652819,221.805435438203,227.021334745178,5.2158993069749,-224.413385091691,108.294768065614,116.118617026077
2.37235977059729,228.705735722154,229.895546351942,1.18981062978827,-229.300641037048,113.757962546183,115.542678490865
2.37515736466639,234.0892294886,230.825126034225,-3.26410345437444,-232.457177761412,118.676666471487,113.780511289925
2.37795495873549,234.249004226207,230.4652416142,-3.78376261200708,-232.357122920204,119.016383419107,113.340739501097
2.38075255280459,229.818825311123,232.378159926722,2.55933461559852,-231.098492618923,113.629745347762,117.46874727116
2.38355014687369,221.170088051371,230.704543482786,9.53445543141564,-225.937315767078,105.817816309978,120.119499457101
2.38634774094279,219.241381245677,230.297352294812,11.055971049135,-224.769366770244,104.092705098271,120.676661671973
2.38914533501189,227.52478722887,233.123418866251,5.598631637381,-230.324103047561,110.963077795745,119.361025251816
2.39194292908099,234.622929251727,233.940739031382,-0.682190220344182,-234.281834141555,117.652559736035,116.629274405519
2.39474052315009,238.30966161601,233.526433391829,-4.78322822418104,-235.91804750392,121.546444920096,114.371602583824
2.39753811721919,235.746897378242,233.924003346461,-1.82289403178146,-234.835450362351,118.784895705012,116.05055465734
2.40033571128829,226.273356410924,232.38372062619,6.110364215266,-229.328538518557,110.081496097829,119.247042420728
2.40313330535739,221.640008772979,232.023100126907,10.3830913539284,-226.831554449943,105.628458709525,121.203095740418
2.40593089942649,225.607279693019,232.362678876548,6.75539918352868,-228.984979284783,109.425940254745,119.559039030038
2.40872849349559,231.050323624829,229.060870164633,-1.98945346019636,-230.055596894731,116.519888542513,113.535708352218
2.41152608756469,234.226022024648,230.997813866921,-3.22820815772687,-232.611917945784,118.727115091187,113.884802854597
2.4143236816338,237.615748716387,235.480466158592,-2.13528255779548,-236.54810743749,119.875515637091,116.672591800398
2.4171212757029,233.843616202775,238.839423371502,4.9958071687266,-236.341519787139,114.423904517024,121.917615270114
2.419918869772,228.960047479977,242.468790900489,13.5087434205116,-235.714419190233,107.725652029733,127.9887671605
2.4227164638411,227.755224680135,237.156131976429,9.40090729629401,-232.455678328282,109.177158691921,123.278519636362
2.4255140579102,231.435004249381,230.597749805167,-0.837254444213528,-231.016377027274,116.136129346797,114.880247680477
2.4283116519793,235.61799529835,230.951652405883,-4.6663428924673,-233.284823852116,120.142169095409,113.142654756708
2.4311092460484,238.599654294948,234.677527271467,-3.92212702348053,-236.638590783208,121.260890659214,115.377700123993
2.4339068401175,235.81756718366,237.23833437241,1.42076718874978,-236.527950778035,117.198399997455,119.32955078058
2.4367044341866,225.210974276017,229.731029545149,4.52005526913263,-227.471001910583,110.345459503442,117.125542407141
2.4395020282557,217.30448141717,226.846986710586,9.54250529341675,-222.075734063878,103.880988061876,118.194746002002
2.4422996223248,220.773098193265,223.533646638986,2.76054844572127,-222.153372416126,109.006274873772,113.147097542354
2.4450972163939,228.215656442741,227.03727977511,-1.17837666763117,-227.626468108926,114.697016555186,112.92945155374
2.447894810463,233.05861949264,229.837609058742,-3.2210104338989,-231.448114275691,118.13981496327,113.308299312421
2.4506924045321,236.067716267319,233.900693008928,-2.16702325839103,-234.984204638123,119.117369762855,115.866834875268
2.4534899986012,231.036737149948,239.18270058,8.14596343005178,-235.109718864974,111.445386859948,123.664332005026
2.4562875926703,226.904817288056,240.449866817826,13.5450495297705,-233.677342052941,106.679883879143,126.997458173798
2.4590851867394,230.13162340075,242.001136736954,11.8695133362037,-236.066380068852,109.131055032273,126.935325036579
2.4618827808085,239.865806301321,240.654843387036,0.78903708571562,-240.260324844179,119.538384607803,120.721940236376
2.46468037487761,241.664203754736,240.093071892037,-1.57113186269902,-240.878637823387,121.617667808718,119.260970014669
2.46747796894671,241.753787688238,238.48811992264,-3.26566776559756,-240.120953805439,122.509727726918,117.611226078521
2.47027556301581,234.510979513387,235.896507170131,1.3855276567443,-235.203743341759,116.562725928321,118.641017413438
2.47307315708491,225.532867133078,234.160354713343,8.62748758026487,-229.84661092321,108.452689776407,121.393921146804
2.47587075115401,225.292246536869,235.013314203572,9.72106766670373,-230.15278037022,107.785589435082,122.367190935138
2.47866834522311,228.417986202533,231.996115408855,3.57812920632242,-230.207050805694,112.419928498105,117.787122307589
2.48146593929221,231.832449057066,228.886021996571,-2.94642706049515,-230.359235526818,117.389438058781,112.969797468038
2.48426353336131,235.405234248601,231.182738968735,-4.22249527986563,-233.293986608668,119.813864764233,113.480121844435
2.48706112743041,238.795944435924,241.378989344311,2.58304490838637,-240.087466890118,118.106449763769,121.981017126349
2.48985872149951,233.802218599244,242.152283576928,8.35006497768393,-237.977251088086,112.72607681078,125.251174277306
2.49265631556861,230.887395355626,244.663341757806,13.7759464021805,-237.775368556716,108.555724476723,129.219644079993
2.49545390963771,234.499371700547,240.839320555318,6.33994885477117,-237.669346127933,114.079711422888,123.589634705045
2.49825150370681,237.875164473265,237.659372620986,-0.215791852278812,-237.767268547125,119.045478162772,118.721790384354
2.50104909777591,239.31815965454,233.513912502185,-5.804247152355,-236.416036078362,122.561203403447,113.854832674915
2.50384669184501,237.454580323457,230.953153949278,-6.50142637417869,-234.203867136367,121.978003348818,112.22586378755
2.50664428591411,230.156686406343,232.548594989796,2.39190858345341,-231.352640698069,113.882388911445,117.470251786625
2.50944187998321,223.839569324033,232.747183057567,8.90761373353436,-228.2933761908,107.465977795249,120.827398395551
2.51223947405232,227.121263301562,237.709640373277,10.5883770717153,-232.41545183742,108.266443114923,124.149008722496
2.51503706812142,236.711766030115,242.46235660387,5.75059057375518,-239.587061316993,115.48058772818,124.106473588813
2.51783466219052,247.069976055833,247.007669579993,-0.0623064758397334,-247.038822817913,123.566141265836,123.472681552077
2.52063225625962,251.117254774292,249.985234800856,-1.13201997343648,-250.551244787574,126.124637373864,124.42660741371
2.52342985032872,246.435069051329,250.028642314425,3.59357326309569,-248.231855682877,121.420747894117,126.81110778876
2.52622744439782,236.061605456463,243.938115921621,7.87651046515833,-239.999860689042,114.092547495652,125.90731319339
2.52902503846692,230.265088756868,238.596539093953,8.33145033708485,-234.430813925411,110.966819209892,123.463994715519
2.53182263253602,233.975951908066,239.306349744085,5.33039783601939,-236.641150826075,114.322777036023,122.318373790052
2.53462022660512,241.123403054457,241.337555450553,0.214152396096296,-241.230479252505,120.45462532918,120.775853923325
2.53741782067422,245.460145981702,241.070909950183,-4.38923603151898,-243.265527965943,124.924691006611,118.340836959332
2.54021541474332,249.096569744121,245.976215037399,-3.12035470672186,-247.53639239076,126.108462225422,121.427930165339
2.54301300881242,246.002998091545,254.367518623731,8.36452053218568,-250.185258357638,118.81923877968,131.366019577958
2.54581060288152,243.146246120634,256.25653978307,13.1102936624364,-249.701392951852,115.017976229099,134.683416722753
2.54860819695062,244.877617544781,256.868897375104,11.9912798303221,-250.873257459942,116.44316885723,134.430088602713
2.55140579101972,249.461703913025,252.393454736673,2.93175082364743,-250.927579324849,123.264976544689,127.66260278016
2.55420338508882,253.20170523852,250.492279583252,-2.70942565526832,-251.846992410886,127.955565446894,123.891426963992
2.55700097915792,254.842240577134,252.290996626431,-2.55124395070237,-253.566618601782,128.696742263918,124.869876337864
2.55979857322702,252.752851234425,255.991393179668,3.23854194524299,-254.372122207046,124.757154644591,129.614967562455
2.56259616729613,246.552173087749,258.673220368392,12.1210472806424,-252.612696728071,117.215562903554,135.397133824517
2.56539376136523,243.13806484326,251.301548426085,8.16348358282519,-247.219806634672,117.487290630217,129.732516004455
2.56819135543433,244.318044589458,246.832516907457,2.51447231799929,-245.575280748457,120.901786135729,124.673494612728
2.57098894950343,247.397081090129,246.562769897705,-0.834311192423456,-246.979925493917,124.115696141276,122.864229352641
2.57378654357253,247.009405904672,242.792300063084,-4.21710584158848,-244.900852983878,125.61325587313,119.287597110748
2.57658413764163,244.364859023018,241.65145593398,-2.71340308903805,-243.008157478499,123.539131056028,119.469026422471
2.57938173171073,236.481850171304,241.897506535584,5.41565636428024,-239.189678353444,115.533096903512,123.656581449932
2.58217932577983,233.530781795216,243.30291112147,9.77212932625406,-238.416846458343,111.879326234481,126.537520223862
2.58497691984893,238.419768674287,245.278103496647,6.85833482236018,-241.848936085467,115.780716925963,126.068219159504
2.58777451391803,243.925167729185,245.061182040454,1.13601431126935,-244.49317488482,121.394576708958,123.098598175862
2.59057210798713,247.028169109333,244.448296955013,-2.57987215431973,-245.738233032173,124.804020631826,120.934212400347
2.59336970205623,247.864103513055,244.03346801194,-3.8306355011141,-245.948785762497,125.847369507084,120.101416255413
2.59616729612533,238.410708358517,241.04430641653,2.63359805801306,-239.727507387524,117.888555150252,121.838952237272
2.59896489019443,228.824598935176,236.894112813946,8.06951387877012,-232.859355874561,110.377542528203,122.481813346358
2.60176248426353,227.829584853196,234.958316759269,7.12873190607357,-231.393950806233,110.350426473561,121.043524332672
2.60456007833263,233.247105225065,235.582192199327,2.33508697426174,-234.414648712196,115.456009125402,118.958639586794
2.60735767240173,236.558406287109,233.355601863432,-3.20280442367653,-234.957004075271,119.880605355393,115.076398719878
2.61015526647083,236.128009183114,230.494937748594,-5.63307143451976,-233.311473465854,120.880540308817,112.430933157037
2.61295286053994,230.814672769675,229.075576580153,-1.73909618952129,-229.945124674914,116.276884479598,113.668240195316
2.61575045460904,221.891204816379,229.734978274563,7.8437734581845,-225.813091545471,107.023715679097,118.789375866374
2.61854804867814,219.777387119783,230.227605203609,10.4502180838259,-225.002496161696,104.663584517978,120.338911643717
2.62134564274724,224.165871949502,230.055147348156,5.88927539865426,-227.110509648829,109.138298275424,117.972211373405
2.62414323681634,231.513007190459,230.971462133898,-0.541545056560835,-231.242234662179,116.02727612351,115.214958538669
2.62694083088544,237.744953347089,233.643335383096,-4.10161796399308,-235.694144365092,120.923285655541,114.770858709551
2.62973842495454,237.479500839903,236.194251904609,-1.28524893529377,-236.836876372256,119.382374887598,117.454501484658
2.63253601902364,230.15904547323,236.879955140276,6.7209096670455,-233.519500306753,111.719067903092,121.800432403661
2.63533361309274,223.022103564463,235.032194760683,12.0100911962204,-229.027149162573,105.506006184121,123.521142978452
2.63813120716184,223.931355374515,230.916940797105,6.98558542258962,-227.42414808581,108.472884975963,118.951263109847
2.64092880123094,229.592551738895,230.22063725135,0.628085512454959,-229.906594495122,114.48223311322,115.424361381902
2.64372639530004,231.240093505783,227.254715686462,-3.98537781932066,-229.247404596122,117.612735662552,111.634668933571
2.64652398936914,230.492222829469,224.183273185121,-6.30894964434762,-227.337748007295,118.400586236908,108.937161770387
2.64932158343824,223.350652876305,222.513232598772,-0.837420277533312,-222.931942737538,112.094036576919,110.837906160619
2.65211917750734,213.713370300922,220.76490286669,7.05153256576733,-217.239136583806,103.330918867577,113.908217716228
2.65491677157644,212.710088483276,222.274855017217,9.56476653394128,-217.492471750247,101.572660974667,115.919810775579
2.65771436564554,218.911786287055,223.9127262193,5.00093993224507,-221.412256253178,106.955423177405,114.456833075773
2.66051195971465,225.369853484288,227.188569092721,1.81871560843248,-226.279211288505,111.775568937928,114.503642350577
2.66330955378375,230.502525733893,229.628228221581,-0.87429751231241,-230.065376977737,115.688411623103,114.376965354634
2.66610714785285,235.597573799911,238.358798641912,2.76122484200096,-236.978186220912,116.418174478955,120.560011741957
2.66890474192195,240.277510257507,254.989125477366,14.7116152198586,-247.633317867437,112.782947518824,134.850370348612
2.67170233599105,253.244809315183,277.948099219561,24.7032899043779,-265.596454267372,114.270759705402,151.325694561969
2.67449993006015,275.74489582694,299.33094471255,23.5860488856093,-287.537920269745,126.079423470666,161.45849679908
2.67729752412925,299.613286081879,317.628292934661,18.0150068527823,-308.62078950827,140.799139614548,167.821649893722
2.68009511819835,320.981095880454,336.053140569052,15.0720446885979,-328.517118224753,152.954525595928,175.562592628825
2.68289271226745,340.040645791847,355.287913829374,15.2472680375263,-347.664279810611,162.396688877161,185.26759093345
2.68569030633655,342.481889453148,360.85204127879,18.3701518256415,-351.666965365969,162.055868813753,189.611096552216
2.68848790040565,336.079984542693,355.092828583871,19.0128440411779,-345.586406563282,158.533570250758,187.052836312525
2.69128549447475,323.173227827426,331.849018947058,8.67579111963249,-327.511123387242,157.248718353897,170.262405033345
2.69408308854385,307.938663976957,301.68222193046,-6.25644204649683,-304.810442953709,157.097553011727,147.712889941982
2.69688068261295,288.229465306362,271.736887772159,-16.4925775342025,-279.98317653926,152.361021420282,127.622155118978
2.69967827668205,267.15260527084,245.704520343416,-21.4480849274239,-256.428562807128,144.300345099132,112.128217707996
2.70247587075115,244.311827049295,224.922274524299,-19.3895525249956,-234.617050786797,131.850689787145,102.766360999652
2.70527346482025,223.369622280033,214.242275070432,-9.12734720960117,-218.805948675232,116.248484744817,102.557463930415
2.70807105888936,213.253298071871,210.065881863067,-3.18741620880391,-211.659589967469,108.220357140337,103.439232827131
2.71086865295846,215.341388418704,212.664741894461,-2.67664652424278,-214.003065156582,109.009017471473,104.994047685109
2.71366624702756,225.26047692836,218.702199129724,-6.55827779863694,-221.981338029042,115.909377363499,106.071960665543
2.71646384109666,232.409919032698,225.316989598928,-7.09292943377,-228.863454315813,119.751424233234,109.112030082579
2.71926143516576,235.233698695467,229.817129266545,-5.41656942892129,-232.525413981006,120.325134062194,112.200279918812
2.72205902923486,226.870396961726,231.632256668809,4.76185970708329,-229.251326815268,111.054268627321,118.197058187946
2.72485662330396,221.147814294604,232.134266148091,10.9864518534866,-226.641040221348,105.080681220559,121.560359000789
2.72765421737306,222.154236149407,230.081003286047,7.92676713664,-226.117619717727,107.113734506383,119.003885211343
2.73045181144216,232.094618829461,237.888140312081,5.79352148261927,-234.991379570771,113.150548673421,121.84083089735
2.73324940551126,239.522283444657,242.159272957074,2.63698951241724,-240.840778200865,118.44264696612,122.398131234746
2.73604699958036,241.838343829109,240.954068601184,-0.884275227924746,-241.396206215147,121.361309528517,120.03489668663
2.73884459364946,234.336298645282,235.467655614858,1.13135696957582,-234.90197713007,116.602470837853,118.299506292217
2.74164218771856,220.483945423939,227.255360735905,6.77141531196548,-223.869653079922,106.856265055987,117.013388023935
2.74443978178766,219.625312580075,229.332262072075,9.70694949199995,-224.478787326075,104.959181544038,119.519605782038
2.74723737585676,231.785923823862,239.595146190457,7.80922236659507,-235.690535007159,111.988350728633,123.702184278526
2.75003496992586,238.482259241327,242.164732957092,3.68247371576467,-240.32349609921,117.399892762781,122.923603336428
2.75283256399496,241.060776839287,236.85573792692,-4.20503891236658,-238.958257383103,122.632907875827,116.325349507277
2.75563015806406,236.224986797177,233.803013776277,-2.42197302089957,-235.014000286727,119.323479909038,115.690520377689
2.75842775213317,227.990091441059,234.50701527366,6.51692383260138,-231.24855335736,110.736583804229,120.511969553131
2.76122534620227,224.481450899428,237.437820032777,12.9563691333487,-230.959635466103,105.76254088304,125.197094583063
2.76402294027137,229.904653043764,238.018093487316,8.11344044355252,-233.96137326554,110.895606300106,123.065766965434
2.76682053434047,238.049353153149,240.413916830582,2.36456367743284,-239.231634991865,117.842394737858,121.389240254007
2.76961812840957,240.093830734673,236.708029076876,-3.38580165779683,-238.400929905775,121.739816196235,116.66111370954
2.77241572247867,241.26119988922,236.223973757593,-5.03722613162716,-238.742586823406,123.149213010424,115.593373812983
2.77521331654777,237.204205817491,240.246368861521,3.04216304402985,-238.725287339506,117.081021386731,121.644265952775
2.77801091061687,227.893750563395,236.761934055316,8.86818349192112,-232.327842309356,109.512783535737,122.815058773619
2.78080850468597,227.294329393739,233.985272387664,6.69094299392435,-230.639800890702,110.301693199908,120.338107690794
2.78360609875507,235.192473780918,237.077757539518,1.88528375860011,-236.135115660218,116.653595011159,119.481520649059
2.78640369282417,240.602075576269,238.998019877688,-1.60405569858034,-239.800047726979,121.103065637425,118.696982089554
2.78920128689327,243.795769388837,240.23605212394,-3.55971726489727,-242.015910756389,123.677743326867,118.338167429521
2.79199888096237,242.412125952221,241.15322758297,-1.25889836925148,-241.782676767596,121.835512160736,119.947164606859
