t,leadI,leadII,leadIII,aVR,aVL,aVF
0,3.51501350540913,1.77524313668219,-1.73977036872694,-2.64512832104566,2.62739193706804,0.0177363839776274
0.00216356555603635,-46.8371600340863,5.6098186390044,52.4469786730907,20.6136706975409,-49.6420693535885,29.0283986560475
0.0043271311120727,-92.8941203283799,9.05619556346356,101.950315891843,41.9189623824581,-97.4222181101116,55.5032557276535
0.00649069666810904,-131.243777617369,11.788661192139,143.032438809508,59.7275582126152,-137.138108213439,77.4105500008237
0.00865426222414539,-159.968469603917,13.5970558555669,173.565525459484,73.1857068741753,-166.766997531701,93.5812906575256
0.0108178277801817,-178.831569803877,14.4135975003766,193.245167304254,82.2089861517503,-186.038368554065,103.829382402315
0.0129813933362181,-189.047100657457,14.309763900342,203.356864557799,87.3686683785576,-196.201982607628,108.833314229071
0.0151449588922544,-192.766895254946,13.4659191761501,206.232814431096,89.650488039398,-199.499854843021,109.849366803623
0.0173085244482908,-192.471443997074,12.1237315775596,204.595175574633,90.1738562097571,-198.533309785853,108.359453576096
0.0194720900043271,-190.432519982068,10.533948883718,200.966468865786,89.9492855491749,-195.699494423927,105.750208874752
0.0216356555603635,-188.355081862861,8.9105716738628,197.265653536724,89.722255094499,-192.810367699792,103.088112605293
0.0237992211163998,-187.233462231456,7.40003398746579,194.633496218922,89.9167141219951,-190.933479225189,101.016765103194
0.0259627866724362,-187.396132765599,6.07075875555705,193.466891521156,90.6626870050211,-190.431512143378,99.7688251383566
0.0281263522284725,-188.676419895665,4.92296446138077,193.599384357046,91.8767277171421,-191.137902126355,99.2611744092133
0.0302899177845089,-190.63474401536,3.91233215479829,194.547076170158,93.3612059302809,-192.590910092759,99.2297041624784
0.0324534833405452,-192.766620408427,2.9775379080901,195.744158316517,94.8945412501686,-194.255389362472,99.3608481123038
0.0346170488965816,-194.653106287254,2.06251877731992,196.715625064574,96.2952937549669,-195.684365675914,99.3890719209467
0.0367806144526179,-196.038211862739,1.12874187010216,197.166953732841,97.4547349963184,-196.60258279779,99.1478478014717
0.0389441800086543,-196.84130406423,0.157983819600932,196.999287883831,98.3416601223146,-196.920295974031,98.578635851716
0.0411077455646906,-197.124942670109,-0.850443987121167,196.274498682988,98.9876933286153,-196.699720676549,97.7120273479335
0.043271311120727,-197.040180685025,-1.88354558181918,195.156635103205,99.4618631334219,-196.098407894115,96.6365447606931
0.0454348766767633,-196.767643872625,-2.91711009712261,193.850533775502,99.8423769848739,-195.309088824064,95.4667118391899
0.0475984422327997,-196.468219515749,-3.91745756133479,192.550761954414,100.192838538542,-194.509490735082,94.3166521965398
0.049762007788836,-196.252130952409,-4.84469623913398,191.407434713275,100.548413595772,-193.829782832842,93.2813692370706
0.0519255733448723,-196.168519151432,-5.65846407833557,190.510055073096,100.913491614884,-193.339287112264,92.4257954973804
0.0540891389009087,-196.211315176742,-6.32500274310275,189.886312433639,101.268158959922,-193.04881380519,91.7806548452681
0.056252704456945,-196.334374615986,-6.82368666750505,189.51068794848,101.579030641745,-192.922531282233,91.3435006404877
0.0584162700129814,-196.46969772658,-7.15138714719627,189.318310579383,101.810542436888,-192.894004152982,91.0834617160936
0.0605798355690177,-196.544599705572,-7.32331370548412,189.221286000088,101.933956705528,-192.88294285283,90.9489861473021
0.0627434011250541,-196.495406382764,-7.36971186845763,189.125694514306,101.932559125611,-192.810550448535,90.8779913229244
0.0649069666810904,-196.276653926663,-7.32927668145078,188.947377245212,101.802965304057,-192.612015585938,90.8090502818808
0.0670705322371268,-195.865809118977,-7.24138450219625,188.624424616781,101.553596810587,-192.245116867879,90.6915200572923
0.0692340977931631,-195.263930206939,-7.13940551080597,188.124524696133,101.201667858872,-191.694227451536,90.4925595926633
0.0713976633491995,-194.492698337877,-7.04659857485836,187.446099763019,100.769648456368,-190.969399050448,90.1997505940803
0.0735612289052358,-193.5884275187,-6.97502102399828,186.613406494702,100.281724271349,-190.100917006701,89.8191927353517
0.0757247944612722,-192.594220350505,-6.9269817354153,185.66723861509,99.7606010429604,-189.130729482798,89.3701284398374
0.0778883600173085,-191.552002305871,-6.89804738289827,184.653954922973,99.2250248443845,-188.102978614422,88.8779537700372
0.0800519255733449,-190.496195026234,-6.88050293225302,183.615692093981,98.6883489792434,-187.055943560107,88.3675945808639
0.0822154911293812,-189.450162889658,-6.8663700018249,182.583792887833,98.1582664457412,-186.016977888745,87.8587114430039
0.0843790566854176,-188.425644625746,-6.84945171636359,181.576192909382,97.6375481710547,-185.000918767564,87.3633705965093
0.0865426222414539,-187.42458793327,-6.82625768181059,180.598330251459,97.1254228075401,-184.011459092364,86.8860362848242
0.0887061877974903,-186.44236647808,-6.79596595227683,179.646400525803,96.6191662151783,-183.044383501941,86.4252172867631
0.0908697533535266,-185.471301608781,-6.75975150581457,178.711550102967,96.1155265572979,-182.091425855874,85.975899298576
0.093033318909563,-184.503639869784,-6.71985172355577,177.783788146228,95.6117457966697,-181.143714008006,85.5319682113361
0.0951968844655993,-183.53350792331,-6.67868015267797,176.854827770632,95.106094037994,-180.194167846971,85.088073808977
0.0973604500216357,-182.55774289399,-6.63818623208752,175.919556661903,94.597964563039,-179.238649777947,84.6406852149077
0.099524015577672,-181.575783672446,-6.59953503273976,174.976248639706,94.0876593525928,-178.276016156076,84.1883568034832
0.101687581133708,-180.588964586184,-6.56308003410395,174.02588455208,93.5760223101442,-177.307424569132,83.7314022589882
0.103851146689745,-179.599580223688,-6.52854029203737,173.071039931651,93.0640602578627,-176.335310077669,83.2712498198066
0.106014712245781,-178.610022629978,-6.49527301673813,172.11474961324,92.5526478233583,-175.362386121609,82.8097382982511
0.108178277801817,-177.622175549342,-6.46254502254526,171.159630526796,92.0423602859434,-174.390903038069,82.3485427521255
0.110341843357854,-176.637128082414,-6.42973810664398,170.20738997577,91.5334330945292,-173.422259029092,81.8888259345633
0.11250540891389,-175.65517290275,-6.39646036134649,169.258712541404,91.0258166320483,-172.456942722077,81.4311260900286
0.114668974469926,-174.675997041127,-6.36256711566959,168.313429925458,90.5192820783985,-171.494713483293,80.9754314048942
0.116832540025963,-173.698956809122,-6.32811572925871,167.370841079864,90.0135362691905,-170.534898944493,80.5213626753024
0.118996105581999,-172.723343397092,-6.29328651381177,166.43005688328,89.5083149554517,-169.576700140186,80.068385184734
0.121159671138035,-171.748578250332,-6.25829974364852,165.490278506684,89.0034389969903,-168.619428378508,79.6159893815175
0.123323236694072,-170.774313963502,-6.22334995341991,164.550964010082,88.4988319584611,-167.662638986792,79.1638070283312
0.125486802250108,-169.800447017258,-6.18856770296736,163.611879314291,87.9945073601128,-166.706163165774,78.7116558056617
0.127650367806145,-168.827067828142,-6.15400909461848,162.673058733524,87.4905384613804,-165.750063280833,78.2595248194526
0.129813933362181,-167.854380401347,-6.11966657001475,161.734713831333,86.987023485681,-164.79454711634,77.8075236306589
0.131977498918217,-166.882620724443,-6.08549149935282,160.79712922509,86.4840561118979,-163.839874974767,77.3558188628687
0.134141064474254,-165.91199390729,-6.05141931691496,159.860574590375,85.9817066121023,-162.886284248832,76.9045776367298
0.13630463003029,-164.942639091915,-6.01739034056506,158.92524875135,85.4800147162403,-161.933943921633,76.4539292053927
0.138468195586326,-163.974621563603,-5.98336267273712,157.991258890866,84.97899211817,-160.982940227234,76.0039481090644
0.140631761142363,-163.00794514551,-5.94931664952426,157.058628495986,84.4786308975173,-160.033286820748,75.5546559232309
0.142795326698399,-162.042575328376,-5.9152525074009,156.127322820975,83.9789139178883,-159.084949074675,75.1060351567869
0.144958892254435,-161.078464101729,-5.8811840253411,155.197280076388,83.4798240635353,-158.137872089059,74.6580480255236
0.147122457810472,-160.115569970923,-5.84713097336449,154.268438997558,82.9813504721437,-157.192004484241,74.2106540120969
0.149286023366508,-159.153869911492,-5.81311256806138,153.340757343431,82.4834912397766,-156.247313627461,73.7638223876846
0.151449588922544,-158.193363001406,-5.77914318085506,152.414219820551,81.9862530911306,-155.303791410979,73.317538319848
0.153613154478581,-157.234067554747,-5.7452306000591,151.488836954688,81.4896490774032,-154.361452254718,72.8718031773146
0.155776720034617,-156.276014550531,-5.71137643682891,150.564638113702,80.9936954936798,-153.420326332116,72.4266308384364
0.157940285590653,-155.319240135194,-5.67757788293603,149.641662252258,80.4984090090652,-152.480451193726,71.9820421846612
0.16010385114669,-154.363779299628,-5.64382996019116,148.719949339436,80.0038046299094,-151.541864319532,71.5380596896226
0.162267416702726,-153.40966186885,-5.61012756191767,147.799534306932,79.5098947153837,-150.604598087891,71.0947033725071
0.164430982258762,-152.456911018245,-5.57646686347526,146.880444154769,79.01668894086,-149.668677586507,70.6519886456471
0.166594547814799,-151.50554385407,-5.54284596742748,145.962697886642,78.5241949107487,-148.734120870356,70.2099259596075
0.168758113370835,-150.555573249882,-5.50926487632959,145.046308373552,78.0324190631057,-147.800940811717,69.7685217486113
0.170921678926871,-149.607010090735,-5.47572501749798,144.131285073238,77.5413675541167,-146.869147581987,69.3277800278698
0.173085244482908,-148.659865253836,-5.44222857905062,143.217636674785,77.0510469164431,-145.93875096431,68.8877040478672
0.175248810038944,-147.714150935116,-5.40877787783919,142.305373057277,76.5614644064778,-145.009761996197,68.448297589719
0.177412375594981,-146.769881214848,-5.37537490075873,141.39450631409,76.0726280578035,-144.082193764469,68.0095657066654
0.179575941151017,-145.827071972797,-5.34202107343813,140.485050899359,75.5845465231177,-143.156061436078,67.5715149129605
0.181739506707053,-144.885740383887,-5.30871723820262,139.577023145685,75.0972288110449,-142.231381764786,67.134152953741
0.18390307226309,-143.945904251266,-5.27546377879824,138.670440472467,74.6106840150319,-141.308172361866,66.6974883468345
0.186066637819126,-143.007581389496,-5.24226081436794,137.765320575128,74.1249211019322,-140.386450982312,66.2615298803803
0.188230203375162,-142.070789189653,-5.20910839364515,136.861680796008,73.6399487916489,-139.46623499283,65.8262862011812
0.190393768931199,-141.135544411696,-5.17600664264382,135.959537769052,73.1557755271699,-138.547541090374,65.3917655632042
0.192557334487235,-140.201863180235,-5.14295584542996,135.058907334805,72.6724095128324,-137.63038525752,64.9579757446875
0.194720900043271,-139.269761118646,-5.10995646024784,134.159804658399,72.1898587894471,-136.714782888522,64.5249240990754
0.196884465599308,-138.339253544377,-5.0770090880651,133.262244456312,71.7081313162209,-135.800749000344,64.0926176841233
0.199048031155344,-137.410355658548,-5.04411441650195,132.366241242046,71.2272350375247,-134.888298450297,63.6610634127718
0.20121159671138,-136.483082686029,-5.01127316058249,131.471809525447,70.747177923306,-133.977446105738,63.2302681824323
0.203375162267417,-135.557449948243,-4.97848601556415,130.578963932679,70.2679679819038,-133.068206940461,62.8002389585575
0.205538727823453,-134.633472872856,-4.94575362925772,129.687719243599,69.7896132510571,-132.160596058228,62.3709828071705
0.207702293379489,-133.71116695835,-4.9130765941673,128.798090364183,69.3121217762587,-131.254628661267,61.9425068850078
0.209865858935526,-132.790547716453,-4.8804554549122,127.910092261541,68.8355015856826,-130.350319988997,61.5148184033143
0.212029424491562,-131.871630613302,-4.84789072419228,127.023739889109,68.359760668747,-129.447685251205,61.0879245824585
0.214192990047598,-130.954431023741,-4.81538290068914,126.139048123051,67.8849069622149,-128.546739573396,60.6618326111812
0.216356555603635,-130.038964205349,-4.78293248397123,125.256031721377,67.4109483446599,-127.647497963363,60.2365496187031
0.218520121159671,-129.125245291906,-4.75053998378857,124.374705308117,66.9378926378473,-126.749975300012,59.8120826621644
0.220683686715707,-128.213289301444,-4.71820592333718,123.495083378107,66.4657476123908,-125.854186339776,59.3884387273851
0.222847252271744,-127.30311115209,-4.68593083765804,122.617180314432,65.9945209948741,-124.960145733261,58.9656247383871
0.22501081782778,-126.394725679241,-4.65371526912678,121.741010410114,65.5242204741837,-124.067868044677,58.5436475704936
0.227174383383817,-125.488147649388,-4.62155976205515,120.866587887333,65.0548537057218,-123.177367768361,58.122514062639
0.229337948939853,-124.583391768231,-4.58946485798428,119.993926910247,64.5864283131076,-122.288659339239,57.7022310261312
0.231501514495889,-123.680472682844,-4.55743109257141,119.123041590273,64.1189518877078,-121.401757136559,57.2828052488507
0.233665080051926,-122.779404979197,-4.52545899429718,118.2539459849,63.6524319867473,-120.516675482049,56.8642434953015
0.235828645607962,-121.88020317699,-4.49354908470971,117.386654092281,63.1868761308501,-119.633428634636,56.4465525037855
0.237992211163998,-120.982881723802,-4.46170187964445,116.521179844157,62.722291801723,-118.752030783979,56.0297389822564
0.240155776720035,-120.087454990052,-4.42991789080627,115.657537099245,62.258686440429,-117.872496044649,55.6138096042196
0.242319342276071,-119.19393726561,-4.39819762721203,114.795739638398,61.7960674464109,-116.994838452004,55.1987710055928
0.244482907832107,-118.302342758206,-4.36654159618795,113.935801162018,61.3344421771971,-116.119071960112,54.7846297829151
0.246646473388144,-117.412685593331,-4.33495030382194,113.077735289509,60.8738179485764,-115.24521044142,54.3713924928435
0.24881003894418,-116.524979815042,-4.30342425493478,112.221555560107,60.4142020349883,-114.373267687574,53.9590656525861
0.250973604500216,-115.639239387082,-4.27196395272841,111.367275434354,59.9556016699054,-113.503257410718,53.5476557408128
0.253137170056253,-114.755478193821,-4.24056989829645,110.514908295525,59.4980240460589,-112.635193244673,53.1371691986142
0.255300735612289,-113.873710040738,-4.20924259015495,109.664467450583,59.0414763154465,-111.769088745661,52.7276124302141
0.257464301168325,-112.99394865437,-4.17798252389539,108.815966130474,58.5859655891326,-110.904957392422,52.3189918032895
0.259627866724362,-112.116207681799,-4.14679019199974,107.969417489799,58.1314989368992,-110.042812585799,51.9113136488996
0.261791432280398,-111.240500689842,-4.11566608380532,107.124834606037,57.6780833868238,-109.18266764794,51.5045842611159
0.263954997836434,-110.366841164131,-4.08461068557542,106.282230478555,57.225725924853,-108.324535821343,51.0988098964899
0.266118563392471,-109.495242508219,-4.05362448062053,105.441618027599,56.7744334944198,-107.468430267909,50.693996773489
0.268282128948507,-108.625718042837,-4.02270794942065,104.603010093416,56.3242129961289,-106.614364068127,50.2901510719979
0.270445694504543,-107.758281005302,-3.9918615697151,103.766419435587,55.8750712875087,-105.762350220445,49.887278932936
0.27260926006058,-106.892944549085,-3.96108581654497,102.93185873254,55.427015182815,-104.912401640813,49.4853864579976
0.274772825616616,-106.02972174348,-3.9303811622495,102.099340581231,54.9800514528648,-104.064531162355,49.0844797094906
0.276936391172653,-105.168625573326,-3.89974807642861,101.268877496897,54.5341868248772,-103.218751535111,48.6845647102342
0.279099956728689,-104.309668938726,-3.86918702588769,100.440481912839,54.089427982307,-102.375075425782,48.2856474434755
0.281263522284725,-103.452864654745,-3.8386984745801,99.6141661801652,53.6457815646627,-101.533515417455,47.8877338527926
0.283427087840762,-102.598225451054,-3.80828288355837,98.789942567496,53.2032541673064,-100.694084009275,47.4908298419688
0.285590653396798,-101.745763971543,-3.77794071093934,97.9678232606036,52.7618523412411,-99.8567936160732,47.0949412748321
0.287754218952834,-100.895492773901,-3.74767241188363,97.1478203620171,52.3215825928922,-99.0216565679589,46.7000739750667
0.289917784508871,-100.047424329189,-3.71747843858626,96.3299458906032,51.8824513838879,-98.1886851098963,46.3062337260085
0.292081350064907,-99.2015710214192,-3.68735924027355,95.5142117811456,51.4444651308464,-97.3578914012824,45.913426270436
0.294244915620943,-98.3579451471403,-3.65731526320168,94.7006298839386,51.007630205171,-96.5292875155394,45.5216573103685
0.29640848117698,-97.5165589150545,-3.62734695065329,93.8892119644012,50.5719529328539,-95.7028854397278,45.1309325068739
0.298572046733016,-96.6774244456454,-3.59745474293033,93.0799697027151,50.1374395942879,-94.8786970741802,44.7412574798924
0.300735612289052,-95.8405537708247,-3.56763907734278,92.2729146934819,49.7040964240837,-94.0567342321533,44.3526378080696
0.302899177845089,-95.0059588335887,-3.53790038819412,91.4680584453946,49.2719296108914,-93.2370086394917,43.9650790286003
0.305062743401125,-94.1736514876825,-3.50823910676489,90.6654123809177,48.8409452972237,-92.4195319343001,43.5785866370764
0.307226308957161,-93.3436434972658,-3.47865566129576,89.86498783597,48.4111495792808,-91.6043156666179,43.1931660873371
0.309389874513198,-92.5159465365801,-3.44915047697128,89.0667960596088,47.9825485067757,-90.7913712980945,42.8088227913188
0.311553440069234,-91.6905721896169,-3.41972397590485,88.2708482137121,47.5551480827609,-89.9807102016645,42.4255621189036
0.31371700562527,-90.8675319497871,-3.39037657712525,87.4771553726618,47.1289542634562,-89.1723436612244,42.0433893977683
0.315880571181307,-90.0468372195935,-3.36110869656431,86.6857285230292,46.7039729580789,-88.3662828713113,41.6623099132324
0.318044136737343,-89.2284993103085,-3.33192074704566,85.8965785632629,46.2802100286771,-87.5625389367857,41.2823289081086
0.320207702293379,-88.4125294416568,-3.30281313827375,85.109716303383,45.8576712899653,-86.7611228725199,40.9034515825546
0.322371267849416,-87.598938741505,-3.27378627682319,84.3251524646818,45.4363625091641,-85.9620456030934,40.5256830939293
0.324534833405452,-86.7877382455594,-3.24484056612784,83.5428976794316,45.0162894058436,-85.1653179624955,40.1490285566519
0.326698398961489,-85.97893889707,-3.21597640646984,82.7629624906001,44.5974576517699,-84.370950693835,39.7734930420651
0.328861964517525,-85.1725515465405,-3.18719419496836,81.9853573515721,44.1798728707544,-83.5789544490563,39.3990815783019
0.331025530073561,-84.3685869514447,-3.15849432556843,81.2100926258763,43.7635406385066,-82.7893397886605,39.0257991501539
0.333189095629598,-83.5670557759464,-3.12987718902966,80.4371785869167,43.348466482488,-82.0021171814316,38.6536506989435
0.335352661185634,-82.7679685906242,-3.10134317291523,79.6666254177089,42.9346558817697,-81.2172970041665,38.2826411223968
0.33751622674167,-81.9713358722019,-3.07289266158102,78.8984432106209,42.5221142668915,-80.4348895414114,37.91277527452
0.339679792297707,-81.1771680032844,-3.04452603616506,78.1326419671193,42.1108470197247,-79.6549049852019,37.5440579654771
0.341843357853743,-80.3854752720978,-3.01624367457727,77.3692315975205,41.7008594733375,-78.8773534348092,37.1764939614716
0.344006923409779,-79.5962678722366,-2.98804595148943,76.6082219207472,41.292156911863,-78.1022448964919,36.8100879846289
0.346170488965816,-78.8095559024159,-2.95993323832548,75.8496226640904,40.8847445703707,-77.3295892832532,36.4448447128825
0.348334054521852,-78.0253493662297,-2.931905903252,75.0934434629777,40.4786276347409,-76.5593964146037,36.0807687798629
0.350497620077888,-77.2436581719158,-2.90396431116896,74.3396938607468,40.0738112415424,-75.7916760163313,35.7178647747889
0.352661185633925,-76.4644921321262,-2.87610882370064,73.5883833084256,39.6703004779134,-75.0264377202759,35.3561372423625
0.354824751189961,-75.6878609637041,-2.84833979918675,72.8395211645173,39.2681003814454,-74.2636910641107,34.9955906826653
0.356988316745997,-74.9137742874656,-2.82065759267374,72.0931166947918,38.8672159400696,-73.5034454911287,34.636229551059
0.359151882302034,-74.1422416279863,-2.79306255590627,71.3491790720801,38.4676520919463,-72.7457103500332,34.2780582580869
0.36131544785807,-73.3732724133921,-2.76555503731874,70.6077173760734,38.0694137253554,-71.9904948947327,33.9210811693773
0.363479013414106,-72.606875975154,-2.73813538202705,69.8687405931269,37.6725056785905,-71.2378082841404,33.5653026055499
0.365642578970143,-71.8430615478877,-2.71080393182046,69.1322576160672,37.2769327398541,-70.4876595819775,33.2107268421234
0.367806144526179,-71.0818382691593,-2.68356102515356,68.3982772440057,36.8826996471564,-69.7400577565825,32.8573581094261
0.369969710082216,-70.3232151792961,-2.6564069971385,67.6668081821576,36.4898110882173,-68.9950116807268,32.5052005925095
0.372133275638252,-69.5672012212045,-2.62934217953745,66.937859041667,36.098271700371,-68.2525301314357,32.1542584310648
0.374296841194288,-68.8138052401944,-2.60236690075515,66.2114383394392,35.7080860704747,-67.5126217898168,31.804535719342
0.376460406750325,-68.0630359838097,-2.57548148583183,65.4875544979779,35.3192587348208,-66.7752952408938,31.456036506073
0.378623972306361,-67.3149021016652,-2.54868625643624,64.766215845229,34.9317941790507,-66.0405589734471,31.1087647943964
0.380787537862397,-66.5694121452884,-2.52198153085895,64.0474306144294,34.5456968380737,-65.3084213798589,30.7627245417853
0.382951103418434,-65.8265745679666,-2.49536762400582,63.3312069439608,34.1609710959862,-64.5788907559637,30.4179196599775
0.38511466897447,-65.0863977245995,-2.46884484739175,62.6175528772078,33.7776212859956,-63.8519753009036,30.074354014908
0.387278234530506,-64.348889871556,-2.44241350913444,61.9064763624216,33.3956516903452,-63.1276831169888,29.7320314266436
0.389441800086543,-63.6140591665372,-2.41607391394846,61.1979852525888,33.0150665402428,-62.406022209563,29.3909556693201
0.391605365642579,-62.8819136684437,-2.38982636313938,60.4920873053043,32.6358700157915,-61.687000486874,29.0511304710825
0.393768931198615,-62.1524613372486,-2.36367115459822,59.7887901826504,32.2580662459234,-60.9706257599495,28.7125595140261
0.395932496754652,-61.4257100338751,-2.33760858279597,59.0881014510791,31.8816593083355,-60.2569057424771,28.3752464341416
0.398096062310688,-60.7016675200788,-2.31163893877841,58.3900285813004,31.5066532294286,-59.5458480506896,28.039194821261
0.400259627866724,-59.9803414583345,-2.28576251016099,57.6945789481736,31.1330519842478,-58.837460203254,27.7044082190063
0.402423193422761,-59.2617394117288,-2.25997958112404,57.0017598306047,30.7608594964264,-58.1317496211667,27.3708901247403
0.404586758978797,-58.5458688438564,-2.23429043240798,56.3115784114485,30.3900796381322,-57.4287236276525,27.0386439895202
0.406750324534833,-57.8327371187235,-2.20869534130874,55.6240417774148,30.0207162300161,-56.7283894480692,26.707673218053
0.40891389009087,-57.1223515006542,-2.18319458167336,54.9391569189808,29.6527730411638,-56.0307542098175,26.3779811686537
0.411077455646906,-56.4147191542033,-2.15778842389583,54.2569307303075,29.2862537890496,-55.3358249422554,26.0495711532058
0.413241021202942,-55.7098471440744,-2.1324771349131,53.5773700091613,28.9211621394938,-54.6436085766179,25.7224464371241
0.415404586758979,-55.0077424350433,-2.10726097820132,52.900481456842,28.5575017066223,-53.9541119459427,25.3966102393203
0.417568152315015,-54.3084118918883,-2.0821402137724,52.2262716781159,28.1952760528304,-53.2673417850021,25.0720657321718
0.419731717871052,-53.6118622793263,-2.0571150981706,51.5547471811557,27.8344886887485,-52.583304730241,24.7488160414926
0.421895283427088,-52.9181002619556,-2.03218588446946,50.8859143774861,27.4751430732125,-51.9020073197208,24.4268642465083
0.424058848983124,-52.2271324042032,-2.00735282226887,50.2197795819343,27.117242613236,-51.2234559930688,24.1062133798327
0.426222414539161,-51.5389651702782,-1.98261615769223,49.5563490125859,26.7607906639852,-50.5476570914321,23.7868664274468
0.428385980095197,-50.8536049241276,-1.95797613338388,48.8956287907437,26.4057905287557,-49.8746168574357,23.4688263286799
0.430549545651233,-50.1710579293975,-1.93343298850653,48.2376249408909,26.052245458952,-49.2043414351442,23.1520959761922
0.43271311120727,-49.4913303493962,-1.90898695873899,47.5823433906572,25.7001586540676,-48.5368368700267,22.8366782159591
0.434876676763306,-48.8144282470621,-1.88463827627391,46.9297899707882,25.349533261668,-47.8721091089252,22.5225758472572
0.437040242319342,-48.1403575849356,-1.86038716981581,46.2799704151198,25.0003723773757,-47.2101640000277,22.209791622652
0.439203807875379,-47.4691242251362,-1.83623386457922,45.632890360557,24.6526790448577,-46.5510072928466,21.8983282479889
0.441367373431415,-46.8007339293465,-1.81217858228717,44.9885553470594,24.3064562558168,-45.8946446382029,21.5881883823861
0.443530938987451,-46.1351923588026,-1.78822154116968,44.3469708176329,23.9617069499861,-45.2410815882177,21.2793746382316
0.445694504543488,-45.472505074291,-1.76436295596265,43.7081421183284,23.6184340151268,-44.5903235963097,20.9718895811829
0.447858070099524,-44.8126775361531,-1.74060303790682,43.0720744982463,23.27664028703,-43.9423760171997,20.6657357301698
0.45002163565556,-44.1557151042938,-1.71694199474693,42.4387731095468,22.9363285495203,-43.2972441069203,20.3609155573999
0.452185201211597,-43.5016230381953,-1.69338003073106,41.8082430074643,22.5975015344632,-42.6549330228298,20.0574314883666
0.454348766767633,-42.8504064969357,-1.66991734661013,41.1804891503255,22.2601619217729,-42.0154478236306,19.7552859018577
0.456512332323669,-42.2020705392096,-1.64655413963762,40.555516399572,21.9243123394236,-41.3787934693908,19.4544811299672
0.458675897879706,-41.5566201233541,-1.62329060356939,39.9333295197848,21.5899553634618,-40.7449748215694,19.1550194581077
0.460839463435742,-40.914060107378,-1.60012692866371,39.3139331787143,21.2570935180209,-40.1139966430462,18.8569031250253
0.463003028991778,-40.2743952489957,-1.57706330168146,38.6973319473143,20.9257292753386,-39.485863598155,18.5601343228164
0.465166594547815,-39.6376302056661,-1.55409990588645,38.0835302997797,20.5958650557763,-38.8605802527229,18.2647151969466
0.467330160103851,-39.0037695346363,-1.5312369210459,37.4725326135904,20.2675032278411,-38.2381510741133,17.9706478462722
0.469493725659888,-38.372817692991,-1.50847452343114,36.8643431695598,19.940646108211,-37.6185804312754,17.6779343230643
0.471657291215924,-37.7447790377072,-1.48581288581836,36.2589661518889,19.6152959617628,-37.0018725947981,17.3865766330353
0.47382085677196,-37.1196578257144,-1.46325217748962,35.6564056482248,19.291455001602,-36.3880317369696,17.0965767353676
0.475984422327997,-36.4974582139591,-1.44079256423398,35.0566656497251,18.9691253890966,-35.7770619318421,16.8079365427456
0.478147987884033,-35.8781842594754,-1.4184342083488,34.4597500511266,18.6483092339121,-35.168967155301,16.5206579213889
0.480311553440069,-35.2618399194598,-1.39617726864123,33.8656626508186,18.3290085940505,-34.5637512851392,16.2347426910887
0.482475118996106,-34.648429051352,-1.37402190042995,33.2744071509221,18.011225475891,-33.9614181011371,15.9501926252461
0.484638684552142,-34.0379554129199,-1.35196825554701,32.6859871573729,17.6949618342334,-33.3619712851464,15.6670094509129
0.486802250108178,-33.4304226623498,-1.33001648233996,32.1004061800098,17.3802195723449,-32.7654144211798,15.3851948488349
0.488965815664215,-32.8258343583412,-1.30816672567405,31.5176676326672,17.0670005420076,-32.1717509955042,15.1047504534966
0.491129381220251,-32.2241939602053,-1.28641912693464,30.9377748332706,16.7553065435699,-31.5809843967379,14.825677853168
0.493292946776287,-31.625504827966,-1.26477382402979,30.3607310039363,16.4451393259979,-30.9931179159511,14.5479785899532
0.495456512332324,-31.0297702224665,-1.243230951393,29.7865392710735,16.1365005869297,-30.40815474677,14.2716541598402
0.49762007788836,-30.4369933054771,-1.22179063998604,29.215202665491,15.8293919727316,-29.8260979854841,13.9967060127525
0.499783643444396,-29.8471771398097,-1.20045301730203,28.6467241225077,15.5238150785559,-29.2469506311587,13.7231355526028
0.501947209000433,-29.2603246894363,-1.17921820736851,28.0811064820678,15.2197714484024,-28.670715585752,13.4509441373496
0.504110774556469,-28.6764388196126,-1.15808633075079,27.5183524888618,14.9172625751817,-28.0973956542372,13.1801330790555
0.506274340112505,-28.0955222970081,-1.13705750455537,26.9584647924527,14.6162899007817,-27.5269935447304,12.9107036439487
0.508437905668542,-27.5175777898397,-1.11613184243352,26.4014459474062,14.3168548161366,-26.9595118686229,12.6426570524863
0.510601471224578,-26.9426078680104,-1.09530945458506,25.8472984134253,14.0189586612977,-26.3949531407179,12.3759944794201
0.512765036780614,-26.3706150032522,-1.07459044776227,25.2960245554899,13.7226027255072,-25.8333197793711,12.1107170538638
0.514928602336651,-25.8016015692723,-1.05397492527405,24.7476266439982,13.4277882472732,-25.2746141066353,11.8468258593621
0.517092167892687,-25.2355698419038,-1.03346298699019,24.2021068549136,13.134516414447,-24.7188383484087,11.5843219339617
0.519255733448724,-24.6725219992604,-1.01305472934588,23.6594672699146,12.8427883643032,-24.1659946345875,11.3232062702843
0.52141929900476,-24.1124601218956,-0.992750245346357,23.1197098765492,12.552605183621,-23.6160849992224,11.0634798156014
0.523582864560796,-23.5553861929661,-0.972549624571691,22.5828365683944,12.2639679087689,-23.0691113806803,10.8051434719114
0.525746430116833,-23.0013020984008,-0.952452953181713,22.0488491452191,11.9768775257913,-22.52507562181,10.5481980960187
0.527909995672869,-22.4502096270731,-0.93246031392102,21.5177493131521,11.6913349704971,-21.9839794701126,10.2926444996156
0.530073561228905,-21.9021104709784,-0.912571786124101,20.9895386848543,11.4073411285513,-21.4458245779164,10.0384834493651
0.532237126784942,-21.3570062254151,-0.892787445720569,20.4642187796945,11.1248968355678,-20.9106125025548,9.78571566698698
0.534400692340978,-20.8148983891695,-0.873107365240542,19.9417910239289,10.844002877205,-20.3783447065492,9.5343418293442
0.536564257897014,-20.2757883647042,-0.853531613820194,19.422256750884,10.5646599892622,-19.8490225577941,9.28436256853189
0.538727823453051,-19.7396774583499,-0.834060257207513,18.9056172011424,10.2868688577787,-19.3226473297461,9.03577847196742
0.540891389009087,-19.2065668805007,-0.814693357768251,18.3918735227324,10.0106301191345,-18.7992202016165,8.78859008248208
0.543054954565123,-18.6764577458129,-0.7954309744921,17.8810267713208,9.73594436015248,-18.2787422585668,8.54279789841433
0.54521852012116,-18.1493510734079,-0.776273162999045,17.3730779104088,9.46281211820345,-17.7612144919083,8.29840237370489
0.547382085677196,-17.625247787079,-0.757219975545896,16.8680278115331,9.19123388131243,-17.246637799306,8.05540391799359
0.549545651233232,-17.1041487155026,-0.738271461032952,16.3658772544696,8.92121008826776,-16.7350129849861,7.81380289671834
0.551709216789269,-16.5860545924539,-0.719427665010784,15.8666269274431,8.65274112873232,-16.2263407599485,7.57359963121614
0.553872782345305,-16.0709660570269,-0.70068862968711,15.3702774273398,8.38582734335699,-15.7206217421833,7.33479439882633
0.556036347901341,-15.5588836538589,-0.682054393933762,14.8768292599252,8.12046902389635,-15.217856456892,7.0973874329957
0.558199913457378,-15.0498078333588,-0.663524993293752,14.386282840065,7.85666641332627,-14.7180453367119,6.86137892338564
0.560363479013414,-14.5437389519384,-0.645100459988445,13.8986384919499,7.59441970596342,-14.2211887219442,6.62676901598075
0.56252704456945,-14.040677272248,-0.626780822924862,13.4138964493231,7.33372904758641,-13.7272868607855,6.39355781319912
0.564690610125487,-13.5406229634142,-0.608566107703112,12.9320568557111,7.07459453555866,-13.2363399095627,6.16174537400399
0.566854175681523,-13.043576101282,-0.59045633662396,12.453119764658,6.81701621895297,-12.74834793297,5.93133171401703
0.56901774123756,-12.5495366686596,-0.572451528696553,11.977085139963,6.56099409867807,-12.2633109043113,5.70231680563325
0.571181306793596,-12.0585045555683,-0.554551699646288,11.503952855922,6.3065281276073,-11.7812287057452,5.47470057813787
0.573344872349632,-11.570479559496,-0.53675686192284,11.0337226975732,6.05361821070944,-11.3021011285346,5.24848291782518
0.575508437905669,-11.0854613856552,-0.519067024708334,10.5663943609469,5.80226420518179,-10.8259278733011,5.02366366811929
0.577672003461705,-10.6034496472454,-0.501482193925682,10.1019674533197,5.55246592058554,-10.3527085502826,4.80024262969702
0.579835569017741,-10.1244438657192,-0.484002372247053,9.6404414934721,5.3042231189831,-9.88244267959563,4.57821956061252
0.581999134573778,-9.64844347105231,-0.466627559102491,9.18181591194982,5.0575355150774,-9.41512969150106,4.35759417642366
0.584162700129814,-9.17544780201673,-0.449357750688659,8.72609005132807,4.81240277635269,-8.9507689266724,4.13836615031971
0.58632626568585,-8.70545610645587,-0.432192939977703,8.27326316647816,4.56882452321679,-8.48935963646702,3.92053511325023
0.588489831241887,-8.2384675415627,-0.415133116726251,7.82333442483645,4.32680032914448,-8.03090098319958,3.7041006540551
0.590653396797923,-7.77448117416021,-0.398178267484517,7.37630290667569,4.08632972082236,-7.57539204041795,3.48906231959559
0.592816962353959,-7.31349598098481,-0.381328375605517,6.93216760537929,3.84741217829516,-7.12283179318205,3.27541961488689
0.594980527909996,-6.85551084897335,-0.364583421254398,6.49092742771895,3.61004713511388,-6.67321913834615,3.06317200323228
0.597144093466032,-6.40052457555413,-0.34794338141785,6.05258119413628,3.37423397848599,-6.2265528848452,2.85231890635921
0.599307659022068,-5.94853586894223,-0.331408229913633,5.6171276390286,3.13997204942793,-5.78283175398541,2.64285970455748
0.601471224578105,-5.49954334843925,-0.314977937400198,5.18456541103906,2.90726064291973,-5.34205437973915,2.43479373681943
0.603634790134141,-5.05354554473725,-0.298652471386438,4.75489307335081,2.67609900806184,-4.90421930904403,2.22812030098219
0.605798355690177,-4.61054090022639,-0.282431796241548,4.32810910398485,2.44648634823397,-4.46932500210562,2.02283865387165
0.607961921246214,-4.17052776930598,-0.266315873205032,3.90421189610095,2.21842182125551,-4.03736983270347,1.81894801144796
0.61012548680225,-3.7335044186981,-0.250304660396844,3.48319975830125,1.99190453954747,-3.60835208849967,1.6164475489522
0.612289052358286,-3.29946902776356,-0.234398112827661,3.0650709149359,1.76693357029561,-3.18226997134973,1.41533640105412
0.614452617914323,-2.86841968882,-0.218596182409289,2.64982350641071,1.54350793561464,-2.75912159761536,1.21561366200071
0.616616183470359,-2.44035440746198,-0.202898817965195,2.23745558949678,1.32162661271359,-2.33890499847938,1.01727838576579
0.618779749026396,-2.01527110288343,-0.187305965241165,1.82796513764226,1.10128853406229,-1.92161812026284,0.820329586200548
0.620943314582432,-1.59316760820283,-0.171817566916066,1.42135004128676,0.882492587559447,-1.50725882474479,0.624766237185347
0.623106880138468,-1.17404167079159,-0.15643356261273,1.01760810817886,0.66523761670216,-1.09582488948523,0.430587272783066
0.625270445694505,-0.757890952605982,-0.141153888908922,0.61673706369706,0.449522420757452,-0.687314008151521,0.237791587394069
0.627434011250541,-0.344713030522818,-0.125978479348422,0.218734551174396,0.23534575493562,-0.281723790848607,0.0463780359129868
0.629597576806577,0.0654946033211518,-0.110907264452192,-0.176401867773344,0.0227063305655203,0.120948235547248,-0.143654566112768
0.631761142362614,0.472734541186464,-0.0959401717296523,-0.568674712916116,-0.188397184728406,0.52070462705129,-0.332307442322884
0.63392470791865,0.877009459385192,-0.0810771256900586,-0.95808658507525,-0.397966166847567,0.917548022230221,-0.519581855382654
0.636088273474686,1.27832211793266,-0.0663180478539939,-1.34464016578666,-0.606002035039335,1.31148114185966,-0.705479106820326
0.638251839030723,1.67667536019696,-0.051662856764969,-1.72833821696193,-0.812506251715994,1.70250678857944,-0.890000536863447
0.640415404586759,2.07207211254627,-0.0371114680011331,-2.1091835805474,-1.01748032227257,2.09062784654684,-1.07314752427427
0.642578970142795,2.46451538399403,-0.0226637941870889,-2.48717917818112,-1.22092579490347,2.47584728108758,-1.2549214861841
0.644742535698832,2.85400826584147,-0.00831974500580263,-2.86232801084727,-1.42284426041783,2.85816813834437,-1.43532387792654
0.646906101254868,3.24055393131733,0.00592077278939825,-3.23463315852793,-1.62323735205336,3.23759354492263,-1.61435619286927
0.649069666810904,3.62415563521453,0.0200578553627427,-3.60409777985179,-1.82210674528864,3.61412670753316,-1.79201996224452
0.651233232366941,4.00481671352375,0.0340916017838496,-3.97072511173991,-2.0194541576538,3.98777091263183,-1.96831675497803
0.653396797922977,4.38254058306412,0.0480221140154691,-4.33451846904866,-2.2152813485398,4.35852952605639,-2.14324817751659
0.655560363479013,4.75733074111113,0.0618494969011233,-4.69548124421,-2.40959011900612,4.72640599266056,-2.31681587365444
0.65772392903505,5.12919076502208,0.0755738581526383,-5.05361690686944,-2.60238231158736,5.09140383594576,-2.4890215243584
0.659887494591086,5.49812431185927,0.0891953083375645,-5.4089290035217,-2.79365981009842,5.45352665769048,-2.65986684759207
0.662051060147122,5.86413511801073,0.102713960866489,-5.76142115714424,-2.98342453943861,5.81277813757749,-2.82935359813888
0.664214625703159,6.22722699880872,0.116129931980245,-6.11109706682847,-3.17167846539448,6.1691620328186,-2.99748356742411
0.666378191259195,6.58740384814561,0.129443340737039,-6.45796050740857,-3.35842359444132,6.52268217777709,-3.16425858333577
0.668541756815232,6.94466963808731,0.142654308999479,-6.80201532908783,-3.54366197354339,6.87334248358757,-3.32968051004417
0.670705322371268,7.29902841848412,0.155762961421537,-7.14326545706258,-3.72739568995283,7.22114693777335,-3.49375124782052
0.672868887927304,7.65048431657925,0.168769425435413,-7.48171489114384,-3.90962687100733,7.56609960386154,-3.65647273285421
0.675032453483341,7.99904153661492,0.181673831238323,-7.8173677053766,-4.09035768392662,7.90820462099576,-3.81784693706914
0.677196019039377,8.34470435943632,0.194476311779186,-8.15022804765713,-4.26959033560775,8.24746620354673,-3.97787586793897
0.679359584595413,8.68747714209339,0.207177002745229,-8.48030013934816,-4.44732707241931,8.58388864072078,-4.13656156830147
0.68152315015145,9.02736431744083,0.219776042548507,-8.80758827489232,-4.62357017999467,8.91747629616658,-4.29390611617191
0.683686715707486,9.36437039373613,0.232273572312341,-9.13209682142379,-4.79832198302423,9.24823360757996,-4.44991162455572
0.685850281263522,9.69849995423595,0.244669735857685,-9.45383021837826,-4.97158484504682,9.57616508630711,-4.60458024126029
0.688013846819559,10.0297576567906,0.256964679689433,-9.77279297710116,-5.14336116824001,9.90127531694588,-4.75791414870586
0.690177412375595,10.3581482334366,0.269158552982655,-10.0889896804539,-5.31365339320961,10.2235689569452,-4.90991556373563
0.692340977931631,10.683676489987,0.281251507568775,-10.4024249824182,-5.4824639987779,10.5430507362026,-5.06058673742474
0.694504543487668,11.0063473056198,0.293243697921688,-10.7131036076982,-5.64979550177077,10.859725456659,-5.20992995488823
0.696668109043704,11.3261656324633,0.305135281143801,-11.0210303513195,-5.81565045680357,11.1735979918914,-5.35794753508786
0.69883167459974,11.6431364951792,0.316926416952003,-11.3262100782272,-5.98003145606562,11.4846732867032,-5.50464183063761
0.700995240155777,11.9572649905435,0.328617267663549,-11.6286477228799,-6.1429411291035,11.7929563567117,-5.65001522760818
0.703158805711813,12.2685562870245,0.340207998181843,-11.9283482888427,-6.30438214260317,12.0984522879336,-5.79407014533041
0.705322371267849,12.5770156243602,0.351698775982129,-12.2253168483781,-6.46435720017116,12.4011662363691,-5.93680903619796
0.707485936823886,12.8826483131327,0.36308977109708,-12.5195585420356,-6.62286904211489,12.7011034275842,-6.07823438546927
0.709649502379922,13.1854597343423,0.374381156102291,-12.81107857824,-6.77992044522229,12.9982691562911,-6.21834871106885
0.711813067935958,13.4854553389794,0.385573106101704,-13.0998822328777,-6.93551422254056,13.2926687859286,-6.35715456338801
0.713976633491995,13.7826406475953,0.396665798712958,-13.3859748488823,-7.08965322315411,13.5843077482388,-6.49465452508468
0.716140199048031,14.0770212498704,0.407659414052691,-13.6693618358177,-7.24234033196156,13.8731915428441,-6.63085121088252
0.718303764604068,14.3686028041817,0.418554134721802,-13.9500486694599,-7.39357846945175,14.1593257368208,-6.76574726736905
0.720467330160104,14.657391037167,0.429350145790658,-14.2280408913763,-7.54337059147882,14.4427159642717,-6.89934537279284
0.72263089571614,14.9433917432886,0.440047634784259,-14.5033441085043,-7.69171968903641,14.7233679258964,-7.03164823686002
0.724794461272177,15.2266107843949,0.450646791667337,-14.7759639927276,-7.83862878803112,15.0012873885612,-7.16265860053012
0.726958026828213,15.5070540892812,0.461147808829399,-15.0459062804518,-7.98410094905531,15.2764801848665,-7.29237923581121
0.729121592384249,15.7847276532488,0.471550881069701,-15.3131767721791,-8.12813926715925,15.5489522127139,-7.4208129455547
0.731285157940286,16.059637537663,0.481856205582142,-15.5777813320809,-8.27074687162258,15.818709434872,-7.54796256324937
0.733448723496322,16.33178986951,0.492063981940094,-15.8397258875699,-8.41192692572502,16.0857578785399,-7.67383095281488
0.735612289052358,16.6011908409513,0.502174412081159,-16.0990164288702,-8.55168262651625,16.3501036349108,-7.79842100839451
0.737775854608395,16.867846708878,0.512187700291858,-16.3556590085861,-8.69001720458491,16.611752858732,-7.92173565414712
0.739939420164431,17.1317637944615,0.522104053192253,-16.6096597412693,-8.82693392382689,16.8707117678654,-8.04377784403851
0.742102985720467,17.3929484827048,0.531923679720525,-16.8610248029842,-8.96243608121265,17.1269866428445,-8.16455056163186
0.744266551276504,17.6514072219902,0.541646791117507,-17.1097604308727,-9.09652700655384,17.3805838264314,-8.28405681987758
0.74643011683254,17.9071465236272,0.551273600911182,-17.355872922716,-9.22921006226919,17.6315097231716,-8.40229966090242
0.748593682388576,18.1601729613981,0.560804324901148,-17.599368636497,-9.36048864314965,17.8797707989476,-8.51928215579792
0.750757247944613,18.4104931711029,0.570239181143037,-17.8402539899599,-9.49036617612299,18.1253735805314,-8.63500740440844
0.752920813500649,18.6581138501028,0.579578389932888,-18.0785354601699,-9.61884612001782,18.3683246551363,-8.74947853511849
0.755084379056685,18.9030417568624,0.588822173791461,-18.3142195830709,-9.74593196532693,18.6086306699667,-8.86269870463974
0.757247944612722,19.1452837104919,0.597970757448503,-18.5473129530433,-9.87162723397018,18.8462983317676,-8.97467109779742
0.759411510168758,19.3848465902865,0.60702436782696,-18.7778222224596,-9.99593547905674,19.081334406373,-9.0853989273163
0.761575075724794,19.6217373352666,0.615983234027122,-19.0057541012394,-10.1188602846468,19.313745718253,-9.19488543360616
0.763738641280831,19.855962943715,0.62484758731073,-19.2311153564042,-10.2404052655128,19.5435391500596,-9.30313388454675
0.765902206836867,20.0875304727142,0.633617661085021,-19.4539128116292,-10.3605740668996,19.7707216421717,-9.41014757527207
0.768065772392904,20.316447037682,0.642293690886746,-19.6741533467952,-10.4793703642844,19.9953001922386,-9.51592982795424
0.77022933794894,20.5427198119058,0.650875914366134,-19.8918438975396,-10.596797863136,20.2172818547227,-9.62048399158675
0.772392903504976,20.7663560260764,0.659364571270847,-20.1069914548056,-10.7128602986736,20.436673740441,-9.72381344176736
0.774556469061013,20.9873629678208,0.667759903429877,-20.3196030643909,-10.8275614356253,20.6534830161058,-9.82592158048051
0.776720034617049,21.2057479812336,0.676062154737419,-20.5296858264962,-10.9409050679855,20.8677169038649,-9.92681183587937
0.778883600173085,21.4215184664085,0.684271571136694,-20.7372468952719,-11.0528950187726,21.0793826808402,-10.0264876620676
0.781047165729122,21.6346818789688,0.692388400603736,-20.942293478365,-11.1635351397863,21.2884876786669,-10.1249525388807
0.783210731285158,21.8452457295963,0.700412893131141,-21.1448328364652,-11.2728293113637,21.4950392830308,-10.222209971667
0.785374296841194,22.053217583561,0.708345300711776,-21.3448722828492,-11.3807814421364,21.6990449332051,-10.3182634910687
0.787537862397231,22.2586050602483,0.716185877322467,-21.5424191829259,-11.4873954687854,21.9005121215871,-10.4131166528017
0.789701427953267,22.4614158326863,0.723934878907651,-21.7374809537786,-11.592675355797,22.0994483932325,-10.5067730374355
0.791864993509303,22.6616576270714,0.731592563363,-21.9300650637084,-11.6966250952172,22.2958613453899,-10.5992362501727
0.79402855906534,22.8593382222936,0.739159190519015,-22.1201790317746,-11.7992487064063,22.4897586270341,-10.6905099206278
0.796192124621376,23.0544654494607,0.746635022124587,-22.3078304273361,-11.9005502357926,22.6811479383984,-10.7805977026058
0.798355690177412,23.2470471914218,0.754020321830535,-22.4930268695913,-12.0005337566262,22.8700370305065,-10.8695032738804
0.800519255733449,23.4370913822901,0.761315355173103,-22.675776027117,-12.0992033687316,23.0564337047035,-10.9572303359719
0.802682821289485,23.6246060069654,0.768520389557439,-22.8560856174079,-12.1965631982614,23.2403458121866,-11.0437826139252
0.804846386845521,23.8095991006558,0.775635694241031,-23.0339634064147,-12.2926173974484,23.4217812535353,-11.1291638560869
0.807009952401558,23.9920787483996,0.782661540317127,-23.2094172080825,-12.3873701443584,23.6007479782411,-11.2133778338827
0.809173517957594,24.1720530845866,0.789598200698121,-23.3824548838885,-12.4808256426424,23.7772539842375,-11.2964283415952
0.81133708351363,24.3495302924788,0.796445950098917,-23.5530843423799,-12.5729881212888,23.9513073174293,-11.3783191961405
0.813500649069667,24.5245186037308,0.803205065020272,-23.7213135387106,-12.6638618343756,24.1229160712207,-11.4590542368451
0.815664214625703,24.6970262979098,0.809875823732133,-23.8871504741777,-12.753451060821,24.2920883860437,-11.5386373252228
0.81782778018174,24.8670617020141,0.816458506256949,-24.0506031957572,-12.8417601041355,24.4588324488856,-11.6170723447501
0.819991345737776,25.0346331899922,0.822953394352963,-24.2116797956393,-12.9287932921726,24.6231564928158,-11.6943632006432
0.822154911293812,25.1997491822608,0.829360771497481,-24.3703884107634,-13.0145549768792,24.7850687965121,-11.7705138196329
0.824318476849849,25.3624181452226,0.835680922870117,-24.5267372223525,-13.0990495340464,24.9445776837876,-11.8455281497412
0.826482042405885,25.5226485907842,0.841914135336011,-24.6807344554482,-13.1822813630601,25.1016915231162,-11.9194101600561
0.828645607961921,25.6804490758735,0.848060697429038,-24.8323883784445,-13.2642548866513,25.256418727159,-11.9921638405077
0.830809173517958,25.8358282019568,0.85412089933499,-24.9817073026218,-13.3449745506459,25.4087677522893,-12.0637932016434
0.832972739073994,25.9887946145558,0.860095032874748,-25.128699581681,-13.4244448237153,25.5587470981184,-12.1343022744031
0.83513630463003,26.1393570027637,0.865983391487446,-25.2733736112763,-13.5026701971256,25.70636530702,-12.2036951098944
0.837299870186067,26.2875240987621,0.871786270213621,-25.4157378285484,-13.5796551844878,25.8516309636553,-12.2719757791674
0.839463435742103,26.4333046773364,0.87750396567834,-25.5558007116581,-13.6554043215074,25.9945526944973,-12.3391483729899
0.841627001298139,26.5767075553927,0.883136776074334,-25.6935707793183,-13.7299221657335,26.1351391673555,-12.405217001622
0.843790566854176,26.7177415914727,0.88868500114511,-25.8290565903276,-13.8032132963089,26.2733990909001,-12.4701857945912
0.845954132410212,26.8564156852705,0.894148942168066,-25.9622667431024,-13.8752823137193,26.4093412141865,-12.5340589004672
0.848117697966248,26.9927387771477,0.899528901937589,-26.0932098752101,-13.9461338395427,26.5429743261789,-12.5968404866363
0.850281263522285,27.1267198476491,0.90482518474815,-26.221894662901,-14.0157725161986,26.674307255275,-12.6585347390764
0.852444829078321,27.2583679170178,0.910038096377389,-26.3483298206404,-14.0842030066976,26.8033488688291,-12.7191458621315
0.854608394634357,27.3876920447105,0.915167944069197,-26.4725241006413,-14.1514299943898,26.9301080726759,-12.778678078286
0.856771960190394,27.5147013289125,0.920215036516806,-26.5944862923957,-14.2174581827147,27.0545938106541,-12.8371356279395
0.85893552574643,27.6394049060537,0.92517968384587,-26.7142252222079,-14.2822922949498,27.1768150641308,-12.894522769181
0.861099091302467,27.7618119503243,0.930062197597544,-26.8317497527268,-14.3459370739609,27.2967808515255,-12.9508437775646
0.863262656858503,27.8819316731911,0.934862890711554,-26.9470687824795,-14.4083972819513,27.4145002278353,-13.006102945884
0.865426222414539,27.9997733229143,0.939582077509264,-27.060191245405,-14.4696777002118,27.5299822841596,-13.0603045839479
0.867589787970576,28.1153461840638,0.944220073676728,-27.1711261103871,-14.5297831288703,27.6432361472255,-13.1134530183552
0.869753353526612,28.2286595770361,0.948777196247734,-27.2798823807884,-14.5887183866419,27.7542709789122,-13.1655525922703
0.871916919082648,28.3397228575704,0.953253763586859,-27.3864690939836,-14.6464883105786,27.863095975777,-13.2166076651984
0.874080484638685,28.4485454162662,0.957650095372519,-27.4908953208937,-14.7030977558194,27.9697203685799,-13.2666226127606
0.876244050194721,28.5551366780994,0.961966512580039,-27.5931701655194,-14.7585515953397,28.0741534218094,-13.3156018264697
0.878407615750757,28.6595061019396,0.966203337464729,-27.6933027644748,-14.8128547197021,28.1764044332072,-13.363549713505
0.880571181306794,28.7616631800668,0.970360893544971,-27.7913022865218,-14.8660120368059,28.2764827332943,-13.4104706964884
0.88273474686283,28.8616174376891,0.974439505585304,-27.8871779321038,-14.9180284716372,28.3743976848964,-13.4563692132592
0.884898312418866,28.9593784324605,0.978439499579507,-27.9809389328809,-14.96890896602,28.4701586826707,-13.5012497166507
0.887061877974903,29.0549557539991,0.982361202733692,-28.0725945512654,-15.0186584783664,28.5637751526322,-13.5451166742658
0.889225443530939,29.1483590234058,0.986204943449389,-28.1621540799564,-15.0672819834276,28.6552565516811,-13.5879745682535
0.891389009086975,29.2395978927835,0.989971051306652,-28.2496268414769,-15.1147844720451,28.7446123671302,-13.6298278950851
0.893552574643012,29.3286820447561,0.99365985704717,-28.3350221877089,-15.1611709509016,28.8318521162325,-13.6706811653309
0.895716140199048,29.4156211919884,0.997271692557399,-28.4183494994311,-15.2064464422729,28.9169853457098,-13.7105389034368
0.897879705755084,29.5004250767066,1.0008068908517,-28.4996181858549,-15.2506159837791,29.0000216312807,-13.7494056475016
0.900043271311121,29.5831034702184,1.00426578605552,-28.5788376841629,-15.2936846281369,29.0809705771906,-13.7872859490537
0.902206836867157,29.6636661724355,1.00764871338852,-28.656017459047,-15.335657442912,29.1598418157413,-13.8241843728292
0.904370402423193,29.7421230113958,1.0109560091478,-28.731167002248,-15.3765395102718,29.2366450068219,-13.8601054965501
0.90653396797923,29.8184838427859,1.01418801069108,-28.8042958320949,-15.4163359267385,29.3113898374404,-13.8950539107019
0.908697533535266,29.8927585494649,1.01734505641996,-28.8754134930449,-15.4550518029424,29.3840860212549,-13.9290342183125
0.910861099091303,29.964957040987,1.02042748576307,-28.9445295552239,-15.492692263375,29.4547432981055,-13.9620510347304
0.913024664647339,30.0350892531262,1.02343563915941,-29.0116536139668,-15.5292624461428,29.5233714335465,-13.9941089874037
0.915188230203375,30.1031651473998,1.0263698580415,-29.0767952893583,-15.5647675027206,29.589980218379,-14.0252127156584
0.917351795759412,30.169194710594,1.02923048481869,-29.1399642257753,-15.5992125977064,29.6545794681847,-14.0553668704783
0.919515361315448,30.2331879542894,1.03201786286045,-29.201170091429,-15.6326029085749,29.7171790228592,-14.0845761142843
0.921678926871484,30.2951549143877,1.03473233647962,-29.2604225779081,-15.6649436254337,29.7777887461479,-14.1128451207142
0.923842492427521,30.3551056506388,1.03737425091579,-29.317731399723,-15.6962399507773,29.8364185251809,-14.1401785744036
0.926006057983557,30.4130502461692,1.03994395231863,-29.3731062938506,-15.7264970992439,29.8930782700099,-14.166581170766
0.928169623539593,30.4689988070108,1.04244178773126,-29.4265570192796,-15.7557202973711,29.9477779131452,-14.1920576157742
0.93033318909563,30.522961461631,1.04486810507366,-29.4780933565573,-15.7839147833523,30.0005274090941,-14.2166126257418
0.932496754651666,30.5749483604627,1.04722325312611,-29.5277251073366,-15.8110858067944,30.0513367338996,-14.2402509271052
0.934660320207702,30.6249696754365,1.04950758151261,-29.5754620939239,-15.8372386284746,30.1002158846802,-14.2629772562056
0.936823885763739,30.6730355995123,1.05172144068437,-29.621314158828,-15.8623785200983,30.1471748791701,-14.2847963590718
0.938987451319775,30.7191563462126,1.05386518190327,-29.6652911643093,-15.8865107640579,30.192223755261,-14.305712991203
0.941151016875811,30.7633421491564,1.05593915722539,-29.707402991931,-15.9096406531909,30.2353725705437,-14.3257319173528
0.943314582431848,30.8056032615942,1.05794371948454,-29.7476595421096,-15.9317734905394,30.2766314018519,-14.3448579113125
0.945478147987884,30.8459499559435,1.05987922227581,-29.7860707336677,-15.9529145891096,30.3160103448056,-14.3630957556959
0.94764171354392,30.8843925233253,1.06174601993921,-29.8226465033861,-15.9730692716322,30.3535195133557,-14.3804502417234
0.949805279099957,30.9209412731011,1.06354446754325,-29.8573968055578,-15.9922428703222,30.3891690393295,-14.3969261690073
0.951968844655993,30.955606532411,1.06527492086861,-29.8903316115424,-16.0104407266398,30.4229690719767,-14.4125283453369
0.954132410212029,30.988398645713,1.06693773639181,-29.9214609093212,-16.0276681910524,30.4549297775171,-14.4272615864647
0.956295975768066,31.019327974324,1.06853327126892,-29.9507947030551,-16.0439306227965,30.4850613386896,-14.4411307158931
0.958459541324102,31.0484048959615,1.07006188331929,-29.9783430126422,-16.0592333896404,30.5133739543019,-14.4541405646615
0.960623106880139,31.0756398042869,1.07152393100932,-30.0041158732776,-16.0735818676481,30.5398778387823,-14.4662959711341
0.962786672436175,31.1010431084493,1.07291977343621,-30.0281233350131,-16.0869814409428,30.5645832217312,-14.4776017807884
0.964950237992211,31.1246252326298,1.07424977031183,-30.0503754623179,-16.0994375014708,30.5875003474739,-14.4880628460031
0.967113803548247,31.1463966155864,1.07551428194657,-30.0708823336399,-16.1109554487665,30.6086394746131,-14.4976840258466
0.969277369104284,31.1663677102,1.07671366923326,-30.0896540409667,-16.1215406897166,30.6280108755833,-14.5064701858667
0.97144093466032,31.1845489830204,1.07784829363109,-30.1067006893893,-16.1311986383258,30.6456248362049,-14.5144261978791
0.973604500216357,31.2009509138154,1.07891851714965,-30.1220323966658,-16.1399347154825,30.6614916552406,-14.5215569397581
0.975768065772393,31.2155839951201,1.07992470233293,-30.1356592927872,-16.1477543487265,30.6756216439537,-14.5278672952271
0.977931631328429,31.2284587317883,1.08086721224343,-30.1475915195448,-16.1546629720158,30.6880251256665,-14.5333621536507
0.980095196884466,31.2395856405447,1.08174641044624,-30.1578392300984,-16.1606660254955,30.6987124353216,-14.5380464098261
0.982258762440502,31.2489752495391,1.0825626609932,-30.1664125885459,-16.1657689552661,30.7076939190425,-14.5419249637763
0.984422327996538,31.256638097901,1.08331632840707,-30.1733217694939,-16.169977213154,30.7149799336974,-14.5450027205434
0.986585893552575,31.2625847352959,1.08400777766576,-30.1785769576302,-16.1732962564809,30.7205808464631,-14.5472845899822
0.988749459108611,31.2668257214834,1.08463737418656,-30.1821883472969,-16.175731547835,30.7245070343902,-14.5487754865552
0.990913024664647,31.2693716258756,1.08520548381043,-30.1841661420652,-16.177288554843,30.7267688839704,-14.5494803291274
0.993076590220684,31.2702330270978,1.08571247278633,-30.1845205543115,-16.1779727499421,30.7273767907046,-14.5494040407626
0.99524015577672,31.2694205125497,1.08615870775555,-30.1832618047942,-16.1777896101526,30.726341158672,-14.5485515485193
0.997403721332756,31.2669446779679,1.08654455573614,-30.1804001222318,-16.176744616852,30.7236724000999,-14.5469277832478
0.999567286888793,31.2628161269889,1.08687038410732,-30.1759457428816,-16.1748432555481,30.7193809349352,-14.5445376793871
1.00173085244483,31.2570454707136,1.08713656059403,-30.1699089101195,-16.1720910156538,30.7134771904166,-14.5413861747628
1.00389441800087,31.2496433272738,1.08734345325137,-30.1622998740224,-16.1684933902626,30.7059716006481,-14.5374782103855
1.0060579835569,31.2406203213998,1.08749143044928,-30.1531288909506,-16.1640558759246,30.6968746061752,-14.5328187302506
1.00822154911294,31.2299870839897,1.08758086085709,-30.1424062231326,-16.1587839724234,30.6861966535611,-14.5274126811378
1.01038511466897,31.2177542516797,1.08761211342827,-30.1301421382514,-16.152683182554,30.6739481949656,-14.5212650124116
1.01254868022501,31.2039324664165,1.08758555738512,-30.1163469090314,-16.1457590119008,30.6601396877239,-14.5143806758231
1.01471224578105,31.18853237503,1.0875015622036,-30.1010308128264,-16.1380169686168,30.6447815939282,-14.5067646253114
1.01687581133708,31.1715646288074,1.0873604975981,-30.0842041312093,-16.1294625632028,30.6278843800084,-14.4984218168056
1.01903937689312,31.1530398830691,1.08716273350638,-30.0658771495627,-16.1201013082877,30.6094585163159,-14.4893572080282
1.02120294244916,31.1329687967452,1.08690864007439,-30.0460601566708,-16.1099387184098,30.589514476708,-14.4795757582982
1.02336650800519,31.1113620319549,1.0865985876413,-30.0247634443136,-16.0989803097981,30.5680627381343,-14.4690824283362
1.02553007356123,31.0882302535871,1.08623294672444,-30.0019973068626,-16.0872316001558,30.5451137802248,-14.4578821800691
1.02769363911727,31.0635841288829,1.08581208800443,-29.9777720408784,-16.0746981084437,30.5206780848807,-14.445979976437
1.0298572046733,31.0374343270207,1.08533638231024,-29.9520979447104,-16.0613853546655,30.4947661358656,-14.4333807812001
1.03202077022934,31.0097915187019,1.08480620060438,-29.9249853180975,-16.0472988596531,30.4673884183997,-14.4200895587466
1.03418433578537,30.9806663757385,1.08422191396813,-29.8964444617704,-16.0324441448533,30.4385554187544,-14.4061112739011
1.03634790134141,30.9500695706418,1.08358389358683,-29.8664856770549,-16.0168267321143,30.4082776238484,-14.3914508917341
1.03851146689745,30.9180117762127,1.08289251073516,-29.8351192654775,-16.0004521434739,30.3765655208451,-14.3761133773712
1.04067503245348,30.8845036651339,1.08214813676256,-29.8023555283713,-15.9833259009482,30.3434295967526,-14.3601036958044
1.04283859800952,30.849555909564,1.08135114307857,-29.7682047664854,-15.9654535263213,30.3088803380247,-14.3434268117034
1.04500216356556,30.8131791807334,1.08050190113838,-29.732677279595,-15.9468405409359,30.2729282301642,-14.3260876892283
1.04716572912159,30.7753841485414,1.0796007824283,-29.6957833661132,-15.9274924654849,30.2355837573273,-14.3080912918424
1.04932929467763,30.7361814811549,1.07864815845137,-29.6575333227035,-15.9074148198031,30.1968574019292,-14.2894425821261
1.05149286023367,30.6955818446076,1.07764440071302,-29.6179374438946,-15.8866131226603,30.1567596442511,-14.2701465215908
1.0536564257897,30.6535959024018,1.07658988070676,-29.5770060216951,-15.8650928915543,30.1153009620484,-14.2502080704941
1.05581999134574,30.6102343151103,1.0754849699,-29.5347493452103,-15.8428596425051,30.0724918301603,-14.2296321876551
1.05798355690177,30.5655077399808,1.07433003971981,-29.491177700261,-15.8199188898503,30.0283427201209,-14.2084238302706
1.06014712245781,30.5194268305423,1.07312546153885,-29.4463013690035,-15.7962761460406,29.9828640997729,-14.1865879537323
1.06231068801385,30.4720022362122,1.07187160666127,-29.4001306295509,-15.7719369214367,29.9360664328815,-14.1641295114448
1.06447425356988,30.423244601906,1.07056884630868,-29.3526757555973,-15.7469067241074,29.8879601787517,-14.1410534546443
1.06663781912592,30.3731645676489,1.06921755160617,-29.3039470160428,-15.7211910596276,29.8385557918459,-14.1173647322183
1.06880138468196,30.3217727681886,1.06781809356836,-29.2539546746203,-15.6947954308785,29.7878637214044,-14.093068290526
1.07096495023799,30.2690798326108,1.06637084308559,-29.2027089895252,-15.6677253378482,29.735894411068,-14.0681690732198
1.07312851579403,30.2150963839565,1.06487617091011,-29.1502202130464,-15.6399862774333,29.6826582985015,-14.0426720210681
1.07529208135007,30.1598330388418,1.06333444764248,-29.0964985911994,-15.6115837432422,29.6281658150206,-14.0165820717784
1.0774556469061,30.1033004070793,1.06174604371783,-29.0415543633614,-15.5825232253986,29.5724273852204,-13.9899041598218
1.07961921246214,30.0455090913012,1.06011132939242,-28.9853977619088,-15.5528102103468,29.515453426605,-13.9626432162582
1.08178277801817,29.9864696865849,1.05843067473003,-28.9280390118549,-15.5224501806575,29.4572543492199,-13.9348041685624
1.08394634357421,29.9261927800789,1.05670444958859,-28.8694883304903,-15.4914486148337,29.3978405552846,-13.9063919404509
1.08610990913025,29.8646889506305,1.05493302360669,-28.8097559270238,-15.4598109871186,29.3372224388271,-13.8774114517086
1.08827347468628,29.8019687684145,1.05311676619028,-28.7488520022242,-15.4275427673024,29.2754103853193,-13.847867618017
1.09043704024232,29.7380427945635,1.05125604649931,-28.6867867480642,-15.3946494205314,29.2124147713138,-13.8177653507824
1.09260060579836,29.6729215808004,1.04935123343448,-28.6235703473659,-15.3611364071175,29.1482459640832,-13.7871095569657
1.09476417135439,29.6066156690731,1.04740269562407,-28.559212973449,-15.3270091823486,29.0829143212611,-13.7559051389125
1.09692773691043,29.5391355911914,1.04541080141078,-28.4937247897807,-15.2922731963011,29.016430190486,-13.7241569941849
1.09909130246646,29.4704918684668,1.04337591883867,-28.4271159496282,-15.2569338936528,28.9488039090475,-13.6918700153947
1.1012548680225,29.4006950113544,1.04129841564021,-28.3593965957142,-15.2209967134973,28.8800458035343,-13.659049090037
1.10341843357854,29.3297555190967,1.03917865922327,-28.2905768598734,-15.18446708916,28.810166189485,-13.6256991003251
1.10558199913457,29.25768387937,1.03701701665839,-28.2206668627116,-15.1473504480142,28.7391753710408,-13.5918249230266
1.10774556469061,29.1844905679321,1.03481385466589,-28.1496767132662,-15.109652211299,28.6670836405991,-13.5574314293002
1.10990913024665,29.1101860482714,1.03256953960327,-28.0776165086681,-15.0713777939373,28.5939012784697,-13.5225234845324
1.11207269580268,29.0347807712574,1.03028443745251,-28.0044963338049,-15.0325326043549,28.5196385525311,-13.4871059481762
1.11423626135872,28.9582851747929,1.02795891380756,-27.9303262609854,-14.9931220443002,28.4443057178891,-13.4511836735889
1.11639982691476,28.8807096834676,1.0255933338618,-27.8551163496058,-14.9531515086647,28.3679130165367,-13.414761507872
1.11856339247079,28.8020647082132,1.02318806239569,-27.7788766458175,-14.9126263853045,28.2904706770154,-13.3778442917109
1.12072695802683,28.7223606459603,1.02074346376433,-27.701617182196,-14.8715520548623,28.2119889140782,-13.3404368592158
1.12289052358286,28.6416078792974,1.01825990188521,-27.6233479774122,-14.8299338905913,28.1324779283548,-13.3025440377635
1.1250540891389,28.559816776132,1.01573774022596,-27.544079035906,-14.787777258179,28.051947906019,-13.26417064784
1.12721765469494,28.4769976893546,1.01317734179221,-27.4638203475623,-14.7450875155734,27.9704090184584,-13.2253215028851
1.12938122025097,28.3931609565053,1.01057906911551,-27.3825818873898,-14.7018700128104,27.8878714219475,-13.1860014091371
1.13154478580701,28.3083168994431,1.00794328424133,-27.3003736152018,-14.6581300918422,27.8043452573225,-13.1462151654802
1.13370835136305,28.2224758240176,1.0052703487171,-27.2172054753005,-14.6138730863674,27.719840649659,-13.1059675632917
1.13587191691908,28.1356480197426,1.00256062358036,-27.1330873961622,-14.5691043216615,27.6343677079524,-13.0652633862909
1.13803548247512,28.0478437594722,0.999814469346913,-27.0480292901252,-14.5238291144095,27.5479365247987,-13.0241074103892
1.14019904803116,27.9590732990779,0.997032245999132,-26.9620410530788,-14.4780527725385,27.4605571760784,-12.9825044035398
1.14236261358719,27.8693468771282,0.99421431297423,-26.875132564154,-14.4317805950512,27.3722397206411,-12.9404591255899
1.14452617914323,27.7786747145688,0.991361029152667,-26.7873136854162,-14.3850178718608,27.2829941999925,-12.8979763281318
1.14668974469926,27.6870670144058,0.988472752846602,-26.6985942615592,-14.3377698836262,27.1928306379824,-12.8550607543563
1.1488533102553,27.5945339613892,0.985549841788415,-26.6089841196008,-14.2900419015888,27.101759040495,-12.8117171389062
1.15101687581134,27.5010857217001,0.982592653119312,-26.5184930685808,-14.2418391874097,27.0097893951405,-12.7679502077307
1.15318044136737,27.4067324426376,0.979601543377986,-26.4271308992596,-14.1931669930078,26.9169316709486,-12.7237646779408
1.15534400692341,27.311484252309,0.976576868489349,-26.3349073838196,-14.1440305603992,26.8231958180643,-12.6791652576651
1.15750757247945,27.2153512593216,0.973518983753336,-26.2418322755682,-14.0944351215374,26.7285917674449,-12.6341566459074
1.15967113803548,27.1183435524763,0.970428243833785,-26.1479153086425,-14.044385898155,26.6331294305594,-12.5887435324044
1.16183470359152,27.0204712004639,0.96730500274739,-26.0531661977165,-13.9938881016056,26.5368186990902,-12.5429305974845
1.16399826914756,26.9217442515637,0.964149613852732,-25.9575946377109,-13.9429469327082,26.4396694446373,-12.4967225119291
1.16616183470359,26.8221727333451,0.960962429839371,-25.8612103035058,-13.8915675815922,26.3416915184254,-12.4501239368332
1.16832540025963,26.7217666523719,0.957743802717008,-25.7640228496549,-13.8397552275444,26.2428947510134,-12.4031395234689
1.17048896581566,26.6205359939082,0.954494083804717,-25.6660419101035,-13.7875150388565,26.1432889520058,-12.3557739131494
1.1726525313717,26.5184907216282,0.951213623720253,-25.567277097908,-13.7348521726742,26.0428839097681,-12.3080317370939
1.17481609692774,26.4156407773269,0.947902772369428,-25.4677380049575,-13.6817717748482,25.9416893911422,-12.259917616294
1.17697966248377,26.3119960806334,0.944561878935566,-25.3674342016978,-13.6282789797845,25.8397151411656,-12.2114361613811
1.17914322803981,26.2075665287262,0.941191291869039,-25.2663752368571,-13.5743789102976,25.7369708827916,-12.162591972494
1.18130679359585,26.1023619960498,0.937791358876881,-25.1645706371729,-13.5200766774633,25.6334663166114,-12.113389639148
1.18347035915188,25.9963923340332,0.934362426912481,-25.0620299071207,-13.4653773804728,25.5292111205769,-12.0638337401041
1.18563392470792,25.8896673708093,0.930904842165367,-24.9587625286439,-13.4102861064873,25.4242149497266,-12.0139288432393
1.18779749026395,25.7821969109374,0.927418950051049,-24.8547779608863,-13.3548079304942,25.3184874359119,-11.9636795054176
1.18996105581999,25.6739907351262,0.923905095200959,-24.7500856399252,-13.2989479151636,25.2120381875257,-11.9130902723621
1.19212462137603,25.5650585999603,0.920363621452456,-24.6446949785078,-13.2427111107064,25.1048767892341,-11.8621656785277
1.19428818693206,25.4554102376283,0.916794871838915,-24.5386153657894,-13.1861025547336,24.9970128017088,-11.8109102469752
1.1964517524881,25.3450553556541,0.913199188579915,-24.4318561670742,-13.129127272117,24.8884557613641,-11.7593284892471
1.19861531804414,25.2340036366304,0.909576913071494,-24.3244267235589,-13.0717902748509,24.7792151800946,-11.7074249052437
1.20077888360017,25.1222647379549,0.905928385876486,-24.2163363520784,-13.0140965619157,24.6693005450167,-11.655203983101
1.20294244915621,25.0098482915689,0.902253946714924,-24.107594344854,-12.9560511191419,24.5587213182115,-11.6026701990695
1.20510601471225,24.8967639036978,0.898553934454495,-23.9982099692433,-12.8976589190761,24.4474869364705,-11.5498280173944
1.20726958026828,24.7830211545935,0.894828687101054,-23.8881924674925,-12.8389249208473,24.335606811043,-11.4966818901957
1.20943314582432,24.6686295982794,0.891078541789213,-23.7775510564902,-12.7798540700343,24.2230903273848,-11.4432362573505
1.21159671138035,24.5535987622964,0.887303834772987,-23.6662949275234,-12.7204512985347,24.1099468449099,-11.3894955463752
1.21376027693639,24.4379381474518,0.883504901416532,-23.5544332460353,-12.6607215244342,23.9961856967435,-11.3354641723094
1.21592384249243,24.3216572275702,0.879682076184956,-23.4419751513852,-12.6006696518776,23.8818161894777,-11.2811465376001
1.21808740804846,24.204765449246,0.875835692635226,-23.3289297566108,-12.5403005709406,23.7668476029284,-11.2265470319878
1.2202509736045,24.087272231599,0.871966083407159,-23.2153061481919,-12.4796191575031,23.6512891898955,-11.1716700323924
1.22241453916054,23.9691869660307,0.868073580214506,-23.1011133858162,-12.4186302731226,23.5351501759235,-11.1165199028008
1.22457810471657,23.8505190159836,0.864158513836113,-22.9863605021475,-12.3573387649099,23.4184397590655,-11.0611009941557
1.22674167027261,23.7312777167024,0.860221214107167,-22.8710565025952,-12.2957494654048,23.3011671096488,-11.005417644244
1.22890523582865,23.6114723749978,0.856262009910514,-22.7552103650873,-12.2338671924542,23.1833413700426,-10.9494741775884
1.23106880138468,23.4911122690128,0.852281229168046,-22.6388310398447,-12.1716967490904,23.0649716544288,-10.8932749053383
1.23323236694072,23.3702066479909,0.848279198832153,-22.5219274491587,-12.1092429234115,22.9460670485748,-10.8368241251633
1.23539593249675,23.2487647320473,0.844256244877253,-22.40450848717,-12.0465104884623,22.8266366096087,-10.7801261211464
1.23755949805279,23.1267957119412,0.840212692291376,-22.2865830196498,-11.9835042021163,22.7066893657955,-10.7231851636792
1.23972306360883,23.0043087488504,0.836148865067825,-22.1681598837826,-11.9202288069591,22.5862343163165,-10.6660055093574
1.24188662916486,22.8813129741482,0.832065086196906,-22.0492478879513,-11.8566890301726,22.4652804310498,-10.6085914008772
1.2440501947209,22.7578174891816,0.827961677657728,-21.9298558115239,-11.7928895834197,22.3438366503528,-10.5509470669331
1.24621376027694,22.6338313650525,0.823838960410097,-21.8099924046424,-11.7288351627313,22.2219118848475,-10.4930767221162
1.24837732583297,22.509363642401,0.819697254386488,-21.6896663880145,-11.6645304483937,22.0995150152077,-10.434984566814
1.25054089138901,22.3844233311912,0.815536878484111,-21.5688864527071,-11.5999801048377,21.9766548919492,-10.3766747871115
1.25270445694505,22.2590194105005,0.811358150557057,-21.4476612599434,-11.5351887805288,21.8533403352219,-10.3181515546932
1.25486802250108,22.1331608283099,0.80716138740853,-21.3259994409014,-11.4701611078592,21.7295801346057,-10.2594190267464
1.25703158805712,22.0068565012983,0.802946904783158,-21.2039095965151,-11.4049017030407,21.6053830489067,-10.200481345866
1.25919515361315,21.880115314637,0.798715017359369,-21.0814002972777,-11.3394151659982,21.4807578059573,-10.1413426399591
1.26135871916919,21.7529461217887,0.794466038741843,-20.9584800830468,-11.2737060802653,21.3557131024178,-10.0820070221525
1.26352228472523,21.6253577443065,0.790200281454023,-20.8351574628525,-11.2077790128803,21.2302576035795,-10.0224785906992
1.26568585028126,21.4973589716369,0.785918056930702,-20.7114409147062,-11.1416385142838,21.1043999431716,-9.96276142888775
1.2678494158373,21.368958560924,0.781619675510694,-20.5873388854133,-11.0752891182174,20.9781487231687,-9.90285960495132
1.27001298139334,21.2401652368163,0.777305446429587,-20.4628597903867,-11.0087353416229,20.8515125136015,-9.84277717197856
1.27217654694937,21.1109876912753,0.772975677812582,-20.3380120134627,-10.9419816845439,20.724499852369,-9.78251816782505
1.27434011250541,20.9814345833864,0.768630676667423,-20.212803906719,-10.8750326300269,20.5971192450527,-9.72208661502578
1.27650367806145,20.8515145391719,0.764270748877403,-20.0872437902945,-10.8078926440246,20.4693791647332,-9.66148652070854
1.27866724361748,20.7212361514055,0.759896199194458,-19.9613399522111,-10.7405661753,20.3412880518083,-9.60072187650831
1.28083080917352,20.5906079794295,0.755507331232334,-19.8351006481972,-10.6730576553309,20.2128543138133,-9.53979665848242
1.28299437472955,20.459638548973,0.751104447459827,-19.7085341015132,-10.6053714982164,20.0840863252431,-9.47871482702669
1.28515794028559,20.3283363519729,0.746687849194099,-19.5816485027788,-10.5375121005835,19.9549924273759,-9.41748032679236
1.28732150584163,20.1967098463961,0.742257836594067,-19.454452009802,-10.4694838414951,19.8255809280991,-9.35609708660397
1.28948507139766,20.0647674560641,0.737814708653873,-19.3269527474102,-10.401291082359,19.6958601017372,-9.29456901937819
1.2916486369537,19.9325175704802,0.73335876319642,-19.1991588072838,-10.3329381668383,19.565838188882,-9.23290002204369
1.29381220250974,19.7999685446585,0.728890296866996,-19.0710782477915,-10.2644294207627,19.435523396225,-9.17109397546223
1.29597576806577,19.6671286989554,0.724409605126965,-18.9427190938284,-10.1957691520412,19.3049238963919,-9.10915474435072
1.29813933362181,19.5340063189042,0.719916982247547,-18.8140893366567,-10.1269616505759,19.1740478277804,-9.04708617720456
1.30030289917785,19.4006096550512,0.715412721303676,-18.6851969337475,-10.0580111881774,19.0429032943994,-8.98489210622192
1.30246646473388,19.2669469227941,0.710897114167936,-18.5560498086262,-9.98892201848101,18.9114983657101,-8.92257634722911
1.30463003028992,19.133026302223,0.706370451504593,-18.4266558507184,-9.91969837686378,18.7798410764707,-8.86014269960689
1.30679359584595,18.9988559379634,0.701833022763701,-18.2970229151997,-9.85034448036355,18.6479394265816,-8.797594946218
1.30895716140199,18.8644439390222,0.697285116175288,-18.167158822847,-9.78086452759877,18.5158013809346,-8.73493685333584
1.31112072695803,18.7297983786355,0.692727018743627,-18.0370713598918,-9.71126269868955,18.3834348692637,-8.67217217057411
1.31328429251406,18.5949272941185,0.688159016241566,-17.9067682778769,-9.64154315518002,18.2508477859977,-8.60930463081767
1.3154478580701,18.4598386867184,0.683581393204929,-17.7762572935134,-9.57171003996164,18.1180479901159,-8.54633795015425
1.31761142362614,18.3245405214683,0.678994432926968,-17.6455460885414,-9.50176747719764,17.9850433050048,-8.48327582780719
1.31977498918217,18.189040727044,0.674398417452885,-17.5146423095912,-9.43171957224847,17.8518415183176,-8.42012194606914
1.32193855473821,18.0533471956221,0.669793627574413,-17.3835535680477,-9.36157041159826,17.7184503818349,-8.35687997023664
1.32410212029424,17.9174677827401,0.665180342824475,-17.2522874399157,-9.29132406278231,17.5848776113279,-8.2935535485456
1.32626568585028,17.7814103071591,0.660558841471919,-17.1208514656871,-9.22098457431549,17.4511308864231,-8.23014631210762
1.32842925140632,17.6451825507271,0.655929400516341,-16.9892531502108,-9.15055597562173,17.3172178504689,-8.16666187484722
1.33059281696235,17.5087922582462,0.651292295682996,-16.8574999625632,-9.08004227696459,17.1831461104047,-8.10310383344009
1.33275638251839,17.3722471373403,0.646647801417788,-16.7255993359226,-9.00944746937907,17.0489232366314,-8.03947576725238
1.33491994807443,17.2355548583268,0.641996190882346,-16.5935586674445,-8.93877552460458,16.9145567628856,-7.97578123828106
1.33708351363046,17.0987230540889,0.637337735949193,-16.4613853181397,-8.86803039501907,16.7800541861143,-7.91202379109528
1.3392470791865,16.9617593199512,0.632672707197002,-16.3290866127542,-8.79721601357411,16.6454229663527,-7.8482069527786
1.34141064474254,16.8246712135566,0.628001373905952,-16.1966698396506,-8.72633629373127,16.5106705266036,-7.78433423287234
1.34357421029857,16.687466254746,0.623324004053156,-16.0641422506928,-8.65539512939958,16.3758042527194,-7.72040912331985
1.34573777585461,16.5501519254404,0.618640864308169,-15.9315110611322,-8.58439639487428,16.2408314932863,-7.65643509841203
1.34790134141064,16.4127356695249,0.613952220028555,-15.7987834494964,-8.51334394477674,16.1057595595106,-7.59241561473391
1.35006490696668,16.2752248927356,0.609258335255534,-15.6659665574801,-8.44224161399558,15.9705957251079,-7.52835411111228
1.35222847252272,16.1376269625481,0.604559472709684,-15.5330674898384,-8.3710932176289,15.8353472261933,-7.46425400856437
1.35439203807875,15.9999492080681,0.599855893786717,-15.4000933142814,-8.29990255092743,15.7000212611748,-7.40011871024735
1.35655560363479,15.8621989199243,0.595147858553318,-15.2670510613709,-8.22867338923879,15.5646249906476,-7.33595160140882
1.35871916919083,15.7243833501623,0.590435625743062,-15.1339477244192,-8.15740948795268,15.4291655372908,-7.27175604933809
1.36088273474686,15.5865097121413,0.585719452752418,-15.0007902593889,-8.08611458244685,15.2936499857651,-7.20753540331823
1.3630463003029,15.4485851804314,0.580999595636832,-14.8675855847946,-8.01479238803411,15.158085382613,-7.14329299457886
1.36520986585894,15.3106168907135,0.576276309106888,-14.7343405816066,-7.94344659991019,15.0224787361601,-7.07903213624986
1.36737343141497,15.1726119396812,0.571549846524543,-14.6010620931567,-7.87208089310287,14.8868370164189,-7.01475612331605
1.36953699697101,15.034577384945,0.56682045989943,-14.4677569250456,-7.80069892242221,14.7511671549953,-6.95046823257307
1.37170056252704,14.896520244939,0.562088399885234,-14.3344318450538,-7.72930432241214,14.6154760449964,-6.88617172258429
1.37386412808308,14.7584474988304,0.557353915776127,-14.2010935830543,-7.65790070730326,14.4797705409423,-6.82186983363907
1.37602769363912,14.6203660864306,0.552617255503263,-14.0677488309274,-7.58649167096695,14.344057458679,-6.75756578771206
1.37819125919515,14.4822829081101,0.54787866563134,-13.9344042424788,-7.51508078687072,14.2083435752944,-6.69326278842371
1.38035482475119,14.344204824714,0.543138391355225,-13.8010664333588,-7.44367160803462,14.0726356290364,-6.62896402100178
1.38251839030723,14.2061386574806,0.538396676496653,-13.667741980984,-7.37226766698864,13.9369403192323,-6.56467265224366
1.38468195586326,14.068091187961,0.533653763501009,-13.53443742446,-7.300872475731,13.8012643062105,-6.50039183047948
1.3868455214193,13.9300691579401,0.528909893434182,-13.4011592645059,-7.22948952568715,13.665614211223,-6.43612468553587
1.38900908697534,13.7920792693594,0.524165305979509,-13.2679139633799,-7.15812228766946,13.5299966163697,-6.37187432870019
1.39117265253137,13.6541281842406,0.519420239434804,-13.1347079448058,-7.08677421183773,13.3944180645232,-6.30764385268552
1.39333621808741,13.5162225246116,0.514674930709463,-13.0015475939022,-7.01544872766055,13.2588850592569,-6.24343633159636
1.39549978364344,13.378368872434,0.509929615321655,-12.8684392571124,-6.94414924387783,13.1234040647732,-6.17925482089535
1.39766334919948,13.2405737695335,0.505184527395579,-12.7353892421379,-6.87287914846455,12.9879815058357,-6.11510235737118
1.39982691475552,13.102843717533,0.500439899658796,-12.6024038178742,-6.80164180859589,12.8526237677036,-6.0509819591077
1.40199048031155,12.9651851777881,0.495695963439622,-12.4694892143484,-6.73044057061384,12.7173371960682,-5.9868966254544
1.40415404586759,12.8276045713252,0.49095294866459,-12.3366516226607,-6.65927875999492,12.582128096993,-5.92284933699803
1.40631761142363,12.6901082787826,0.486211083855963,-12.2038971949266,-6.58815968131928,12.4470027368546,-5.85884305553533
1.40848117697966,12.5527026403521,0.481470596129324,-12.0712320442227,-6.51708661824069,12.3119673422874,-5.7948807240467
1.4106447425357,12.4153939557238,0.476731711191217,-11.9386622445326,-6.44606283345751,12.1770281001282,-5.73096526667068
1.41280830809174,12.278188484032,0.471994653336868,-11.8061938306951,-6.37509156868444,12.0421911573636,-5.66709958867914
1.41497187364777,12.1410924438024,0.467259645447973,-11.6738327983544,-6.3041760446252,11.9074626210784,-5.60328657645324
1.41713543920381,12.0041120129013,0.46252690899056,-11.5415851039108,-6.23331946094594,11.772848558406,-5.5395290974601
1.41929900475984,11.8672533284865,0.457796664012925,-11.4094566644736,-6.16252499624971,11.63835499648,-5.47583000023032
1.42146257031588,11.7305224869597,0.453069129143646,-11.2774533578161,-6.09179580805169,11.5039879223879,-5.41219211433623
1.42362613587192,11.5939255439214,0.448344521589672,-11.1455810223317,-6.02113503275552,11.3697532831265,-5.34861825037101
1.42578970142795,11.4574685141264,0.443623057134496,-11.0138454569919,-5.95054578563046,11.2356569855592,-5.28511119992871
1.42795326698399,11.3211573714432,0.438904950136394,-10.8822524213068,-5.8800311607898,11.101704896375,-5.22167373558521
1.43011683254003,11.1849980488139,0.434190413526749,-10.7508076352871,-5.8095942311703,10.9679028420505,-5.15830861088018
1.43228039809606,11.048996438217,0.42947965880844,-10.6195167794085,-5.7392380485127,10.8342566088127,-5.09501856030004
1.4344439636521,10.9131583906323,0.424772896054308,-10.488385494578,-5.6689656433433,10.7007719426051,-5.03180629926183
1.43660752920814,10.7774897160073,0.420070333905681,-10.3574193821016,-5.5987800249565,10.5674545490545,-4.96867452409798
1.43877109476417,10.6419961832258,0.415372179570964,-10.2266240036548,-5.52868418139837,10.4343100934403,-4.90562591204192
1.44093466032021,10.5066835200778,0.410678638824286,-10.0960048812535,-5.45868107945104,10.3013442006656,-4.84266312121461
1.44309822587624,10.371557413232,0.405989916004211,-9.96556749722782,-5.38877366461812,10.1685624552299,-4.77978879061181
1.44526179143228,10.2366235082094,0.401306214012493,-9.83531729419694,-5.31896486111096,10.0359704012032,-4.71700554009222
1.44742535698832,10.1018874093587,0.396627734312913,-9.7052596750458,-5.24925757183582,9.90357354220226,-4.65431597036645
1.44958892254435,9.96735467983372,0.391954676930174,-9.57540000290355,-5.17965467838195,9.77137734136863,-4.59172266298669
1.45175248810039,9.83303084157238,0.387287240448883,-9.4457436011235,-5.11015904101063,9.63938722134794,-4.52922818033731
1.45391605365643,9.6989213752776,0.382625622012605,-9.316295753265,-5.0407734986451,9.5076085642713,-4.4668350656262
1.45607961921246,9.56503172039995,0.377970017323001,-9.18706170307695,-4.97150086886148,9.37604671173845,-4.40454584287697
1.4582431847685,9.43136727512218,0.373320620639051,-9.05804665448313,-4.90234394788061,9.24470696480265,-4.34236301692204
1.46040675032453,9.29793339634565,0.368677624776331,-8.92925577156932,-4.83330551056099,9.11359458395748,-4.28028907339649
1.46257031588057,9.16473539967869,0.364041221106371,-8.80069417857232,-4.76438831039253,8.98271478912551,-4.21832647873297
1.46473388143661,9.03177855942682,0.359411599556045,-8.67236695987077,-4.69559507949143,8.8520727596488,-4.15647768015736
1.46689744699264,8.8990681085848,0.354788948607029,-8.54427915997778,-4.62692852859592,8.72167363428129,-4.09474510568537
1.46906101254868,8.76660923883048,0.350173455295289,-8.41643578353519,-4.55839134706288,8.59152251118284,-4.03313116411995
1.47122457810472,8.63440710052024,0.345565305210619,-8.28884179530962,-4.48998620286543,8.46162444791493,-3.9716382450495
1.47338814366075,8.50246680268617,0.340964682496231,-8.16150212018994,-4.4217157425912,8.33198446143805,-3.91026871884685
1.47555170921679,8.37079341303475,0.336371769848409,-8.03442164318634,-4.35358259144158,8.20260752811054,-3.84902493666896
1.47771527477283,8.2393919579471,0.331786748516223,-7.90760520943088,-4.28558935323166,8.07349858368899,-3.78790923045733
1.47987884032886,8.1082674224809,0.327209798301323,-7.78105762417958,-4.21773861039111,7.94466252333024,-3.72692391293913
1.4820424058849,7.97742475037403,0.32264109755782,-7.65478365281622,-4.15003292396593,7.81610420159512,-3.6660712776292
1.48420597144093,7.84686884405009,0.318080823192229,-7.52878802085786,-4.08247483362116,7.68782843245397,-3.60535359883281
1.48636953699697,7.7166045646258,0.313529150663505,-7.40307541396229,-4.01506685764465,7.55983998929405,-3.54477313164939
1.48853310255301,7.5866367319205,0.308986253983132,-7.27765047793736,-3.94781149295181,7.43214360492893,-3.48433211197712
1.49069666810904,7.45697012446745,0.304452305715288,-7.15251781875216,-3.88071121509137,7.30474397160981,-3.42403275651844
1.49286023366508,7.32760947952711,0.299927476977066,-7.02768200255004,-3.81376847825209,7.17764574103858,-3.36387726278649
1.49502379922112,7.19855949310204,0.295411937438762,-6.90314755566328,-3.7469857152704,7.05085352438266,-3.30386780911226
1.49718736477715,7.06982481995347,0.290905855324214,-6.77891896462926,-3.68036533763884,6.92437189229137,-3.24400655465252
1.49935093033319,6.9414100736193,0.286409397411214,-6.65500067620809,-3.61390973551526,6.7982053749137,-3.18429563939844
1.50151449588923,6.81331982643368,0.281922729031979,-6.53139709740171,-3.54762127773283,6.67235846191769,-3.12473718418486
1.50367806144526,6.6855586095481,0.277446014073685,-6.40811259547442,-3.48150231181089,6.54683560251126,-3.06533329070037
1.5058416270013,6.55813091295419,0.272979414979066,-6.28515149797513,-3.41555516396663,6.42164120546466,-3.00608604149803
1.50800519255733,6.4310411855083,0.268523092747062,-6.16251809276124,-3.34978213912768,6.29677963913477,-2.94699750000709
1.51016875811337,6.30429383495782,0.26407720693352,-6.0402166280243,-3.28418552094567,6.17225523149106,-2.88806971054539
1.51233232366941,6.17789322796934,0.259641915651935,-5.9182513123174,-3.21876757181064,6.04807227014337,-2.82930469833273
1.51449588922544,6.05184369015856,0.25521737557424,-5.79662631458432,-3.1535305328664,5.92423500237144,-2.77070446950504
1.51665945478148,5.92614950612183,0.250803741931653,-5.67534576419017,-3.08847662402674,5.800747635156,-2.71227101112926
1.51882302033752,5.80081491946916,0.246401168515581,-5.55441375095358,-3.02360804399237,5.67761433521137,-2.654006291219
1.52098658589355,5.67584413285867,0.242009807678594,-5.43383432518007,-2.95892697026863,5.55483922901937,-2.59591225875074
1.52315015144959,5.55124130803228,0.237629810335462,-5.31361149769681,-2.89443555918387,5.43242640286454,-2.53799084368068
1.52531371700563,5.42701056585294,0.233261325964269,-5.19374923988867,-2.8301359459086,5.3103799028708,-2.4802439569622
1.52747728256166,5.30315598634314,0.228904502607586,-5.07425148373556,-2.76603024447536,5.18870373503935,-2.42267349056398
1.5296408481177,5.17968160872484,0.224559486873711,-4.95512212185113,-2.70212054779928,5.06740186528799,-2.36528131748871
1.53180441367373,5.05659143146084,0.220226423937965,-4.83636500752287,-2.6384089276994,4.94647821949185,-2.30806929179245
1.53396797922977,4.9338894122975,0.215905457544035,-4.71798395475346,-2.57489743492077,4.82593668352548,-2.25103924860471
1.53613154478581,4.81157946830897,0.211596730005382,-4.59998273830359,-2.51158809915718,4.70578110330628,-2.1941930041491
1.53829511034184,4.68966547594277,0.207300382206676,-4.4823650937361,-2.44848292907472,4.58601528483943,-2.13753235576471
1.54045867589788,4.56815127106688,0.203016553605299,-4.36513471746159,-2.38558391233609,4.46664299426423,-2.08105908192814
1.54262224145392,4.4470406490184,0.198745382232874,-4.24829526678552,-2.32289301562564,4.34766795790196,-2.02477494227632
1.54478580700995,4.32633736465383,0.194487004696865,-4.13185035995697,-2.26041218467535,4.2290938623054,-1.96868167763005
1.54694937256599,4.20604513240128,0.190241556182218,-4.01580357621906,-2.19814334429175,4.11092435431017,-1.91278101001842
1.54911293812203,4.0861676263143,0.186009170453059,-3.90015845586124,-2.13608839838368,3.99316304108777,-1.85707464270409
1.55127650367806,3.96670848012774,0.181789979854461,-3.78491850027328,-2.0742492299911,3.87581349020051,-1.80156426020941
1.5534400692341,3.84767128731523,0.177584115314264,-3.67008717200097,-2.01262770131475,3.7588792296581,-1.74625152834335
1.55560363479013,3.72905960114835,0.173391706344956,-3.5556678948034,-1.95122565374666,3.64236374797588,-1.69113809422922
1.55776720034617,3.61087693475725,0.169212881045609,-3.44166405371164,-1.89004490790143,3.52627049423445,-1.63622558633302
1.55993076590221,3.49312676119254,0.165047766103877,-3.32807899508867,-1.82908726364821,3.41060287814061,-1.5815156144924
1.56209433145824,3.37581251348833,0.160896486798033,-3.2149160266903,-1.76835450014318,3.29536427008932,-1.52700976994613
1.56425789701428,3.25893758472618,0.156759166999073,-3.1021784177271,-1.70784837586262,3.18055800122664,-1.47270962536402
1.56642146257032,3.14250532810002,0.152635929172849,-2.98986939892717,-1.64757062863643,3.0661873635136,-1.41861673487716
1.56858502812635,3.02651905698211,0.148526894382269,-2.87799216259984,-1.58752297568219,2.95225560979097,-1.36473263410879
1.57074859368239,2.91098204498994,0.144432182289534,-2.76654986270041,-1.52770711363974,2.83876595384518,-1.31105884020544
1.57291215923842,2.79589752605452,0.140351911158428,-2.65554561489609,-1.46812471860647,2.72572157047531,-1.25759685186883
1.57507572479446,2.68126869448992,0.136286197856649,-2.54498249663328,-1.40877744617329,2.6131255955616,-1.20434814938831
1.5772392903505,2.56709870506448,0.132235157858194,-2.43486354720629,-1.34966693146134,2.50098112613539,-1.15131419467405
1.57940285590653,2.45339067307354,0.128198905245786,-2.32519176782776,-1.29079478915966,2.38929122045065,-1.09849643129099
1.58156642146257,2.34014767441388,0.124177552713347,-2.21597012170054,-1.23216261356361,2.27805889805721,-1.04589628449359
1.58372998701861,2.22737274565984,0.120171211568524,-2.10720153409132,-1.17377197861418,2.16728713987558,-0.993515161261397
1.58589355257464,2.1150688841411,0.116179991735262,-1.99888889240584,-1.11562443793818,2.05697888827347,-0.94135445033529
1.58805711813068,2.00323904802206,0.112204001756434,-1.89103504626562,-1.05772152488925,1.94713704714384,-0.889415522254595
1.59022068368672,1.8918861563826,0.108243348796523,-1.78364280758608,-1.00006475258956,1.83776448198434,-0.837699729394777
1.59238424924275,1.78101308930021,0.104298138644365,-1.67671495065585,-0.942655613972289,1.72886401997803,-0.786208406005741
1.59454781479879,1.67062268793316,0.100368475715934,-1.57025421221722,-0.885495581824545,1.62043845007519,-0.734942868250644
1.59671138035482,1.56071775460462,0.096454463057184,-1.46426329154743,-0.828586108830901,1.51249052307603,-0.683904414245125
1.59887494591086,1.45130105288772,0.092556202346931,-1.35874485054079,-0.771928627617328,1.40502295171426,-0.633094324096931
1.6010385114669,1.34237530769142,0.08867379389978,-1.25370151379164,-0.715524550795602,1.29803841074153,-0.582513859945932
1.60320207702293,1.2339432053473,0.0848073366690951,-1.1491358686782,-0.659375271008198,1.19153953701275,-0.532164266004555
1.60536564257897,1.12600739369745,0.0809569282500146,-1.04505046544744,-0.603482160973733,1.08552892957244,-0.482046768598711
1.60752920813501,1.01857048218357,0.0771226648825108,-0.941447817301058,-0.54784657353304,0.980009149742313,-0.432162576209273
1.60969277369104,0.911635041937355,0.0733046414544938,-0.838330400482861,-0.492469841695924,0.874982721210108,-0.382512879514183
1.61185633924708,0.805203605872404,0.0695029515049589,-0.735700654367445,-0.437353278688681,0.770452130119925,-0.333098851431243
1.61401990480312,0.699278668777557,0.0657176872271757,-0.633560981550381,-0.382498178002366,0.666419825163969,-0.283921647161603
1.61618347035915,0.593862687411733,0.0619489394719203,-0.531913747939812,-0.327905813441827,0.562888217675773,-0.234982404233946
1.61834703591519,0.488958080600188,0.0581967977507492,-0.430761282849439,-0.273577439175469,0.459859681724813,-0.186282242549345
1.62051060147122,0.384567229332097,0.0544613502393192,-0.330105879092777,-0.219514289785708,0.357336554212437,-0.137822264426729
1.62267416702726,0.280692476859359,0.0507426837807515,-0.229949793078608,-0.165717580320055,0.255321134968983,-0.089603554648928
1.6248377325833,0.177336128796513,0.0470408838890442,-0.130295244907469,-0.112188506342779,0.153815686851991,-0.0416271805092124
1.62700129813933,0.0745004532216369,0.0433560347525295,-0.0311444184691073,-0.0589282439870832,0.0528224358453721,0.00610580814171109
1.62916486369537,-0.0278123192218492,0.0396882192373753,0.0675005384592244,-0.00593795000776304,-0.0476564288405368,0.0535943788482999
1.63132842925141,-0.129599995222513,0.0360375188911278,0.165637514113641,0.0467812381656928,-0.147618754668077,0.100837516502384
1.63349199480744,-0.230860418697359,0.0324040139462924,0.263264432643651,0.0992282023755332,-0.247062425670505,0.147834223294972
1.63565556036348,-0.331591470687314,0.0287877833239497,0.360379254011264,0.151401843681682,-0.345985362349289,0.194583518667607
1.63781912591952,-0.43179106925169,0.025188904637406,0.456979973889096,0.203301082307142,-0.444385521570393,0.241084439263251
1.63998269147555,-0.531457169361535,0.021607454195879,0.553064623557414,0.254924857582828,-0.542260896459475,0.287336038876646
1.64214625703159,-0.630587762791863,0.0180435070082196,0.648631269800082,0.306272127891822,-0.639609516295973,0.333337388404151
1.64430982258762,-0.729180878012751,0.0144971367866725,0.743678014799424,0.357341870613039,-0.736429446406087,0.379087575793048
1.64647338814366,-0.827234580079336,0.0109684159506777,0.838202996030014,0.408133082064329,-0.832718788054675,0.424585705990346
1.6486369536997,-0.92474697052073,0.00745741563071641,0.932204386151446,0.458644777445007,-0.928475678336088,0.469830900891081
1.65080051925573,-1.02171618722787,0.00396420567220186,1.02568039290007,0.508875990777834,-1.02369829006397,0.514822299286136
1.65296408481177,-1.11814040434031,0.000488854639417782,1.11862925897973,0.558825774850447,-1.11838483166002,0.559559056809574
1.65512765036781,-1.21401783213196,-0.00296857018049629,1.21104926195147,0.608493201156229,-1.21253354704171,0.604040345885485
1.65729121592384,-1.30934671689575,-0.00640800277351391,1.30293871412224,0.657877359834632,-1.30614271550899,0.648265355674362
1.65945478147988,-1.40412534082729,-0.00982937839464816,1.39429596243265,0.706977359610971,-1.39921065162997,0.692233292018999
1.66161834703592,-1.49835202190754,-0.0132326335638396,1.4851193883437,0.75579232773569,-1.49173570512562,0.735943377389931
1.66378191259195,-1.59202511378448,-0.0166177060618102,1.57540740772267,0.804321409923147,-1.58371626075358,0.779394850830432
1.66594547814799,-1.68514300565394,-0.0199845349258881,1.66515847072806,0.852563770289916,-1.675150738191,0.822586967901083
1.66810904370402,-1.7777041221395,-0.0233330604458037,1.75437106169369,0.900518591292649,-1.76603759191659,0.865519000623944
1.67027260926006,-1.86970692317155,-0.0266632241594607,1.84304369901209,0.948185073665507,-1.85637531109182,0.908190237426316
1.6724361748161,-1.9611499038656,-0.0299749688486787,1.93117493501693,0.995562436357142,-1.94616241944127,0.950599983084124
1.67459974037213,-2.05203159439957,-0.0332682385349087,2.01876335586466,1.04264991646724,-2.03539747513211,0.992747558664874
1.67676330592817,-2.14235055989024,-0.0365429784749163,2.10580758141532,1.08944676918258,-2.12407907065278,1.0346323014702
1.67892687148421,-2.23210540026885,-0.0397991351564324,2.19230626511242,1.13595226771264,-2.21220583269063,1.07625356497799
1.68109043704024,-2.32129475015569,-0.0430366562937682,2.27825809386193,1.18216570322473,-2.29977642200881,1.11761071878408
1.68325400259628,-2.40991727873388,-0.0462554908233913,2.36366178791049,1.22808638477863,-2.38678953332218,1.15870314854355
1.68541756815232,-2.49797168962223,-0.0494555888994612,2.44851610072276,1.27371363926084,-2.47324389517249,1.19953025591165
1.68758113370835,-2.58545672074733,-0.0526369018893239,2.532819818858,1.31904681131833,-2.55913826980267,1.24009145848434
1.68974469926439,-2.67237114421474,-0.0557993823689655,2.61657176184578,1.36408526329185,-2.64447145303026,1.28038618973841
1.69190826482042,-2.75871376617935,-0.0589429841184288,2.69977078206093,1.40882837514889,-2.72924227412014,1.32041389897125
1.69407183037646,-2.8444834267149,-0.0620676621171968,2.78241576459771,1.45327554441605,-2.8134495956563,1.36017405124025
1.6962353959325,-2.92967899968263,-0.0651733725395479,2.86450562714308,1.49742618611109,-2.89709231341286,1.39966612730177
1.69839896148853,-3.0142993925991,-0.0682600727498854,2.94603931984921,1.54127973267449,-2.98016935622416,1.43888962354966
1.70056252704457,-3.09834354650309,-0.0713277212980442,3.02701582520505,1.58483563390057,-3.06267968585407,1.4778440519535
1.70272609260061,-3.18181043582173,-0.0743762779145731,3.10743415790715,1.62809335686815,-3.14462229686444,1.51652893999629
1.70488965815664,-3.26469906823569,-0.0774057035059923,3.1872933647297,1.67105238587084,-3.2259962164827,1.55494383061185
1.70705322371268,-3.34700848454378,-0.0804159601500223,3.26659252439375,1.7137122223469,-3.30680050446876,1.59308828212187
1.70921678926871,-3.42873775852671,-0.0834070110907852,3.34533074743593,1.75607238480875,-3.38703425298132,1.63096186817257
1.71138035482475,-3.50988599681039,-0.0863788207339749,3.42350717607641,1.79813240877218,-3.4666965864434,1.66856417767122
1.71354392038079,-3.59045233872849,-0.0893313546419991,3.50112098408649,1.83989184668524,-3.54578666140749,1.70589481472224
1.71570748593682,-3.67043595618453,-0.0922645795290906,3.57817137665544,1.88135026785681,-3.62430366641998,1.74295339856317
1.71787105149286,-3.74983605351325,-0.0951784632563883,3.65465759025686,1.92250725838482,-3.70224682188505,1.77973956350023
1.7200346170489,-3.82865186734122,-0.0980729748269894,3.73057889251423,1.9633624210841,-3.77961537992773,1.81625295884362
1.72219818260493,-3.90688266644672,-0.100948084380972,3.80593458206575,2.00391537541385,-3.85640862425624,1.85249324884239
1.72436174816097,-3.98452775161874,-0.10380376319039,3.88072398842835,2.04416575740456,-3.93262587002354,1.88846011261898
1.72652531371701,-4.06158645551515,-0.106639983654238,3.95494647186091,2.08411321958469,-4.00826646368803,1.92415324410334
1.72868887927304,-4.1380581425202,-0.10945671929339,4.02860142322681,2.12375743090679,-4.0833297828735,1.95957235196671
1.73085244482908,-4.21394220860121,-0.112253944745512,4.1016882638557,2.16309807667336,-4.15781523622846,1.9947171595551
1.73301601038511,-4.28923808116481,-0.115031635759943,4.17420644540486,2.20213485846238,-4.23172226328484,2.02958740482246
1.73517957594115,-4.36394521891247,-0.11778976919256,4.2461554497199,2.24086749405251,-4.30505033431619,2.06418284026367
1.73734314149719,-4.43806311169561,-0.120528323000608,4.317534788695,2.27929571734811,-4.3777989501953,2.0985032328472
1.73950670705322,-4.51159128037001,-0.123247276237512,4.3883440041325,2.31741927830376,-4.44996764225126,2.13254836394749
1.74167027260926,-4.58452927664956,-0.125946609047664,4.45858266760189,2.35523794284861,-4.52155597212573,2.16631802927711
1.7438338381653,-4.6568766829592,-0.128626302661183,4.52825038029802,2.39275149281019,-4.59256353162861,2.19981203881842
1.74599740372133,-4.72863311228724,-0.131286339388653,4.59734677289859,2.42995972583795,-4.66298994259292,2.23303021675497
1.74816096927737,-4.79979820803687,-0.133926702615838,4.66587150542103,2.46686245532635,-4.73283485672895,2.2659724014026
1.75032453483341,-4.87037164387709,-0.136547376798368,4.73382426707873,2.50345951033773,-4.80209795547791,2.29863844514018
1.75248810038944,-4.9403531235931,-0.139148347456414,4.80120477613669,2.53975073552476,-4.87077894986489,2.33102821434014
1.75465166594548,-5.0097423809362,-0.141729601169334,4.86801277976687,2.57573599105277,-4.93887758035154,2.36314158929877
1.75681523150151,-5.07853917947335,-0.144291125570307,4.93424805390304,2.61141515252183,-5.00639361668819,2.39497846416637
1.75897879705755,-5.14674331243626,-0.146832909340943,4.99991040309532,2.6467881108886,-5.07332685776579,2.42653874687719
1.76114236261359,-5.21435460257024,-0.149354942205881,5.06499966036436,2.68185477238806,-5.1396771314673,2.45782235907924
1.76330592816962,-5.28137290198256,-0.151857214927368,5.12951568705519,2.71661505845496,-5.20544429451887,2.48882923606391
1.76546949372566,-5.34779809199029,-0.15433971929981,5.19345837269048,2.75106890564505,-5.27062823234039,2.51955932669534
1.7676330592817,-5.41363008296763,-0.156802448144306,5.25682763482333,2.78521626555597,-5.33522885889548,2.55001259333951
1.76979662483773,-5.47886881419247,-0.159245395303161,5.31962341888931,2.81905710474782,-5.39924611654089,2.58018901179307
1.77196019039377,-5.54351425369236,-0.161668555634369,5.38184569805799,2.85259140466336,-5.46267997587517,2.61008857121181
1.77412375594981,-5.6075663980899,-0.164071925006081,5.44349447308382,2.88581916154799,-5.52553043558686,2.63971127403887
1.77628732150584,-5.67102527244757,-0.166455500291044,5.50456977215652,2.91874038636931,-5.58779752230205,2.66905713593274
1.77845088706188,-5.73389093011208,-0.168819279361034,5.56507165075104,2.95135510473656,-5.64948129043156,2.698126185695
1.78061445261791,-5.79616345255835,-0.17116326108126,5.62500019147709,2.98366335681981,-5.71058182201772,2.72691846519792
1.78277801817395,-5.85784294923315,-0.173487445304759,5.68435550392839,3.01566519726895,-5.77109922658077,2.75543402931182
1.78494158372999,-5.9189295573983,-0.175791832866775,5.74313772453153,3.04736069513254,-5.83103364096491,2.78367294583238
1.78710514928602,-5.97942344197366,-0.178076425579127,5.80134701639453,3.07874993377639,-5.89038522918409,2.8116352954077
1.78926871484206,-6.03932479537962,-0.180341226224559,5.85898356915506,3.10983301080209,-5.94915418226734,2.83932117146525
1.7914322803981,-6.09863383737928,-0.182586238551075,5.9160475988282,3.14061003796518,-6.00734071810374,2.86673068013856
1.79359584595413,-6.15735081492003,-0.184811467266253,5.97253934765377,3.17108114109314,-6.0649450812869,2.89386394019376
1.79575941151017,-6.21547600197478,-0.187016918031546,6.02845908394323,3.20124646000316,-6.121967542959,2.92072108295584
1.79792297706621,-6.27300969938267,-0.189202597456557,6.08380710192611,3.23110614841961,-6.17840840065439,2.94730225223478
1.80008654262224,-6.32995223468949,-0.191368513093302,6.13858372159619,3.26066037389139,-6.23426797814284,2.97360760425144
1.80225010817828,-6.38630396198764,-0.193514673430452,6.19278928855719,3.28990931770905,-6.28954662527241,2.99963730756337
1.80441367373431,-6.4420652617559,-0.195641087887567,6.24642417386834,3.31885317482173,-6.34424471781212,3.02539154299038
1.80657723929035,-6.49723654069888,-0.197747766809311,6.29948877388957,3.3474921537541,-6.39836265729423,3.05087050354013
1.80874080484639,-6.55181823158622,-0.199834721459663,6.35198351012655,3.37582647652294,-6.45190087085639,3.07607439433345
1.81090437040242,-6.60581079309157,-0.201901964016105,6.40390882907547,3.40385637855384,-6.50485981108352,3.10100343252968
1.81306793595846,-6.65921470963134,-0.203949507563807,6.45526520206753,3.43158210859757,-6.55723995584944,3.12565784725186
1.8152315015145,-6.71203049120303,-0.205977366089784,6.50605312511325,3.45900392864641,-6.60904180815814,3.15003787951173
1.81739506707053,-6.76425867322331,-0.207985554477052,6.55627311874626,3.48612211385018,-6.66026589598478,3.1741437821346
1.81955863262657,-6.81589981636568,-0.209974088498767,6.60592572786691,3.51293695243222,-6.71091277211629,3.19797581968407
1.82172219818261,-6.86695450639779,-0.211942984812348,6.65501152158544,3.53944874560507,-6.76098301399162,3.22153426838655
1.82388576373864,-6.91742335401844,-0.213892260953603,6.70353109306483,3.56565780748602,-6.81047722354163,3.24481941605561
1.82604932929468,-6.96730699469422,-0.215821935330828,6.75148505936339,3.59156446501253,-6.85939602702881,3.26783156201628
1.82821289485071,-7.01660608849599,-0.217732027218913,6.79887406127708,3.61716905785745,-6.90774007488654,3.29057101702908
1.83037646040675,-7.06532131993496,-0.219622556753417,6.84569876318155,3.64247193834419,-6.95551004155825,3.31303810321406
1.83254002596279,-7.11345339779863,-0.221493544924654,6.89195985287398,3.66747347136164,-7.00270662533631,3.33523315397466
1.83470359151882,-7.16100305498647,-0.223345013571748,6.93765804141473,3.69217403427911,-7.0493305482006,3.35715651392149
1.83686715707486,-7.2079710483454,-0.225176985376691,6.98279406296871,3.71657401686104,-7.09538255565705,3.37880853879601
1.8390307226309,-7.254358158505,-0.22698948385838,7.02736867464662,3.74067382118169,-7.14086341657581,3.40018959539412
1.84119428818693,-7.3001651897126,-0.228782533366656,7.07138265634594,3.76447386153963,-7.18577392302927,3.42130006148964
1.84335785374297,-7.34539296966805,-0.230556159076329,7.11483681059172,3.78797456437219,-7.23011489012989,3.4421403257577
1.845521419299,-7.39004234935836,-0.232310386981201,7.15773196237716,3.81117636816978,-7.27388715586776,3.46271078769798
1.84768498485504,-7.4341142028921,-0.234045243888082,7.20006895900402,3.83407972339009,-7.31709158094806,3.48301185755797
1.84984855041108,-7.47760942733364,-0.235760757410802,7.24184866992284,3.85668509237222,-7.35972904862824,3.50304395625602
1.85201211596711,-7.52052894253714,-0.237456955964204,7.28307198657294,3.87899294925067,-7.40180046455504,3.52280751530437
1.85417568152315,-7.56287369098048,-0.239133868758141,7.32373982222234,3.90100377986931,-7.44330675660141,3.5423029767321
1.85633924707919,-7.604644637599,-0.24079152579146,7.36385311180754,3.92271808169523,-7.48424887470327,3.56153079300804
1.85850281263522,-7.64584276961927,-0.242429957845969,7.4034128117733,3.94413636373262,-7.52462779069628,3.58049142696366
1.86066637819126,-7.68646909639266,-0.244049196480407,7.44241989991226,3.96525914643653,-7.56444449815246,3.59918535171592
1.8628299437473,-7.72652464922902,-0.245649274024397,7.48087537520463,3.98608696162671,-7.60370001221683,3.61761305059012
1.86499350930333,-7.76601048123021,-0.247230223572393,7.51878025765781,4.0066203524013,-7.64239536944401,3.63577501704271
1.86715707485937,-7.80492766712357,-0.248792078977637,7.55613558814593,4.0268598730506,-7.68053162763475,3.65367175458415
1.8693206404154,-7.84327730309529,-0.250334874846091,7.5929424282492,4.04680608897069,-7.71810986567224,3.67130377670155
1.87148420597144,-7.88106050662348,-0.251858646530386,7.6292018600931,4.06645957657693,-7.75513118335829,3.68867160678136
1.87364777152748,-7.91827841631115,-0.253363430123753,7.66491498618739,4.08582092321745,-7.79159670124927,3.70577577803182
1.87581133708351,-7.95493219171893,-0.254849262453958,7.70008292926497,4.10489072708644,-7.82750756049195,3.7226168334055
1.87797490263955,-7.99102301319772,-0.256316181077232,7.73470683212048,4.12366959713747,-7.8628649226591,3.73919532552163
1.88013846819559,-8.02655208172124,-0.257764224272201,7.76878785744904,4.14215815299672,-7.89766996958514,3.75551181658842
1.88230203375162,-8.06152061871866,-0.259193431033811,7.80232718768485,4.16035702487624,-7.93192390320176,3.77156687832552
1.88446559930766,-8.09592986590729,-0.260603841067252,7.83532602484004,4.17826685348727,-7.96562794537366,3.78736109188639
1.8866291648637,-8.12978108512536,-0.261995494781877,7.86778559034348,4.19588828995362,-7.99878333773442,3.8028950477808
1.88879273041973,-8.16307555816491,-0.263368433285118,7.89970712487979,4.21322199572501,-8.03139134152235,3.81816934579734
1.89095629597577,-8.19581458660455,-0.264722698376384,7.93109188822817,4.23026864249047,-8.06345323741636,3.83318459492589
1.8931198615318,-8.22799949164217,-0.266058332540968,7.9619411591012,4.24702891209157,-8.09497032537169,3.84794141328012
1.89528342708784,-8.25963161392743,-0.267375378943941,7.99225623498349,4.26350349643569,-8.12594392445546,3.86244042801977
1.89744699264388,-8.29071231339418,-0.268673881424052,8.02203843197013,4.27969309740912,-8.15637537268215,3.87668227527304
1.89961055819991,-8.32124296909276,-0.269953884487625,8.05128908460514,4.29559842679019,-8.18626602684895,3.89066760005876
1.90177412375595,-8.35122497902224,-0.271215433302472,8.08000954571977,4.31122020616236,-8.21561726237101,3.90439705620865
1.90393768931199,-8.38065975996271,-0.272458573691792,8.10820118627091,4.32655916682725,-8.24443047311681,3.91787130628956
1.90610125486802,-8.40954874730757,-0.273683352128084,8.13586539517949,4.34161604971783,-8.27270707124353,3.9310910215257
1.90826482042406,-8.43789339489611,-0.274889815727052,8.16300357916906,4.35639160531158,-8.30044848703259,3.944056881721
1.9104283859801,-8.46569517484606,-0.27607801224151,8.18961716260456,4.37088659354379,-8.32765616872531,3.95676957518152
1.91259195153613,-8.49295557738648,-0.277247990055282,8.2157075873312,4.38510178372088,-8.35433158235884,3.96922979863796
1.91475551709217,-8.51967611069059,-0.278399798177104,8.24127631251349,4.39903795443385,-8.38047621160204,3.98143825716819
1.9169190826482,-8.54585830070882,-0.279533486234521,8.2663248144743,4.41269589347167,-8.40609155759156,3.99339566411989
1.91908264820424,-8.57150369100178,-0.28064910446779,8.29085458653399,4.42607639773479,-8.43117913876789,4.0051027410331
1.92124621376028,-8.59661384257338,-0.28174670372378,8.31486713884961,4.43918027314858,-8.4557404907115,4.01656021756291
1.92340977931631,-8.62119033370392,-0.282826335449879,8.33836399825404,4.4520083345769,-8.47977716597898,4.02776883140208
1.92557334487235,-8.64523475978313,-0.283888051687898,8.36134670809524,4.46456140573552,-8.50329073393918,4.03872932820367
1.92773691042839,-8.66874873314327,-0.284931905067992,8.38381682807527,4.47684031910563,-8.52628278060927,4.04944246150364
1.92990047598442,-8.6917338828922,-0.285957948802569,8.40577593408963,4.48884591584739,-8.54875490849092,4.05990899264353
1.93206404154046,-8.71419185474672,-0.286966236680211,8.42722561806651,4.50057904571347,-8.57070873640662,4.07012969069315
1.93422760709649,-8.73612431086595,-0.287956823059592,8.44816748780636,4.51204056696277,-8.59214589933615,4.08010533237338
1.93639117265253,-8.75753292968493,-0.288929762863403,8.46860316682153,4.52323134627417,-8.61306804825323,4.08983670197906
1.93855473820857,-8.77841940574851,-0.289885111572274,8.48853429417623,4.53415225866039,-8.63347684996237,4.09932459130198
1.9407183037646,-8.79878544954525,-0.290822925218714,8.50796252432653,4.54480418738198,-8.65337398693589,4.10856979955391
1.94288186932064,-8.81863278734166,-0.291743260381046,8.52688952696061,4.55518802386135,-8.67276115715113,4.11757313328978
1.94504543487668,-8.83796316101654,-0.292646174177353,8.54531698683919,4.56530466759695,-8.69164007392787,4.12633540633092
1.94720900043271,-8.8567783278955,-0.29353172425943,8.56324660363607,4.57515502607747,-8.71001246576579,4.13485743968832
1.94937256598875,-8.87508006058544,-0.294399968806729,8.58068009177871,4.58474001469608,-8.72788007618207,4.14314006148599
1.95153613154479,-8.89287014680916,-0.295250966520324,8.59761918028884,4.59406055666474,-8.745244663549,4.15118410688426
1.95369969710082,-8.91015038924015,-0.296084776616873,8.61406561262328,4.60311758292851,-8.76210800093172,4.1589904180032
1.95586326265686,-8.92692260533752,-0.296901458822593,8.63002114651493,4.61191203208006,-8.77847187592622,4.16655984384617
1.95802682821289,-8.94318862718127,-0.297701073367235,8.64548755381403,4.62044485027425,-8.79433809049765,4.1738932402234
1.96019039376893,-8.95895030130787,-0.298483680978078,8.66046662032979,4.62871699114297,-8.80970846081883,4.18099146967585
1.96235395932497,-8.97420948854607,-0.299249342873909,8.67496014567216,4.63672941570999,-8.82458481710912,4.18785540139913
1.964517524881,-8.98896806385301,-0.299998120759022,8.68896994309399,4.64448309230602,-8.8389690034735,4.19448591116748
1.96668109043704,-9.00322791615038,-0.300730076817213,8.70249783933317,4.6519789964838,-8.85286287774177,4.20088388125798
1.96884465599308,-9.01699094816082,-0.301445273705786,8.71554567445503,4.6592181109333,-8.86626831130793,4.20705020037462
1.97100822154911,-9.03025907624433,-0.302143774549566,8.72811530169476,4.66620142539695,-8.87918718896954,4.2129857635726
1.97317178710515,-9.04303423023497,-0.302825642934926,8.74020858730004,4.67292993658495,-8.8916214087675,4.21869147218256
1.97533535266119,-9.05531835327788,-0.303490942903807,8.75182741037407,4.67940464809084,-8.90357288182597,4.22416823373513
1.97749891821722,-9.06711340166658,-0.304139738947767,8.76297366271882,4.68562657030717,-8.9150435321927,4.22941696188552
1.97966248377326,-9.07842134468061,-0.304772096002019,8.77364924867859,4.69159672034131,-8.9260352966796,4.23443857633828
1.98182604932929,-9.08924416442333,-0.305388079439491,8.78385608498384,4.69731612193141,-8.93655012470358,4.23923400277217
1.98398961488533,-9.09958385566015,-0.305987755064893,8.79359610059525,4.70278580536252,-8.9465899781277,4.24380417276518
1.98615318044137,-9.10944242565687,-0.306571189108788,8.80287123654808,4.70800680738283,-8.95615683110248,4.24815002371965
1.9883167459974,-9.11882189401846,-0.307138448221679,8.81168344579678,4.71298017112007,-8.96525266990762,4.25227249878755
1.99048031155344,-9.12772429252793,-0.307689599468096,8.82003469305983,4.71770694599801,-8.97387949279388,4.25617254679587
1.99264387710948,-9.13615166498562,-0.308224710320698,8.82792695466492,4.72218818765316,-8.98203930982527,4.25985112217211
1.99480744266551,-9.14410606704875,-0.308743848654384,8.83536221839437,4.72642495785157,-8.98973414272156,4.26330918486999
1.99697100822155,-9.15158956607137,-0.309247082740407,8.84234248333096,4.73041832440589,-8.99696602470117,4.26654770029528
1.99913457377759,-9.15860424094473,-0.309734481240508,8.84886975970422,4.73416936109262,-9.00373700032448,4.26956763923186
2.00129813933362,-9.1651521819379,-0.310206113201058,8.85494606873685,4.73767914756948,-9.01004912533737,4.27236997776789
2.00346170488966,-9.17123549053865,-0.310662048047208,8.86057344249144,4.74094876929293,-9.01590446651504,4.27495569722212
2.00562527044569,-9.17685627929449,-0.311102355577057,8.86575392371743,4.74397931743577,-9.02130510150596,4.27732578407019
2.00778883600173,-9.18201667165402,-0.311527105955826,8.87048956569819,4.74677188880492,-9.02625311867611,4.27948122987118
2.00995240155777,-9.18671880180845,-0.311936369710045,8.87478243209841,4.74932758575925,-9.03075061695343,4.28142303119418
2.0121159671138,-9.19096481453344,-0.312330217721749,8.87863459681169,4.7516475161276,-9.03479970567257,4.28315218954497
2.01427953266984,-9.19475686503128,-0.312708721222695,8.88204814380859,4.75373279312699,-9.03840250441993,4.28466971129294
2.01644309822588,-9.19809711877346,-0.313071951788587,8.88502516698487,4.75558453528102,-9.04156114287916,4.28597660759814
2.01860666378191,-9.20098775134365,-0.313419981333311,8.88756777001034,4.75720386633848,-9.04427776067699,4.28707389433851
2.02077022933795,-9.20343094828112,-0.313752882103191,8.88967806617793,4.75859191519215,-9.04655450722952,4.28796259203737
2.02293379489399,-9.20542890492449,-0.314070726671253,8.89135817825324,4.75974981579787,-9.04839354158887,4.28864372579099
2.02509736045002,-9.20698382625589,-0.314373587931509,8.89261023832438,4.7606787070937,-9.04979703229014,4.28911832519644
2.02726092600606,-9.20809792674539,-0.31466153909325,8.89343638765214,4.76137973291932,-9.05076715719876,4.28938742427944
2.02942449156209,-9.20877343019581,-0.314934653675353,8.89383877652045,4.76185404193558,-9.05130610335813,4.28945206142255
2.03158805711813,-9.20901256958798,-0.315193005500605,8.89381956408738,4.76210278754429,-9.05141606683768,4.28931327929339
2.03375162267417,-9.20881758692643,-0.315436668690028,8.89338091823641,4.76212712780823,-9.05109925258142,4.28897212477319
2.0359151882302,-9.20819073308559,-0.315665717657228,8.89252501542836,4.76192822537141,-9.05035787425697,4.28842964888556
2.03807875378624,-9.20713426765646,-0.315880227102741,8.89125404055372,4.7615072473796,-9.04919415410509,4.28768690672549
2.04024231934228,-9.20565045879381,-0.316080272008404,8.8895701867854,4.7608653654011,-9.0476103227896,4.2867449573885
2.04240588489831,-9.20374158306365,-0.316265927631737,8.88747565543192,4.76000375534769,-9.04560861924779,4.28560486390009
2.04456945045435,-9.20140992529122,-0.316437269500344,8.88497265579088,4.75892359739578,-9.04319129054105,4.28426769314527
2.04673301601039,-9.19865777840917,-0.316594373406334,8.88206340500283,4.75762607590775,-9.040360591706,4.28273451579825
2.04889658156642,-9.19548744330614,-0.316737315400757,8.87875012790538,4.75611237935345,-9.03711878560576,4.28100640625231
2.05106014712246,-9.19190122867564,-0.316866171788065,8.87503505688758,4.75438370023185,-9.03346814278161,4.27908444254976
2.05322371267849,-9.18790145086529,-0.316981019120578,8.87092043174471,4.75244123499293,-9.029410941305,4.27696970631207
2.05538727823453,-9.18349043372661,-0.317081934192978,8.86640849953363,4.75028618395979,-9.02494946663012,4.27466328267033
2.05755084379057,-9.17867050846538,-0.317168994036802,8.86150151442857,4.74791975125109,-9.02008601144698,4.27216626019589
2.0597144093466,-9.17344401349246,-0.317242275914958,8.85620173757751,4.74534314470371,-9.01482287553499,4.26947973083127
2.06187797490264,-9.16781329427516,-0.317301857316248,8.85051143695891,4.74255757579571,-9.00916236561704,4.26660478982133
2.06404154045868,-9.16178070318901,-0.317347815949902,8.84443288723911,4.73956425956946,-9.00310679521406,4.2635425356446
2.06620510601471,-9.15534859937011,-0.317380229740137,8.83796836962998,4.73636441455513,-8.99665848450005,4.26029406994492
2.06836867157075,-9.14851934856793,-0.317399176820728,8.83112017174721,4.73295926269433,-8.98981976015757,4.25686049746324
2.07053223712678,-9.1412953229985,-0.317404735529606,8.82389058746889,4.72935002926405,-8.98259295523369,4.25324292596964
2.07269580268282,-9.13367890119791,-0.317396984403467,8.81628191679444,4.72553794280069,-8.97498040899617,4.24944246619549
2.07485936823886,-9.12567246787621,-0.317376002172408,8.80829646570381,4.72152423502431,-8.96698446679001,4.2454602317657
2.07702293379489,-9.11727841377162,-0.317341867754579,8.79993654601704,4.7173101407631,-8.95860747989433,4.24129733913123
2.07918649935093,-9.10849913550514,-0.317294660250852,8.79120447525428,4.71289689787799,-8.94985180537971,4.23695490750172
2.08135006490697,-9.09933703543581,-0.317234458939508,8.7821025764963,4.70828574718766,-8.94071980596605,4.2324340587784
2.083513630463,-9.08979452151664,-0.317161343270934,8.77263317824571,4.70347793239379,-8.93121384988117,4.22773591748739
2.08567719601904,-9.0798740071511,-0.317075392862344,8.76279861428875,4.69847470000672,-8.92133631071993,4.22286161071321
2.08784076157508,-9.06957791105014,-0.316976687492511,8.75260122355763,4.69327729927133,-8.91108956730388,4.21781226803256
2.09000432713111,-9.05890865708974,-0.31686530709652,8.74204334999322,4.68788698209313,-8.90047600354148,4.21258902144835
2.09216789268715,-9.04786867416884,-0.316741331760533,8.73112734240831,4.68230500296469,-8.88949800828857,4.20719300532389
2.09433145824318,-9.03646039606777,-0.316604841716578,8.71985555435119,4.67653261889218,-8.87815797520948,4.20162535631731
2.09649502379922,-9.0246862613071,-0.316455917337368,8.70823034396973,4.67057108932223,-8.86645830263841,4.19588721331618
2.09865858935526,-9.01254871300696,-0.316294639131127,8.69625407387583,4.66442167606904,-8.8544013934414,4.18997971737235
2.10082215491129,-9.00005019874703,-0.316121087736451,8.68392911101058,4.65808564324174,-8.84198965487881,4.18390401163706
2.10298572046733,-8.98719317042705,-0.315935343917174,8.67125782650987,4.65156425717211,-8.82922549846846,4.17766124129635
2.10514928602337,-8.97398008412802,-0.315737488557261,8.65824259557076,4.64485878634264,-8.81611133984939,4.17125255350675
2.1073128515794,-8.96041339997404,-0.315527602655716,8.64488579731832,4.63797050131488,-8.80264959864618,4.1646790973313
2.10947641713544,-8.94649558199463,-0.315305767321521,8.63118981467311,4.63090067465807,-8.78884269833387,4.15794202367579
2.11163998269148,-8.9322290979878,-0.315072063768588,8.61715703421921,4.62365058087819,-8.7746930661035,4.15104248522531
