t,leadI,leadII,leadIII,aVR,aVL,aVF
0,235,189,-244.379803089899,-661.54159838577,514.05565151031,147.48594687546
0.002154243860405,211,194,-102.639822640242,-615.109535824675,384.534634892519,230.574900932156
0.00430848772081,202,195,-53.7639673127736,-595.559193693688,338.102572331424,257.456621362264
0.00646273158121499,196,191,-43.9887962472799,-571.121266029954,318.552230200437,252.569035829517
0.00861697544161999,189,186,-34.2136251817863,-541.795752833473,296.558095303076,245.237657530397
0.010771219302025,184,183,-24.4384541162927,-522.245410702486,279.451545938462,242.793864764023
0.01292546316243,186,183,-34.2136251817863,-527.132996235232,289.226717003956,237.906279231276
0.015079707022835,185,181,-39.1012107145331,-519.801617936112,289.226717003956,230.574900932156
0.01723395088324,183,181,-29.3260396490395,-514.914032403365,279.451545938462,235.462486464903
0.019388194743645,182,181,-24.4384541162927,-512.470239636992,274.563960405715,237.906279231276
0.02154243860405,179,178,-24.4384541162927,-497.807483038751,267.232582106595,230.574900932156
0.023696682464455,175,175,-19.5508685835459,-480.700933674137,255.013618274728,225.687315399409
0.02585092632486,170,170,-19.5508685835459,-456.263006010403,242.794654442861,213.468351567542
0.028005170185265,166,168,-9.7756975180522,-441.600249412163,228.131897844621,213.468351567542
0.03015941404567,167,166,-24.4384541162927,-439.156456645789,237.907068910114,201.249387735675
0.032313657906075,167,168,-14.663283050799,-444.044042178536,233.019483377367,211.024558801169
0.03446790176648,167,166,-24.4384541162927,-439.156456645789,237.907068910114,201.249387735675
0.036622145626885,167,165,-29.3260396490395,-436.712663879416,240.350861676488,196.361802202928
0.03877638948729,165,163,-29.3260396490395,-426.937492813922,235.463276143741,191.474216670182
0.040930633347695,164,161,-34.2136251817863,-419.606114514802,235.463276143741,184.142838371061
0.0430848772081,159,157,-29.3260396490395,-397.611979617441,220.8005195455,176.811460071941
0.045239121068505,155,154,-24.4384541162927,-380.505430252828,208.581555713633,171.923874539194
0.04739336492891,153,154,-14.6632830507991,-375.617844720081,198.80638464814,176.811460071941
0.049547608789315,155,154,-24.4384541162927,-380.505430252828,208.581555713633,171.923874539194
0.05170185264972,157,152,-43.9887962472799,-380.505430252828,223.244312311874,157.261117940954
0.0538560965101249,156,153,-34.2136251817863,-380.505430252828,215.912934012753,164.592496240074
0.0560103403705299,153,151,-29.3260396490396,-368.28646642096,206.13776294726,162.148703473701
0.0581645842309349,151,151,-19.5508685835459,-363.398880888214,196.362591881766,167.036289006447
0.0603188280913399,149,148,-24.4384541162927,-351.179917056347,193.918799115393,157.261117940954
0.0624730719517449,144,145,-14.6632830507991,-331.629574925359,176.812249750779,154.81732517458
0.0646273158121499,142,143,-14.6632830507991,-321.854403859866,171.924664218032,149.929739641833
0.0667815596725549,142,142,-19.5508685835459,-319.410611093492,174.368456984405,145.042154109087
0.0689358035329599,143,142,-24.4384541162927,-321.854403859866,179.256042517152,142.598361342713
0.0710900473933649,142,143,-14.6632830507991,-321.854403859866,171.924664218032,149.929739641833
0.0732442912537699,144,142,-29.3260396490397,-324.298196626239,184.143628049899,140.15456857634
0.0753985351141749,141,139,-29.3260396490395,-309.635440027998,176.812249750779,132.82319027722
0.0775527789745799,138,138,-19.5508685835459,-299.860268962505,164.593285918912,135.266983043593
0.0797070228349849,134,135,-14.6632830507991,-282.753719597891,152.374322087045,130.379397510846
0.0818612666953899,132,133,-14.6632830507991,-272.978548532397,147.486736554298,125.491811978099
0.0840155105557949,131,132,-14.6632830507991,-268.090962999651,145.042943787925,123.048019211726
0.0861697544161999,135,132,-34.2136251817863,-277.866134065144,164.593285918912,113.272848146232
0.0883239982766049,135,134,-24.4384541162927,-282.753719597891,159.705700386165,123.048019211726
0.0904782421370099,135,133,-29.3260396490395,-280.309926831518,162.149493152538,118.160433678979
0.0926324859974149,132,132,-19.5508685835459,-270.534755766024,149.930529320671,120.604226445353
0.0947867298578199,130,130,-19.5508685835459,-260.75958470053,145.042943787925,115.716640912606
0.0969409737182249,128,127,-24.4384541162927,-248.540620868663,142.599151021551,105.941469847112
0.0990952175786299,125,123,-29.3260396490395,-231.434071504049,137.711565488804,93.7225060152451
0.101249461439035,125,125,-19.5508685835459,-236.321657036796,132.823979956058,103.497677080739
0.10340370529944,126,126,-19.5508685835459,-241.209242569543,135.267772722431,105.941469847112
0.105557949159845,127,126,-24.4384541162927,-243.653035335916,140.155358255178,103.497677080739
0.10771219302025,127,127,-19.5508685835459,-246.09682810229,137.711565488804,108.385262613486
0.109866436880655,127,128,-14.6632830507991,-248.540620868663,135.267772722431,113.272848146232
0.11202068074106,125,126,-14.663283050799,-238.76544980317,130.380187189684,108.385262613486
0.114174924601465,123,123,-19.5508685835459,-226.546485971303,127.936394423311,98.6100915479919
0.11632916846187,119,119,-19.5508685835459,-206.996143840315,118.161223357817,88.8349204824982
0.118483412322275,118,118,-19.5508685835459,-202.108558307568,115.717430591444,86.3911277161248
0.12063765618268,119,120,-14.663283050799,-209.439936606689,115.717430591444,93.7225060152451
0.122791900043085,122,122,-19.5508685835459,-221.658900438556,125.492601656937,96.1662987816185
0.12494614390349,124,123,-24.4384541162927,-228.990278737676,132.823979956058,96.1662987816185
0.127100387763895,124,124,-19.5508685835459,-231.434071504049,130.380187189684,101.053884314365
0.1292546316243,124,123,-24.4384541162927,-228.990278737676,132.823979956058,96.1662987816185
0.131408875484705,120,121,-14.6632830507991,-214.327522139436,118.161223357817,96.1662987816185
0.13356311934511,119,118,-24.4384541162927,-204.552351073942,120.60501612419,83.9473349497514
0.135717363205515,115,117,-9.77569751805223,-192.333387242075,103.498466759577,88.8349204824982
0.13787160706592,117,119,-9.77569751805225,-202.108558307568,108.386052292323,93.722506015245
0.140025850926325,119,119,-19.5508685835459,-206.996143840315,118.161223357817,88.8349204824982
0.14218009478673,121,122,-14.663283050799,-219.215107672182,120.60501612419,98.6100915479919
0.144334338647135,120,120,-19.5508685835459,-211.883729373062,120.60501612419,91.2787132488717
0.14648858250754,121,121,-19.5508685835459,-216.771314905809,123.048808890564,93.7225060152451
0.148642826367945,120,121,-14.6632830507991,-214.327522139436,118.161223357817,96.1662987816185
0.15079707022835,117,118,-14.6632830507991,-199.664765541195,110.829845058697,88.8349204824982
0.152951314088755,115,116,-14.6632830507991,-189.889594475701,105.94225952595,83.9473349497514
0.15510555794916,116,116,-19.5508685835459,-192.333387242075,110.829845058697,81.503542183378
0.157259801809565,117,119,-9.77569751805225,-202.108558307568,108.386052292323,93.722506015245
0.15941404566997,119,120,-14.663283050799,-209.439936606689,115.717430591444,93.7225060152451
0.161568289530375,121,120,-24.4384541162927,-214.327522139436,125.492601656937,88.8349204824982
0.16372253339078,121,121,-19.5508685835459,-216.771314905809,123.048808890564,93.7225060152451
0.165876777251185,119,120,-14.663283050799,-209.439936606689,115.717430591444,93.7225060152451
0.16803102111159,118,118,-19.5508685835459,-202.108558307568,115.717430591444,86.3911277161248
0.170185264971995,115,117,-9.77569751805223,-192.333387242075,103.498466759577,88.8349204824982
0.1723395088324,114,116,-9.77569751805225,-187.445801709328,101.054673993203,86.3911277161248
0.174493752692805,117,118,-14.6632830507991,-199.664765541195,110.829845058697,88.8349204824982
0.17664799655321,120,119,-24.4384541162928,-209.439936606689,123.048808890564,86.3911277161247
0.178802240413615,119,119,-19.5508685835459,-206.996143840315,118.161223357817,88.8349204824982
0.18095648427402,120,122,-9.77569751805223,-216.771314905809,115.717430591444,101.053884314365
0.183110728134425,120,121,-14.6632830507991,-214.327522139436,118.161223357817,96.1662987816185
0.18526497199483,120,119,-24.4384541162928,-209.439936606689,123.048808890564,86.3911277161247
0.187419215855235,113,117,-0.000526452558602841,-187.445801709328,93.7232956940829,93.722506015245
0.18957345971564,113,115,-9.77569751805225,-182.558216176581,98.6108812268297,83.9473349497514
0.191727703576045,114,117,-4.88811198530541,-189.889594475701,98.6108812268297,91.2787132488716
0.19388194743645,119,117,-29.3260396490395,-202.108558307568,123.048808890564,79.0597494170046
0.196036191296855,120,119,-24.4384541162928,-209.439936606689,123.048808890564,86.3911277161247
0.19819043515726,120,121,-14.6632830507991,-214.327522139436,118.161223357817,96.1662987816185
0.200344679017665,121,121,-19.5508685835459,-216.771314905809,123.048808890564,93.7225060152451
0.20249892287807,120,120,-19.5508685835459,-211.883729373062,120.60501612419,91.2787132488717
0.204653166738475,118,118,-19.5508685835459,-202.108558307568,115.717430591444,86.3911277161248
0.20680741059888,115,118,-4.88811198530541,-194.777180008448,101.054673993203,93.722506015245
0.208961654459285,116,119,-4.88811198530541,-199.664765541195,103.498466759577,96.1662987816184
0.21111589831969,120,122,-9.77569751805223,-216.771314905809,115.717430591444,101.053884314365
0.213270142180095,122,122,-19.5508685835459,-221.658900438556,125.492601656937,96.1662987816185
0.2154243860405,122,123,-14.6632830507991,-224.102693204929,123.048808890564,101.053884314365
0.217578629900905,122,122,-19.5508685835459,-221.658900438556,125.492601656937,96.1662987816185
0.21973287376131,122,121,-24.4384541162927,-219.215107672182,127.936394423311,91.2787132488716
0.221887117621715,120,122,-9.77569751805223,-216.771314905809,115.717430591444,101.053884314365
0.22404136148212,117,116,-24.4384541162927,-194.777180008448,115.717430591444,79.0597494170045
0.226195605342525,116,118,-9.77569751805223,-197.220972774822,105.94225952595,91.2787132488716
0.22834984920293,118,120,-9.77569751805214,-206.996143840315,110.829845058697,96.1662987816185
0.230504093063335,120,120,-19.5508685835459,-211.883729373062,120.60501612419,91.2787132488717
0.23265833692374,121,121,-19.5508685835459,-216.771314905809,123.048808890564,93.7225060152451
0.234812580784145,121,122,-14.663283050799,-219.215107672182,120.60501612419,98.6100915479919
0.23696682464455,119,121,-9.77569751805214,-211.883729373062,113.27363782507,98.6100915479919
0.239121068504955,119,120,-14.663283050799,-209.439936606689,115.717430591444,93.7225060152451
0.24127531236536,115,117,-9.77569751805223,-192.333387242075,103.498466759577,88.8349204824982
0.243429556225765,116,116,-19.5508685835459,-192.333387242075,110.829845058697,81.503542183378
0.24558380008617,116,116,-19.5508685835459,-192.333387242075,110.829845058697,81.503542183378
0.247738043946575,120,120,-19.5508685835459,-211.883729373062,120.60501612419,91.2787132488717
0.24989228780698,120,120,-19.5508685835459,-211.883729373062,120.60501612419,91.2787132488717
0.252046531667385,121,121,-19.5508685835459,-216.771314905809,123.048808890564,93.7225060152451
0.25420077552779,122,119,-34.2136251817865,-214.327522139435,132.823979956058,81.5035421833779
0.256355019388195,120,120,-19.5508685835459,-211.883729373062,120.60501612419,91.2787132488717
0.2585092632486,117,117,-19.5508685835459,-197.220972774822,113.27363782507,83.9473349497514
0.260663507109005,115,114,-24.4384541162927,-185.002008942955,110.829845058697,74.1721638842577
0.26281775096941,115,118,-4.88811198530541,-194.777180008448,101.054673993203,93.722506015245
0.264971994829815,118,119,-14.6632830507991,-204.552351073942,113.27363782507,91.2787132488716
0.26712623869022,121,121,-19.5508685835459,-216.771314905809,123.048808890564,93.7225060152451
0.269280482550625,122,121,-24.4384541162927,-219.215107672182,127.936394423311,91.2787132488716
0.27143472641103,121,122,-14.663283050799,-219.215107672182,120.60501612419,98.6100915479919
0.273588970271435,121,122,-14.663283050799,-219.215107672182,120.60501612419,98.6100915479919
0.27574321413184,117,118,-14.6632830507991,-199.664765541195,110.829845058697,88.8349204824982
0.277897457992245,118,117,-24.4384541162927,-199.664765541195,118.161223357817,81.503542183378
0.28005170185265,117,116,-24.4384541162927,-194.777180008448,115.717430591444,79.0597494170045
0.282205945713055,118,116,-29.3260396490395,-197.220972774822,120.60501612419,76.6159566506311
0.28436018957346,119,120,-14.663283050799,-209.439936606689,115.717430591444,93.7225060152451
0.286514433433865,119,122,-4.8881119853053,-214.327522139435,110.829845058697,103.497677080739
0.28866867729427,119,123,-0.000526452558489154,-216.771314905809,108.386052292323,108.385262613486
0.290822921154675,120,121,-14.6632830507991,-214.327522139436,118.161223357817,96.1662987816185
0.29297716501508,117,119,-9.77569751805225,-202.108558307568,108.386052292323,93.722506015245
0.295131408875485,115,114,-24.4384541162927,-185.002008942955,110.829845058697,74.1721638842577
0.29728565273589,113,114,-14.6632830507991,-180.114423410208,101.054673993203,79.0597494170046
0.299439896596295,115,116,-14.6632830507991,-189.889594475701,105.94225952595,83.9473349497514
0.3015941404567,117,118,-14.6632830507991,-199.664765541195,110.829845058697,88.8349204824982
0.303748384317105,117,119,-9.77569751805225,-202.108558307568,108.386052292323,93.722506015245
0.30590262817751,120,118,-29.3260396490396,-206.996143840315,125.492601656937,81.5035421833779
0.308056872037915,121,122,-14.663283050799,-219.215107672182,120.60501612419,98.6100915479919
0.31021111589832,120,119,-24.4384541162928,-209.439936606689,123.048808890564,86.3911277161247
0.312365359758725,116,117,-14.663283050799,-194.777180008448,108.386052292323,86.3911277161248
0.31451960361913,113,115,-9.77569751805225,-182.558216176581,98.6108812268297,83.9473349497514
0.316673847479535,115,116,-14.6632830507991,-189.889594475701,105.94225952595,83.9473349497514
0.31882809133994,118,116,-29.3260396490395,-197.220972774822,120.60501612419,76.6159566506311
0.320982335200345,119,118,-24.4384541162927,-204.552351073942,120.60501612419,83.9473349497514
0.32313657906075,120,118,-29.3260396490396,-206.996143840315,125.492601656937,81.5035421833779
0.325290822921155,121,120,-24.4384541162927,-214.327522139436,125.492601656937,88.8349204824982
0.32744506678156,119,119,-19.5508685835459,-206.996143840315,118.161223357817,88.8349204824982
0.329599310641965,118,116,-29.3260396490395,-197.220972774822,120.60501612419,76.6159566506311
0.33175355450237,114,115,-14.6632830507991,-185.002008942955,103.498466759577,81.503542183378
0.333907798362775,113,116,-4.88811198530544,-185.002008942955,96.1670884604563,88.8349204824982
0.33606204222318,115,117,-9.77569751805223,-192.333387242075,103.498466759577,88.8349204824982
0.338216286083585,118,119,-14.6632830507991,-204.552351073942,113.27363782507,91.2787132488716
0.34037052994399,118,120,-9.77569751805214,-206.996143840315,110.829845058697,96.1662987816185
0.342524773804395,119,120,-14.663283050799,-209.439936606689,115.717430591444,93.7225060152451
0.3446790176648,119,121,-9.77569751805214,-211.883729373062,113.27363782507,98.6100915479919
0.346833261525205,119,117,-29.3260396490395,-202.108558307568,123.048808890564,79.0597494170046
0.34898750538561,114,117,-4.88811198530541,-189.889594475701,98.6108812268297,91.2787132488716
0.351141749246015,114,115,-14.6632830507991,-185.002008942955,103.498466759577,81.503542183378
0.35329599310642,116,117,-14.663283050799,-194.777180008448,108.386052292323,86.3911277161248
0.355450236966825,117,119,-9.77569751805225,-202.108558307568,108.386052292323,93.722506015245
0.35760448082723,119,118,-24.4384541162927,-204.552351073942,120.60501612419,83.9473349497514
0.359758724687635,122,121,-24.4384541162927,-219.215107672182,127.936394423311,91.2787132488716
0.36191296854804,121,122,-14.663283050799,-219.215107672182,120.60501612419,98.6100915479919
0.364067212408445,119,117,-29.3260396490395,-202.108558307568,123.048808890564,79.0597494170046
0.36622145626885,117,118,-14.6632830507991,-199.664765541195,110.829845058697,88.8349204824982
0.368375700129255,114,114,-19.5508685835459,-182.558216176581,105.94225952595,76.6159566506311
0.37052994398966,115,117,-9.77569751805223,-192.333387242075,103.498466759577,88.8349204824982
0.372684187850065,117,117,-19.5508685835459,-197.220972774822,113.27363782507,83.9473349497514
0.37483843171047,118,121,-4.88811198530533,-209.439936606689,108.386052292323,101.053884314365
0.376992675570875,121,121,-19.5508685835459,-216.771314905809,123.048808890564,93.7225060152451
0.37914691943128,120,121,-14.6632830507991,-214.327522139436,118.161223357817,96.1662987816185
0.381301163291685,119,120,-14.663283050799,-209.439936606689,115.717430591444,93.7225060152451
0.38345540715209,117,117,-19.5508685835459,-197.220972774822,113.27363782507,83.9473349497514
0.385609651012495,114,115,-14.6632830507991,-185.002008942955,103.498466759577,81.503542183378
0.3877638948729,114,114,-19.5508685835459,-182.558216176581,105.94225952595,76.6159566506311
0.389918138733305,116,115,-24.4384541162927,-189.889594475701,113.27363782507,76.6159566506311
0.39207238259371,117,118,-14.6632830507991,-199.664765541195,110.829845058697,88.8349204824982
0.394226626454115,119,119,-19.5508685835459,-206.996143840315,118.161223357817,88.8349204824982
0.39638087031452,120,119,-24.4384541162928,-209.439936606689,123.048808890564,86.3911277161247
0.398535114174925,120,119,-24.4384541162928,-209.439936606689,123.048808890564,86.3911277161247
0.40068935803533,116,117,-14.663283050799,-194.777180008448,108.386052292323,86.3911277161248
0.402843601895735,113,115,-9.77569751805225,-182.558216176581,98.6108812268297,83.9473349497514
0.40499784575614,113,114,-14.6632830507991,-180.114423410208,101.054673993203,79.0597494170046
0.407152089616545,116,115,-24.4384541162927,-189.889594475701,113.27363782507,76.6159566506311
0.40930633347695,116,118,-9.77569751805223,-197.220972774822,105.94225952595,91.2787132488716
0.411460577337355,118,119,-14.6632830507991,-204.552351073942,113.27363782507,91.2787132488716
0.41361482119776,119,119,-19.5508685835459,-206.996143840315,118.161223357817,88.8349204824982
0.415769065058165,119,120,-14.663283050799,-209.439936606689,115.717430591444,93.7225060152451
0.41792330891857,117,118,-14.6632830507991,-199.664765541195,110.829845058697,88.8349204824982
0.420077552778975,114,114,-19.5508685835459,-182.558216176581,105.94225952595,76.6159566506311
0.42223179663938,115,111,-39.1012107145332,-177.670630643834,118.161223357817,59.5094072860173
0.424386040499785,113,114,-14.6632830507991,-180.114423410208,101.054673993203,79.0597494170046
0.42654028436019,115,118,-4.88811198530541,-194.777180008448,101.054673993203,93.722506015245
0.428694528220595,120,118,-29.3260396490396,-206.996143840315,125.492601656937,81.5035421833779
0.430848772081,118,118,-19.5508685835459,-202.108558307568,115.717430591444,86.3911277161248
0.433003015941405,118,119,-14.6632830507991,-204.552351073942,113.27363782507,91.2787132488716
0.43515725980181,117,118,-14.6632830507991,-199.664765541195,110.829845058697,88.8349204824982
0.437311503662215,115,118,-4.88811198530541,-194.777180008448,101.054673993203,93.722506015245
0.43946574752262,112,116,-0.000526452558602841,-182.558216176581,91.2795029277095,91.2787132488716
0.441619991383025,115,115,-19.5508685835459,-187.445801709328,108.386052292323,79.0597494170046
0.44377423524343,114,118,-0.000526452558602841,-192.333387242075,96.1670884604563,96.1662987816184
0.445928479103835,118,120,-9.77569751805214,-206.996143840315,110.829845058697,96.1662987816185
0.44808272296424,119,121,-9.77569751805214,-211.883729373062,113.27363782507,98.6100915479919
0.450236966824645,118,122,-0.000526452558489154,-211.883729373062,105.94225952595,105.941469847112
0.45239121068505,120,120,-19.5508685835459,-211.883729373062,120.60501612419,91.2787132488717
0.454545454545455,117,119,-9.77569751805225,-202.108558307568,108.386052292323,93.722506015245
0.45669969840586,114,116,-9.77569751805225,-187.445801709328,101.054673993203,86.3911277161248
0.458853942266265,114,116,-9.77569751805225,-187.445801709328,101.054673993203,86.3911277161248
0.46100818612667,115,117,-9.77569751805223,-192.333387242075,103.498466759577,88.8349204824982
0.463162429987075,117,118,-14.6632830507991,-199.664765541195,110.829845058697,88.8349204824982
0.46531667384748,118,120,-9.77569751805214,-206.996143840315,110.829845058697,96.1662987816185
0.467470917707885,119,121,-9.77569751805214,-211.883729373062,113.27363782507,98.6100915479919
0.46962516156829,119,120,-14.663283050799,-209.439936606689,115.717430591444,93.7225060152451
0.471779405428695,119,120,-14.663283050799,-209.439936606689,115.717430591444,93.7225060152451
0.4739336492891,116,114,-29.3260396490395,-187.445801709328,115.717430591444,71.7283711178843
0.476087893149505,113,115,-9.77569751805225,-182.558216176581,98.6108812268297,83.9473349497514
0.47824213700991,115,115,-19.5508685835459,-187.445801709328,108.386052292323,79.0597494170046
0.480396380870315,116,116,-19.5508685835459,-192.333387242075,110.829845058697,81.503542183378
0.48255062473072,118,119,-14.6632830507991,-204.552351073942,113.27363782507,91.2787132488716
0.484704868591125,117,119,-9.77569751805225,-202.108558307568,108.386052292323,93.722506015245
0.48685911245153,120,120,-19.5508685835459,-211.883729373062,120.60501612419,91.2787132488717
0.489013356311935,118,117,-24.4384541162927,-199.664765541195,118.161223357817,81.503542183378
0.49116760017234,115,116,-14.6632830507991,-189.889594475701,105.94225952595,83.9473349497514
0.493321844032745,115,113,-29.3260396490395,-182.558216176581,113.27363782507,69.2845783515109
0.49547608789315,114,116,-9.77569751805225,-187.445801709328,101.054673993203,86.3911277161248
0.497630331753555,116,118,-9.77569751805223,-197.220972774822,105.94225952595,91.2787132488716
0.49978457561396,118,120,-9.77569751805214,-206.996143840315,110.829845058697,96.1662987816185
0.501938819474364,118,118,-19.5508685835459,-202.108558307568,115.717430591444,86.3911277161248
0.50409306333477,118,119,-14.6632830507991,-204.552351073942,113.27363782507,91.2787132488716
0.506247307195175,120,120,-19.5508685835459,-211.883729373062,120.60501612419,91.2787132488717
0.508401551055579,116,117,-14.663283050799,-194.777180008448,108.386052292323,86.3911277161248
0.510555794915984,114,113,-24.4384541162927,-180.114423410208,108.386052292323,71.7283711178843
0.51271003877639,112,113,-14.663283050799,-175.226837877461,98.6108812268297,76.6159566506312
0.514864282636795,116,115,-24.4384541162927,-189.889594475701,113.27363782507,76.6159566506311
0.517018526497199,118,119,-14.6632830507991,-204.552351073942,113.27363782507,91.2787132488716
0.519172770357604,120,120,-19.5508685835459,-211.883729373062,120.60501612419,91.2787132488717
0.52132701421801,119,121,-9.77569751805214,-211.883729373062,113.27363782507,98.6100915479919
0.523481258078415,119,121,-9.77569751805214,-211.883729373062,113.27363782507,98.6100915479919
0.525635501938819,117,119,-9.77569751805225,-202.108558307568,108.386052292323,93.722506015245
0.527789745799224,116,114,-29.3260396490395,-187.445801709328,115.717430591444,71.7283711178843
0.52994398965963,115,116,-14.6632830507991,-189.889594475701,105.94225952595,83.9473349497514
0.532098233520034,116,116,-19.5508685835459,-192.333387242075,110.829845058697,81.503542183378
0.534252477380439,117,119,-9.77569751805225,-202.108558307568,108.386052292323,93.722506015245
0.536406721240844,119,119,-19.5508685835459,-206.996143840315,118.161223357817,88.8349204824982
0.53856096510125,120,121,-14.6632830507991,-214.327522139436,118.161223357817,96.1662987816185
0.540715208961654,120,121,-14.6632830507991,-214.327522139436,118.161223357817,96.1662987816185
0.542869452822059,120,118,-29.3260396490396,-206.996143840315,125.492601656937,81.5035421833779
0.545023696682464,117,118,-14.6632830507991,-199.664765541195,110.829845058697,88.8349204824982
0.54717794054287,116,116,-19.5508685835459,-192.333387242075,110.829845058697,81.503542183378
0.549332184403274,113,116,-4.88811198530544,-185.002008942955,96.1670884604563,88.8349204824982
0.551486428263679,117,117,-19.5508685835459,-197.220972774822,113.27363782507,83.9473349497514
0.553640672124084,116,122,9.77464461293516,-206.996143840315,96.1670884604563,110.829055379859
0.555794915984489,119,121,-9.77569751805214,-211.883729373062,113.27363782507,98.6100915479919
0.557949159844894,119,121,-9.77569751805214,-211.883729373062,113.27363782507,98.6100915479919
0.560103403705299,120,119,-24.4384541162928,-209.439936606689,123.048808890564,86.3911277161247
0.562257647565704,118,119,-14.6632830507991,-204.552351073942,113.27363782507,91.2787132488716
0.564411891426109,115,115,-19.5508685835459,-187.445801709328,108.386052292323,79.0597494170046
0.566566135286514,113,116,-4.88811198530544,-185.002008942955,96.1670884604563,88.8349204824982
0.568720379146919,115,117,-9.77569751805223,-192.333387242075,103.498466759577,88.8349204824982
0.570874623007324,117,120,-4.88811198530533,-204.552351073942,105.94225952595,98.6100915479919
0.573028866867729,117,119,-9.77569751805225,-202.108558307568,108.386052292323,93.722506015245
0.575183110728134,121,119,-29.3260396490396,-211.883729373062,127.936394423311,83.9473349497513
0.577337354588539,120,122,-9.77569751805223,-216.771314905809,115.717430591444,101.053884314365
0.579491598448944,120,118,-29.3260396490396,-206.996143840315,125.492601656937,81.5035421833779
0.581645842309349,115,117,-9.77569751805223,-192.333387242075,103.498466759577,88.8349204824982
0.583800086169754,114,116,-9.77569751805225,-187.445801709328,101.054673993203,86.3911277161248
0.585954330030159,115,116,-14.6632830507991,-189.889594475701,105.94225952595,83.9473349497514
0.588108573890564,117,118,-14.6632830507991,-199.664765541195,110.829845058697,88.8349204824982
0.590262817750969,120,119,-24.4384541162928,-209.439936606689,123.048808890564,86.3911277161247
0.592417061611374,119,121,-9.77569751805214,-211.883729373062,113.27363782507,98.6100915479919
0.594571305471779,118,120,-9.77569751805214,-206.996143840315,110.829845058697,96.1662987816185
0.596725549332184,119,120,-14.663283050799,-209.439936606689,115.717430591444,93.7225060152451
0.598879793192589,117,117,-19.5508685835459,-197.220972774822,113.27363782507,83.9473349497514
0.601034037052994,114,116,-9.77569751805225,-187.445801709328,101.054673993203,86.3911277161248
0.603188280913399,113,116,-4.88811198530544,-185.002008942955,96.1670884604563,88.8349204824982
0.605342524773804,116,117,-14.663283050799,-194.777180008448,108.386052292323,86.3911277161248
0.607496768634209,119,119,-19.5508685835459,-206.996143840315,118.161223357817,88.8349204824982
0.609651012494614,120,121,-14.6632830507991,-214.327522139436,118.161223357817,96.1662987816185
0.611805256355019,119,120,-14.663283050799,-209.439936606689,115.717430591444,93.7225060152451
0.613959500215424,119,120,-14.663283050799,-209.439936606689,115.717430591444,93.7225060152451
0.616113744075829,118,117,-24.4384541162927,-199.664765541195,118.161223357817,81.503542183378
0.618267987936234,114,114,-19.5508685835459,-182.558216176581,105.94225952595,76.6159566506311
0.620422231796639,114,115,-14.6632830507991,-185.002008942955,103.498466759577,81.503542183378
0.622576475657044,115,118,-4.88811198530541,-194.777180008448,101.054673993203,93.722506015245
0.624730719517449,120,117,-34.2136251817864,-204.552351073942,127.936394423311,76.6159566506311
0.626884963377854,121,120,-24.4384541162927,-214.327522139436,125.492601656937,88.8349204824982
0.629039207238259,121,120,-24.4384541162927,-214.327522139436,125.492601656937,88.8349204824982
0.631193451098664,121,121,-19.5508685835459,-216.771314905809,123.048808890564,93.7225060152451
0.633347694959069,117,121,-0.000526452558517576,-206.996143840315,103.498466759577,103.497677080739
0.635501938819474,117,118,-14.6632830507991,-199.664765541195,110.829845058697,88.8349204824982
0.637656182679879,115,116,-14.6632830507991,-189.889594475701,105.94225952595,83.9473349497514
0.639810426540284,117,117,-19.5508685835459,-197.220972774822,113.27363782507,83.9473349497514
0.641964670400689,117,117,-19.5508685835459,-197.220972774822,113.27363782507,83.9473349497514
0.644118914261094,120,121,-14.6632830507991,-214.327522139436,118.161223357817,96.1662987816185
0.646273158121499,121,121,-19.5508685835459,-216.771314905809,123.048808890564,93.7225060152451
0.648427401981904,121,122,-14.663283050799,-219.215107672182,120.60501612419,98.6100915479919
0.650581645842309,119,120,-14.663283050799,-209.439936606689,115.717430591444,93.7225060152451
0.652735889702714,116,117,-14.663283050799,-194.777180008448,108.386052292323,86.3911277161248
0.654890133563119,114,116,-9.77569751805225,-187.445801709328,101.054673993203,86.3911277161248
0.657044377423524,114,116,-9.77569751805225,-187.445801709328,101.054673993203,86.3911277161248
0.659198621283929,117,119,-9.77569751805225,-202.108558307568,108.386052292323,93.722506015245
0.661352865144334,117,119,-9.77569751805225,-202.108558307568,108.386052292323,93.722506015245
0.663507109004739,122,121,-24.4384541162927,-219.215107672182,127.936394423311,91.2787132488716
0.665661352865144,119,119,-19.5508685835459,-206.996143840315,118.161223357817,88.8349204824982
0.667815596725549,120,121,-14.6632830507991,-214.327522139436,118.161223357817,96.1662987816185
0.669969840585954,116,119,-4.88811198530541,-199.664765541195,103.498466759577,96.1662987816184
0.672124084446359,117,115,-29.3260396490395,-192.333387242075,118.161223357817,74.1721638842577
0.674278328306764,114,116,-9.77569751805225,-187.445801709328,101.054673993203,86.3911277161248
0.676432572167169,116,117,-14.663283050799,-194.777180008448,108.386052292323,86.3911277161248
0.678586816027574,119,119,-19.5508685835459,-206.996143840315,118.161223357817,88.8349204824982
0.680741059887979,119,120,-14.663283050799,-209.439936606689,115.717430591444,93.7225060152451
0.682895303748384,122,122,-19.5508685835459,-221.658900438556,125.492601656937,96.1662987816185
0.685049547608789,119,122,-4.8881119853053,-214.327522139435,110.829845058697,103.497677080739
0.687203791469194,119,119,-19.5508685835459,-206.996143840315,118.161223357817,88.8349204824982
0.689358035329599,117,116,-24.4384541162927,-194.777180008448,115.717430591444,79.0597494170045
0.691512279190004,115,114,-24.4384541162927,-185.002008942955,110.829845058697,74.1721638842577
0.693666523050409,116,115,-24.4384541162927,-189.889594475701,113.27363782507,76.6159566506311
0.695820766910814,118,120,-9.77569751805214,-206.996143840315,110.829845058697,96.1662987816185
0.697975010771219,120,121,-14.6632830507991,-214.327522139436,118.161223357817,96.1662987816185
0.700129254631624,120,121,-14.6632830507991,-214.327522139436,118.161223357817,96.1662987816185
0.702283498492029,121,121,-19.5508685835459,-216.771314905809,123.048808890564,93.7225060152451
0.704437742352434,119,120,-14.663283050799,-209.439936606689,115.717430591444,93.7225060152451
0.706591986212839,118,118,-19.5508685835459,-202.108558307568,115.717430591444,86.3911277161248
0.708746230073244,114,118,-0.000526452558602841,-192.333387242075,96.1670884604563,96.1662987816184
0.710900473933649,113,115,-9.77569751805225,-182.558216176581,98.6108812268297,83.9473349497514
0.713054717794054,119,116,-34.2136251817863,-199.664765541195,125.492601656937,74.1721638842577
0.715208961654459,118,120,-9.77569751805214,-206.996143840315,110.829845058697,96.1662987816185
0.717363205514864,119,121,-9.77569751805214,-211.883729373062,113.27363782507,98.6100915479919
0.719517449375269,119,120,-14.663283050799,-209.439936606689,115.717430591444,93.7225060152451
0.721671693235674,120,120,-19.5508685835459,-211.883729373062,120.60501612419,91.2787132488717
0.723825937096079,117,117,-19.5508685835459,-197.220972774822,113.27363782507,83.9473349497514
0.725980180956484,114,115,-14.6632830507991,-185.002008942955,103.498466759577,81.503542183378
0.728134424816889,114,115,-14.6632830507991,-185.002008942955,103.498466759577,81.503542183378
0.730288668677294,117,117,-19.5508685835459,-197.220972774822,113.27363782507,83.9473349497514
0.732442912537699,119,118,-24.4384541162927,-204.552351073942,120.60501612419,83.9473349497514
0.734597156398104,119,120,-14.663283050799,-209.439936606689,115.717430591444,93.7225060152451
0.736751400258509,122,122,-19.5508685835459,-221.658900438556,125.492601656937,96.1662987816185
0.738905644118914,120,121,-14.6632830507991,-214.327522139436,118.161223357817,96.1662987816185
0.741059887979319,119,119,-19.5508685835459,-206.996143840315,118.161223357817,88.8349204824982
0.743214131839724,115,115,-19.5508685835459,-187.445801709328,108.386052292323,79.0597494170046
0.745368375700129,114,113,-24.4384541162927,-180.114423410208,108.386052292323,71.7283711178843
0.747522619560534,114,116,-9.77569751805225,-187.445801709328,101.054673993203,86.3911277161248
0.749676863420939,117,120,-4.88811198530533,-204.552351073942,105.94225952595,98.6100915479919
0.751831107281344,118,120,-9.77569751805214,-206.996143840315,110.829845058697,96.1662987816185
0.753985351141749,120,120,-19.5508685835459,-211.883729373062,120.60501612419,91.2787132488717
0.756139595002154,120,120,-19.5508685835459,-211.883729373062,120.60501612419,91.2787132488717
0.758293838862559,120,118,-29.3260396490396,-206.996143840315,125.492601656937,81.5035421833779
0.760448082722964,117,117,-19.5508685835459,-197.220972774822,113.27363782507,83.9473349497514
0.762602326583369,114,115,-14.6632830507991,-185.002008942955,103.498466759577,81.503542183378
0.764756570443774,113,115,-9.77569751805225,-182.558216176581,98.6108812268297,83.9473349497514
0.766910814304179,116,118,-9.77569751805223,-197.220972774822,105.94225952595,91.2787132488716
0.769065058164584,117,119,-9.77569751805225,-202.108558307568,108.386052292323,93.722506015245
0.771219302024989,119,120,-14.663283050799,-209.439936606689,115.717430591444,93.7225060152451
0.773373545885394,121,119,-29.3260396490396,-211.883729373062,127.936394423311,83.9473349497513
0.775527789745799,120,120,-19.5508685835459,-211.883729373062,120.60501612419,91.2787132488717
0.777682033606204,118,116,-29.3260396490395,-197.220972774822,120.60501612419,76.6159566506311
0.779836277466609,114,114,-19.5508685835459,-182.558216176581,105.94225952595,76.6159566506311
0.781990521327014,113,115,-9.77569751805225,-182.558216176581,98.6108812268297,83.9473349497514
0.784144765187419,115,117,-9.77569751805223,-192.333387242075,103.498466759577,88.8349204824982
0.786299009047824,118,118,-19.5508685835459,-202.108558307568,115.717430591444,86.3911277161248
0.788453252908229,119,118,-24.4384541162927,-204.552351073942,120.60501612419,83.9473349497514
0.790607496768634,120,120,-19.5508685835459,-211.883729373062,120.60501612419,91.2787132488717
0.792761740629039,120,119,-24.4384541162928,-209.439936606689,123.048808890564,86.3911277161247
0.794915984489444,117,118,-14.6632830507991,-199.664765541195,110.829845058697,88.8349204824982
0.797070228349849,113,117,-0.000526452558602841,-187.445801709328,93.7232956940829,93.722506015245
0.799224472210254,114,115,-14.6632830507991,-185.002008942955,103.498466759577,81.503542183378
0.801378716070659,114,115,-14.6632830507991,-185.002008942955,103.498466759577,81.503542183378
0.803532959931064,116,119,-4.88811198530541,-199.664765541195,103.498466759577,96.1662987816184
0.805687203791469,119,120,-14.663283050799,-209.439936606689,115.717430591444,93.7225060152451
0.807841447651874,119,120,-14.663283050799,-209.439936606689,115.717430591444,93.7225060152451
0.809995691512279,120,121,-14.6632830507991,-214.327522139436,118.161223357817,96.1662987816185
0.812149935372684,118,118,-19.5508685835459,-202.108558307568,115.717430591444,86.3911277161248
0.814304179233089,117,116,-24.4384541162927,-194.777180008448,115.717430591444,79.0597494170045
0.816458423093494,113,114,-14.6632830507991,-180.114423410208,101.054673993203,79.0597494170046
0.818612666953899,113,116,-4.88811198530544,-185.002008942955,96.1670884604563,88.8349204824982
0.820766910814304,116,118,-9.77569751805223,-197.220972774822,105.94225952595,91.2787132488716
0.822921154674709,118,117,-24.4384541162927,-199.664765541195,118.161223357817,81.503542183378
0.825075398535114,117,118,-14.6632830507991,-199.664765541195,110.829845058697,88.8349204824982
0.827229642395519,118,120,-9.77569751805214,-206.996143840315,110.829845058697,96.1662987816185
0.829383886255924,118,118,-19.5508685835459,-202.108558307568,115.717430591444,86.3911277161248
0.831538130116329,116,118,-9.77569751805223,-197.220972774822,105.94225952595,91.2787132488716
0.833692373976734,114,116,-9.77569751805225,-187.445801709328,101.054673993203,86.3911277161248
0.835846617837139,112,114,-9.77569751805223,-177.670630643834,96.1670884604563,81.503542183378
0.838000861697544,115,115,-19.5508685835459,-187.445801709328,108.386052292323,79.0597494170046
0.840155105557949,117,118,-14.6632830507991,-199.664765541195,110.829845058697,88.8349204824982
0.842309349418354,117,119,-9.77569751805225,-202.108558307568,108.386052292323,93.722506015245
0.844463593278759,117,119,-9.77569751805225,-202.108558307568,108.386052292323,93.722506015245
0.846617837139164,118,120,-9.77569751805214,-206.996143840315,110.829845058697,96.1662987816185
0.848772080999569,117,119,-9.77569751805225,-202.108558307568,108.386052292323,93.722506015245
0.850926324859974,116,116,-19.5508685835459,-192.333387242075,110.829845058697,81.503542183378
0.853080568720379,111,113,-9.77569751805223,-172.783045111087,93.7232956940829,79.0597494170046
0.855234812580784,113,115,-9.77569751805225,-182.558216176581,98.6108812268297,83.9473349497514
0.857389056441189,117,117,-19.5508685835459,-197.220972774822,113.27363782507,83.9473349497514
0.859543300301594,119,117,-29.3260396490395,-202.108558307568,123.048808890564,79.0597494170046
0.861697544161999,119,121,-9.77569751805214,-211.883729373062,113.27363782507,98.6100915479919
0.863851788022404,119,120,-14.663283050799,-209.439936606689,115.717430591444,93.7225060152451
0.866006031882809,117,119,-9.77569751805225,-202.108558307568,108.386052292323,93.722506015245
0.868160275743214,117,116,-24.4384541162927,-194.777180008448,115.717430591444,79.0597494170045
0.870314519603619,113,113,-19.5508685835459,-177.670630643834,103.498466759577,74.1721638842577
0.872468763464024,113,114,-14.6632830507991,-180.114423410208,101.054673993203,79.0597494170046
0.874623007324429,117,118,-14.6632830507991,-199.664765541195,110.829845058697,88.8349204824982
0.876777251184834,119,120,-14.663283050799,-209.439936606689,115.717430591444,93.7225060152451
0.878931495045239,120,120,-19.5508685835459,-211.883729373062,120.60501612419,91.2787132488717
0.881085738905644,120,120,-19.5508685835459,-211.883729373062,120.60501612419,91.2787132488717
0.883239982766049,120,122,-9.77569751805223,-216.771314905809,115.717430591444,101.053884314365
0.885394226626454,119,118,-24.4384541162927,-204.552351073942,120.60501612419,83.9473349497514
0.887548470486859,115,117,-9.77569751805223,-192.333387242075,103.498466759577,88.8349204824982
0.889702714347264,113,115,-9.77569751805225,-182.558216176581,98.6108812268297,83.9473349497514
0.891856958207669,118,117,-24.4384541162927,-199.664765541195,118.161223357817,81.503542183378
0.894011202068074,118,118,-19.5508685835459,-202.108558307568,115.717430591444,86.3911277161248
0.896165445928479,120,120,-19.5508685835459,-211.883729373062,120.60501612419,91.2787132488717
0.898319689788884,121,119,-29.3260396490396,-211.883729373062,127.936394423311,83.9473349497513
0.900473933649289,120,119,-24.4384541162928,-209.439936606689,123.048808890564,86.3911277161247
0.902628177509694,118,118,-19.5508685835459,-202.108558307568,115.717430591444,86.3911277161248
0.904782421370099,115,117,-9.77569751805223,-192.333387242075,103.498466759577,88.8349204824982
0.906936665230504,113,116,-4.88811198530544,-185.002008942955,96.1670884604563,88.8349204824982
0.909090909090909,114,114,-19.5508685835459,-182.558216176581,105.94225952595,76.6159566506311
0.911245152951314,115,116,-14.6632830507991,-189.889594475701,105.94225952595,83.9473349497514
0.913399396811719,117,119,-9.77569751805225,-202.108558307568,108.386052292323,93.722506015245
0.915553640672124,117,121,-0.000526452558517576,-206.996143840315,103.498466759577,103.497677080739
0.917707884532529,117,121,-0.000526452558517576,-206.996143840315,103.498466759577,103.497677080739
0.919862128392934,118,119,-14.6632830507991,-204.552351073942,113.27363782507,91.2787132488716
0.922016372253339,116,117,-14.663283050799,-194.777180008448,108.386052292323,86.3911277161248
0.924170616113744,114,114,-19.5508685835459,-182.558216176581,105.94225952595,76.6159566506311
0.926324859974149,114,115,-14.6632830507991,-185.002008942955,103.498466759577,81.503542183378
0.928479103834554,118,119,-14.6632830507991,-204.552351073942,113.27363782507,91.2787132488716
0.930633347694959,119,118,-24.4384541162927,-204.552351073942,120.60501612419,83.9473349497514
0.932787591555364,120,119,-24.4384541162928,-209.439936606689,123.048808890564,86.3911277161247
0.934941835415769,119,119,-19.5508685835459,-206.996143840315,118.161223357817,88.8349204824982
0.937096079276174,120,118,-29.3260396490396,-206.996143840315,125.492601656937,81.5035421833779
0.939250323136579,116,117,-14.663283050799,-194.777180008448,108.386052292323,86.3911277161248
0.941404566996984,114,115,-14.6632830507991,-185.002008942955,103.498466759577,81.503542183378
0.943558810857389,113,115,-9.77569751805225,-182.558216176581,98.6108812268297,83.9473349497514
0.945713054717794,116,116,-19.5508685835459,-192.333387242075,110.829845058697,81.503542183378
0.947867298578199,118,117,-24.4384541162927,-199.664765541195,118.161223357817,81.503542183378
0.950021542438604,119,118,-24.4384541162927,-204.552351073942,120.60501612419,83.9473349497514
0.952175786299009,120,119,-24.4384541162928,-209.439936606689,123.048808890564,86.3911277161247
0.954330030159414,120,119,-24.4384541162928,-209.439936606689,123.048808890564,86.3911277161247
0.956484274019819,117,119,-9.77569751805225,-202.108558307568,108.386052292323,93.722506015245
0.958638517880224,114,116,-9.77569751805225,-187.445801709328,101.054673993203,86.3911277161248
0.960792761740629,114,115,-14.6632830507991,-185.002008942955,103.498466759577,81.503542183378
0.962947005601034,115,117,-9.77569751805223,-192.333387242075,103.498466759577,88.8349204824982
0.965101249461439,116,117,-14.663283050799,-194.777180008448,108.386052292323,86.3911277161248
0.967255493321844,118,119,-14.6632830507991,-204.552351073942,113.27363782507,91.2787132488716
0.969409737182249,118,119,-14.6632830507991,-204.552351073942,113.27363782507,91.2787132488716
0.971563981042654,120,120,-19.5508685835459,-211.883729373062,120.60501612419,91.2787132488717
0.973718224903059,117,119,-9.77569751805225,-202.108558307568,108.386052292323,93.722506015245
0.975872468763464,115,115,-19.5508685835459,-187.445801709328,108.386052292323,79.0597494170046
0.978026712623869,113,114,-14.6632830507991,-180.114423410208,101.054673993203,79.0597494170046
0.980180956484274,113,115,-9.77569751805225,-182.558216176581,98.6108812268297,83.9473349497514
0.982335200344679,116,118,-9.77569751805223,-197.220972774822,105.94225952595,91.2787132488716
0.984489444205084,117,117,-19.5508685835459,-197.220972774822,113.27363782507,83.9473349497514
0.986643688065489,120,118,-29.3260396490396,-206.996143840315,125.492601656937,81.5035421833779
0.988797931925894,118,119,-14.6632830507991,-204.552351073942,113.27363782507,91.2787132488716
0.990952175786299,119,119,-19.5508685835459,-206.996143840315,118.161223357817,88.8349204824982
0.993106419646704,117,116,-24.4384541162927,-194.777180008448,115.717430591444,79.0597494170045
0.995260663507109,114,115,-14.6632830507991,-185.002008942955,103.498466759577,81.503542183378
0.997414907367514,116,115,-24.4384541162927,-189.889594475701,113.27363782507,76.6159566506311
0.999569151227919,114,117,-4.88811198530541,-189.889594475701,98.6108812268297,91.2787132488716
1.00172339508832,120,119,-24.4384541162928,-209.439936606689,123.048808890564,86.3911277161247
1.00387763894873,120,122,-9.77569751805223,-216.771314905809,115.717430591444,101.053884314365
1.00603188280913,120,121,-14.6632830507991,-214.327522139436,118.161223357817,96.1662987816185
1.00818612666954,121,120,-24.4384541162927,-214.327522139436,125.492601656937,88.8349204824982
1.01034037052994,117,119,-9.77569751805225,-202.108558307568,108.386052292323,93.722506015245
1.01249461439035,114,117,-4.88811198530541,-189.889594475701,98.6108812268297,91.2787132488716
1.01464885825075,113,114,-14.6632830507991,-180.114423410208,101.054673993203,79.0597494170046
1.01680310211116,114,116,-9.77569751805225,-187.445801709328,101.054673993203,86.3911277161248
1.01895734597156,117,118,-14.6632830507991,-199.664765541195,110.829845058697,88.8349204824982
1.02111158983197,117,120,-4.88811198530533,-204.552351073942,105.94225952595,98.6100915479919
1.02326583369237,118,119,-14.6632830507991,-204.552351073942,113.27363782507,91.2787132488716
1.02542007755278,119,120,-14.663283050799,-209.439936606689,115.717430591444,93.7225060152451
1.02757432141318,118,120,-9.77569751805214,-206.996143840315,110.829845058697,96.1662987816185
1.02972856527359,115,117,-9.77569751805223,-192.333387242075,103.498466759577,88.8349204824982
1.03188280913399,114,113,-24.4384541162927,-180.114423410208,108.386052292323,71.7283711178843
1.0340370529944,115,116,-14.6632830507991,-189.889594475701,105.94225952595,83.9473349497514
1.0361912968548,117,118,-14.6632830507991,-199.664765541195,110.829845058697,88.8349204824982
1.03834554071521,117,119,-9.77569751805225,-202.108558307568,108.386052292323,93.722506015245
1.04049978457561,120,122,-9.77569751805223,-216.771314905809,115.717430591444,101.053884314365
1.04265402843602,120,119,-24.4384541162928,-209.439936606689,123.048808890564,86.3911277161247
1.04480827229642,120,120,-19.5508685835459,-211.883729373062,120.60501612419,91.2787132488717
1.04696251615683,117,117,-19.5508685835459,-197.220972774822,113.27363782507,83.9473349497514
1.04911676001723,114,114,-19.5508685835459,-182.558216176581,105.94225952595,76.6159566506311
1.05127100387764,113,115,-9.77569751805225,-182.558216176581,98.6108812268297,83.9473349497514
1.05342524773804,114,118,-0.000526452558602841,-192.333387242075,96.1670884604563,96.1662987816184
1.05557949159845,117,119,-9.77569751805225,-202.108558307568,108.386052292323,93.722506015245
1.05773373545885,120,119,-24.4384541162928,-209.439936606689,123.048808890564,86.3911277161247
1.05988797931926,119,119,-19.5508685835459,-206.996143840315,118.161223357817,88.8349204824982
1.06204222317966,121,119,-29.3260396490396,-211.883729373062,127.936394423311,83.9473349497513
1.06419646704007,119,118,-24.4384541162927,-204.552351073942,120.60501612419,83.9473349497514
1.06635071090047,115,117,-9.77569751805223,-192.333387242075,103.498466759577,88.8349204824982
1.06850495476088,113,116,-4.88811198530544,-185.002008942955,96.1670884604563,88.8349204824982
1.07065919862128,115,117,-9.77569751805223,-192.333387242075,103.498466759577,88.8349204824982
1.07281344248169,118,118,-19.5508685835459,-202.108558307568,115.717430591444,86.3911277161248
1.07496768634209,118,119,-14.6632830507991,-204.552351073942,113.27363782507,91.2787132488716
1.0771219302025,121,122,-14.663283050799,-219.215107672182,120.60501612419,98.6100915479919
1.0792761740629,119,120,-14.663283050799,-209.439936606689,115.717430591444,93.7225060152451
1.08143041792331,117,117,-19.5508685835459,-197.220972774822,113.27363782507,83.9473349497514
1.08358466178371,116,117,-14.663283050799,-194.777180008448,108.386052292323,86.3911277161248
1.08573890564412,113,116,-4.88811198530544,-185.002008942955,96.1670884604563,88.8349204824982
1.08789314950452,112,114,-9.77569751805223,-177.670630643834,96.1670884604563,81.503542183378
1.09004739336493,116,118,-9.77569751805223,-197.220972774822,105.94225952595,91.2787132488716
1.09220163722533,119,120,-14.663283050799,-209.439936606689,115.717430591444,93.7225060152451
1.09435588108574,119,121,-9.77569751805214,-211.883729373062,113.27363782507,98.6100915479919
1.09651012494614,120,120,-19.5508685835459,-211.883729373062,120.60501612419,91.2787132488717
1.09866436880655,119,119,-19.5508685835459,-206.996143840315,118.161223357817,88.8349204824982
1.10081861266695,117,116,-24.4384541162927,-194.777180008448,115.717430591444,79.0597494170045
1.10297285652736,114,115,-14.6632830507991,-185.002008942955,103.498466759577,81.503542183378
1.10512710038776,112,113,-14.663283050799,-175.226837877461,98.6108812268297,76.6159566506312
1.10728134424817,114,117,-4.88811198530541,-189.889594475701,98.6108812268297,91.2787132488716
1.10943558810857,118,117,-24.4384541162927,-199.664765541195,118.161223357817,81.503542183378
1.11158983196898,120,119,-24.4384541162928,-209.439936606689,123.048808890564,86.3911277161247
1.11374407582938,120,120,-19.5508685835459,-211.883729373062,120.60501612419,91.2787132488717
1.11589831968979,120,119,-24.4384541162928,-209.439936606689,123.048808890564,86.3911277161247
1.11805256355019,119,118,-24.4384541162927,-204.552351073942,120.60501612419,83.9473349497514
1.1202068074106,115,116,-14.6632830507991,-189.889594475701,105.94225952595,83.9473349497514
1.122361051271,113,114,-14.6632830507991,-180.114423410208,101.054673993203,79.0597494170046
1.12451529513141,115,116,-14.6632830507991,-189.889594475701,105.94225952595,83.9473349497514
1.12666953899181,117,117,-19.5508685835459,-197.220972774822,113.27363782507,83.9473349497514
1.12882378285222,117,120,-4.88811198530533,-204.552351073942,105.94225952595,98.6100915479919
1.13097802671262,120,119,-24.4384541162928,-209.439936606689,123.048808890564,86.3911277161247
1.13313227057303,118,122,-0.000526452558489154,-211.883729373062,105.94225952595,105.941469847112
1.13528651443343,118,118,-19.5508685835459,-202.108558307568,115.717430591444,86.3911277161248
1.13744075829384,115,115,-19.5508685835459,-187.445801709328,108.386052292323,79.0597494170046
1.13959500215424,113,114,-14.6632830507991,-180.114423410208,101.054673993203,79.0597494170046
1.14174924601465,115,114,-24.4384541162927,-185.002008942955,110.829845058697,74.1721638842577
1.14390348987505,115,117,-9.77569751805223,-192.333387242075,103.498466759577,88.8349204824982
1.14605773373546,117,117,-19.5508685835459,-197.220972774822,113.27363782507,83.9473349497514
1.14821197759586,118,119,-14.6632830507991,-204.552351073942,113.27363782507,91.2787132488716
1.15036622145627,119,119,-19.5508685835459,-206.996143840315,118.161223357817,88.8349204824982
1.15252046531667,118,118,-19.5508685835459,-202.108558307568,115.717430591444,86.3911277161248
1.15467470917708,115,117,-9.77569751805223,-192.333387242075,103.498466759577,88.8349204824982
1.15682895303748,112,115,-4.88811198530541,-180.114423410208,93.7232956940829,86.3911277161248
1.15898319689789,113,114,-14.6632830507991,-180.114423410208,101.054673993203,79.0597494170046
1.16113744075829,115,116,-14.6632830507991,-189.889594475701,105.94225952595,83.9473349497514
1.1632916846187,117,118,-14.6632830507991,-199.664765541195,110.829845058697,88.8349204824982
1.1654459284791,117,120,-4.88811198530533,-204.552351073942,105.94225952595,98.6100915479919
1.16760017233951,118,121,-4.88811198530533,-209.439936606689,108.386052292323,101.053884314365
1.16975441619991,119,120,-14.663283050799,-209.439936606689,115.717430591444,93.7225060152451
1.17190866006032,116,118,-9.77569751805223,-197.220972774822,105.94225952595,91.2787132488716
1.17406290392072,116,115,-24.4384541162927,-189.889594475701,113.27363782507,76.6159566506311
1.17621714778113,114,114,-19.5508685835459,-182.558216176581,105.94225952595,76.6159566506311
1.17837139164153,114,116,-9.77569751805225,-187.445801709328,101.054673993203,86.3911277161248
1.18052563550194,117,118,-14.6632830507991,-199.664765541195,110.829845058697,88.8349204824982
1.18267987936234,120,120,-19.5508685835459,-211.883729373062,120.60501612419,91.2787132488717
1.18483412322275,119,121,-9.77569751805214,-211.883729373062,113.27363782507,98.6100915479919
1.18698836708315,119,119,-19.5508685835459,-206.996143840315,118.161223357817,88.8349204824982
1.18914261094356,118,121,-4.88811198530533,-209.439936606689,108.386052292323,101.053884314365
1.19129685480396,114,116,-9.77569751805225,-187.445801709328,101.054673993203,86.3911277161248
1.19345109866437,114,116,-9.77569751805225,-187.445801709328,101.054673993203,86.3911277161248
1.19560534252477,114,117,-4.88811198530541,-189.889594475701,98.6108812268297,91.2787132488716
1.19775958638518,117,118,-14.6632830507991,-199.664765541195,110.829845058697,88.8349204824982
1.19991383024558,119,119,-19.5508685835459,-206.996143840315,118.161223357817,88.8349204824982
1.20206807410599,120,120,-19.5508685835459,-211.883729373062,120.60501612419,91.2787132488717
1.20422231796639,119,121,-9.77569751805214,-211.883729373062,113.27363782507,98.6100915479919
1.2063765618268,118,119,-14.6632830507991,-204.552351073942,113.27363782507,91.2787132488716
1.2085308056872,117,118,-14.6632830507991,-199.664765541195,110.829845058697,88.8349204824982
1.21068504954761,115,116,-14.6632830507991,-189.889594475701,105.94225952595,83.9473349497514
1.21283929340801,114,115,-14.6632830507991,-185.002008942955,103.498466759577,81.503542183378
1.21499353726842,115,117,-9.77569751805223,-192.333387242075,103.498466759577,88.8349204824982
1.21714778112882,119,118,-24.4384541162927,-204.552351073942,120.60501612419,83.9473349497514
1.21930202498923,120,119,-24.4384541162928,-209.439936606689,123.048808890564,86.3911277161247
1.22145626884963,120,119,-24.4384541162928,-209.439936606689,123.048808890564,86.3911277161247
1.22361051271004,119,121,-9.77569751805214,-211.883729373062,113.27363782507,98.6100915479919
1.22576475657044,118,117,-24.4384541162927,-199.664765541195,118.161223357817,81.503542183378
1.22791900043085,116,115,-24.4384541162927,-189.889594475701,113.27363782507,76.6159566506311
1.23007324429125,113,114,-14.6632830507991,-180.114423410208,101.054673993203,79.0597494170046
1.23222748815166,116,114,-29.3260396490395,-187.445801709328,115.717430591444,71.7283711178843
1.23438173201206,118,119,-14.6632830507991,-204.552351073942,113.27363782507,91.2787132488716
1.23653597587247,119,120,-14.663283050799,-209.439936606689,115.717430591444,93.7225060152451
1.23869021973287,120,120,-19.5508685835459,-211.883729373062,120.60501612419,91.2787132488717
1.24084446359328,119,120,-14.663283050799,-209.439936606689,115.717430591444,93.7225060152451
1.24299870745368,117,119,-9.77569751805225,-202.108558307568,108.386052292323,93.722506015245
1.24515295131409,117,118,-14.6632830507991,-199.664765541195,110.829845058697,88.8349204824982
1.24730719517449,113,115,-9.77569751805225,-182.558216176581,98.6108812268297,83.9473349497514
1.2494614390349,114,116,-9.77569751805225,-187.445801709328,101.054673993203,86.3911277161248
1.2516156828953,116,117,-14.663283050799,-194.777180008448,108.386052292323,86.3911277161248
1.25376992675571,118,121,-4.88811198530533,-209.439936606689,108.386052292323,101.053884314365
1.25592417061611,119,121,-9.77569751805214,-211.883729373062,113.27363782507,98.6100915479919
1.25807841447652,120,121,-14.6632830507991,-214.327522139436,118.161223357817,96.1662987816185
1.26023265833692,119,119,-19.5508685835459,-206.996143840315,118.161223357817,88.8349204824982
1.26238690219733,117,117,-19.5508685835459,-197.220972774822,113.27363782507,83.9473349497514
1.26454114605773,116,114,-29.3260396490395,-187.445801709328,115.717430591444,71.7283711178843
1.26669538991814,113,116,-4.88811198530544,-185.002008942955,96.1670884604563,88.8349204824982
1.26884963377854,117,117,-19.5508685835459,-197.220972774822,113.27363782507,83.9473349497514
1.27100387763895,117,119,-9.77569751805225,-202.108558307568,108.386052292323,93.722506015245
1.27315812149935,119,120,-14.663283050799,-209.439936606689,115.717430591444,93.7225060152451
1.27531236535976,119,119,-19.5508685835459,-206.996143840315,118.161223357817,88.8349204824982
1.27746660922016,120,120,-19.5508685835459,-211.883729373062,120.60501612419,91.2787132488717
1.27962085308057,117,118,-14.6632830507991,-199.664765541195,110.829845058697,88.8349204824982
1.28177509694097,115,115,-19.5508685835459,-187.445801709328,108.386052292323,79.0597494170046
1.28392934080138,113,113,-19.5508685835459,-177.670630643834,103.498466759577,74.1721638842577
1.28608358466178,116,116,-19.5508685835459,-192.333387242075,110.829845058697,81.503542183378
1.28823782852219,115,118,-4.88811198530541,-194.777180008448,101.054673993203,93.722506015245
1.29039207238259,119,119,-19.5508685835459,-206.996143840315,118.161223357817,88.8349204824982
1.292546316243,118,119,-14.6632830507991,-204.552351073942,113.27363782507,91.2787132488716
1.2947005601034,119,120,-14.663283050799,-209.439936606689,115.717430591444,93.7225060152451
1.29685480396381,117,120,-4.88811198530533,-204.552351073942,105.94225952595,98.6100915479919
1.29900904782421,114,116,-9.77569751805225,-187.445801709328,101.054673993203,86.3911277161248
1.30116329168462,113,113,-19.5508685835459,-177.670630643834,103.498466759577,74.1721638842577
1.30331753554502,114,114,-19.5508685835459,-182.558216176581,105.94225952595,76.6159566506311
1.30547177940543,116,117,-14.663283050799,-194.777180008448,108.386052292323,86.3911277161248
1.30762602326583,118,119,-14.6632830507991,-204.552351073942,113.27363782507,91.2787132488716
1.30978026712624,120,119,-24.4384541162928,-209.439936606689,123.048808890564,86.3911277161247
1.31193451098664,120,121,-14.6632830507991,-214.327522139436,118.161223357817,96.1662987816185
1.31408875484705,118,120,-9.77569751805214,-206.996143840315,110.829845058697,96.1662987816185
1.31624299870745,116,114,-29.3260396490395,-187.445801709328,115.717430591444,71.7283711178843
1.31839724256786,116,115,-24.4384541162927,-189.889594475701,113.27363782507,76.6159566506311
1.32055148642826,114,115,-14.6632830507991,-185.002008942955,103.498466759577,81.503542183378
1.32270573028867,116,117,-14.663283050799,-194.777180008448,108.386052292323,86.3911277161248
1.32485997414907,119,119,-19.5508685835459,-206.996143840315,118.161223357817,88.8349204824982
1.32701421800948,119,119,-19.5508685835459,-206.996143840315,118.161223357817,88.8349204824982
1.32916846186988,119,119,-19.5508685835459,-206.996143840315,118.161223357817,88.8349204824982
1.33132270573029,119,119,-19.5508685835459,-206.996143840315,118.161223357817,88.8349204824982
1.33347694959069,117,117,-19.5508685835459,-197.220972774822,113.27363782507,83.9473349497514
1.3356311934511,113,115,-9.77569751805225,-182.558216176581,98.6108812268297,83.9473349497514
1.3377854373115,114,115,-14.6632830507991,-185.002008942955,103.498466759577,81.503542183378
1.33993968117191,116,115,-24.4384541162927,-189.889594475701,113.27363782507,76.6159566506311
1.34209392503231,117,117,-19.5508685835459,-197.220972774822,113.27363782507,83.9473349497514
1.34424816889272,117,118,-14.6632830507991,-199.664765541195,110.829845058697,88.8349204824982
1.34640241275312,119,119,-19.5508685835459,-206.996143840315,118.161223357817,88.8349204824982
1.34855665661353,118,120,-9.77569751805214,-206.996143840315,110.829845058697,96.1662987816185
1.35071090047393,118,120,-9.77569751805214,-206.996143840315,110.829845058697,96.1662987816185
1.35286514433434,115,118,-4.88811198530541,-194.777180008448,101.054673993203,93.722506015245
1.35501938819474,114,115,-14.6632830507991,-185.002008942955,103.498466759577,81.503542183378
1.35717363205515,114,117,-4.88811198530541,-189.889594475701,98.6108812268297,91.2787132488716
1.35932787591555,118,116,-29.3260396490395,-197.220972774822,120.60501612419,76.6159566506311
1.36148211977596,120,119,-24.4384541162928,-209.439936606689,123.048808890564,86.3911277161247
1.36363636363636,118,119,-14.6632830507991,-204.552351073942,113.27363782507,91.2787132488716
1.36579060749677,120,121,-14.6632830507991,-214.327522139436,118.161223357817,96.1662987816185
1.36794485135717,120,120,-19.5508685835459,-211.883729373062,120.60501612419,91.2787132488717
1.37009909521758,116,117,-14.663283050799,-194.777180008448,108.386052292323,86.3911277161248
1.37225333907798,114,114,-19.5508685835459,-182.558216176581,105.94225952595,76.6159566506311
1.37440758293839,115,116,-14.6632830507991,-189.889594475701,105.94225952595,83.9473349497514
1.37656182679879,115,117,-9.77569751805223,-192.333387242075,103.498466759577,88.8349204824982
1.3787160706592,118,119,-14.6632830507991,-204.552351073942,113.27363782507,91.2787132488716
1.3808703145196,119,120,-14.663283050799,-209.439936606689,115.717430591444,93.7225060152451
1.38302455838001,119,121,-9.77569751805214,-211.883729373062,113.27363782507,98.6100915479919
1.38517880224041,120,118,-29.3260396490396,-206.996143840315,125.492601656937,81.5035421833779
1.38733304610082,117,117,-19.5508685835459,-197.220972774822,113.27363782507,83.9473349497514
1.38948728996122,115,114,-24.4384541162927,-185.002008942955,110.829845058697,74.1721638842577
1.39164153382163,113,114,-14.6632830507991,-180.114423410208,101.054673993203,79.0597494170046
1.39379577768203,115,116,-14.6632830507991,-189.889594475701,105.94225952595,83.9473349497514
1.39595002154244,118,118,-19.5508685835459,-202.108558307568,115.717430591444,86.3911277161248
1.39810426540284,117,119,-9.77569751805225,-202.108558307568,108.386052292323,93.722506015245
1.40025850926325,118,121,-4.88811198530533,-209.439936606689,108.386052292323,101.053884314365
1.40241275312365,119,121,-9.77569751805214,-211.883729373062,113.27363782507,98.6100915479919
1.40456699698406,117,118,-14.6632830507991,-199.664765541195,110.829845058697,88.8349204824982
1.40672124084446,114,115,-14.6632830507991,-185.002008942955,103.498466759577,81.503542183378
1.40887548470487,113,113,-19.5508685835459,-177.670630643834,103.498466759577,74.1721638842577
1.41102972856527,114,116,-9.77569751805225,-187.445801709328,101.054673993203,86.3911277161248
1.41318397242568,115,117,-9.77569751805223,-192.333387242075,103.498466759577,88.8349204824982
1.41533821628608,117,117,-19.5508685835459,-197.220972774822,113.27363782507,83.9473349497514
1.41749246014649,120,119,-24.4384541162928,-209.439936606689,123.048808890564,86.3911277161247
1.41964670400689,119,119,-19.5508685835459,-206.996143840315,118.161223357817,88.8349204824982
1.4218009478673,119,121,-9.77569751805214,-211.883729373062,113.27363782507,98.6100915479919
1.4239551917277,117,116,-24.4384541162927,-194.777180008448,115.717430591444,79.0597494170045
1.42610943558811,113,113,-19.5508685835459,-177.670630643834,103.498466759577,74.1721638842577
1.42826367944851,113,116,-4.88811198530544,-185.002008942955,96.1670884604563,88.8349204824982
1.43041792330892,115,117,-9.77569751805223,-192.333387242075,103.498466759577,88.8349204824982
1.43257216716932,118,120,-9.77569751805214,-206.996143840315,110.829845058697,96.1662987816185
1.43472641102973,117,119,-9.77569751805225,-202.108558307568,108.386052292323,93.722506015245
1.43688065489013,119,121,-9.77569751805214,-211.883729373062,113.27363782507,98.6100915479919
1.43903489875054,118,119,-14.6632830507991,-204.552351073942,113.27363782507,91.2787132488716
1.44118914261094,117,118,-14.6632830507991,-199.664765541195,110.829845058697,88.8349204824982
1.44334338647135,114,115,-14.6632830507991,-185.002008942955,103.498466759577,81.503542183378
1.44549763033175,113,113,-19.5508685835459,-177.670630643834,103.498466759577,74.1721638842577
1.44765187419216,115,117,-9.77569751805223,-192.333387242075,103.498466759577,88.8349204824982
1.44980611805256,117,117,-19.5508685835459,-197.220972774822,113.27363782507,83.9473349497514
1.45196036191297,118,119,-14.6632830507991,-204.552351073942,113.27363782507,91.2787132488716
1.45411460577337,118,118,-19.5508685835459,-202.108558307568,115.717430591444,86.3911277161248
1.45626884963378,120,121,-14.6632830507991,-214.327522139436,118.161223357817,96.1662987816185
1.45842309349418,116,118,-9.77569751805223,-197.220972774822,105.94225952595,91.2787132488716
1.46057733735459,115,115,-19.5508685835459,-187.445801709328,108.386052292323,79.0597494170046
1.46273158121499,113,114,-14.6632830507991,-180.114423410208,101.054673993203,79.0597494170046
1.4648858250754,114,116,-9.77569751805225,-187.445801709328,101.054673993203,86.3911277161248
1.4670400689358,116,118,-9.77569751805223,-197.220972774822,105.94225952595,91.2787132488716
1.46919431279621,118,120,-9.77569751805214,-206.996143840315,110.829845058697,96.1662987816185
1.47134855665661,119,120,-14.663283050799,-209.439936606689,115.717430591444,93.7225060152451
1.47350280051702,120,119,-24.4384541162928,-209.439936606689,123.048808890564,86.3911277161247
1.47565704437742,120,120,-19.5508685835459,-211.883729373062,120.60501612419,91.2787132488717
1.47781128823783,116,116,-19.5508685835459,-192.333387242075,110.829845058697,81.503542183378
1.47996553209823,114,114,-19.5508685835459,-182.558216176581,105.94225952595,76.6159566506311
1.48211977595864,113,115,-9.77569751805225,-182.558216176581,98.6108812268297,83.9473349497514
1.48427401981904,115,117,-9.77569751805223,-192.333387242075,103.498466759577,88.8349204824982
1.48642826367945,118,119,-14.6632830507991,-204.552351073942,113.27363782507,91.2787132488716
1.48858250753985,119,121,-9.77569751805214,-211.883729373062,113.27363782507,98.6100915479919
1.49073675140026,119,120,-14.663283050799,-209.439936606689,115.717430591444,93.7225060152451
1.49289099526066,119,121,-9.77569751805214,-211.883729373062,113.27363782507,98.6100915479919
1.49504523912107,117,117,-19.5508685835459,-197.220972774822,113.27363782507,83.9473349497514
1.49719948298147,115,118,-4.88811198530541,-194.777180008448,101.054673993203,93.722506015245
1.49935372684188,113,117,-0.000526452558602841,-187.445801709328,93.7232956940829,93.722506015245
1.50150797070228,116,117,-14.663283050799,-194.777180008448,108.386052292323,86.3911277161248
1.50366221456269,118,118,-19.5508685835459,-202.108558307568,115.717430591444,86.3911277161248
1.50581645842309,119,121,-9.77569751805214,-211.883729373062,113.27363782507,98.6100915479919
1.5079707022835,121,121,-19.5508685835459,-216.771314905809,123.048808890564,93.7225060152451
1.5101249461439,121,119,-29.3260396490396,-211.883729373062,127.936394423311,83.9473349497513
1.51227919000431,117,117,-19.5508685835459,-197.220972774822,113.27363782507,83.9473349497514
1.51443343386471,114,115,-14.6632830507991,-185.002008942955,103.498466759577,81.503542183378
1.51658767772512,115,114,-24.4384541162927,-185.002008942955,110.829845058697,74.1721638842577
1.51874192158552,112,115,-4.88811198530541,-180.114423410208,93.7232956940829,86.3911277161248
1.52089616544593,118,118,-19.5508685835459,-202.108558307568,115.717430591444,86.3911277161248
1.52305040930633,118,119,-14.6632830507991,-204.552351073942,113.27363782507,91.2787132488716
1.52520465316674,118,119,-14.6632830507991,-204.552351073942,113.27363782507,91.2787132488716
1.52735889702714,118,120,-9.77569751805214,-206.996143840315,110.829845058697,96.1662987816185
1.52951314088755,118,119,-14.6632830507991,-204.552351073942,113.27363782507,91.2787132488716
1.53166738474795,116,117,-14.663283050799,-194.777180008448,108.386052292323,86.3911277161248
1.53382162860836,112,115,-4.88811198530541,-180.114423410208,93.7232956940829,86.3911277161248
1.53597587246876,113,114,-14.6632830507991,-180.114423410208,101.054673993203,79.0597494170046
1.53813011632917,116,116,-19.5508685835459,-192.333387242075,110.829845058697,81.503542183378
1.54028436018957,117,118,-14.6632830507991,-199.664765541195,110.829845058697,88.8349204824982
1.54243860404998,118,118,-19.5508685835459,-202.108558307568,115.717430591444,86.3911277161248
1.54459284791038,120,120,-19.5508685835459,-211.883729373062,120.60501612419,91.2787132488717
1.54674709177079,118,119,-14.6632830507991,-204.552351073942,113.27363782507,91.2787132488716
1.54890133563119,116,117,-14.663283050799,-194.777180008448,108.386052292323,86.3911277161248
1.5510555794916,114,115,-14.6632830507991,-185.002008942955,103.498466759577,81.503542183378
1.553209823352,113,113,-19.5508685835459,-177.670630643834,103.498466759577,74.1721638842577
1.55536406721241,114,118,-0.000526452558602841,-192.333387242075,96.1670884604563,96.1662987816184
1.55751831107281,115,118,-4.88811198530541,-194.777180008448,101.054673993203,93.722506015245
1.55967255493322,120,119,-24.4384541162928,-209.439936606689,123.048808890564,86.3911277161247
1.56182679879362,119,118,-24.4384541162927,-204.552351073942,120.60501612419,83.9473349497514
1.56398104265403,119,119,-19.5508685835459,-206.996143840315,118.161223357817,88.8349204824982
1.56613528651443,118,118,-19.5508685835459,-202.108558307568,115.717430591444,86.3911277161248
1.56828953037484,114,115,-14.6632830507991,-185.002008942955,103.498466759577,81.503542183378
1.57044377423524,114,114,-19.5508685835459,-182.558216176581,105.94225952595,76.6159566506311
1.57259801809565,113,115,-9.77569751805225,-182.558216176581,98.6108812268297,83.9473349497514
1.57475226195605,115,117,-9.77569751805223,-192.333387242075,103.498466759577,88.8349204824982
1.57690650581646,117,119,-9.77569751805225,-202.108558307568,108.386052292323,93.722506015245
1.57906074967686,118,121,-4.88811198530533,-209.439936606689,108.386052292323,101.053884314365
1.58121499353727,120,119,-24.4384541162928,-209.439936606689,123.048808890564,86.3911277161247
1.58336923739767,118,118,-19.5508685835459,-202.108558307568,115.717430591444,86.3911277161248
1.58552348125808,117,114,-34.2136251817863,-189.889594475701,120.60501612419,69.2845783515109
1.58767772511848,113,115,-9.77569751805225,-182.558216176581,98.6108812268297,83.9473349497514
1.58983196897889,113,114,-14.6632830507991,-180.114423410208,101.054673993203,79.0597494170046
1.59198621283929,116,117,-14.663283050799,-194.777180008448,108.386052292323,86.3911277161248
1.5941404566997,118,119,-14.6632830507991,-204.552351073942,113.27363782507,91.2787132488716
1.5962947005601,120,119,-24.4384541162928,-209.439936606689,123.048808890564,86.3911277161247
1.59844894442051,120,120,-19.5508685835459,-211.883729373062,120.60501612419,91.2787132488717
1.60060318828091,120,120,-19.5508685835459,-211.883729373062,120.60501612419,91.2787132488717
1.60275743214132,117,117,-19.5508685835459,-197.220972774822,113.27363782507,83.9473349497514
1.60491167600172,114,114,-19.5508685835459,-182.558216176581,105.94225952595,76.6159566506311
1.60706591986213,113,116,-4.88811198530544,-185.002008942955,96.1670884604563,88.8349204824982
1.60922016372253,114,118,-0.000526452558602841,-192.333387242075,96.1670884604563,96.1662987816184
1.61137440758294,117,117,-19.5508685835459,-197.220972774822,113.27363782507,83.9473349497514
1.61352865144334,119,120,-14.663283050799,-209.439936606689,115.717430591444,93.7225060152451
1.61568289530375,118,121,-4.88811198530533,-209.439936606689,108.386052292323,101.053884314365
1.61783713916415,118,121,-4.88811198530533,-209.439936606689,108.386052292323,101.053884314365
1.61999138302456,117,118,-14.6632830507991,-199.664765541195,110.829845058697,88.8349204824982
1.62214562688496,115,116,-14.6632830507991,-189.889594475701,105.94225952595,83.9473349497514
1.62429987074537,115,113,-29.3260396490395,-182.558216176581,113.27363782507,69.2845783515109
1.62645411460577,115,115,-19.5508685835459,-187.445801709328,108.386052292323,79.0597494170046
1.62860835846618,118,117,-24.4384541162927,-199.664765541195,118.161223357817,81.503542183378
1.63076260232658,118,119,-14.6632830507991,-204.552351073942,113.27363782507,91.2787132488716
1.63291684618699,119,120,-14.663283050799,-209.439936606689,115.717430591444,93.7225060152451
1.63507109004739,119,120,-14.663283050799,-209.439936606689,115.717430591444,93.7225060152451
1.6372253339078,119,120,-14.663283050799,-209.439936606689,115.717430591444,93.7225060152451
1.6393795777682,117,117,-19.5508685835459,-197.220972774822,113.27363782507,83.9473349497514
1.64153382162861,115,114,-24.4384541162927,-185.002008942955,110.829845058697,74.1721638842577
1.64368806548901,115,115,-19.5508685835459,-187.445801709328,108.386052292323,79.0597494170046
1.64584230934942,117,118,-14.6632830507991,-199.664765541195,110.829845058697,88.8349204824982
1.64799655320982,117,120,-4.88811198530533,-204.552351073942,105.94225952595,98.6100915479919
1.65015079707023,119,119,-19.5508685835459,-206.996143840315,118.161223357817,88.8349204824982
1.65230504093063,120,121,-14.6632830507991,-214.327522139436,118.161223357817,96.1662987816185
1.65445928479104,118,120,-9.77569751805214,-206.996143840315,110.829845058697,96.1662987816185
1.65661352865144,117,118,-14.6632830507991,-199.664765541195,110.829845058697,88.8349204824982
1.65876777251185,114,114,-19.5508685835459,-182.558216176581,105.94225952595,76.6159566506311
1.66092201637225,112,114,-9.77569751805223,-177.670630643834,96.1670884604563,81.503542183378
1.66307626023266,113,115,-9.77569751805225,-182.558216176581,98.6108812268297,83.9473349497514
1.66523050409306,116,118,-9.77569751805223,-197.220972774822,105.94225952595,91.2787132488716
1.66738474795347,117,119,-9.77569751805225,-202.108558307568,108.386052292323,93.722506015245
1.66953899181387,118,120,-9.77569751805214,-206.996143840315,110.829845058697,96.1662987816185
1.67169323567428,119,120,-14.663283050799,-209.439936606689,115.717430591444,93.7225060152451
1.67384747953468,118,118,-19.5508685835459,-202.108558307568,115.717430591444,86.3911277161248
1.67600172339509,114,115,-14.6632830507991,-185.002008942955,103.498466759577,81.503542183378
1.67815596725549,113,114,-14.6632830507991,-180.114423410208,101.054673993203,79.0597494170046
1.6803102111159,113,115,-9.77569751805225,-182.558216176581,98.6108812268297,83.9473349497514
1.6824644549763,117,118,-14.6632830507991,-199.664765541195,110.829845058697,88.8349204824982
1.68461869883671,118,118,-19.5508685835459,-202.108558307568,115.717430591444,86.3911277161248
1.68677294269711,120,119,-24.4384541162928,-209.439936606689,123.048808890564,86.3911277161247
1.68892718655752,119,118,-24.4384541162927,-204.552351073942,120.60501612419,83.9473349497514
1.69108143041792,117,117,-19.5508685835459,-197.220972774822,113.27363782507,83.9473349497514
1.69323567427833,115,115,-19.5508685835459,-187.445801709328,108.386052292323,79.0597494170046
1.69538991813873,114,114,-19.5508685835459,-182.558216176581,105.94225952595,76.6159566506311
1.69754416199914,114,114,-19.5508685835459,-182.558216176581,105.94225952595,76.6159566506311
1.69969840585954,115,117,-9.77569751805223,-192.333387242075,103.498466759577,88.8349204824982
1.70185264971995,117,120,-4.88811198530533,-204.552351073942,105.94225952595,98.6100915479919
1.70400689358035,120,120,-19.5508685835459,-211.883729373062,120.60501612419,91.2787132488717
1.70616113744076,120,121,-14.6632830507991,-214.327522139436,118.161223357817,96.1662987816185
1.70831538130116,120,119,-24.4384541162928,-209.439936606689,123.048808890564,86.3911277161247
1.71046962516157,118,117,-24.4384541162927,-199.664765541195,118.161223357817,81.503542183378
1.71262386902197,115,114,-24.4384541162927,-185.002008942955,110.829845058697,74.1721638842577
1.71477811288238,112,113,-14.663283050799,-175.226837877461,98.6108812268297,76.6159566506312
1.71693235674278,115,116,-14.6632830507991,-189.889594475701,105.94225952595,83.9473349497514
1.71908660060319,116,118,-9.77569751805223,-197.220972774822,105.94225952595,91.2787132488716
1.72124084446359,119,120,-14.663283050799,-209.439936606689,115.717430591444,93.7225060152451
1.723395088324,121,119,-29.3260396490396,-211.883729373062,127.936394423311,83.9473349497513
1.7255493321844,121,119,-29.3260396490396,-211.883729373062,127.936394423311,83.9473349497513
1.72770357604481,118,118,-19.5508685835459,-202.108558307568,115.717430591444,86.3911277161248
1.72985781990521,115,115,-19.5508685835459,-187.445801709328,108.386052292323,79.0597494170046
1.73201206376562,113,113,-19.5508685835459,-177.670630643834,103.498466759577,74.1721638842577
1.73416630762602,114,116,-9.77569751805225,-187.445801709328,101.054673993203,86.3911277161248
1.73632055148643,117,118,-14.6632830507991,-199.664765541195,110.829845058697,88.8349204824982
1.73847479534683,120,120,-19.5508685835459,-211.883729373062,120.60501612419,91.2787132488717
1.74062903920724,121,119,-29.3260396490396,-211.883729373062,127.936394423311,83.9473349497513
1.74278328306764,120,120,-19.5508685835459,-211.883729373062,120.60501612419,91.2787132488717
1.74493752692805,119,119,-19.5508685835459,-206.996143840315,118.161223357817,88.8349204824982
1.74709177078845,117,116,-24.4384541162927,-194.777180008448,115.717430591444,79.0597494170045
1.74924601464886,115,115,-19.5508685835459,-187.445801709328,108.386052292323,79.0597494170046
1.75140025850926,114,115,-14.6632830507991,-185.002008942955,103.498466759577,81.503542183378
1.75355450236967,116,117,-14.663283050799,-194.777180008448,108.386052292323,86.3911277161248
1.75570874623007,118,119,-14.6632830507991,-204.552351073942,113.27363782507,91.2787132488716
1.75786299009048,119,120,-14.663283050799,-209.439936606689,115.717430591444,93.7225060152451
1.76001723395088,120,119,-24.4384541162928,-209.439936606689,123.048808890564,86.3911277161247
1.76217147781129,118,120,-9.77569751805214,-206.996143840315,110.829845058697,96.1662987816185
1.76432572167169,118,118,-19.5508685835459,-202.108558307568,115.717430591444,86.3911277161248
1.7664799655321,116,116,-19.5508685835459,-192.333387242075,110.829845058697,81.503542183378
1.7686342093925,115,115,-19.5508685835459,-187.445801709328,108.386052292323,79.0597494170046
1.77078845325291,114,117,-4.88811198530541,-189.889594475701,98.6108812268297,91.2787132488716
1.77294269711331,118,119,-14.6632830507991,-204.552351073942,113.27363782507,91.2787132488716
1.77509694097372,119,120,-14.663283050799,-209.439936606689,115.717430591444,93.7225060152451
1.77725118483412,119,120,-14.663283050799,-209.439936606689,115.717430591444,93.7225060152451
1.77940542869453,119,119,-19.5508685835459,-206.996143840315,118.161223357817,88.8349204824982
1.78155967255493,117,117,-19.5508685835459,-197.220972774822,113.27363782507,83.9473349497514
1.78371391641534,116,118,-9.77569751805223,-197.220972774822,105.94225952595,91.2787132488716
1.78586816027574,115,114,-24.4384541162927,-185.002008942955,110.829845058697,74.1721638842577
1.78802240413615,115,115,-19.5508685835459,-187.445801709328,108.386052292323,79.0597494170046
1.79017664799655,116,120,-0.000526452558489154,-202.108558307568,101.054673993203,101.053884314365
1.79233089185696,119,120,-14.663283050799,-209.439936606689,115.717430591444,93.7225060152451
1.79448513571736,120,122,-9.77569751805223,-216.771314905809,115.717430591444,101.053884314365
1.79663937957777,119,119,-19.5508685835459,-206.996143840315,118.161223357817,88.8349204824982
1.79879362343817,118,119,-14.6632830507991,-204.552351073942,113.27363782507,91.2787132488716
1.80094786729858,117,116,-24.4384541162927,-194.777180008448,115.717430591444,79.0597494170045
1.80310211115898,113,116,-4.88811198530544,-185.002008942955,96.1670884604563,88.8349204824982
1.80525635501939,115,116,-14.6632830507991,-189.889594475701,105.94225952595,83.9473349497514
1.80741059887979,117,117,-19.5508685835459,-197.220972774822,113.27363782507,83.9473349497514
1.8095648427402,118,119,-14.6632830507991,-204.552351073942,113.27363782507,91.2787132488716
1.8117190866006,120,121,-14.6632830507991,-214.327522139436,118.161223357817,96.1662987816185
1.81387333046101,120,122,-9.77569751805223,-216.771314905809,115.717430591444,101.053884314365
1.81602757432141,120,120,-19.5508685835459,-211.883729373062,120.60501612419,91.2787132488717
1.81818181818182,118,118,-19.5508685835459,-202.108558307568,115.717430591444,86.3911277161248
1.82033606204222,115,117,-9.77569751805223,-192.333387242075,103.498466759577,88.8349204824982
1.82249030590263,114,116,-9.77569751805225,-187.445801709328,101.054673993203,86.3911277161248
1.82464454976303,116,116,-19.5508685835459,-192.333387242075,110.829845058697,81.503542183378
1.82679879362344,118,119,-14.6632830507991,-204.552351073942,113.27363782507,91.2787132488716
1.82895303748384,118,120,-9.77569751805214,-206.996143840315,110.829845058697,96.1662987816185
1.83110728134425,119,121,-9.77569751805214,-211.883729373062,113.27363782507,98.6100915479919
1.83326152520465,121,120,-24.4384541162927,-214.327522139436,125.492601656937,88.8349204824982
1.83541576906506,118,118,-19.5508685835459,-202.108558307568,115.717430591444,86.3911277161248
1.83757001292546,115,116,-14.6632830507991,-189.889594475701,105.94225952595,83.9473349497514
1.83972425678587,113,115,-9.77569751805225,-182.558216176581,98.6108812268297,83.9473349497514
1.84187850064627,116,115,-24.4384541162927,-189.889594475701,113.27363782507,76.6159566506311
1.84403274450668,117,118,-14.6632830507991,-199.664765541195,110.829845058697,88.8349204824982
1.84618698836708,120,121,-14.6632830507991,-214.327522139436,118.161223357817,96.1662987816185
1.84834123222749,120,121,-14.6632830507991,-214.327522139436,118.161223357817,96.1662987816185
1.85049547608789,121,122,-14.663283050799,-219.215107672182,120.60501612419,98.6100915479919
1.8526497199483,119,118,-24.4384541162927,-204.552351073942,120.60501612419,83.9473349497514
1.8548039638087,115,116,-14.6632830507991,-189.889594475701,105.94225952595,83.9473349497514
1.85695820766911,115,116,-14.6632830507991,-189.889594475701,105.94225952595,83.9473349497514
1.85911245152951,117,117,-19.5508685835459,-197.220972774822,113.27363782507,83.9473349497514
1.86126669538992,118,118,-19.5508685835459,-202.108558307568,115.717430591444,86.3911277161248
1.86342093925032,118,117,-24.4384541162927,-199.664765541195,118.161223357817,81.503542183378
1.86557518311073,121,120,-24.4384541162927,-214.327522139436,125.492601656937,88.8349204824982
1.86772942697113,122,120,-29.3260396490395,-216.771314905809,130.380187189684,86.3911277161248
1.86988367083154,119,119,-19.5508685835459,-206.996143840315,118.161223357817,88.8349204824982
1.87203791469194,118,117,-24.4384541162927,-199.664765541195,118.161223357817,81.503542183378
1.87419215855235,115,115,-19.5508685835459,-187.445801709328,108.386052292323,79.0597494170046
1.87634640241275,113,114,-14.6632830507991,-180.114423410208,101.054673993203,79.0597494170046
1.87850064627316,118,115,-34.2136251817863,-194.777180008448,123.048808890564,71.7283711178843
1.88065489013356,117,117,-19.5508685835459,-197.220972774822,113.27363782507,83.9473349497514
1.88280913399397,119,118,-24.4384541162927,-204.552351073942,120.60501612419,83.9473349497514
1.88496337785437,120,119,-24.4384541162928,-209.439936606689,123.048808890564,86.3911277161247
1.88711762171478,120,120,-19.5508685835459,-211.883729373062,120.60501612419,91.2787132488717
1.88927186557518,118,119,-14.6632830507991,-204.552351073942,113.27363782507,91.2787132488716
1.89142610943559,114,117,-4.88811198530541,-189.889594475701,98.6108812268297,91.2787132488716
1.89358035329599,113,114,-14.6632830507991,-180.114423410208,101.054673993203,79.0597494170046
1.8957345971564,114,115,-14.6632830507991,-185.002008942955,103.498466759577,81.503542183378
1.8978888410168,117,118,-14.6632830507991,-199.664765541195,110.829845058697,88.8349204824982
1.90004308487721,118,120,-9.77569751805214,-206.996143840315,110.829845058697,96.1662987816185
1.90219732873761,119,119,-19.5508685835459,-206.996143840315,118.161223357817,88.8349204824982
1.90435157259802,119,120,-14.663283050799,-209.439936606689,115.717430591444,93.7225060152451
1.90650581645842,118,118,-19.5508685835459,-202.108558307568,115.717430591444,86.3911277161248
1.90866006031883,115,115,-19.5508685835459,-187.445801709328,108.386052292323,79.0597494170046
1.91081430417923,111,115,-0.000526452558602841,-177.670630643834,88.8357101613361,88.8349204824982
1.91296854803964,113,113,-19.5508685835459,-177.670630643834,103.498466759577,74.1721638842577
1.91512279190004,116,116,-19.5508685835459,-192.333387242075,110.829845058697,81.503542183378
1.91727703576045,117,118,-14.6632830507991,-199.664765541195,110.829845058697,88.8349204824982
1.91943127962085,118,118,-19.5508685835459,-202.108558307568,115.717430591444,86.3911277161248
1.92158552348126,119,118,-24.4384541162927,-204.552351073942,120.60501612419,83.9473349497514
1.92373976734166,119,118,-24.4384541162927,-204.552351073942,120.60501612419,83.9473349497514
1.92589401120207,117,117,-19.5508685835459,-197.220972774822,113.27363782507,83.9473349497514
1.92804825506247,116,114,-29.3260396490395,-187.445801709328,115.717430591444,71.7283711178843
1.93020249892288,113,114,-14.6632830507991,-180.114423410208,101.054673993203,79.0597494170046
1.93235674278328,114,116,-9.77569751805225,-187.445801709328,101.054673993203,86.3911277161248
1.93451098664369,117,118,-14.6632830507991,-199.664765541195,110.829845058697,88.8349204824982
1.93666523050409,118,119,-14.6632830507991,-204.552351073942,113.27363782507,91.2787132488716
1.9388194743645,118,120,-9.77569751805214,-206.996143840315,110.829845058697,96.1662987816185
1.9409737182249,119,119,-19.5508685835459,-206.996143840315,118.161223357817,88.8349204824982
1.94312796208531,118,120,-9.77569751805214,-206.996143840315,110.829845058697,96.1662987816185
1.94528220594571,117,115,-29.3260396490395,-192.333387242075,118.161223357817,74.1721638842577
1.94743644980612,114,116,-9.77569751805225,-187.445801709328,101.054673993203,86.3911277161248
1.94959069366652,119,116,-34.2136251817863,-199.664765541195,125.492601656937,74.1721638842577
1.95174493752693,121,119,-29.3260396490396,-211.883729373062,127.936394423311,83.9473349497513
1.95389918138733,123,121,-29.3260396490395,-221.658900438556,132.823979956058,88.8349204824982
1.95605342524774,122,124,-9.77569751805225,-226.546485971303,120.60501612419,105.941469847112
1.95820766910814,121,121,-19.5508685835459,-216.771314905809,123.048808890564,93.7225060152451
1.96036191296855,121,120,-24.4384541162927,-214.327522139436,125.492601656937,88.8349204824982
1.96251615682895,119,119,-19.5508685835459,-206.996143840315,118.161223357817,88.8349204824982
1.96467040068936,116,115,-24.4384541162927,-189.889594475701,113.27363782507,76.6159566506311
1.96682464454976,116,116,-19.5508685835459,-192.333387242075,110.829845058697,81.503542183378
1.96897888841017,119,118,-24.4384541162927,-204.552351073942,120.60501612419,83.9473349497514
1.97113313227057,119,119,-19.5508685835459,-206.996143840315,118.161223357817,88.8349204824982
1.97328737613098,120,119,-24.4384541162928,-209.439936606689,123.048808890564,86.3911277161247
1.97544161999138,121,122,-14.663283050799,-219.215107672182,120.60501612419,98.6100915479919
1.97759586385179,120,122,-9.77569751805223,-216.771314905809,115.717430591444,101.053884314365
1.97975010771219,120,119,-24.4384541162928,-209.439936606689,123.048808890564,86.3911277161247
1.9819043515726,115,117,-9.77569751805223,-192.333387242075,103.498466759577,88.8349204824982
1.984058595433,116,117,-14.663283050799,-194.777180008448,108.386052292323,86.3911277161248
1.98621283929341,120,120,-19.5508685835459,-211.883729373062,120.60501612419,91.2787132488717
1.98836708315381,121,119,-29.3260396490396,-211.883729373062,127.936394423311,83.9473349497513
1.99052132701422,123,121,-29.3260396490395,-221.658900438556,132.823979956058,88.8349204824982
1.99267557087462,122,121,-24.4384541162927,-219.215107672182,127.936394423311,91.2787132488716
1.99482981473503,121,121,-19.5508685835459,-216.771314905809,123.048808890564,93.7225060152451
1.99698405859543,121,120,-24.4384541162927,-214.327522139436,125.492601656937,88.8349204824982
1.99913830245584,117,116,-24.4384541162927,-194.777180008448,115.717430591444,79.0597494170045
2.00129254631624,115,115,-19.5508685835459,-187.445801709328,108.386052292323,79.0597494170046
2.00344679017665,115,117,-9.77569751805223,-192.333387242075,103.498466759577,88.8349204824982
2.00560103403705,118,117,-24.4384541162927,-199.664765541195,118.161223357817,81.503542183378
2.00775527789746,121,120,-24.4384541162927,-214.327522139436,125.492601656937,88.8349204824982
2.00990952175786,119,121,-9.77569751805214,-211.883729373062,113.27363782507,98.6100915479919
2.01206376561827,120,120,-19.5508685835459,-211.883729373062,120.60501612419,91.2787132488717
2.01421800947867,120,122,-9.77569751805223,-216.771314905809,115.717430591444,101.053884314365
2.01637225333908,118,116,-29.3260396490395,-197.220972774822,120.60501612419,76.6159566506311
2.01852649719948,116,117,-14.663283050799,-194.777180008448,108.386052292323,86.3911277161248
2.02068074105989,116,118,-9.77569751805223,-197.220972774822,105.94225952595,91.2787132488716
2.02283498492029,116,119,-4.88811198530541,-199.664765541195,103.498466759577,96.1662987816184
2.0249892287807,120,120,-19.5508685835459,-211.883729373062,120.60501612419,91.2787132488717
2.0271434726411,120,121,-14.6632830507991,-214.327522139436,118.161223357817,96.1662987816185
2.02929771650151,121,122,-14.663283050799,-219.215107672182,120.60501612419,98.6100915479919
2.03145196036191,119,120,-14.663283050799,-209.439936606689,115.717430591444,93.7225060152451
2.03360620422232,119,119,-19.5508685835459,-206.996143840315,118.161223357817,88.8349204824982
2.03576044808272,114,116,-9.77569751805225,-187.445801709328,101.054673993203,86.3911277161248
2.03791469194313,115,116,-14.6632830507991,-189.889594475701,105.94225952595,83.9473349497514
2.04006893580353,118,117,-24.4384541162927,-199.664765541195,118.161223357817,81.503542183378
2.04222317966394,120,118,-29.3260396490396,-206.996143840315,125.492601656937,81.5035421833779
2.04437742352434,119,119,-19.5508685835459,-206.996143840315,118.161223357817,88.8349204824982
2.04653166738475,118,120,-9.77569751805214,-206.996143840315,110.829845058697,96.1662987816185
2.04868591124515,119,120,-14.663283050799,-209.439936606689,115.717430591444,93.7225060152451
2.05084015510556,117,120,-4.88811198530533,-204.552351073942,105.94225952595,98.6100915479919
2.05299439896596,115,117,-9.77569751805223,-192.333387242075,103.498466759577,88.8349204824982
2.05514864282637,114,115,-14.6632830507991,-185.002008942955,103.498466759577,81.503542183378
2.05730288668677,115,116,-14.6632830507991,-189.889594475701,105.94225952595,83.9473349497514
2.05945713054718,117,118,-14.6632830507991,-199.664765541195,110.829845058697,88.8349204824982
2.06161137440758,119,119,-19.5508685835459,-206.996143840315,118.161223357817,88.8349204824982
2.06376561826799,119,121,-9.77569751805214,-211.883729373062,113.27363782507,98.6100915479919
2.06591986212839,120,122,-9.77569751805223,-216.771314905809,115.717430591444,101.053884314365
2.0680741059888,118,119,-14.6632830507991,-204.552351073942,113.27363782507,91.2787132488716
2.0702283498492,116,116,-19.5508685835459,-192.333387242075,110.829845058697,81.503542183378
2.07238259370961,114,114,-19.5508685835459,-182.558216176581,105.94225952595,76.6159566506311
2.07453683757001,115,114,-24.4384541162927,-185.002008942955,110.829845058697,74.1721638842577
2.07669108143042,118,118,-19.5508685835459,-202.108558307568,115.717430591444,86.3911277161248
2.07884532529082,119,117,-29.3260396490395,-202.108558307568,123.048808890564,79.0597494170046
2.08099956915123,119,119,-19.5508685835459,-206.996143840315,118.161223357817,88.8349204824982
2.08315381301163,119,120,-14.663283050799,-209.439936606689,115.717430591444,93.7225060152451
2.08530805687204,119,120,-14.663283050799,-209.439936606689,115.717430591444,93.7225060152451
2.08746230073244,115,117,-9.77569751805223,-192.333387242075,103.498466759577,88.8349204824982
2.08961654459285,113,115,-9.77569751805225,-182.558216176581,98.6108812268297,83.9473349497514
2.09177078845325,112,115,-4.88811198530541,-180.114423410208,93.7232956940829,86.3911277161248
2.09392503231366,116,118,-9.77569751805223,-197.220972774822,105.94225952595,91.2787132488716
2.09607927617406,118,117,-24.4384541162927,-199.664765541195,118.161223357817,81.503542183378
2.09823352003447,119,119,-19.5508685835459,-206.996143840315,118.161223357817,88.8349204824982
2.10038776389487,120,119,-24.4384541162928,-209.439936606689,123.048808890564,86.3911277161247
2.10254200775528,118,120,-9.77569751805214,-206.996143840315,110.829845058697,96.1662987816185
2.10469625161568,117,118,-14.6632830507991,-199.664765541195,110.829845058697,88.8349204824982
2.10685049547609,116,114,-29.3260396490395,-187.445801709328,115.717430591444,71.7283711178843
2.10900473933649,113,115,-9.77569751805225,-182.558216176581,98.6108812268297,83.9473349497514
2.1111589831969,113,116,-4.88811198530544,-185.002008942955,96.1670884604563,88.8349204824982
2.1133132270573,117,117,-19.5508685835459,-197.220972774822,113.27363782507,83.9473349497514
2.11546747091771,120,119,-24.4384541162928,-209.439936606689,123.048808890564,86.3911277161247
2.11762171477811,120,120,-19.5508685835459,-211.883729373062,120.60501612419,91.2787132488717
2.11977595863852,119,120,-14.663283050799,-209.439936606689,115.717430591444,93.7225060152451
2.12193020249892,117,119,-9.77569751805225,-202.108558307568,108.386052292323,93.722506015245
2.12408444635933,116,118,-9.77569751805223,-197.220972774822,105.94225952595,91.2787132488716
2.12623869021973,114,115,-14.6632830507991,-185.002008942955,103.498466759577,81.503542183378
2.12839293408014,114,115,-14.6632830507991,-185.002008942955,103.498466759577,81.503542183378
2.13054717794054,117,117,-19.5508685835459,-197.220972774822,113.27363782507,83.9473349497514
2.13270142180095,119,119,-19.5508685835459,-206.996143840315,118.161223357817,88.8349204824982
2.13485566566135,120,120,-19.5508685835459,-211.883729373062,120.60501612419,91.2787132488717
2.13700990952176,121,121,-19.5508685835459,-216.771314905809,123.048808890564,93.7225060152451
2.13916415338216,120,120,-19.5508685835459,-211.883729373062,120.60501612419,91.2787132488717
2.14131839724257,115,117,-9.77569751805223,-192.333387242075,103.498466759577,88.8349204824982
2.14347264110297,114,115,-14.6632830507991,-185.002008942955,103.498466759577,81.503542183378
2.14562688496338,114,115,-14.6632830507991,-185.002008942955,103.498466759577,81.503542183378
2.14778112882378,115,117,-9.77569751805223,-192.333387242075,103.498466759577,88.8349204824982
2.14993537268419,117,120,-4.88811198530533,-204.552351073942,105.94225952595,98.6100915479919
2.15208961654459,118,118,-19.5508685835459,-202.108558307568,115.717430591444,86.3911277161248
2.154243860405,120,119,-24.4384541162928,-209.439936606689,123.048808890564,86.3911277161247
2.1563981042654,119,121,-9.77569751805214,-211.883729373062,113.27363782507,98.6100915479919
2.15855234812581,117,118,-14.6632830507991,-199.664765541195,110.829845058697,88.8349204824982
2.16070659198621,113,114,-14.6632830507991,-180.114423410208,101.054673993203,79.0597494170046
2.16286083584662,113,115,-9.77569751805225,-182.558216176581,98.6108812268297,83.9473349497514
2.16501507970702,115,116,-14.6632830507991,-189.889594475701,105.94225952595,83.9473349497514
2.16716932356743,117,118,-14.6632830507991,-199.664765541195,110.829845058697,88.8349204824982
2.16932356742783,121,119,-29.3260396490396,-211.883729373062,127.936394423311,83.9473349497513
2.17147781128824,120,121,-14.6632830507991,-214.327522139436,118.161223357817,96.1662987816185
2.17363205514864,120,118,-29.3260396490396,-206.996143840315,125.492601656937,81.5035421833779
2.17578629900905,119,120,-14.663283050799,-209.439936606689,115.717430591444,93.7225060152451
2.17794054286945,118,116,-29.3260396490395,-197.220972774822,120.60501612419,76.6159566506311
2.18009478672986,113,114,-14.6632830507991,-180.114423410208,101.054673993203,79.0597494170046
2.18224903059026,115,114,-24.4384541162927,-185.002008942955,110.829845058697,74.1721638842577
2.18440327445067,116,117,-14.663283050799,-194.777180008448,108.386052292323,86.3911277161248
2.18655751831107,119,121,-9.77569751805214,-211.883729373062,113.27363782507,98.6100915479919
2.18871176217148,119,121,-9.77569751805214,-211.883729373062,113.27363782507,98.6100915479919
2.19086600603188,120,122,-9.77569751805223,-216.771314905809,115.717430591444,101.053884314365
2.19302024989229,120,122,-9.77569751805223,-216.771314905809,115.717430591444,101.053884314365
2.19517449375269,117,119,-9.77569751805225,-202.108558307568,108.386052292323,93.722506015245
2.1973287376131,114,117,-4.88811198530541,-189.889594475701,98.6108812268297,91.2787132488716
2.1994829814735,115,115,-19.5508685835459,-187.445801709328,108.386052292323,79.0597494170046
2.20163722533391,116,118,-9.77569751805223,-197.220972774822,105.94225952595,91.2787132488716
2.20379146919431,118,118,-19.5508685835459,-202.108558307568,115.717430591444,86.3911277161248
2.20594571305472,118,120,-9.77569751805214,-206.996143840315,110.829845058697,96.1662987816185
2.20809995691512,118,119,-14.6632830507991,-204.552351073942,113.27363782507,91.2787132488716
2.21025420077553,119,120,-14.663283050799,-209.439936606689,115.717430591444,93.7225060152451
2.21240844463593,117,117,-19.5508685835459,-197.220972774822,113.27363782507,83.9473349497514
2.21456268849634,114,115,-14.6632830507991,-185.002008942955,103.498466759577,81.503542183378
2.21671693235674,111,114,-4.88811198530541,-175.226837877461,91.2795029277095,83.9473349497514
2.21887117621715,114,116,-9.77569751805225,-187.445801709328,101.054673993203,86.3911277161248
2.22102542007755,116,117,-14.663283050799,-194.777180008448,108.386052292323,86.3911277161248
2.22317966393796,119,119,-19.5508685835459,-206.996143840315,118.161223357817,88.8349204824982
2.22533390779836,120,120,-19.5508685835459,-211.883729373062,120.60501612419,91.2787132488717
2.22748815165877,118,121,-4.88811198530533,-209.439936606689,108.386052292323,101.053884314365
2.22964239551917,119,120,-14.663283050799,-209.439936606689,115.717430591444,93.7225060152451
2.23179663937958,116,116,-19.5508685835459,-192.333387242075,110.829845058697,81.503542183378
2.23395088323998,115,114,-24.4384541162927,-185.002008942955,110.829845058697,74.1721638842577
2.23610512710039,115,115,-19.5508685835459,-187.445801709328,108.386052292323,79.0597494170046
2.23825937096079,115,117,-9.77569751805223,-192.333387242075,103.498466759577,88.8349204824982
2.2404136148212,119,119,-19.5508685835459,-206.996143840315,118.161223357817,88.8349204824982
2.2425678586816,120,120,-19.5508685835459,-211.883729373062,120.60501612419,91.2787132488717
2.24472210254201,120,120,-19.5508685835459,-211.883729373062,120.60501612419,91.2787132488717
2.24687634640241,121,120,-24.4384541162927,-214.327522139436,125.492601656937,88.8349204824982
2.24903059026282,117,117,-19.5508685835459,-197.220972774822,113.27363782507,83.9473349497514
2.25118483412322,115,115,-19.5508685835459,-187.445801709328,108.386052292323,79.0597494170046
2.25333907798363,113,114,-14.6632830507991,-180.114423410208,101.054673993203,79.0597494170046
2.25549332184403,116,116,-19.5508685835459,-192.333387242075,110.829845058697,81.503542183378
2.25764756570444,120,120,-19.5508685835459,-211.883729373062,120.60501612419,91.2787132488717
2.25980180956484,120,120,-19.5508685835459,-211.883729373062,120.60501612419,91.2787132488717
2.26195605342525,119,122,-4.8881119853053,-214.327522139435,110.829845058697,103.497677080739
2.26411029728565,119,119,-19.5508685835459,-206.996143840315,118.161223357817,88.8349204824982
2.26626454114606,120,118,-29.3260396490396,-206.996143840315,125.492601656937,81.5035421833779
2.26841878500646,116,116,-19.5508685835459,-192.333387242075,110.829845058697,81.503542183378
2.27057302886687,116,115,-24.4384541162927,-189.889594475701,113.27363782507,76.6159566506311
2.27272727272727,115,117,-9.77569751805223,-192.333387242075,103.498466759577,88.8349204824982
2.27488151658768,118,118,-19.5508685835459,-202.108558307568,115.717430591444,86.3911277161248
2.27703576044808,119,119,-19.5508685835459,-206.996143840315,118.161223357817,88.8349204824982
2.27919000430849,121,120,-24.4384541162927,-214.327522139436,125.492601656937,88.8349204824982
2.28134424816889,121,120,-24.4384541162927,-214.327522139436,125.492601656937,88.8349204824982
2.2834984920293,118,119,-14.6632830507991,-204.552351073942,113.27363782507,91.2787132488716
2.2856527358897,117,116,-24.4384541162927,-194.777180008448,115.717430591444,79.0597494170045
2.28780697975011,113,115,-9.77569751805225,-182.558216176581,98.6108812268297,83.9473349497514
2.28996122361051,115,116,-14.6632830507991,-189.889594475701,105.94225952595,83.9473349497514
2.29211546747092,116,118,-9.77569751805223,-197.220972774822,105.94225952595,91.2787132488716
2.29426971133132,118,120,-9.77569751805214,-206.996143840315,110.829845058697,96.1662987816185
2.29642395519173,119,120,-14.663283050799,-209.439936606689,115.717430591444,93.7225060152451
2.29857819905213,120,120,-19.5508685835459,-211.883729373062,120.60501612419,91.2787132488717
2.30073244291254,120,119,-24.4384541162928,-209.439936606689,123.048808890564,86.3911277161247
2.30288668677294,117,117,-19.5508685835459,-197.220972774822,113.27363782507,83.9473349497514
2.30504093063335,115,114,-24.4384541162927,-185.002008942955,110.829845058697,74.1721638842577
2.30719517449375,113,115,-9.77569751805225,-182.558216176581,98.6108812268297,83.9473349497514
2.30934941835416,117,115,-29.3260396490395,-192.333387242075,118.161223357817,74.1721638842577
2.31150366221456,120,118,-29.3260396490396,-206.996143840315,125.492601656937,81.5035421833779
2.31365790607497,120,121,-14.6632830507991,-214.327522139436,118.161223357817,96.1662987816185
2.31581214993537,119,121,-9.77569751805214,-211.883729373062,113.27363782507,98.6100915479919
2.31796639379578,119,120,-14.663283050799,-209.439936606689,115.717430591444,93.7225060152451
2.32012063765618,117,119,-9.77569751805225,-202.108558307568,108.386052292323,93.722506015245
2.32227488151659,114,115,-14.6632830507991,-185.002008942955,103.498466759577,81.503542183378
2.32442912537699,114,115,-14.6632830507991,-185.002008942955,103.498466759577,81.503542183378
2.3265833692374,115,116,-14.6632830507991,-189.889594475701,105.94225952595,83.9473349497514
2.3287376130978,118,118,-19.5508685835459,-202.108558307568,115.717430591444,86.3911277161248
2.33089185695821,121,121,-19.5508685835459,-216.771314905809,123.048808890564,93.7225060152451
2.33304610081861,122,122,-19.5508685835459,-221.658900438556,125.492601656937,96.1662987816185
2.33520034467902,126,123,-34.2136251817863,-233.877864270423,142.599151021551,91.2787132488717
2.33735458853942,125,124,-24.4384541162927,-233.877864270423,135.267772722431,98.6100915479919
2.33950883239983,125,121,-39.1012107145332,-226.546485971303,142.599151021551,83.9473349497514
2.34166307626023,126,121,-43.98879624728,-228.990278737676,147.486736554298,81.503542183378
2.34381732012064,127,125,-29.3260396490395,-241.209242569543,142.599151021551,98.6100915479919
2.34597156398104,133,128,-43.98879624728,-263.203377466904,164.593285918912,98.6100915479919
2.34812580784145,135,131,-39.1012107145331,-275.422341298771,167.037078685285,108.385262613486
2.35028005170185,138,132,-48.8763817800268,-285.197512364264,179.256042517152,105.941469847112
2.35243429556226,139,134,-43.98879624728,-292.528890663385,179.256042517152,113.272848146232
2.35458853942266,138,135,-34.2136251817864,-292.528890663385,171.924664218032,120.604226445353
2.35674278328307,137,133,-39.1012107145332,-285.197512364264,171.924664218032,113.272848146232
2.35889702714347,135,132,-34.2136251817863,-277.866134065144,164.593285918912,113.272848146232
2.36105127100388,135,130,-43.9887962472799,-272.978548532397,169.480871451659,103.497677080739
2.36320551486428,137,133,-39.1012107145332,-285.197512364264,171.924664218032,113.272848146232
2.36535975872469,138,136,-29.3260396490395,-294.972683429758,169.480871451659,125.491811978099
2.36751400258509,138,136,-29.3260396490395,-294.972683429758,169.480871451659,125.491811978099
2.3696682464455,137,138,-14.6632830507991,-297.416476196131,159.705700386165,137.710775809966
2.3718224903059,138,137,-24.4384541162927,-297.416476196131,167.037078685285,130.379397510846
2.37397673416631,136,136,-19.5508685835459,-290.085097897011,159.705700386165,130.379397510846
2.37613097802671,133,134,-14.6632830507991,-277.866134065144,149.930529320671,127.935604744473
2.37828522188712,132,131,-24.4384541162927,-268.090962999651,152.374322087045,115.716640912606
2.38043946574752,134,132,-29.3260396490395,-275.422341298771,159.705700386165,115.716640912606
2.38259370960793,137,135,-29.3260396490396,-290.085097897011,167.037078685285,123.048019211726
2.38474795346833,138,136,-29.3260396490395,-294.972683429758,169.480871451659,125.491811978099
2.38690219732874,139,136,-34.2136251817863,-297.416476196131,174.368456984405,123.048019211726
2.38905644118914,138,137,-24.4384541162927,-297.416476196131,167.037078685285,130.379397510846
2.39121068504955,138,135,-34.2136251817864,-292.528890663385,171.924664218032,120.604226445353
2.39336492890995,136,134,-29.3260396490396,-285.197512364264,164.593285918912,120.604226445353
2.39551917277036,134,132,-29.3260396490395,-275.422341298771,159.705700386165,115.716640912606
2.39767341663076,133,132,-24.4384541162927,-272.978548532397,154.818114853418,118.160433678979
2.39982766049117,135,135,-19.5508685835459,-285.197512364264,157.261907619792,127.935604744473
2.40198190435157,140,136,-39.1012107145331,-299.860268962505,179.256042517152,120.604226445353
2.40413614821198,140,137,-34.2136251817863,-302.304061728878,176.812249750779,125.491811978099
2.40629039207238,139,136,-34.2136251817863,-297.416476196131,174.368456984405,123.048019211726
2.40844463593279,138,137,-24.4384541162927,-297.416476196131,167.037078685285,130.379397510846
2.41059887979319,135,134,-24.4384541162927,-282.753719597891,159.705700386165,123.048019211726
2.4127531236536,134,132,-29.3260396490395,-275.422341298771,159.705700386165,115.716640912606
2.414907367514,135,131,-39.1012107145331,-275.422341298771,167.037078685285,108.385262613486
2.41706161137441,136,133,-34.2136251817864,-282.753719597891,167.037078685285,115.716640912606
2.41921585523481,137,135,-29.3260396490396,-290.085097897011,167.037078685285,123.048019211726
2.42137009909522,137,136,-24.4384541162927,-292.528890663385,164.593285918912,127.935604744473
2.42352434295562,139,137,-29.3260396490395,-299.860268962505,171.924664218032,127.935604744473
2.42567858681603,137,135,-29.3260396490396,-290.085097897011,167.037078685285,123.048019211726
2.42783283067643,137,136,-24.4384541162927,-292.528890663385,164.593285918912,127.935604744473
2.42998707453684,133,134,-14.6632830507991,-277.866134065144,149.930529320671,127.935604744473
2.43214131839724,133,130,-34.2136251817863,-268.090962999651,159.705700386165,108.385262613486
2.43429556225765,134,134,-19.5508685835459,-280.309926831518,154.818114853418,125.491811978099
2.43644980611805,137,134,-34.2136251817864,-287.641305130638,169.480871451659,118.160433678979
2.43860404997846,139,136,-34.2136251817863,-297.416476196131,174.368456984405,123.048019211726
2.44075829383886,138,136,-29.3260396490395,-294.972683429758,169.480871451659,125.491811978099
2.44291253769927,139,136,-34.2136251817863,-297.416476196131,174.368456984405,123.048019211726
2.44506678155967,138,135,-34.2136251817864,-292.528890663385,171.924664218032,120.604226445353
2.44722102542008,133,134,-14.6632830507991,-277.866134065144,149.930529320671,127.935604744473
2.44937526928048,134,130,-39.1012107145331,-270.534755766024,164.593285918912,105.941469847112
2.45152951314089,134,132,-29.3260396490395,-275.422341298771,159.705700386165,115.716640912606
2.45368375700129,135,132,-34.2136251817863,-277.866134065144,164.593285918912,113.272848146232
2.4558380008617,139,134,-43.98879624728,-292.528890663385,179.256042517152,113.272848146232
2.4579922447221,139,136,-34.2136251817863,-297.416476196131,174.368456984405,123.048019211726
2.46014648858251,139,137,-29.3260396490395,-299.860268962505,171.924664218032,127.935604744473
2.46230073244291,137,135,-29.3260396490396,-290.085097897011,167.037078685285,123.048019211726
2.46445497630332,135,133,-29.3260396490395,-280.309926831518,162.149493152538,118.160433678979
2.46660922016372,135,131,-39.1012107145331,-275.422341298771,167.037078685285,108.385262613486
2.46876346402413,134,131,-34.2136251817863,-272.978548532397,162.149493152538,110.829055379859
2.47091770788453,136,133,-34.2136251817864,-282.753719597891,167.037078685285,115.716640912606
2.47307195174494,138,135,-34.2136251817864,-292.528890663385,171.924664218032,120.604226445353
2.47522619560534,140,136,-39.1012107145331,-299.860268962505,179.256042517152,120.604226445353
2.47738043946575,140,138,-29.3260396490395,-304.747854495252,174.368456984405,130.379397510846
2.47953468332615,139,137,-29.3260396490395,-299.860268962505,171.924664218032,127.935604744473
2.48168892718656,137,134,-34.2136251817864,-287.641305130638,169.480871451659,118.160433678979
2.48384317104696,133,131,-29.3260396490395,-270.534755766024,157.261907619792,113.272848146232
2.48599741490737,134,130,-39.1012107145331,-270.534755766024,164.593285918912,105.941469847112
2.48815165876777,136,132,-39.1012107145332,-280.309926831518,169.480871451659,110.829055379859
2.49030590262818,136,135,-24.4384541162927,-287.641305130638,162.149493152538,125.491811978099
2.49246014648858,137,134,-34.2136251817864,-287.641305130638,169.480871451659,118.160433678979
2.49461439034899,138,137,-24.4384541162927,-297.416476196131,167.037078685285,130.379397510846
2.49676863420939,137,136,-24.4384541162927,-292.528890663385,164.593285918912,127.935604744473
2.4989228780698,136,134,-29.3260396490396,-285.197512364264,164.593285918912,120.604226445353
2.5010771219302,134,133,-24.4384541162927,-277.866134065144,157.261907619792,120.604226445353
2.50323136579061,132,129,-34.2136251817863,-263.203377466904,157.261907619792,105.941469847112
2.50538560965101,133,129,-39.1012107145332,-265.647170233277,162.149493152538,103.497677080739
2.50753985351142,133,132,-24.4384541162927,-272.978548532397,154.818114853418,118.160433678979
2.50969409737182,137,135,-29.3260396490396,-290.085097897011,167.037078685285,123.048019211726
2.51184834123223,137,134,-34.2136251817864,-287.641305130638,169.480871451659,118.160433678979
2.51400258509263,138,133,-43.98879624728,-287.641305130638,176.812249750779,110.829055379859
2.51615682895304,135,133,-29.3260396490395,-280.309926831518,162.149493152538,118.160433678979
2.51831107281344,134,133,-24.4384541162927,-277.866134065144,157.261907619792,120.604226445353
2.52046531667385,130,130,-19.5508685835459,-260.75958470053,145.042943787925,115.716640912606
2.52261956053425,131,129,-29.3260396490395,-260.75958470053,152.374322087045,108.385262613486
2.52477380439466,133,131,-29.3260396490395,-270.534755766024,157.261907619792,113.272848146232
2.52692804825506,135,133,-29.3260396490395,-280.309926831518,162.149493152538,118.160433678979
2.52908229211547,136,133,-34.2136251817864,-282.753719597891,167.037078685285,115.716640912606
2.53123653597587,136,135,-24.4384541162927,-287.641305130638,162.149493152538,125.491811978099
2.53339077983628,137,134,-34.2136251817864,-287.641305130638,169.480871451659,118.160433678979
2.53554502369668,136,133,-34.2136251817864,-282.753719597891,167.037078685285,115.716640912606
2.53769926755709,131,131,-19.5508685835459,-265.647170233277,147.486736554298,118.160433678979
2.53985351141749,130,127,-34.2136251817863,-253.42820640141,152.374322087045,101.053884314365
2.5420077552779,131,130,-24.4384541162927,-263.203377466904,149.930529320671,113.272848146232
2.5441619991383,133,132,-24.4384541162927,-272.978548532397,154.818114853418,118.160433678979
2.54631624299871,135,133,-29.3260396490395,-280.309926831518,162.149493152538,118.160433678979
2.54847048685911,135,134,-24.4384541162927,-282.753719597891,159.705700386165,123.048019211726
2.55062473071952,135,134,-24.4384541162927,-282.753719597891,159.705700386165,123.048019211726
2.55277897457992,133,134,-14.6632830507991,-277.866134065144,149.930529320671,127.935604744473
2.55493321844033,132,130,-29.3260396490395,-265.647170233277,154.818114853418,110.829055379859
2.55708746230073,130,128,-29.3260396490395,-255.871999167783,149.930529320671,105.941469847112
2.55924170616114,130,130,-19.5508685835459,-260.75958470053,145.042943787925,115.716640912606
2.56139595002154,133,130,-34.2136251817863,-268.090962999651,159.705700386165,108.385262613486
2.56355019388195,136,132,-39.1012107145332,-280.309926831518,169.480871451659,110.829055379859
2.56570443774235,135,136,-14.663283050799,-287.641305130638,154.818114853418,132.82319027722
2.56785868160276,135,135,-19.5508685835459,-285.197512364264,157.261907619792,127.935604744473
2.57001292546316,136,134,-29.3260396490396,-285.197512364264,164.593285918912,120.604226445353
2.57216716932357,133,131,-29.3260396490395,-270.534755766024,157.261907619792,113.272848146232
2.57432141318397,131,129,-29.3260396490395,-260.75958470053,152.374322087045,108.385262613486
2.57647565704438,129,128,-24.4384541162927,-253.42820640141,145.042943787925,108.385262613486
2.57862990090478,133,130,-34.2136251817863,-268.090962999651,159.705700386165,108.385262613486
2.58078414476519,136,132,-39.1012107145332,-280.309926831518,169.480871451659,110.829055379859
2.58293838862559,135,133,-29.3260396490395,-280.309926831518,162.149493152538,118.160433678979
2.585092632486,138,135,-34.2136251817864,-292.528890663385,171.924664218032,120.604226445353
2.5872468763464,135,132,-34.2136251817863,-277.866134065144,164.593285918912,113.272848146232
2.58940112020681,135,132,-34.2136251817863,-277.866134065144,164.593285918912,113.272848146232
2.59155536406721,131,129,-29.3260396490395,-260.75958470053,152.374322087045,108.385262613486
2.59370960792762,129,129,-19.5508685835459,-255.871999167783,142.599151021551,113.272848146232
2.59586385178802,133,131,-29.3260396490395,-270.534755766024,157.261907619792,113.272848146232
2.59801809564843,134,132,-29.3260396490395,-275.422341298771,159.705700386165,115.716640912606
2.60017233950883,134,134,-19.5508685835459,-280.309926831518,154.818114853418,125.491811978099
2.60232658336924,134,131,-34.2136251817863,-272.978548532397,162.149493152538,110.829055379859
2.60448082722964,135,132,-34.2136251817863,-277.866134065144,164.593285918912,113.272848146232
2.60663507109005,131,130,-24.4384541162927,-263.203377466904,149.930529320671,113.272848146232
2.60878931495045,126,128,-9.77569751805225,-246.09682810229,130.380187189684,115.716640912606
2.61094355881086,125,126,-14.663283050799,-238.76544980317,130.380187189684,108.385262613486
2.61309780267126,125,124,-24.4384541162927,-233.877864270423,135.267772722431,98.6100915479919
2.61525204653167,127,125,-29.3260396490395,-241.209242569543,142.599151021551,98.6100915479919
2.61740629039207,127,126,-24.4384541162927,-243.653035335916,140.155358255178,103.497677080739
2.61956053425248,128,126,-29.3260396490395,-246.09682810229,145.042943787925,101.053884314365
2.62171477811288,127,127,-19.5508685835459,-246.09682810229,137.711565488804,108.385262613486
2.62386902197329,126,124,-29.3260396490395,-236.321657036796,140.155358255178,96.1662987816185
2.62602326583369,123,121,-29.3260396490395,-221.658900438556,132.823979956058,88.8349204824982
2.6281775096941,118,119,-14.6632830507991,-204.552351073942,113.27363782507,91.2787132488716
2.6303317535545,119,118,-24.4384541162927,-204.552351073942,120.60501612419,83.9473349497514
2.63248599741491,120,121,-14.6632830507991,-214.327522139436,118.161223357817,96.1662987816185
2.63464024127531,123,123,-19.5508685835459,-226.546485971303,127.936394423311,98.6100915479919
2.63679448513572,123,123,-19.5508685835459,-226.546485971303,127.936394423311,98.6100915479919
2.63894872899612,125,122,-34.2136251817863,-228.990278737676,140.155358255178,88.8349204824983
2.64110297285653,123,123,-19.5508685835459,-226.546485971303,127.936394423311,98.6100915479919
2.64325721671693,120,122,-9.77569751805223,-216.771314905809,115.717430591444,101.053884314365
2.64541146057734,117,118,-14.6632830507991,-199.664765541195,110.829845058697,88.8349204824982
2.64756570443774,115,116,-14.6632830507991,-189.889594475701,105.94225952595,83.9473349497514
2.64971994829815,117,118,-14.6632830507991,-199.664765541195,110.829845058697,88.8349204824982
2.65187419215855,119,121,-9.77569751805214,-211.883729373062,113.27363782507,98.6100915479919
2.65402843601896,121,121,-19.5508685835459,-216.771314905809,123.048808890564,93.7225060152451
2.65618267987936,124,124,-19.5508685835459,-231.434071504049,130.380187189684,101.053884314365
2.65833692373977,122,121,-24.4384541162927,-219.215107672182,127.936394423311,91.2787132488716
2.66049116760017,120,120,-19.5508685835459,-211.883729373062,120.60501612419,91.2787132488717
2.66264541146058,118,117,-24.4384541162927,-199.664765541195,118.161223357817,81.503542183378
2.66479965532098,115,117,-9.77569751805223,-192.333387242075,103.498466759577,88.8349204824982
2.66695389918139,116,116,-19.5508685835459,-192.333387242075,110.829845058697,81.503542183378
2.66910814304179,118,118,-19.5508685835459,-202.108558307568,115.717430591444,86.3911277161248
2.6712623869022,120,120,-19.5508685835459,-211.883729373062,120.60501612419,91.2787132488717
2.6734166307626,119,121,-9.77569751805214,-211.883729373062,113.27363782507,98.6100915479919
2.67557087462301,121,121,-19.5508685835459,-216.771314905809,123.048808890564,93.7225060152451
2.67772511848341,119,119,-19.5508685835459,-206.996143840315,118.161223357817,88.8349204824982
2.67987936234382,115,117,-9.77569751805223,-192.333387242075,103.498466759577,88.8349204824982
2.68203360620422,113,117,-0.000526452558602841,-187.445801709328,93.7232956940829,93.722506015245
2.68418785006463,116,114,-29.3260396490395,-187.445801709328,115.717430591444,71.7283711178843
2.68634209392503,117,117,-19.5508685835459,-197.220972774822,113.27363782507,83.9473349497514
2.68849633778544,117,118,-14.6632830507991,-199.664765541195,110.829845058697,88.8349204824982
2.69065058164584,121,120,-24.4384541162927,-214.327522139436,125.492601656937,88.8349204824982
2.69280482550625,120,121,-14.6632830507991,-214.327522139436,118.161223357817,96.1662987816185
2.69495906936665,120,121,-14.6632830507991,-214.327522139436,118.161223357817,96.1662987816185
2.69711331322706,119,117,-29.3260396490395,-202.108558307568,123.048808890564,79.0597494170046
2.69926755708746,116,115,-24.4384541162927,-189.889594475701,113.27363782507,76.6159566506311
2.70142180094787,114,116,-9.77569751805225,-187.445801709328,101.054673993203,86.3911277161248
2.70357604480827,117,116,-24.4384541162927,-194.777180008448,115.717430591444,79.0597494170045
2.70573028866868,117,119,-9.77569751805225,-202.108558307568,108.386052292323,93.722506015245
2.70788453252908,119,121,-9.77569751805214,-211.883729373062,113.27363782507,98.6100915479919
2.71003877638949,121,120,-24.4384541162927,-214.327522139436,125.492601656937,88.8349204824982
2.71219302024989,120,121,-14.6632830507991,-214.327522139436,118.161223357817,96.1662987816185
2.7143472641103,120,119,-24.4384541162928,-209.439936606689,123.048808890564,86.3911277161247
2.7165015079707,118,116,-29.3260396490395,-197.220972774822,120.60501612419,76.6159566506311
2.71865575183111,113,115,-9.77569751805225,-182.558216176581,98.6108812268297,83.9473349497514
2.72080999569151,115,115,-19.5508685835459,-187.445801709328,108.386052292323,79.0597494170046
2.72296423955192,117,117,-19.5508685835459,-197.220972774822,113.27363782507,83.9473349497514
