t,leadI,leadII,leadIII,aVR,aVL,aVF
0,1.45791200151065,-0.104412270255088,-1.56232427176574,-0.676749865627781,1.51011813663819,-0.833368271010412
0.00216473644333802,0.672737846497427,-0.243033898433874,-0.915771744931301,-0.214851974031776,0.794254795714364,-0.579402821682588
0.00432947288667605,0.293565509000047,-0.368354740181399,-0.661920249181446,0.0373946155906761,0.477742879090746,-0.515137494681422
0.00649420933001407,0.0485651603533199,-0.458881062422884,-0.507446222776204,0.205157951034782,0.278005691564762,-0.483163642599544
0.0086589457733521,-0.337382129441878,-0.514091321783197,-0.17670919234132,0.425736725612537,-0.080336468550279,-0.345400257062258
0.0108236822166901,-1.03822553591495,-0.534494040216312,0.503731495698635,0.786359788065629,-0.770978515806791,-0.0153812722588382
0.0129884186600281,-2.08977121091871,-0.527691975578752,1.56207923533996,1.30873159324873,-1.82592522312934,0.517193629880604
0.0151531551033662,-3.36656516940313,-0.517198251604449,2.84936691779868,1.94188171050379,-3.10796604360091,1.16608433309712
0.0173178915467042,-4.59360166165274,-0.529934205664161,4.06366745598858,2.56176793365845,-4.32863455882066,1.76686662516221
0.0194826279900422,-5.43216651655597,-0.578147964909984,4.85401855164598,3.00515724073298,-5.14309253410097,2.137935293368
0.0216473644333802,-5.6369077298524,-0.651520067025318,4.98538766282708,3.14421389843886,-5.31114769633974,2.16693379790088
0.0238121008767183,-5.19136629982027,-0.718815740759799,4.47255055906047,2.95509102029004,-4.83195842944037,1.87686740915034
0.0259768373200563,-4.28771255484445,-0.745636964542005,3.54207559030244,2.51667475969323,-3.91489407257344,1.39821931288022
0.0281415737633943,-3.15913379044925,-0.718632295878155,2.44050149457109,1.9388830431637,-2.79981764251017,0.860934599346468
0.0303063102067323,-1.94590873592432,-0.649289828646284,1.29661890727804,1.2975992822853,-1.62126382160118,0.323664539315875
0.0324710466500704,-0.696179037745836,-0.564013600453777,0.132165437292058,0.630096319099807,-0.414172237518947,-0.21592408158086
0.0346357830934084,0.579974823086744,-0.497165415333906,-1.07714023842065,-0.0414047038764189,0.828557530753697,-0.787152826877278
0.0368005195367464,1.87364902846612,-0.479370518747244,-2.35301954721336,-0.697139254859438,2.11333428783974,-1.4161950329803
0.0389652559800844,3.1720056096503,-0.524365326614389,-3.69637093626469,-1.32382014151795,3.43418827295749,-2.11036813143954
0.0411299924234224,4.4632204942997,-0.623805518686619,-5.08702601298632,-1.91970748780654,4.77512325364301,-2.85541576583647
0.0432947288667605,5.6895552455086,-0.749093836554952,-6.43864908206355,-2.47023070447682,6.06410216378608,-3.59387145930925
0.0454594653100985,6.72100292588723,-0.860879574044282,-7.58188249993152,-2.93006167592148,7.15144271290938,-4.2213810369879
0.0476242017534365,7.44774653498152,-0.922557793019195,-8.37030432800071,-3.26259437098116,7.90902543149112,-4.64643106050995
0.0497889381967745,7.8835038988254,-0.920546476794354,-8.80405037561975,-3.48147871101552,8.34377713722257,-4.86229842620705
0.0519536746401126,8.16361544644748,-0.882037260452632,-9.04565270690011,-3.64078909299742,8.6046340766738,-4.96384498367637
0.0541184110834506,8.46528591022975,-0.856124172940099,-9.32141008316985,-3.80458086864483,8.8933479966998,-5.08876712805498
0.0562831475267886,8.91096790596411,-0.868390118838003,-9.77935802480212,-4.02128889356305,9.34516296538312,-5.32387407182006
0.0584478839701266,9.5016516611482,-0.904319381656935,-10.4059710428051,-4.29866613974563,9.95381135197667,-5.65514521223104
0.0606126204134647,10.1243050981371,-0.937334094366876,-11.061639192504,-4.59348550188512,10.5929721453206,-5.99948664343543
0.0627773568568027,10.6272119087281,-0.949690042912278,-11.5769019516404,-4.83876093290792,11.1020569301843,-6.26329599727634
0.0649420933001407,10.8947384905771,-0.918843403566671,-11.8135818941437,-4.98794754350519,11.3541601923604,-6.3662126488552
0.0671068297434787,10.890891840406,-0.82312796056899,-11.714019800975,-5.03388193991851,11.3024558206905,-6.26857388077199
0.0692715661868168,10.7081453119368,-0.674169232500737,-11.3823145444375,-5.01698803971802,11.0452299281871,-6.02824188846912
0.0714363026301548,10.5933080163269,-0.513239080912445,-11.1065470972393,-5.04003446770722,10.8499275567831,-5.80989308907589
0.0736010390734928,10.8433427591771,-0.376419079557735,-11.2197618387349,-5.23346183980971,11.031552298956,-5.79809045914631
0.0757657755168308,11.6177015052244,-0.278303791829973,-11.8960052970544,-5.66969885669724,11.7568534011394,-6.0871545444422
0.0779305119601689,12.8512694956985,-0.217644524495002,-13.0689140201935,-6.31681248560174,12.960091757946,-6.64327927234424
0.0800952484035069,14.3100149512751,-0.18612657953647,-14.4961415308115,-7.06194418586929,14.4030782410433,-7.341134055174
0.0822599848468449,15.7062698957542,-0.174151111490206,-15.8804210072444,-7.76605939213199,15.7933454514993,-8.0272860593673
0.0844247212901829,16.8081008939564,-0.174030664168452,-16.9821315581248,-8.31703511489397,16.8951162260406,-8.57808111114665
0.0865894577335209,17.5053315940843,-0.181282010573923,-17.6866136046582,-8.6620247917552,17.5959725993713,-8.93394780761608
0.088754194176859,17.8208652660733,-0.19464072824088,-18.0155059943142,-8.81311226891621,17.9181856301937,-9.10507336127753
0.090918930620197,17.870984370909,-0.215206593918743,-18.0861909648278,-8.82788888849514,17.9785876678684,-9.15069877937326
0.093083667063535,17.7977841502431,-0.244887347833178,-18.0426714980763,-8.77644840120498,17.9202278241597,-9.14377942295475
0.095248403506873,17.7186006344547,-0.284134812976753,-18.0027354474314,-8.71723291073896,17.8606680409431,-9.14343513020409
0.0974131399502111,17.7110612214042,-0.328936462693605,-18.0399976840978,-8.69106237935529,17.875529452751,-9.1844670733957
0.0995778763935491,17.8068070261434,-0.367203896315037,-18.1740109224584,-8.71980156491417,17.9904089743009,-9.27060740938672
0.101742612836887,17.9871700041752,-0.380854408972266,-18.3680244131475,-8.80315779760149,18.1775972086614,-9.37443941105989
0.103907349280225,18.2010136238176,-0.360274446896593,-18.5612880707142,-8.92036958846049,18.3811508472659,-9.46078125880538
0.106072085723563,18.3996504848453,-0.31481021804481,-18.7144607028901,-9.04242013340022,18.5570555938677,-9.51463546046744
0.108236822166901,18.5971014984159,-0.262397651966093,-18.859499150382,-9.16735192322492,18.728300324399,-9.56094840117406
0.110401558610239,18.92793855424,-0.215236653554657,-19.1431752077946,-9.35635095034265,19.0355568810173,-9.67920593067463
0.112566295053577,19.6008469179304,-0.177869452861779,-19.7787163707921,-9.71148873253429,19.6897816443612,-9.97829291182696
0.114731031496915,20.766972229048,-0.150954364428414,-20.9179265934765,-10.3080089323098,20.8424494112622,-10.5344404789524
0.116895767940253,22.4347140047102,-0.134380492649061,-22.5690944973593,-11.1501667560306,22.5019042510348,-11.3517374950042
0.119060504383591,24.456580070218,-0.129473969075003,-24.586054039293,-12.1635530505715,24.5213170547555,-12.357764004184
0.121225240826929,26.5652928876451,-0.140171837556126,-26.7054647252012,-13.2125605250445,26.6353788064231,-13.4228182813787
0.123389977270267,28.4761509130257,-0.172971013847512,-28.6491219268732,-14.1515899495891,28.5626364199494,-14.4110464703604
0.125554713713605,30.0110581086103,-0.235295412362098,-30.2463535209724,-14.8878813481241,30.1287058147913,-15.2408244666672
0.127719450156943,31.1371032102913,-0.331786348830268,-31.4688895591215,-15.4026584307305,31.3029963847064,-15.9003379539759
0.129884186600281,31.8879514145817,-0.458062724372478,-32.3460141389541,-15.7149443451046,32.1169827767679,-16.4020384316633
0.132048923043619,32.2729009899689,-0.591905661308795,-32.8648066512777,-15.84049766433,32.5688538206233,-16.7283561562932
0.134213659486957,32.2674089774252,-0.694223474661842,-32.961632452087,-15.7865927513817,32.6145207147561,-16.8279279633744
0.136378395930295,31.8448422146183,-0.733189808083734,-32.578032022702,-15.5558262032673,32.2114371186601,-16.6556109153929
0.138543132373634,30.992670381426,-0.705113832010993,-31.697784213437,-15.1437782747075,31.3452272974315,-16.201449022724
0.140707868816972,29.7316822778033,-0.625135582992811,-30.3568178607962,-14.5532733474053,30.0442500692997,-15.4909767218945
0.14287260526031,28.1496234907369,-0.511488652510744,-28.6611121432476,-13.8190674191131,28.4053678169923,-14.5863003978792
0.145037341703648,26.405342045578,-0.385741299952153,-26.7910833455302,-13.0098003728129,26.5982126955541,-13.5884123227412
0.147202078146986,24.6780371376616,-0.275914317808702,-24.9539514554703,-12.2010614099265,24.815994296566,-12.6149328866395
0.149366814590324,23.1015577054305,-0.208894276693228,-23.3104519821238,-11.4463317143687,23.2060048437772,-11.7596731294085
0.151531551033662,21.7170350861104,-0.201460500423968,-21.9184955865344,-10.7577872928432,21.8177653363224,-11.0599780434792
0.153696287477,20.4630375365764,-0.259432056496127,-20.7224695930726,-10.1018027400402,20.5927535648245,-10.4909508247843
0.155861023920338,19.2343430206365,-0.377742395414483,-19.6120854160509,-9.42830031261098,19.4232142183437,-9.99491390573271
0.158025760363676,17.9599886958349,-0.535195143657381,-18.4951838394923,-8.71239677608878,18.2275862676636,-9.51518949157485
0.160190496807014,16.6312492816299,-0.690392805922637,-17.3216420875525,-7.97042823785362,16.9764456845912,-9.00601744673758
0.162355233250352,15.307173231413,-0.792443678573819,-16.0996169099868,-7.2573647764196,15.7033950706999,-8.44603029428033
0.16451996969369,14.1095581734476,-0.809581983583319,-14.9191401570309,-6.64998809493214,14.5143491652393,-7.86436107030712
0.166684706137028,13.1508828594871,-0.755776701729495,-13.9066595612166,-6.1975530788788,13.5287712103518,-7.33121813147304
0.168849442580366,12.4169859675994,-0.682358144812319,-13.0993441124117,-5.86731391139353,12.7581650400055,-6.890851128612
0.171014179023704,11.7155313331701,-0.633893617776865,-12.3494249509469,-5.5408188576966,12.0324781420585,-6.49165928436189
0.173178915467042,10.7346546386357,-0.617687781863358,-11.352342420499,-5.05848342838616,11.0434985295674,-5.9850151011812
0.17534365191038,9.18584753315144,-0.613234597831888,-9.79908213098333,-4.28630646765978,9.49246483206739,-5.20615836440761
0.177508388353718,6.95955875595705,-0.597539245649405,-7.55709800160646,-3.18100975515383,7.25832837878176,-4.07731862362793
0.179673124797056,4.16198500688457,-0.5695172013085,-4.73150220819307,-1.79623390278804,4.44674360753882,-2.65050970475079
0.181837861240394,1.01228511066195,-0.556961297715622,-1.56924640837757,-0.227661906473164,1.29076575951976,-1.0631038530466
0.184002597683732,-2.2490824017912,-0.588623113629602,1.6604592881616,1.4188527577104,-1.9547708449764,0.535918087265999
0.18616733412707,-5.36401186255387,-0.659112665525664,4.7048991970282,3.01156226403977,-5.03445552979103,2.02289326575127
0.188332070570408,-8.06838709028406,-0.726088726278806,7.34229836400525,4.39723790828143,-7.70534272714465,3.30810481886322
0.190496807013746,-10.1745654795036,-0.740403345766933,9.43416213373665,5.45748441263525,-9.80436380662011,4.34687939398486
0.192661543457084,-11.6467818745423,-0.676981865743165,10.9698000087992,6.16188187014275,-11.3082909416708,5.146409071528
0.194826279900422,-12.5849817859167,-0.546217173443147,12.0387646124736,6.56559947967994,-12.3118731991952,5.74627371951522
0.19699101634376,-13.1384658013141,-0.387478858401316,12.7509869429128,6.76297232985773,-12.9447263721135,6.18175404225576
0.199155752787098,-13.4310998311382,-0.244181274404555,13.1869185567337,6.8376405527714,-13.309009193936,6.47136864116456
0.201320489230436,-13.5632103700431,-0.141164579642791,13.4220457904003,6.85218747484294,-13.4926280802217,6.64044060537876
0.203485225673774,-13.6730129995578,-0.0846324443886899,13.5883805551692,6.87882272197327,-13.6306967773635,6.75187405539023
0.205649962117112,-13.9361806923851,-0.0709590713429988,13.8652216210421,7.00356988186404,-13.9007011567136,6.89713127484954
0.20781469856045,-14.4566801539242,-0.0918435013017125,14.3648366526225,7.27426182761298,-14.4107584032734,7.13649657566041
0.209979435003788,-15.1879004157786,-0.135829629661869,15.0520707861167,7.66186502272023,-15.1199856009477,7.45812057822743
0.212144171447126,-15.9764258670737,-0.186858660352645,15.789567206721,8.08164226371315,-15.8829965368973,7.80135427318419
0.214308907890464,-16.6386988801078,-0.22669937793914,16.4119995021686,8.43269912902346,-16.5253491911382,8.09265006211475
0.216473644333802,-17.0000052433368,-0.248286905980525,16.7517183373563,8.62414607465867,-16.8758617903465,8.25171571568788
0.21863838077714,-16.9444579904515,-0.263697124347866,16.6807608661036,8.60407755739967,-16.8126094282775,8.20853187087787
0.220803117220478,-16.4946291040621,-0.289788738548347,16.2048403655137,8.39220892130521,-16.3497347347879,7.95752581348269
0.222967853663816,-15.8409403952436,-0.32841060224082,15.5125297930028,8.08467549874223,-15.6767350941232,7.592059595381
0.225132590107154,-15.2655752479771,-0.363674573792707,14.9019006741843,7.81462491088488,-15.0837379610807,7.26911305019582
0.227297326550492,-15.0223493006264,-0.37629052382911,14.6460587767973,7.69931991222774,-14.8342040387118,7.13488412648408
0.229462062993831,-15.2568121296367,-0.358415884181163,14.8983962454555,7.80761400690892,-15.0776041875461,7.26999018063718
0.231626799437169,-15.9710638825784,-0.318461811076593,15.6526020715018,8.14476284682751,-15.8118329770401,7.66707013021262
0.233791535880507,-17.0221149180046,-0.27628111941878,16.7458337985858,8.64919801871168,-16.8839743582952,8.23477633958351
0.235956272323845,-18.1708255861928,-0.248261202847762,17.922564383345,9.20954339452027,-18.0466949847689,8.83715159024863
0.238121008767183,-19.168688755188,-0.232831914543998,18.935856840644,9.70076033486601,-19.052272797916,9.35151246305001
0.240285745210521,-19.8362418182275,-0.21289991643284,19.6233419017946,10.0245708673302,-19.729791860011,9.70522099268089
0.242450481653859,-20.0825501780418,-0.175205188214395,19.9073449898274,10.1288776831281,-19.9949475839346,9.86606990080649
0.244615218097197,-19.8638593939594,-0.124147375382099,19.7397120185773,9.99400338467073,-19.8017857062683,9.80778232159758
0.246779954540535,-19.1721811997247,-0.0733249576906922,19.098856242034,9.6227530787077,-19.1355187208794,9.51276564217166
0.248944690983873,-18.098476799148,-0.0320285192988015,18.0664482798492,9.06525265922342,-18.0824625394986,9.01720988027521
0.251109427427211,-16.8588420964311,-0.00339479118380792,16.8554473052473,8.43111844380744,-16.8571447008392,8.42602625703172
0.253274163870549,-15.6995582454857,0.0122257867818663,15.7117840322676,7.84366622935192,-15.7056711388766,7.86200490952472
0.255438900313887,-14.7697931131206,0.0148892522813571,14.784682365402,7.37745193041963,-14.7772377392613,7.39978580884167
0.257603636757225,-14.084203499399,0.00384267584005382,14.088046175239,7.04018041177946,-14.086124837319,7.04594442553954
0.259768373200563,-13.5811995521433,-0.0224582017399018,13.5587413504034,6.80182887694161,-13.5699704512734,6.76814157433176
0.261933109643901,-13.1977633874476,-0.0650304737604739,13.1327329136872,6.63139693060405,-13.1652481505674,6.53385121996334
0.264097846087239,-12.9048099462038,-0.121683605395618,12.7831263408081,6.51324677579969,-12.843968143506,6.33072136770627
0.266262582530577,-12.7124142615558,-0.183046843947532,12.5293674176083,6.44773055275169,-12.6208908395821,6.17316028683039
0.268427318973915,-12.6529570900213,-0.233456008527271,12.419501081494,6.44320654927427,-12.5362290857576,6.09302253648336
0.270592055417253,-12.7194521901222,-0.263212519231227,12.456239670891,6.49133235467673,-12.5878459305066,6.09651357582989
0.272756791860591,-12.8283593437902,-0.275772695023101,12.5525866487671,6.55206601940664,-12.6904729962786,6.13840697687199
0.274921528303929,-12.9068486919028,-0.278897697112608,12.6279509947902,6.59287319450772,-12.7673998433465,6.17452664883881
0.277086264747267,-12.9812370855282,-0.282825145259419,12.6984119402688,6.63203111539381,-12.8398245128985,6.20779339750468
0.279251001190605,-13.0908778691439,-0.304863781417843,12.7860140877261,6.69787082528087,-12.938445978435,6.2405751531541
0.281415737633943,-13.1331064214805,-0.356356462932214,12.7767499585483,6.74473144220635,-12.9549281900144,6.21019674780803
0.283580474077281,-12.856327528394,-0.422640474136185,12.4336870542578,6.63948400126509,-12.6450072913259,6.00552329006081
0.285745210520619,-12.022472176157,-0.464734682347519,11.5577374938095,6.24360342925227,-11.7901048349833,5.546501405731
0.287909946963957,-10.5806649004798,-0.449701688425245,10.1309632120545,5.51518329445252,-10.3558140562672,4.84063076181465
0.290074683407295,-8.72057419018574,-0.377145782613206,8.34342840757253,4.54885998639947,-8.53200129887913,3.98314131247966
0.292239419850633,-6.80685702529857,-0.274699480839339,6.53215754445923,3.54077825306895,-6.6695072848789,3.12872903180995
0.294404156293971,-5.24414500933958,-0.179938601794026,5.06420640754556,2.7120418055668,-5.15417570844257,2.44213390287577
0.296568892737309,-4.33307740100609,-0.124427383633852,4.20865001737224,2.22875239231997,-4.27086370918917,2.0421113168692
0.298733629180647,-4.19761429578258,-0.12313678182572,4.07447751395686,2.16037553880415,-4.13604590486972,1.97567036606557
0.300898365623985,-4.80623359755552,-0.172702364452835,4.63353123310268,2.48946798100418,-4.7198824153291,2.23041443432492
0.303063102067323,-6.04583950288404,-0.257258663762622,5.78858083912141,3.15154908332333,-5.91721017100272,2.7656610876794
0.305227838510661,-7.77825645581892,-0.361803179902517,7.4164532759164,4.07002981786072,-7.59735486586766,3.52732504800694
0.307392574953999,-9.81769974667835,-0.476599342314612,9.34110040436374,5.14714954449648,-9.57940007552105,4.43225053102456
0.309557311397337,-11.8660658066848,-0.582303086789207,11.2837627198956,6.22418444673698,-11.5749142632902,5.35072981655317
0.311722047840675,-13.5126096921744,-0.646156257697165,12.8664534344773,7.0793829749358,-13.1895315633258,6.11014858839005
0.313886784284013,-14.3481278307721,-0.642666670321245,13.7054611604508,7.49539725054665,-14.0267944956114,6.53139724506478
0.316051520727351,-14.138620535451,-0.571964664072066,13.566655871379,7.35529259976156,-13.852638203415,6.49734560365346
0.318216257170689,-12.9539754665226,-0.459922430263571,12.494053036259,6.70694894839308,-12.7240142513908,6.01706530299772
0.320380993614027,-11.1796036470161,-0.340016947630406,10.8395866993857,5.75981029732326,-11.0095951732009,5.24978487587765
0.322545730057366,-9.38680072477001,-0.232802160978955,9.15399856379106,4.80980144287448,-9.27039964428053,4.46059820140605
0.324710466500704,-8.11440438367115,-0.149725594198339,7.96467878947281,4.13206498893474,-8.03954158657198,3.90747659763724
0.326875202944042,-7.68835793215056,-0.107758321304524,7.58059961084604,3.89805812672754,-7.6344787714983,3.73642064477076
0.32903993938738,-8.14364682597036,-0.124353423451521,8.01929340251884,4.13400012471094,-8.0814701142446,3.94746998953366
0.331204675830718,-9.23496532402976,-0.202907058490563,9.0320582655392,4.71893619126016,-9.13351179478448,4.41457560352432
0.333369412274056,-10.5493955917968,-0.325139042346359,10.2242565494504,5.43726731707156,-10.3868260706236,4.94955875355202
0.335534148717394,-11.6967159421767,-0.456255146490338,11.2404607956864,6.07648554433352,-11.4685883689315,5.39210282459802
0.337698885160732,-12.4550782835343,-0.569958918690157,11.8851193648442,6.51251860111225,-12.1700988241893,5.65758022307702
0.33986362160407,-12.7846900028935,-0.660716013755589,12.1239739891379,6.72270300832455,-12.4543319960157,5.73162898769117
0.342028358047408,-12.7517946396106,-0.722091121762241,12.0297035178483,6.73694288068641,-12.3907490787295,5.65380619804305
0.344193094490746,-12.4454364124834,-0.738658492474151,11.7067779200092,6.59204745247877,-12.0761071662463,5.48405971376754
0.346357830934084,-11.9031373309345,-0.703985677238129,11.1991516536964,6.30356150408632,-11.5511444923155,5.24758298822913
0.348522567377422,-11.0704089564091,-0.630749353440289,10.4396596029688,5.85057915492468,-10.7550342796889,4.90445512476425
0.35068730382076,-9.86164567960999,-0.541537148671651,9.32010853093833,5.20159141414082,-9.59087710527416,4.38928569113334
0.352852040264098,-8.30084318404012,-0.445444953221175,7.85539823081894,4.37314406863065,-8.07812070742953,3.70497663879888
0.355016776707436,-6.62151407871632,-0.334085174279915,6.2874289044364,3.47779962649812,-6.45447149157636,2.97667186507824
0.357181513150774,-5.19762938932217,-0.207836412486723,4.98979297683545,2.70273290090445,-5.09371118307881,2.39097828217436
0.359346249594112,-4.3112679321043,-0.085827971278153,4.22543996082615,2.19854795169123,-4.26835394646522,2.069805994774
0.36151098603745,-3.97670670554314,0.0124017040498576,3.98910840959299,1.98215250074664,-3.98290755756807,2.00075505682143
0.363675722480788,-3.99427061177694,0.0799484363386178,4.07421904811556,1.95716108771916,-4.03424482994625,2.07708374222709
0.365840458924126,-4.12087722788209,0.119862065125316,4.24073929300741,2.00050758137839,-4.18080826044475,2.18030067906636
0.368005195367464,-4.17103923089391,0.138956397109902,4.30999562800381,2.016041416892,-4.24051742944886,2.22447601255686
0.370169931810802,-4.03015718121112,0.143916381214208,4.17407356242533,1.94312039999846,-4.10211537181823,2.15899497181977
0.37233466825414,-3.63622546226837,0.139315928275439,3.77554139054381,1.74845476699647,-3.70588342640609,1.95742865940962
0.374499404697478,-2.98151099291287,0.127055503657024,3.1085664965699,1.42722774462792,-3.04503874474139,1.61781100011346
0.376664141140816,-2.15119232096606,0.106835407533376,2.25802772849944,1.02217845671634,-2.20461002473275,1.18243156801641
0.378828877584154,-1.31167090180007,0.0774622062502237,1.38913310805029,0.617104347774923,-1.35040200492518,0.733297657150259
0.380993614027492,-0.595796860653479,0.0389363529782056,0.634733213631685,0.278430253837637,-0.615265037142582,0.336834783304945
0.38315835047083,0.0204566769247521,-0.00469669682534729,-0.0251533737500994,-0.00787999004970238,0.0228050253374257,-0.0149250352877233
0.385323086914168,0.723199754559701,-0.0419051261108472,-0.765104880670548,-0.340647314224427,0.744152317615125,-0.403505003390698
0.387487823357506,1.72235943750377,-0.0559280034693765,-1.77828744097315,-0.833215717017196,1.75032343923846,-0.917107722221261
0.389652559800844,3.08693982926931,-0.0393583507375307,-3.12629818000684,-1.52379073926589,3.10661900463808,-1.58282826537219
0.391817296244182,4.68165690570477,-0.00456915803012775,-4.6862260637349,-2.33854387383732,4.68394148471983,-2.34539761088251
0.39398203268752,6.23103708419575,0.0271033208120971,-6.20393376338365,-3.12907020250392,6.2174854237897,-3.08841522128578
0.396146769130858,7.47377712926406,0.0407636995754371,-7.43301342968863,-3.75727041441975,7.45339527947635,-3.69612486505659
0.398311505574196,8.30327051681138,0.0318346472382891,-8.27143586957309,-4.16755258202484,8.28735319319224,-4.1198006111674
0.400476242017534,8.78404019476693,0.00524350820981367,-8.77879668655712,-4.39464185148837,8.78141844066202,-4.38677658917365
0.402640978460872,9.0585375671979,-0.0239038110147994,-9.08244137821269,-4.51731687809155,9.0704894727053,-4.55317259461375
0.40480571490421,9.24684716251944,-0.0343630532388612,-9.28121021575831,-4.60624205464029,9.26402868913888,-4.65778663449858
0.406970451347548,9.40088237041661,-0.0143516419348618,-9.41523401235147,-4.69326536424087,9.40805819138404,-4.71479282714317
0.409135187790886,9.49345448036186,0.027426152906207,-9.46602832745565,-4.76044031663403,9.47974140390875,-4.71930108727472
0.411299924234225,9.4210025215714,0.0720508621154467,-9.34895165945595,-4.74652669184342,9.38497709051367,-4.63845039867025
0.413464660677562,9.04514379393974,0.104998618686219,-8.94014517525352,-4.57507120631298,8.99264448459663,-4.41757327828365
0.415629397120901,8.27428094694395,0.118803940115202,-8.15547700682874,-4.19654244352957,8.21487897688634,-4.01833653335677
0.417794133564239,7.13586343754419,0.110650672479169,-7.02521276506502,-3.62325705501168,7.0805381013046,-3.45728104629293
0.419958870007577,5.80332039590318,0.081429971889496,-5.72189042401368,-2.94237518389634,5.76260540995843,-2.82023022606209
0.422123606450915,4.55638927971034,0.0365800713053177,-4.51980920840503,-2.29648467550783,4.53809924405769,-2.24161456854985
0.424288342894253,3.64997223349607,-0.0114246741827401,-3.66139690767881,-1.81927377965666,3.65568457058744,-1.83641079093077
0.426453079337591,3.16526558808712,-0.0452938193769467,-3.21055940746406,-1.55998588435508,3.18791249777559,-1.62792661342051
0.428617815780929,2.98306430266494,-0.0565656017797797,-3.03962990444472,-1.46324935044258,3.01134710355483,-1.54809775311225
0.430782552224267,2.87914851653719,-0.054299005738603,-2.9334475222758,-1.41242475539929,2.90629801940649,-1.4938732640072
0.432947288667605,2.63266076183307,-0.0519292443075778,-2.68459000614065,-1.29036575876275,2.65862538398686,-1.36825962522411
0.435112025110943,2.08716496630051,-0.049386413651981,-2.13655137995249,-1.01888927632427,2.1118581731265,-1.09296889680224
0.437276761554281,1.17516389975427,-0.0331745352699747,-1.20833843502424,-0.570994682242146,1.19175116738925,-0.620756485147108
0.439441497997619,-0.0639797005759348,0.00558742424343472,0.0695671248193696,0.0291961381662501,-0.0667734126976522,0.0375772745314021
0.441606234440957,-1.49618396421732,0.0578639161685618,1.55404788038589,0.719160024024381,-1.5251159223016,0.805955898277223
0.443770970884295,-2.96626148899055,0.105266128953723,3.07152761794427,1.43049768001841,-3.01889455346741,1.588396873449
0.445935707327633,-4.37227566044186,0.133656681646059,4.50593234208792,2.1193094893979,-4.43910400126489,2.31979451186699
0.448100443770971,-5.67608458245659,0.135521116166259,5.81160569862285,2.77028173314517,-5.74384514053972,2.97356340739455
0.450265180214309,-6.88159243697552,0.107964723973813,6.98955716094934,3.38681385650086,-6.93557479896243,3.54876094246157
0.452429916657647,-8.01977611161941,0.0528534031596622,8.07262951477908,3.98346135422988,-8.04620281319925,4.06274145896937
0.454594653100985,-9.12390981789172,-0.0206453093386842,9.10326450855304,4.5722775636152,-9.11358716322238,4.54130959960718
0.456759389544323,-10.1879500415912,-0.0971558786978743,10.0907941628933,5.14255296014453,-10.1393721022423,4.99681914209772
0.458924125987661,-11.1589547141438,-0.166304793923778,10.99264992022,5.66262975403377,-11.0758023171819,5.4131725631481
0.461088862430999,-11.9816790086059,-0.233352183664913,11.7483268249409,6.10751559613539,-11.8650029167734,5.75748732063802
0.463253598874337,-12.6232511412398,-0.318127977446932,12.3051231637929,6.47068955934336,-12.4641871525163,5.99349759317297
0.465418335317675,-13.0529311947607,-0.441856225211879,12.6110749695489,6.74739370998631,-12.8320030821548,6.08460937216849
0.467583071761013,-13.2382868279358,-0.600854720533742,12.6374321074021,6.91957077423479,-12.937859467669,6.01828869343418
0.469747808204351,-13.189378170035,-0.749606376864923,12.4397717931701,6.96949227344998,-12.8145749816026,5.8450827081526
0.471912544647689,-12.9884246006446,-0.823116790432762,12.1653078102118,6.90577069553866,-12.5768662054282,5.67109550988952
0.474077281091027,-12.7222929865578,-0.778522464586204,11.9437705219716,6.75040772557201,-12.3330317542647,5.58262402869271
0.476242017534365,-12.382908682354,-0.619396128696082,11.7635125536579,6.50115240552502,-12.0732106180059,5.5720582124809
0.478406753977703,-11.8821524150784,-0.393772363491882,11.4883800515865,6.13796238928514,-11.6852662333325,5.54730384404732
0.480571490421041,-11.1639467340858,-0.165686789892628,10.9982599441932,5.66481676198923,-11.0811033391395,5.41628657715029
0.482736226864379,-10.2663239884294,0.0195950671446177,10.2859190555741,5.12336446064241,-10.2761215220017,5.15275706135933
0.484900963307717,-9.3005737015,0.146143218838499,9.4467169203385,4.57721524133075,-9.37364531091925,4.7964300695885
0.487065699751055,-8.43090621895841,0.217220247653248,8.64812646661166,4.10684298565258,-8.53951634278504,4.43267335713245
0.489230436194393,-7.83998164557056,0.243632376290486,8.08361402186105,3.79817463464004,-7.9617978337158,4.16362319907577
0.491395172637731,-7.63312331716863,0.236693776586139,7.86981709375476,3.69821477029124,-7.7514702054617,4.05325543517045
0.493559909081069,-7.80165882590589,0.205243394306822,8.00690222021271,3.79820771579953,-7.9042805230593,4.10607280725977
0.495724645524407,-8.32934227825214,0.155860920070175,8.48520319832232,4.08674067909098,-8.40727273828723,4.32053205919625
0.497889381967745,-9.29343879208533,0.0954605256426138,9.38889931772794,4.59898913322136,-9.34116905490663,4.74217992168528
0.500054118411083,-10.8187788451023,0.0355031250976962,10.8542819702,5.3916378600023,-10.8365304076511,5.44489254764885
0.502218854854422,-12.9318968766699,-0.00877084695054331,12.9231260297194,6.47033386181023,-12.9275114531946,6.45717759138441
0.50438359129776,-15.4668665556683,-0.030799391033585,15.4360671646348,7.74883297335097,-15.4514668601516,7.70263388680059
0.506548327741097,-18.1231942102988,-0.0403548237281094,18.0828393865707,9.08177451701344,-18.1030167984347,9.02124228142128
0.508713064184436,-20.5846480372609,-0.0494029387550251,20.5352450985059,10.317025488008,-20.5599465678834,10.2429210798754
0.510877800627774,-22.5251461583107,-0.0589703541150679,22.4661758041957,11.2920582562129,-22.4956609812532,11.2036027250403
0.513042537071112,-23.5131327896882,-0.0695631234668584,23.4435696662213,11.7913479565775,-23.4783512279547,11.6870032713772
0.51520727351445,-22.9871058450308,-0.0915703454773068,22.8955354995534,11.539338095254,-22.9413206722921,11.4019825770381
0.517372009957788,-20.3546647832043,-0.132135018339336,20.2225297648649,10.2433999007718,-20.2885972740346,10.0451973732628
0.519536746401126,-15.0891107857254,-0.181179182616499,14.9079316031089,7.63514498417097,-14.9985211944172,7.36337621024622
0.521701482844464,-6.75199451362971,-0.219618607851841,6.53237590577787,3.48580656074078,-6.64218520970379,3.15637864896301
0.523866219287802,4.97733582285679,-0.233059940138982,-5.21039576299577,-2.3721379413589,5.09386579292628,-2.72172785156738
0.52603095573114,20.2040476150439,-0.220473560951811,-20.4245211759957,-9.99178702704605,20.3142843955198,-10.3224973684738
0.528195692174478,38.7256775241366,-0.204341265427322,-38.930018789564,-19.2606681293547,38.8278481568503,-19.5671800274956
0.530360428617816,59.9643441501831,-0.224626835245718,-60.1889709854289,-29.8698586574687,60.076657567806,-30.2067989103373
0.532525165061154,82.82604197935,-0.309170155201334,-83.1352121345513,-41.2584359120743,82.9806270569507,-41.7221911448763
0.534689901504492,105.571244094577,-0.44719839563618,-106.018442490213,-52.5620228494706,105.794843292395,-53.2328204429248
0.53685463794783,125.930326964153,-0.587857197379441,-126.518184161533,-62.671234883387,126.224255562843,-63.5530206794562
0.539019374391168,141.501671140714,-0.670546032201868,-142.172217172916,-70.4155625542561,141.836944156815,-71.4213816025589
0.541184110834506,150.284617400456,-0.667025591636619,-150.951642992093,-74.8087959044097,150.618130196274,-75.8093342918646
0.543348847277844,151.169076362979,-0.598311521035065,-151.767387884015,-75.2853824209722,151.468232123497,-76.1828497025248
0.545513583721182,144.203818088156,-0.510780853748397,-144.714598941905,-71.846518617204,144.45920851503,-72.6126898978266
0.54767832016452,130.574484423579,-0.433860446074004,-131.008344869653,-65.0703119887526,130.791414646616,-65.7211026578636
0.549843056607858,112.345298639527,-0.369015830676248,-112.714314470203,-55.9881414044254,112.529806554865,-56.5416651504398
0.552007793051196,92.0030736197737,-0.313728439101297,-92.316802058875,-45.8446725903362,92.1599378393243,-46.3152652489881
0.554172529494534,71.8936989323824,-0.267481802699608,-72.161180735082,-35.8131085648414,72.0274398337322,-36.2143312688908
0.556337265937872,53.7861828493879,-0.21962336345601,-54.0058062128439,-26.783279742966,53.8959945311159,-27.11271478815
0.55850200238121,38.741654455046,-0.165565400251227,-38.9072198552972,-19.2880445273974,38.8244371551716,-19.5363926277742
0.560666738824548,27.2305922186166,-0.128475498882183,-27.3590677174988,-13.5510583598672,27.2948299680577,-13.7437716081905
0.562831475267886,19.3084797468587,-0.139879481029388,-19.448359227888,-9.58430013291463,19.3784194873733,-9.79411935445871
0.564996211711224,14.7105501461647,-0.20678599510986,-14.9173361412746,-7.25188207552742,14.8139431437196,-7.56206106819221
0.567160948154562,12.860501521451,-0.304416233036988,-13.164917754488,-6.27804264420699,13.0127096379695,-6.73466699376247
0.5693256845979,12.89680483155,-0.388629719096554,-13.2854345506465,-6.25408755622671,13.0911196910982,-6.83703213487154
0.571490421041238,13.807674626172,-0.412427534379793,-14.2201021605518,-6.6976235458961,14.0138883933619,-7.31626484746579
0.573655157484576,14.6367968288712,-0.349566667891795,-14.9863634967629,-7.14361508048968,14.8115801628171,-7.66796508232737
0.575819893927914,14.6685401084506,-0.216728837961941,-14.8852689464125,-7.22590563524432,14.7769045274315,-7.55099889218723
0.577984630371252,13.560359539377,-0.0610375601483715,-13.6213970995254,-6.74966098961432,13.5908783194512,-6.84121732983688
0.58014936681459,11.3998499757709,0.0764238655967613,-11.3234261101741,-5.73813692068383,11.3616380429725,-5.62350112228868
0.582314103257928,8.63436829434303,0.177507300800843,-8.45686099354219,-4.40593779757194,8.54561464394261,-4.13967684637067
0.584478839701266,5.86949038030879,0.241328122568665,-5.62816225774012,-3.05540925143873,5.74882631902446,-2.69341706758573
0.586643576144604,3.62183699065302,0.275160621255671,-3.34667636939735,-1.94849880595435,3.48425668002519,-1.53575787407084
0.588808312587942,2.1514956335816,0.288244310967633,-1.86325132261397,-1.21986997227462,2.00737347809779,-0.787503505823169
0.59097304903128,1.45688535088341,0.288212248859279,-1.16867310202413,-0.872548799871345,1.31277922645377,-0.440230426582426
0.593137785474618,1.38004419280337,0.279513461284939,-1.10053073151843,-0.829778827044153,1.2402874621609,-0.410508635116745
0.595302521917957,1.70189042662271,0.263227329014883,-1.43866309760783,-0.982558877818797,1.57027676211527,-0.587717884296473
0.597467258361295,2.19043572850013,0.237874377819439,-1.95256135068069,-1.21415505315979,2.07149853959041,-0.857343486430628
0.599631994804633,2.63047436144646,0.201075518583334,-2.42939884286313,-1.4157749400149,2.52993660215479,-1.1141616621399
0.601796731247971,2.85986803387019,0.152094226243151,-2.70777380762703,-1.50598113005667,2.78382092074861,-1.27783979069194
0.603961467691309,2.80135160772402,0.0953247704358204,-2.70602683728819,-1.44833818907992,2.75368922250611,-1.30535103342619
0.606126204134647,2.44565503101109,0.0388720820459298,-2.40678294896516,-1.24226355652851,2.42621898998812,-1.18395543345961
0.608290940577985,1.79974194904091,-0.0178021315981838,-1.81754408063909,-0.890969908721362,1.80864301484,-0.917673106118637
0.610455677021323,0.872675498650125,-0.0900280417029804,-0.962703540353105,-0.391323728473572,0.917689519501615,-0.526365791028043
0.612620413464661,-0.28924714547891,-0.190318769603104,0.0989283758758062,0.239782957541007,-0.194087760677358,-0.045695196863649
0.614785149907999,-1.57244348622679,-0.303801390452295,1.26864209577449,0.938122438339542,-1.42054279100064,0.482420352661099
0.616949886351337,-2.79997634593931,-0.3855855401896,2.41439080574971,1.59278094306446,-2.60718357584451,1.01440263278006
0.619114622794675,-3.77390403944689,-0.393009205189714,3.38089483425718,2.0834566223183,-3.57739943685203,1.49394281453373
0.621279359238013,-4.36394687871413,-0.320648411478845,4.04329846723529,2.34229764509649,-4.20362267297471,1.86132502787822
0.623444095681351,-4.59237510800999,-0.194186145081725,4.39818896292826,2.39328062654586,-4.49528203546913,2.10200140892327
0.625608832124689,-4.63051648050488,-0.0468483853268797,4.583668095178,2.33868243291588,-4.60709228784144,2.26840985492556
0.627773568568027,-4.69934935305159,0.0882505499540105,4.7875999030056,2.30554940154879,-4.74347462802859,2.4379252264798
0.629938305011365,-4.93878207131134,0.18384627330941,5.12262834462075,2.37746789900096,-5.03070520796604,2.65323730896508
0.632103041454703,-5.31900138087971,0.225025643540918,5.54402702442063,2.5469878686694,-5.43151420265017,2.88452633398077
0.634267777898041,-5.64929063017615,0.207169562500066,5.85646019267622,2.72106053383804,-5.75287541142619,3.03181487758814
0.636432514341379,-5.69221818976806,0.13253577982664,5.8247539695947,2.77984120497071,-5.75848607968138,2.97864487471067
0.638597250784717,-5.30234085764093,0.0118215475384671,5.3141624051794,2.64525965505123,-5.30825163141016,2.66299197635893
0.640761987228055,-4.47138044774842,-0.129595262152387,4.34178518559603,2.3004878549504,-4.40658281667222,2.10609496172182
0.642926723671393,-3.2790091379819,-0.253513628430604,3.0254955095513,1.76626138320625,-3.1522523237666,1.38599094056035
0.645091460114731,-1.86147798212966,-0.332492908578509,1.52898507355115,1.09698544535408,-1.6952315278404,0.59824608248632
0.647256196558069,-0.426968473289335,-0.36296370212287,0.0640047711664649,0.394966087706103,-0.2454866222279,-0.149479465478203
0.649420933001407,0.769952462652697,-0.346739336344487,-1.11669179899718,-0.211606563154105,0.94332213082494,-0.731715567670836
0.651585669444745,1.523678161332,-0.288056427615428,-1.81173458894743,-0.617810866858286,1.66770637513971,-1.04989550828143
0.653750405888083,1.75741661958372,-0.206158489734705,-1.96357510931843,-0.775629064924508,1.86049586445107,-1.08486679952657
0.655915142331421,1.52156515009573,-0.122301702017425,-1.64386685211315,-0.69963172403915,1.58271600110444,-0.883084277065287
0.658079878774759,0.946275124854481,-0.048761872428998,-0.995036997283478,-0.448756626212741,0.97065606106898,-0.521899434856238
0.660244615218097,0.197868685530779,0.00430369573823874,-0.19356498979254,-0.101086190634509,0.195716837661659,-0.0946306470271505
0.662409351661435,-0.558726573105872,0.0342281119214787,0.592954685027351,0.262249230592197,-0.575840629066611,0.313591398474415
0.664574088104773,-1.19303206057216,0.0526233154179876,1.24565537599015,0.570204372577089,-1.21934371828116,0.64913934570407
0.666738824548111,-1.63350554330104,0.070577027041415,1.70408257034246,0.781464258129813,-1.66879405682175,0.887329798691936
0.668903560991449,-1.87106564585859,0.0849351553962583,1.95600080125485,0.893065245231167,-1.91353322355672,1.02046797832555
0.671068297434787,-1.94227157950669,0.0883285708709405,2.03060015037764,0.926971504317877,-1.98643586494217,1.05946436062429
0.673233033878125,-1.91114002767669,0.0854939413815214,1.99663396905822,0.912823043147586,-1.95388699836746,1.04106395521987
0.675397770321463,-1.83023131273208,0.0927315190160372,1.92296283174812,0.868749896858022,-1.8765970722401,1.00784717538208
0.677562506764801,-1.68322508820111,0.12009968532529,1.8033247735264,0.781562701437911,-1.74327493086376,0.961712229425847
0.679727243208139,-1.38189625395464,0.158776875694041,1.54067312964868,0.611559689130298,-1.46128469180166,0.849725002671359
0.681891979651477,-0.830587063652771,0.19056848629722,1.02115554994999,0.320009288677776,-0.925871306801381,0.605862018123606
0.684056716094815,0.0347412562258285,0.202658292389618,0.167917036163789,-0.118699774307723,-0.0665878899689804,0.185287664276703
0.686221452538153,1.2664714285421,0.191242381027615,-1.07522904751449,-0.72885690478486,1.1708502380283,-0.441993333243437
0.688386188981492,2.9030104982959,0.160706630426664,-2.74230386786923,-1.53185856436128,2.82265718308257,-1.29079861872129
0.69055092542483,4.89956924000725,0.124455403962444,-4.77511383604481,-2.51201232198485,4.83734153802603,-2.32532921604118
0.692715661868168,7.0555419480782,0.101230205706515,-6.95431174237169,-3.57838607689236,7.00492684522494,-3.42654076833259
0.694880398311506,9.0326415700799,0.100206371065539,-8.93243519901436,-4.56642397057272,8.98253838454713,-4.41611441397441
0.697045134754844,10.4810318950135,0.111189013465046,-10.3698428815484,-5.29611045423927,10.425437388281,-5.1293269340417
0.699209871198182,11.1939499028635,0.11679440725233,-11.0771554956112,-5.65537215505791,11.1355526992373,-5.48018054417942
0.70137460764152,11.2163464728362,0.109679437345975,-11.1066670354902,-5.66301295509109,11.1615067541632,-5.49849379907213
0.703539344084858,10.8627532098925,0.0982324245668018,-10.7645207853257,-5.48049281722965,10.8136369976091,-5.33314418037945
0.705704080528196,10.593500329749,0.101051067081401,-10.4924492626676,-5.3472756984152,10.5429747962083,-5.19569909779309
0.707868816971534,10.80227198549,0.129775934032298,-10.6724960514577,-5.46602395976113,10.7373840184738,-5.27136005871269
0.710033553414872,11.6799467082418,0.176751375305449,-11.5031953329364,-5.92834904177363,11.5915710205891,-5.66322197881546
0.71219828985821,13.2126431147825,0.224328606379814,-12.9883145084027,-6.71848586058117,13.1004788115926,-6.38199295101145
0.714363026301548,15.2338264617537,0.258816264206431,-14.9750101975472,-7.74632136298005,15.1044183296505,-7.35809696667041
0.716527762744886,17.4771907038378,0.272715179125303,-17.2044755247125,-8.87495294148157,17.3408331142752,-8.46588017279361
0.718692499188224,19.6309115618812,0.262063421509871,-19.3688481403713,-9.94648749169555,19.4998798511263,-9.55339235943074
0.720857235631562,21.3971962742163,0.225448520333434,-21.1717477538829,-10.8113223972749,21.2844720140496,-10.4731496167747
0.7230219720749,22.542056786227,0.165109157600721,-22.3769476286262,-11.3535829719138,22.4595022074266,-11.1059192355128
0.725186708518238,22.9252538788477,0.0901885726267977,-22.8350653062209,-11.5077212257373,22.8801595925343,-11.3724383667971
0.727351444961576,22.5471186733138,0.0160274638203455,-22.5310912094934,-11.2815730685671,22.5391049414036,-11.2575318728365
0.729516181404914,21.5936811772334,-0.0470065785785663,-21.640687755812,-10.7733372993274,21.6171844665227,-10.8438471671953
0.731680917848252,20.3745562372058,-0.0987476781791767,-20.4733039153849,-10.1379042795133,20.4239300762954,-10.2860257967821
0.73384565429159,19.1803182431741,-0.132019126697162,-19.3123373698713,-9.52414955823848,19.2463278065227,-9.72217824828422
0.736010390734928,18.2110130427164,-0.122589836061238,-18.3336028787777,-9.0442116033276,18.2723079607471,-9.22809635741946
0.738175127178266,17.5821284985867,-0.0561154883411963,-17.6382439869279,-8.76300650512274,17.6101862427573,-8.84717973763454
0.740339863621604,17.332269623984,0.0473256102813524,-17.2849440137026,-8.68979761713266,17.3086068188433,-8.61880920171063
0.742504600064942,17.4557705327499,0.151249904045722,-17.3045206287042,-8.80351021839781,17.380145580727,-8.57663536232923
0.74466933650828,17.9490218061047,0.229821459837942,-17.7192003462668,-9.08942163297132,17.8341110761857,-8.74468944321441
0.746834072951618,18.7825688615022,0.271373806247039,-18.5111950552551,-9.5269713338746,18.6468819583786,-9.11991062450404
0.748998809394956,19.8181358431005,0.271968984525705,-19.5461668585748,-10.0450524138131,19.6821513508376,-9.63709893702453
0.751163545838294,20.7925063389483,0.231871638669789,-20.5606347002785,-10.512188988809,20.6765705196134,-10.1643815308044
0.753328282281632,21.3990138094953,0.155512452014714,-21.2435013574806,-10.777263130755,21.3212575834879,-10.5439944527329
0.75549301872497,21.4001120068626,0.0549189544460265,-21.3451930524166,-10.7275154806543,21.3726525296396,-10.6451370489853
0.757657755168308,20.7465496348355,-0.0439998804310733,-20.7905495152666,-10.3512748772022,20.7685495750511,-10.4172746978488
0.759822491611646,19.660532042488,-0.105216587671523,-19.7657486301596,-9.77765772740826,19.7131403363238,-9.93548260891554
0.761987228054984,18.5738338042715,-0.109955983594621,-18.6837897878661,-9.23193891033844,18.6288117960688,-9.39687288573037
0.764151964498322,17.9328520655824,-0.0750462029394325,-18.0078982685219,-8.9289029313215,17.9703751670521,-9.04147223573064
0.76631670094166,18.0142571238969,-0.02859283206658,-18.0428499559634,-8.99283214591514,18.0285535399302,-9.03572139401501
0.768481437384998,18.8301073657827,0.0171158199315506,-18.8129915458511,-9.42361159285712,18.8215494558169,-9.3979378629598
0.770646173828336,20.1200230008758,0.056427290242868,-20.063595710633,-10.0882251455594,20.0918093557544,-10.003584210195
0.772810910271674,21.4297911413446,0.0750981229982717,-21.3546930183464,-10.7524446321714,21.3922420798455,-10.639797447674
0.774975646715013,22.2840165135446,0.0590128523312059,-22.2250036612134,-11.1715146829379,22.254510087379,-11.0829954044411
0.777140383158351,22.3925051346077,0.0104919986548786,-22.3820131359529,-11.2014985666313,22.3872591352803,-11.185760568649
0.779305119601688,21.7443080561127,-0.0446404938171543,-21.7889485499298,-10.8498337811478,21.7666283030212,-10.9167945218735
0.781469856045027,20.5303095524456,-0.0655817969616417,-20.5958913494073,-10.232363877742,20.5631004509265,-10.3307365731845
0.783634592488365,19.0028411039301,-0.0282200837383162,-19.0310611876684,-9.48731051009588,19.0169511457992,-9.52964063570336
0.785799328931703,17.3890117269774,0.0525023012330912,-17.3365094257443,-8.72075701410526,17.3627605763609,-8.64200356225562
0.787964065375041,15.8627855408383,0.142945298135087,-15.7198402427032,-8.00286541948669,15.7913128917708,-7.78844747228406
0.790128801818379,14.5224762869404,0.219717732389937,-14.3027585545505,-7.37109700966516,14.4126174207454,-7.04152041108026
0.792293538261717,13.3591182961445,0.274272462378889,-13.0848458337656,-6.81669537926167,13.221982064955,-6.40528668569334
0.794458274705055,12.2543242189831,0.306429557397425,-11.9478946615857,-6.28037688819028,12.1011094402844,-5.82073255209414
0.796623011148393,11.0371287804364,0.319422270646727,-10.7177065097897,-5.67827552554157,10.877417645113,-5.19914211957147
0.798787747591731,9.57293164124323,0.31678322881653,-9.2561484124267,-4.94485743502988,9.41454002683497,-4.46968259180509
0.800952484035069,7.820541211896,0.300964350955618,-7.51957686094038,-4.06075278142581,7.67005903641819,-3.60930625499238
0.803117220478407,5.81477336441912,0.273451306590578,-5.54132205782855,-3.04411233550485,5.67804771112384,-2.63393537561898
0.805281956921745,3.60226836068676,0.23614135057589,-3.36612701011087,-1.91920485563133,3.48419768539882,-1.56499282976749
0.807446693365083,1.21117971290087,0.193764976778272,-1.0174147361226,-0.702472344839572,1.11429722451174,-0.411824879672164
0.809611429808421,-1.31913905203172,0.157030782183696,1.47616983421541,0.58105413492401,-1.39765444312356,0.816600308199554
0.811776166251759,-3.92134583708739,0.140160063144216,4.0615059002316,1.89059288697159,-3.9914258686595,2.10083298168791
0.813940902695097,-6.5179675743928,0.146271855272919,6.66423942966572,3.18584785955994,-6.59110350202926,3.40525564246932
0.816105639138435,-9.01045857319085,0.15733546140296,9.16779403459381,4.42656155589394,-9.08912630389233,4.66256474799838
0.818270375581773,-11.2871774845403,0.146145242263766,11.433322726804,5.57051612113824,-11.3602501056721,5.78973398453389
0.820435112025111,-13.310198025887,0.0941093817937517,13.4043074076807,6.60804432204662,-13.3572527167839,6.74920839473725
0.822599848468449,-15.1431416652316,-0.000869897146473342,15.1422717680851,7.57200578118903,-15.1427067166583,7.57070093546932
0.824764584911787,-16.8590008546914,-0.119493466127895,16.7395073885635,8.48924716040965,-16.7992541216275,8.31000696121781
0.826929321355125,-18.4704813606172,-0.224955654655426,18.2455257059617,9.34771850763629,-18.3580035332894,9.01028502565315
0.829094057798463,-19.9203898797496,-0.288575949167719,19.6318139305818,10.1044829144586,-19.7761019051657,9.67161899070706
0.831258794241801,-21.1029397383058,-0.30472128577498,20.7982184525308,10.7038305120404,-20.9505790954183,10.2467485833779
0.833423530685139,-21.9427495742325,-0.273895552244823,21.6688540219876,11.1083225632386,-21.80580179811,10.6974792348714
0.835588267128477,-22.4564710367543,-0.201217595727034,22.2552534410272,11.3288443162407,-22.3558622388908,11.0270179226501
0.837753003571815,-22.7259664381493,-0.110334120634229,22.6156323175151,11.4181502793918,-22.6707993778322,11.2526490984404
0.839917740015153,-22.8402418751808,-0.0257753069577495,22.8144665682231,11.4330085910693,-22.8273542217019,11.3943456306327
0.842082476458491,-22.8478568476391,0.0487879383672383,22.8966447860064,11.3995344546359,-22.8722508168228,11.4727163621868
0.844247212901829,-22.7488220021345,0.117338269924302,22.8661602720588,11.3157418661051,-22.8074911370967,11.4917492709916
0.846411949345167,-22.5448764607115,0.173044962154902,22.7179214228664,11.1859157492783,-22.631398941789,11.4454831925107
0.848576685788505,-22.2708613833609,0.203842743524616,22.4747041268855,11.0335093199181,-22.3727827551232,11.3392734352051
0.850741422231843,-21.9651559733551,0.205212522421014,22.1703684957761,10.879971725467,-22.0677622345656,11.1877905090986
0.852906158675181,-21.6577243094859,0.183361243714885,21.8410855532008,10.7371815328855,-21.7494049313433,11.0122233984578
0.855070895118519,-21.3958294092819,0.154730776321203,21.5505601856031,10.6205493164804,-21.4731947974425,10.8526454809622
0.857235631561857,-21.2345943503804,0.141298086826166,21.3758924372066,10.5466481317771,-21.3052433937935,10.7585952620164
0.859400368005195,-21.2000820270311,0.154738886796372,21.3548209138275,10.5226715701174,-21.2774514704293,10.7547799003119
0.861565104448533,-21.2849046363233,0.185536796391488,21.4704414327148,10.5496839199659,-21.377673034519,10.8279891145531
0.863729840891871,-21.4628269202131,0.213761584740824,21.6765885049539,10.6245326677361,-21.5697077125835,10.9451750448474
0.865894577335209,-21.6878926416725,0.224602314865983,21.9124949565385,10.7316451634033,-21.8001937991055,11.0685486357022
0.868059313778548,-21.8862364656499,0.212404614900406,22.0986410805503,10.8369159253748,-21.9924387731001,11.1555228477254
0.870224050221886,-21.9624108411518,0.18003100576109,22.1424418469129,10.8911899176953,-22.0524263440323,11.161236426337
0.872388786665224,-21.8323080164148,0.139810055392968,21.9721180718077,10.8462489805109,-21.9022130441112,11.0559640636003
0.874553523108562,-21.4722756961126,0.110045087540285,21.5823207836529,10.6811153042862,-21.5272982398828,10.8461829355966
0.8767182595519,-20.9377449741586,0.10045734528263,21.0382023194413,10.418643814438,-20.9879736468,10.569329832362
0.878882995995238,-20.3352723372735,0.10290384860394,20.4381761858775,10.1161842443348,-20.3867242615755,10.2705400172407
0.881047732438576,-19.7903045971689,0.104174498163217,19.8944790953321,9.84306504950285,-19.8423918462505,9.99932679674767
0.883212468881914,-19.4200111489538,0.103706015285933,19.5237171642397,9.65815256683392,-19.4718641565967,9.81371158976282
0.885377205325252,-19.312782855224,0.113505089135174,19.4262879443592,9.59963888304441,-19.3695353997916,9.76989651674717
0.88754194176859,-19.5334782880309,0.140336909722853,19.6738151977538,9.69657068915403,-19.6036467428923,9.90707605373831
0.889706678211928,-20.1174668374708,0.17300268784323,20.290469525314,9.97223207481376,-20.2039681813924,10.2317361065786
0.891871414655266,-21.0193506423507,0.191990031355341,21.2113406737061,10.4136803054977,-21.1153456580284,10.7016653525307
0.894036151098604,-22.0619253490259,0.184804369796142,22.246729718822,10.9385604896149,-22.154327533924,11.2157670443091
0.896200887541942,-22.9497304471447,0.150704695025263,23.1004351421699,11.3995128760597,-23.0250827946573,11.6255699185976
0.89836562398528,-23.3568602236919,0.101408298463514,23.4582685221554,11.6277259626142,-23.4075643729237,11.7798384103095
0.900530360428618,-23.0536197703356,0.0577894526519031,23.1114092229875,11.4979151588419,-23.0825144966616,11.5845993378197
0.902695096871956,-21.9970655533582,0.0359912929661272,22.0330568463243,10.980537130196,-22.0150611998413,11.0345240696452
0.904859833315294,-20.3095763281818,0.039015416838303,20.3485917450201,10.1352804556717,-20.3290840366009,10.1938035809292
0.907024569758632,-18.1963622414537,0.0642437009968931,18.2606059424506,9.06605927022842,-18.2284840919522,9.16242482172376
0.90918930620197,-15.9156403394106,0.103321473495375,16.0189618129059,7.90615943295759,-15.9673010761582,8.06114164320065
0.911354042645308,-13.7845238398082,0.134648549082415,13.9191723888907,6.82493764536291,-13.8518481143495,7.02691046898654
0.913518779088646,-12.1395571966328,0.132537715560239,12.272094912193,6.00350974053626,-12.2058260544129,6.20231631387662
0.915683515531984,-11.2595564569567,0.0830397362260954,11.3425961931828,5.58825836036528,-11.3010763250697,5.71281796470443
0.917848251975322,-11.2931867412498,-0.00930720439331667,11.2838795368565,5.65124697282156,-11.2885331390532,5.63728616623159
0.92001298841866,-12.2044405320497,-0.122938100865371,12.0815024311843,6.16368931645752,-12.142971481617,5.97928216515946
0.922177724861998,-13.7599941791018,-0.234967863672515,13.5250263154293,6.99748102138717,-13.6425102472656,6.6450292258784
0.924342461305336,-15.5739232315459,-0.340742193536118,15.2331810380098,7.95733271254103,-15.4035521347779,7.44621942223685
0.926507197748674,-17.1770071001682,-0.449588196389974,16.7274189037783,8.8132976482791,-16.9522130019732,8.13891535369414
0.928671934192012,-18.1131532513775,-0.563158338645022,17.5499949127325,9.33815579501125,-17.831574082055,8.49341828704372
0.93083667063535,-18.088569892044,-0.665379774614594,17.4231901174294,9.37697483332931,-17.7558800047367,8.37890517140742
0.933001407078688,-17.0807139266787,-0.735888239329922,16.3448256873488,8.90830108300432,-16.7127698070138,7.80446872400944
0.935166143522026,-15.3130633059221,-0.764760659758316,14.5483026461638,8.03891198284023,-14.930682976043,6.89177099320276
0.937330879965364,-13.1449867964965,-0.74096430609889,12.4040224903976,6.94297555129769,-12.774504643447,5.83152909214935
0.939495616408702,-10.96574412802,-0.650390744637533,10.3153533833824,5.80806743632875,-10.6405487557012,4.83248131937244
0.94166035285204,-9.14613297061943,-0.507442311454768,8.63869065916466,4.8267876410371,-8.89241181489204,4.06562417385495
0.943825089295378,-8.00941587536597,-0.356733842205689,7.65268203316028,4.18307485878583,-7.83104895426312,3.6479740954773
0.945989825738716,-7.74370823448,-0.232069584153913,7.51163865032608,3.98788890931695,-7.62767344240304,3.63978453308609
0.948154562182054,-8.32294796382796,-0.1396261446267,8.18332181920126,4.23128705422733,-8.25313489151461,4.02184783728728
0.950319298625392,-9.54966351485209,-0.07469174240305,9.47497177244903,4.81217762862757,-9.51231764365056,4.70014001502299
0.95248403506873,-11.1736464055469,-0.0361208807376632,11.1375255248093,5.6048836431423,-11.1555859651781,5.55070232203581
0.954648771512068,-12.9546295229065,-0.0266374342277358,12.9279920886788,6.49063347856712,-12.9413108057926,6.45067732722552
0.956813507955406,-14.6309444228575,-0.0447823483007461,14.5861620745568,7.33786338557914,-14.6085532487072,7.27068986312802
0.958978244398744,-15.8922604722055,-0.0858756459405794,15.806384826265,7.98906805907306,-15.8493226492352,7.86025459016219
0.961142980842082,-16.4390881027934,-0.146357862993696,16.2927302397997,8.29272298289355,-16.3659091712966,8.073186188403
0.963307717285421,-16.0910001152678,-0.208835686167968,15.8821644290998,8.14991790071787,-15.9865822721838,7.83666437146591
0.965472453728759,-14.8673147752713,-0.231905222053207,14.6354095532181,7.54960999866226,-14.7513621642447,7.20175216558245
0.967637190172097,-12.9890293095605,-0.181220780558327,12.8078085290021,6.5851250450594,-12.8984189192813,6.31329387422191
0.969801926615435,-10.7944100922493,-0.0694485943747385,10.7249614978745,5.43192934331201,-10.7596857950619,5.3277564517499
0.971966663058773,-8.62738744558394,0.0512797295199372,8.67866717510388,4.288053858032,-8.65302731034391,4.36497345231191
0.974131399502111,-6.77167127581038,0.12798421837922,6.8996554941896,3.32184352871558,-6.83566338499999,3.51381985628441
0.976296135945449,-5.42598008359976,0.127556252417151,5.55353633601691,2.64921191559131,-5.48975820980834,2.84054629421703
0.978460872388787,-4.6731060083943,0.0374569770729711,4.71056298546727,2.31782451566066,-4.69183449693078,2.37400998127012
0.980625608832125,-4.45507356027134,-0.133490913619501,4.32158264665184,2.29428223694542,-4.38832810346159,2.09404586651617
0.982790345275463,-4.59400962016578,-0.347409675594174,4.24659994457161,2.47070964787998,-4.42030478236869,1.94959513448872
0.984955081718801,-4.84562889592226,-0.535465167336393,4.31016372858587,2.69054703162933,-4.57789631225407,1.88734928062474
0.987119818162139,-4.95838181331062,-0.628176211742256,4.33020560156836,2.79327901252644,-4.64429370743949,1.85101469491305
0.989284554605477,-4.76271950383485,-0.599548214143849,4.163171289691,2.68113385898935,-4.46294539676292,1.78181153777358
0.991449291048815,-4.26237638251562,-0.471604757872895,3.79077162464272,2.36699057019426,-4.02657400357917,1.65958343338491
0.993614027492153,-3.60059219190171,-0.292838580648636,3.30775361125308,1.94671538627518,-3.4541729015774,1.50745751530222
0.995778763935491,-2.89156455174695,-0.124136333529206,2.76742821821775,1.50785044263808,-2.82949638498235,1.32164594234427
0.997943500378829,-2.09698908163982,-0.0171782299045307,2.07981085173529,1.05708365577218,-2.08839996668756,1.03131631091538
1.00010823682217,-1.08749168244944,0.00752304490130284,1.09501472735074,0.539984318774068,-1.09125320490009,0.551268886126022
1.0022729732655,0.191214352481637,-0.0365036950313669,-0.227718047513004,-0.0773553287251352,0.209466199997321,-0.132110871272185
1.00443770970884,1.63413565378358,-0.11049030711928,-1.74462596090286,-0.761822673332152,1.68938080734322,-0.927558134011072
1.00660244615218,3.0263098291987,-0.165900134803388,-3.19220996400209,-1.43020484719766,3.1092598966004,-1.67905504940274
1.00876718259552,4.14086738851351,-0.163462774033472,-4.30433016254698,-1.98870230724002,4.22259877553025,-2.23389646829023
1.01093191903886,4.83102517545857,-0.0933448347289494,-4.92437001018752,-2.36884017036481,4.87769759282304,-2.50885742245823
1.01309665548219,5.09119872841693,0.0183073154859452,-5.07289141293098,-2.55475302195144,5.08204507067395,-2.52729204872252
1.01526139192553,5.05126398527343,0.133080687500814,-4.91818329777261,-2.59217233638712,4.98472364152302,-2.3925513051359
1.01742612836887,4.91624713531034,0.226665652247105,-4.68958148306323,-2.57145639377872,4.80291430918678,-2.23145791540806
1.01959086481221,4.88319928617024,0.291244010865098,-4.59195527530514,-2.58722164851767,4.73757728073769,-2.15035563222002
1.02175560125555,5.05010709537407,0.327392707586885,-4.72271438778719,-2.68874990148048,4.88641074158063,-2.19766084010015
1.02392033769889,5.37287262269357,0.338129679497395,-5.03474294319617,-2.85550115109548,5.20380778294487,-2.34830663184939
1.02608507414222,5.72111431616354,0.325410813811448,-5.39570350235209,-3.02326256498749,5.55840890925781,-2.53514634427032
1.02824981058556,5.98204269955756,0.289014862059168,-5.69302783749839,-3.13552878080836,5.83753526852798,-2.70200648771961
1.0304145470289,6.10953509364119,0.227705205325532,-5.88182988831566,-3.16862014948336,5.99568249097842,-2.82706234149506
1.03257928347224,6.08577263666878,0.142618126345719,-5.94315451032306,-3.11419538150725,6.01446357349592,-2.90026819198867
1.03474401991558,5.87621590845182,0.042784828859765,-5.83343107959205,-2.95950036865579,5.85482349402194,-2.89532312536614
1.03690875635891,5.44509229457133,-0.0533620230237828,-5.49845431759511,-2.69586513577377,5.47177330608322,-2.77590817030945
1.03907349280225,4.78793370039597,-0.127124448980916,-4.91505814937689,-2.33040462570753,4.85149592488643,-2.5210912991789
1.04123822924559,3.93678015289376,-0.163318883090821,-4.10009903598458,-1.88673063490147,4.01843959443917,-2.1317089595377
1.04340296568893,2.94956147357783,-0.144469786113994,-3.09403125969183,-1.40254584373192,3.02179636663483,-1.61925052290291
1.04556770213227,1.90421178103847,-0.0657075836409418,-1.96991936467941,-0.919252098698764,1.93706557285894,-1.01781347416018
1.0477324385756,0.909706780988053,0.046065728318865,-0.863641052669188,-0.477886254653459,0.88667391682862,-0.408787662175161
1.04989717501894,0.114807176750812,0.149431379056573,0.0346242023057608,-0.132119277903692,0.0400914872225256,0.0920277906811668
1.05206191146228,-0.335956904771678,0.214991450961574,0.550948355733252,0.0604827269050516,-0.443452630252465,0.382969903347413
1.05422664790562,-0.415699220714014,0.22910540284954,0.644804623563555,0.093296908932237,-0.530251922138784,0.436955013206547
1.05639138434896,-0.307246838105844,0.188706411189195,0.495953249295039,0.0592702134583242,-0.401600043700441,0.342329830242117
1.05855612079229,-0.345113847244033,0.100179489618861,0.445293336862894,0.122467178812586,-0.395203592053463,0.272736413240877
1.06072085723563,-0.811315973558717,-0.0173500137229965,0.79396595983572,0.414332993640857,-0.802640966697219,0.388307973056362
1.06288559367897,-1.76097717302362,-0.130811038988174,1.63016613403544,0.945894106005897,-1.69557165352953,0.749677547523635
1.06505033012231,-3.03954034803835,-0.201596506079736,2.83794384195862,1.62056842705905,-2.93874209499849,1.31817366793944
1.06721506656565,-4.43410712201159,-0.200391399185488,4.2337157228261,2.31724926059854,-4.33391142241885,2.01666216182031
1.06937980300898,-5.79825949941007,-0.125338858483858,5.67292064092621,2.96179917894696,-5.73559007016814,2.77379089122118
1.07154453945232,-7.09372967449694,-0.00799170110488601,7.08573797339205,3.55086068780091,-7.08973382394449,3.53887313614358
1.07370927589566,-8.3597750865779,0.110271972267482,8.47004705884539,4.12475155715521,-8.41491107271165,4.29015951555643
1.075874012339,-9.63845782084353,0.204272254578132,9.84273007542166,4.7170927831327,-9.7405939481326,5.0235011649999
1.07803874878234,-10.9195862603138,0.267143426360781,11.1867296866746,5.3262214169765,-11.0531579734942,5.72693655651767
1.08020348522567,-12.1447864590908,0.3021361302597,12.4469225893505,5.92132516441556,-12.2958545242207,6.37452935980511
1.08236822166901,-13.2428383490798,0.316651290722691,13.5594896398025,6.46309352917856,-13.4011639944411,6.93807046526259
1.08453295811235,-14.1594986720588,0.318570982293004,14.4780696543519,6.92046384488292,-14.3187841632054,7.39832031832243
1.08669769455569,-14.8579618914383,0.314432391220735,15.1723942826591,7.2717647501088,-15.0151780870487,7.7434133369399
1.08886243099903,-15.294891073986,0.308835046090035,15.6037261200761,7.493028013948,-15.449308597031,7.95628058308305
1.09102716744236,-15.4339389587741,0.304519550820151,15.7384585095943,7.56470970397699,-15.5861987341842,8.02148903020722
1.0931919038857,-15.2770611036112,0.302692444076205,15.5797535476874,7.48718432976751,-15.4284073256493,7.94122299588182
1.09535664032904,-14.8293945689346,0.303326842517727,15.1327214114524,7.26303386320846,-14.9810579901935,7.71802412698505
1.09752137677238,-14.056755612341,0.305310276286646,14.3620658886277,6.8757226680272,-14.2094107504844,7.33368808245717
1.09968611321572,-12.9178068379337,0.306433196482838,13.2242400344165,6.30568682072541,-13.0710234361751,6.76533661544967
1.10185084965905,-11.4378063966163,0.303320583285737,11.741126979902,5.56724290666529,-11.5894666882592,6.02222378159389
1.10401558610239,-9.76043051091219,0.291512860489231,10.0519433714014,4.73445882521148,-9.9061869411568,5.17172811594533
1.10618032254573,-8.13795235366782,0.265999825948188,8.40395217961601,3.93597626385982,-8.27095226664192,4.3349760027821
1.10834505898907,-6.88149517358657,0.222582961212574,7.10407813479915,3.329456106187,-6.99278665419286,3.66333054800586
1.11050979543241,-6.29699248870713,0.16044150912853,6.45743399783566,3.0682754897893,-6.37721324327139,3.30893775348209
1.11267453187574,-6.60513564776204,0.0861303542086267,6.69126600197067,3.25950264677671,-6.64820082486636,3.38869817808965
1.11483926831908,-7.86787578959698,0.0131320296444619,7.88100781924145,3.92737187997626,-7.87444180441921,3.94706992444295
1.11700400476242,-9.94573385502185,-0.049319169738091,9.89641468528376,4.99752651237997,-9.9210742701528,4.92354775777283
1.11916874120576,-12.5285259878878,-0.101565298720742,12.4269606891671,6.31504564330428,-12.4777433385274,6.16269769522316
1.1213334776491,-15.2561016536683,-0.136396230538185,15.1197054231301,7.69624894210324,-15.1879035383992,7.49165459629597
1.12349821409243,-17.8302160401615,-0.129023082270712,17.7011929578908,8.9796195612161,-17.7657044990261,8.78608493781003
1.12566295053577,-20.046605355253,-0.0639713220546734,19.9826340331983,10.0552883386538,-20.0146196942256,9.95933135557181
1.12782768697911,-21.7897177951511,0.0404425098736676,21.8301603050248,10.8746376426387,-21.8099390500879,10.9353014074492
1.12999242342245,-22.9919687477021,0.150091455460329,23.1420602031624,11.4209386461209,-23.0670144754322,11.6460758293114
1.13215715986579,-23.5134630723215,0.24179956633986,23.7552626386614,11.6358317529908,-23.6343628554915,11.9985311025006
1.13432189630912,-22.9842208596944,0.306119784025704,23.2903406437201,11.3390505378343,-23.1372807517072,11.7982302138729
1.13648663275246,-20.7340616608073,0.339498476497147,21.0735601373045,10.1972815921551,-20.9038108990559,10.7065293069008
1.1386513691958,-15.8882080501997,0.338586226692409,16.2267942768921,7.77481091175366,-16.0575011635459,8.28269025179227
1.14081610563914,-7.58701636066648,0.297365459913984,7.88438182058046,3.64482545037625,-7.73569909062347,4.09087364024722
1.14298084208248,4.76339778412843,0.207575695268628,-4.5558220888598,-2.48548673969853,4.65960993649411,-2.17412319679559
1.14514557852581,21.3175515271941,0.0629608548547056,-21.2545906723394,-10.6902561910244,21.2860710997668,-10.5958149087424
1.14731031496915,41.7416009171703,-0.132164033598813,-41.8737649507691,-20.8047184417858,41.8076829339697,-21.002964492184
1.14947505141249,65.1750281450804,-0.349975104546519,-65.5250032496269,-32.4125265202669,65.3500156973536,-32.9374891770867
1.15163978785583,90.1387942970454,-0.53443116635163,-90.673225463397,-44.8021815653469,90.4060098802212,-45.6038283148743
1.15380452429917,114.537030350143,-0.630464192706516,-115.16749454285,-56.9532830787185,114.852262446497,-57.8989793677782
1.1559692607425,135.875987209012,-0.62758048637532,-136.503567695387,-67.6242033613183,136.1897774522,-68.5655740908813
1.15813399718584,151.678745733533,-0.557450747141985,-152.236196480675,-75.5606474931957,151.957471107104,-76.3968236139087
1.16029873362918,160.007320438811,-0.45230486632327,-160.459625305134,-79.7775077862439,160.233472871973,-80.4559650857288
1.16246347007252,159.92720936095,-0.326571440172043,-160.253780801122,-79.8003189603888,160.090495081036,-80.2901761206469
1.16462820651586,151.7264978898,-0.197059838872574,-151.923557728673,-75.7647190254638,151.825027809237,-76.0603087837727
1.16679294295919,136.813201046485,-0.0991703379410112,-136.912371384426,-68.357015354272,136.862786215456,-68.5057708611835
1.16895767940253,117.356385272625,-0.0680611347250575,-117.42444640735,-58.64416206895,117.390415839988,-58.7462537710376
1.17112241584587,95.8324841282691,-0.111228600934464,-95.9437127292036,-47.8606277636673,95.8880984287364,-48.027470665069
1.17328715228921,74.625779150928,-0.19950093252009,-74.8252800834481,-37.213139109204,74.7255296171881,-37.5123905079841
1.17545188873255,55.7206827047602,-0.276306879982842,-55.9969895847431,-27.7221879123887,55.8588361447516,-28.136648232363
1.17761662517588,40.4692108884549,-0.293033854961669,-40.7622447434165,-20.0880885167466,40.6157278159357,-20.5276392991891
1.17978136161922,29.4604514678168,-0.244951042478396,-29.7054025102952,-14.6077502126692,29.582926989056,-14.9751767763868
1.18194609806256,22.5476237010373,-0.158571645288955,-22.7061953463262,-11.1945260278742,22.6269095236818,-11.4323834958076
1.1841108345059,19.0343194439092,-0.0544940628882258,-19.0888135067975,-9.4899126905105,19.0615664753533,-9.57165378484284
1.18627557094924,17.9420969016809,0.0573463635106792,-17.8847505381702,-8.99972163259578,17.9134237199255,-8.91370208732976
1.18844030739257,18.2469768315442,0.163029841403947,-18.0839469901403,-9.20500333647409,18.1654619108423,-8.96045857436817
1.19060504383591,19.0114893727377,0.246666368344214,-18.7648230043935,-9.62907787054096,18.8881561885656,-9.25907831802464
1.19276978027925,19.4636260357057,0.29880249604315,-19.1648235396626,-9.88121426587443,19.3142247876841,-9.43301052180971
1.19493451672259,19.1093350656911,0.31503332819,-18.7943017375011,-9.71218419694054,18.9518184015961,-9.23963420465554
1.19709925316593,17.8109935788672,0.291478371671929,-17.5195152071953,-9.05123597526958,17.6652543930313,-8.61401841776168
1.19926398960927,15.7238101248105,0.223508744748924,-15.5003013800616,-7.9736594347797,15.612055752436,-7.63839631765632
1.2014287260526,13.1579946070898,0.108157914039603,-13.0498366930502,-6.63307626056468,13.10391565007,-6.47083938950528
1.20359346249594,10.4807833751778,-0.0495072134572345,-10.5302905886351,-5.21563808086029,10.5055369819064,-5.28989890104615
1.20575819893928,8.03590534511537,-0.226170625918599,-8.26207597103397,-3.90486735959838,8.14899065807467,-4.24412329847628
1.20792293538262,6.04038109731235,-0.373000773497037,-6.41338187080938,-2.83369016190766,6.22688148406087,-3.39319132215321
1.21008767182596,4.53056084204565,-0.431036448717251,-4.9615972907629,-2.0497621966642,4.74607906640427,-2.69631686974007
1.21225240826929,3.42077270628613,-0.372755505912519,-3.79352821219865,-1.5240086001868,3.60715045924239,-2.08314185905558
1.21441714471263,2.61059579406944,-0.227013703053788,-2.83760949712323,-1.19179104550783,2.72410264559633,-1.53231160008851
1.21658188115597,2.03358764541247,-0.0540961137935838,-2.08768375920605,-0.989745765809442,2.06063570230926,-1.07088993649982
1.21874661759931,1.63655886382975,0.0959827014007781,-1.54057616242897,-0.866270782615263,1.58856751312936,-0.722296730514096
1.22091135404265,1.37095770545511,0.199230147436842,-1.17172755801827,-0.785093926445977,1.27134263173669,-0.486248705290714
1.22307609048598,1.21888120701928,0.251095170339655,-0.967786036679625,-0.734988188679467,1.09333362184945,-0.358345433169985
1.22524082692932,1.18805380898615,0.25727923724092,-0.930774571745234,-0.722666523113538,1.05941419036569,-0.336747667252157
1.22740556337266,1.25487594918746,0.22862298822706,-1.0262529609604,-0.741749468707262,1.14056445507393,-0.398814986366672
1.229570299816,1.32110437789657,0.179857847044395,-1.14124653085218,-0.750481112470485,1.23117545437438,-0.480694341903892
1.23173503625934,1.23463254917351,0.131307132279847,-1.10332541689366,-0.682969840726679,1.16897898303359,-0.486009142306909
1.23389977270267,0.859252514587666,0.106376384578599,-0.752876130009068,-0.482814449583133,0.806064322298367,-0.323249872715234
1.23606450914601,0.151680095399172,0.117417110355819,-0.0342629850433527,-0.134548602877496,0.0929715402212623,0.0415770626562333
1.23822924558935,-0.814899512018172,0.155812068110693,0.970711580128865,0.32954372195374,-0.892805546073519,0.563261824119779
1.24039398203269,-1.89536796357189,0.20288456047937,2.09825252405126,0.846241701546258,-1.99681024381157,1.15056854226531
1.24255871847603,-2.93218003514093,0.244627378743768,3.1768074138847,1.34377632819858,-3.05449372451281,1.71071739631423
1.24472345491936,-3.79952595918965,0.273934851606839,4.07346081079649,1.76279555379141,-3.93649338499307,2.17369783120166
1.2468881913627,-4.43245366130748,0.287193103882202,4.71964676518968,2.07263027871264,-4.57605021324858,2.50341993453594
1.24905292780604,-4.83355663409213,0.281795293767274,5.11535192785941,2.27588067016243,-4.97445428097577,2.69857361081334
1.25121766424938,-5.05134102167341,0.2550632491636,5.30640427083701,2.3981388862549,-5.17887264625521,2.7807337600003
1.25338240069272,-5.15418866593546,0.204879395947723,5.35906806188319,2.47465463499387,-5.25662836390933,2.78197372891545
1.25554713713605,-5.20848236469945,0.132235490567998,5.34071785526745,2.53812343706573,-5.27460010998345,2.73647667291772
1.25771187357939,-5.25025969972501,0.0457369572836162,5.29599665700862,2.6022613712207,-5.27312817836681,2.67086680714612
1.25987661002273,-5.28601660575373,-0.0380113562493152,5.24800524950441,2.66201398100152,-5.26701092762907,2.60499694662755
1.26204134646607,-5.32502664616308,-0.104658185312958,5.22036846085012,2.71484241573802,-5.2726975535066,2.55785513776858
1.26420608290941,-5.39493996505703,-0.146763527545174,5.24817643751186,2.7708517463011,-5.32155820128445,2.55070645498334
1.26637081935274,-5.53315668923247,-0.152470623933637,5.38068606529883,2.84281365658305,-5.45692137726565,2.6141077206826
1.26853555579608,-5.74626093604169,-0.108110052139679,5.63815088390201,2.92718549409069,-5.69220590997185,2.76502041588117
1.27070029223942,-5.95939971759324,-0.0213717865415395,5.9380279310517,2.99038575206739,-5.94871382432247,2.95832807225508
1.27286502868276,-6.04372820746443,0.0750815688562882,6.11880977632071,2.98432331930407,-6.08126899189257,3.0969456725885
1.2750297651261,-5.9156793503594,0.146192936066713,6.06187228642611,2.88474320714634,-5.98877581839275,3.10403261124641
1.27719450156943,-5.59390216006759,0.170636235979835,5.76453839604742,2.71163296204388,-5.6792202780575,2.96758731601363
1.27935923801277,-5.16666276223415,0.141295502723786,5.30795826495794,2.51268362975518,-5.23731051359605,2.72462688384086
1.28152397445611,-4.73279211585049,0.063438352745542,4.79623046859603,2.33467688155247,-4.76451129222326,2.42983441067078
1.28368871089945,-4.36308580608872,-0.0429446643542362,4.32014114173448,2.20301523522148,-4.3416134739116,2.13859823869012
1.28585344734279,-4.05262460260201,-0.142968491368242,3.90965611123377,2.09779654698513,-3.98114035691789,1.88334380993276
1.28801818378612,-3.69469825766751,-0.202107879404366,3.49259037826315,1.94840306853594,-3.59364431796533,1.64524124942939
1.29018292022946,-3.16401481383818,-0.207721108034375,2.9562937058038,1.68586796093628,-3.06015425982099,1.37428629888471
1.2923476566728,-2.45109007110614,-0.170143271817276,2.28094679928886,1.31061667146171,-2.3660184351975,1.05540176373579
1.29451239311614,-1.69694399520478,-0.110148551062453,1.58679544414232,0.903546273133615,-1.64186971967355,0.738323446539935
1.29667712955948,-1.12115397304646,-0.049727664808719,1.07142630823774,0.58544081892759,-1.0962901406421,0.510849321714511
1.29884186600281,-0.920388907456072,0.000868694840019613,0.921257602296092,0.459760106308026,-0.920823254876082,0.461063148568056
1.30100660244615,-1.15205947553645,0.0496244714478031,1.20168394698425,0.551217502044322,-1.17687171126035,0.625654209216027
1.30317133888949,-1.66068788984813,0.106204109973903,1.76689199982204,0.777241889937116,-1.71378994483509,0.93654805489797
1.30533607533283,-2.13757868918407,0.165464735479819,2.30304342466389,0.986056976852124,-2.22031105692398,1.23425408007185
1.30750081177617,-2.29012388174127,0.213992001719304,2.50411588346057,1.03806594001098,-2.39711988260092,1.35905394258994
1.3096655482195,-1.99593850149984,0.242603242905642,2.23854174440548,0.876667629297097,-2.11724012295266,1.24057249365556
1.31183028466284,-1.32789287308506,0.248155394555595,1.57604826764066,0.539868739264734,-1.45197057036286,0.912101831098126
1.31399502110618,-0.459712354884005,0.231097383536744,0.690809738420748,0.11430748567363,-0.575261046652376,0.460953560978746
1.31615975754952,0.44029615413433,0.194912951069836,-0.245383203064494,-0.317604552602083,0.342839678599412,-0.025235125997329
1.31832449399286,1.25117216608541,0.147446709064513,-1.1037254570209,-0.699309437574962,1.17744881155315,-0.478139373978192
1.32048923043619,1.89543661363257,0.103714307301358,-1.79172230633121,-0.999575460466963,1.84357945998189,-0.844003999514927
1.32265396687953,2.35211792673786,0.0835988015595196,-2.26851912517834,-1.21785836414869,2.3103185259581,-1.09246016180941
1.32481870332287,2.68725238646189,0.0974902554715211,-2.58976213099037,-1.39237132096671,2.63850725872613,-1.24613593775943
1.32698343976621,3.05053430797489,0.136052425913721,-2.91448188206116,-1.5932933669443,2.98250809501802,-1.38921472807372
1.32914817620955,3.61515100867911,0.180917710611769,-3.43423329806734,-1.89803435964544,3.52469215337322,-1.62665779372778
1.33131291265288,4.48502800422528,0.219384773649186,-4.2656432305761,-2.35220638893724,4.37533561740069,-2.02312922846346
1.33347764909622,5.63351052208182,0.246775938086072,-5.38673458399575,-2.94014323008395,5.51012255303878,-2.56997932295484
1.33564238553956,6.91909161369597,0.263182422640484,-6.65590919105548,-3.59113701816823,6.78750040237573,-3.1963633842075
1.3378071219829,8.15111894290598,0.270932751679595,-7.88018619122639,-4.21102584729279,8.01565256706618,-3.8046267197734
1.33997185842624,9.16874876907053,0.272929797487951,-8.89581897158258,-4.72083928327924,9.03228387032656,-4.31144458704731
1.34213659486957,9.91723437023339,0.271744556414706,-9.64548981381868,-5.09448946332405,9.78136209202603,-4.68687262870199
1.34430133131291,10.4631033358042,0.26925626735717,-10.193847068447,-5.36617980158067,10.3284752021256,-4.96229540054491
1.34646606775625,10.9180482030022,0.26662563756098,-10.6514225654412,-5.59233692028158,10.7847353842217,-5.19239846394011
1.34863080419959,11.3614280399711,0.264430960353194,-11.096997079618,-5.81292950016217,11.2292125597945,-5.41628305963238
1.35079554064293,11.8243935640352,0.262852718253605,-11.5615408457816,-6.04362314114442,11.6929672049084,-5.64934406376401
1.35296027708626,12.2950838467284,0.261842577088028,-12.0332412696404,-6.27846321190823,12.1641625581844,-5.88569934627619
1.3551250135296,12.7417299249529,0.261250002045911,-12.480479922907,-6.50148996349942,12.61110492393,-6.10961496043055
1.35728974997294,13.1590556962268,0.260903224843844,-12.898152471383,-6.70997946053534,13.0286040838049,-6.31862462326957
1.35945448641628,13.5752532879899,0.260653409905357,-13.3145998780846,-6.91795334894765,13.4449265830373,-6.52697323408961
1.36161922285962,14.0195911421063,0.260395044792717,-13.7591960973136,-7.13999309344953,13.88939361971,-6.74940052626046
1.36378395930295,14.490013306077,0.26007492744919,-14.2299383786278,-7.37504411676311,14.3599758423524,-6.98493172558933
1.36594869574629,14.914311707935,0.259698853912329,-14.6546128540227,-7.58700528092366,14.7844622809788,-7.19745700005516
1.36811343218963,15.1588065888473,0.259340466375879,-14.8994661224714,-7.7090735276116,15.0291363556594,-7.32006282804778
1.37027816863297,15.1248693315963,0.259151195203744,-14.8657181363926,-7.69201026340002,14.9952937339944,-7.30328347059441
1.37244290507631,14.831159998482,0.259363957915528,-14.5717960405665,-7.54526197819877,14.7014780195242,-7.15621604132548
1.37460764151965,14.3999540355844,0.260276544183577,-14.1396774914009,-7.33011528988401,14.2698157634927,-6.93970047360864
1.37677237796298,14.0094905391723,0.262194398489601,-13.7472961406827,-7.13584246883097,13.8783933399275,-6.74255087109657
1.37893711440632,13.861154069396,0.265309046578176,-13.5958450228178,-7.06323155798709,13.7284995461069,-6.66526798811983
1.38110185084966,14.1015059653678,0.269491621559256,-13.8320143438086,-7.18549879346353,13.9667601545882,-6.78126136112465
1.383266587293,14.7026160650164,0.27399652039454,-14.4286195446218,-7.48830629270546,14.5656178048191,-7.07731151211365
1.38543132373634,15.4315992317466,0.277104978913935,-15.1544942528327,-7.85435210533026,15.2930467422896,-7.43869463695936
1.38759606017967,15.9708595947318,0.275798399843067,-15.6950611948887,-8.12332899728741,15.8329603948102,-7.70963139752281
1.38976079662301,16.1002551082747,0.265638449706901,-15.8346166585678,-8.18294677899078,15.9674358834212,-7.78448910443043
1.39192553306635,15.804990650525,0.241137239779674,-15.5638534107453,-8.02306394515232,15.6844220306351,-7.6613580854828
1.39409026950969,15.237166944405,0.197000958003104,-15.0401659864019,-7.71708395120404,15.1386664654034,-7.42158251419938
1.39625500595303,14.5803526804131,0.130673229817808,-14.4496794505953,-7.35551295511546,14.5150160655042,-7.15950311038875
1.39841974239636,13.908566204953,0.0465077780640828,-13.8620584268889,-6.97753699150854,13.8853123159209,-6.90777532441241
1.4005844788397,13.1113857393243,-0.0384493507216039,-13.1498350900459,-6.53646819430135,13.1306104146851,-6.59414222038376
1.40274921528304,11.9629071852454,-0.093527244826641,-12.056434430072,-5.93468997020936,12.0096708076587,-6.07498083744933
1.40491395172638,10.30619801099,-0.0913823618100201,-10.3975803728,-5.10740782459,10.351889191895,-5.24448136730503
1.40707868816972,8.16856308571735,-0.0331905481815957,-8.20175363389895,-4.06768626876788,8.18515835980815,-4.11747209104027
1.40924342461305,5.72932207476856,0.0512104184647825,-5.67811165630378,-2.89026624661667,5.70371686553617,-2.8134506189195
1.41140816105639,3.25375620866714,0.128343948064337,-3.1254122606028,-1.69105007836574,3.18958423463497,-1.49853415626923
1.41357289749973,1.03222856102337,0.178232497247214,-0.853996063776159,-0.605230529135294,0.943112312399766,-0.337881783264473
1.41573763394307,-0.707501275709575,0.194250462268915,0.90175173797849,0.25662540672033,-0.804626506844032,0.548001100123702
1.41790237038641,-1.87318414988653,0.178947546512907,2.05213169639943,0.84711830168681,-1.96265792314298,1.11553962145617
1.42006710682974,-2.55976817908956,0.142412059995301,2.70218023908486,1.20867805954713,-2.63097420908721,1.42229614954008
1.42223184327308,-3.07945102340125,0.103040430408725,3.18249145380997,1.48820529649626,-3.13097123860561,1.64276594210935
1.42439657971642,-3.88536150661841,0.0840338162520943,3.9693953228705,1.90066384518316,-3.92737841474446,2.0267145695613
1.42656131615976,-5.37066895592565,0.098442590869304,5.46911154679496,2.63611318252817,-5.4198902513603,2.78377706883213
1.4287260526031,-7.67376575217043,0.1386752817332,7.81244103390363,3.76754523521861,-7.74310339303703,3.97555815781841
1.43089078904643,-10.6424120051459,0.187045532987238,10.8294575381331,5.22768323607933,-10.7359347716395,5.50825153556019
1.43305552548977,-13.9692051525921,0.230280947939022,14.1994861005311,6.86946210232652,-14.0843456265616,7.21488352423505
1.43522026193311,-17.3556092176123,0.261600072336771,17.617209289949,8.54700457263774,-17.4864092537806,8.9394046811429
1.43738499837645,-20.5799416475094,0.277154848459496,20.8570964959689,10.151393399525,-20.7185190717391,10.5671256722142
1.43954973481979,-23.4696466687564,0.273384638090242,23.7430313068467,11.5981310153331,-23.6063389878016,12.0082079724685
1.44171447126312,-25.8454895617188,0.245794440755622,26.0912840024744,12.7998475604816,-25.9683867820966,13.168539221615
1.44387920770646,-27.5082297438148,0.189557128715125,27.6977868725299,13.6593363075498,-27.6030083081724,13.9436720006225
1.4460439441498,-28.2963916315364,0.102314149102607,28.398705780639,14.0970387412169,-28.3475487060877,14.2505099648708
1.44820868059314,-28.184163751746,-0.0105540462613889,28.1736097054846,14.0973588990037,-28.1788867286153,14.0815278296116
1.45037341703648,-27.3483062906217,-0.12829235749988,27.2200139331218,13.7382993240608,-27.2841601118717,13.545860787811
1.45253815347981,-26.1452641457613,-0.217145770263089,25.9281183754982,13.1812049580122,-26.0366912606297,12.8554863026175
1.45470288992315,-25.0236817855208,-0.255917789642028,24.7677639958788,12.6397997875814,-24.8957228906998,12.2559231031184
1.45686762636649,-24.4135592647483,-0.251987324036323,24.161571940712,12.3327732943923,-24.2875656027301,11.9547923083378
1.45903236280983,-24.5805981015231,-0.220199922624511,24.3603981788986,12.4003990120738,-24.4704981402109,12.0700991281371
1.46119709925317,-25.5066236986099,-0.16521002069336,25.3414136779165,12.8359168596516,-25.4240186882632,12.5881018286116
1.4633618356965,-26.921799309414,-0.0898288595949206,26.8319704498191,13.5058140845045,-26.8768848796165,13.3710707951121
1.46552657213984,-28.47120712185,-0.00560588880255203,28.4656012330475,14.2384065053263,-28.4684041774488,14.2299976721225
1.46769130858318,-29.8647651686156,0.0666759766296118,29.9314411452452,14.899044595993,-29.8981031569304,14.9990585609374
1.46985604502652,-30.9424692659805,0.107677436215859,31.0501467021964,15.4173959148823,-30.9963079840884,15.5789120692061
1.47202078146986,-31.6775223388721,0.111184280975502,31.7887066198476,15.7831690289483,-31.7331144793599,15.9499454504116
1.47418551791319,-32.1260825089262,0.0864322987638197,32.21251480769,16.0198251050812,-32.1692986583081,16.1494735532269
1.47635025435653,-32.3633925772806,0.0515025997747565,32.4148951770554,16.1559449887529,-32.389143877168,16.2331988884151
1.47851499079987,-32.4621346975881,0.0173440707299493,32.479478768318,16.2223953134291,-32.4708067329531,16.248411419524
1.48067972724321,-32.5131548934188,-0.0211301744078085,32.4920247190109,16.2671425339133,-32.5025898062149,16.2354472723016
1.48284446368655,-32.629263596611,-0.0702030567383011,32.5590605398727,16.3497333266746,-32.5941620682418,16.2444287415672
1.48500920012988,-32.8893152009141,-0.116336472112196,32.7729787288019,16.5028258365132,-32.831146964858,16.3283211283449
1.48717393657322,-33.2841667774288,-0.128228505769347,33.1559382716594,16.7061976415991,-33.2200525245441,16.5138548829451
1.48933867301656,-33.7119774059544,-0.0887677500839769,33.6232096558704,16.9003725780192,-33.6675935309124,16.7672209528932
1.4915034094599,-33.995420723551,-0.0178367416570639,33.9775839818939,17.006628732604,-33.9865023527224,16.9798736201184
1.49366814590324,-33.9290778198911,0.0481152800131103,33.9771930999042,16.940481269939,-33.9531354598977,17.0126541899587
1.49583288234657,-33.3703466588697,0.0860482533089063,33.4563949121787,16.6421492027804,-33.4133707855242,16.7712215827438
1.49799761878991,-32.33574062375,0.0931085652771554,32.4288491890272,16.1213160292364,-32.3822949063886,16.2609788771522
1.50016235523325,-31.0298279892574,0.0833225181543901,31.1131505074118,15.4732527355515,-31.0714892483346,15.5982365127831
1.50232709167659,-29.7749951900261,0.0803776657533876,29.8553728557795,14.8473087621364,-29.8151840229028,14.9678752607665
1.50449182811993,-28.907533045409,0.0999381159977843,29.0074711614068,14.4037974647056,-28.9575021034079,14.5537046387023
1.50665656456326,-28.6853977753915,0.137531708566386,28.8229294839579,14.2739330334126,-28.7541636296747,14.4802305962621
1.5088213010066,-29.1996291926374,0.178442151902765,29.3780713445402,14.5105935203673,-29.2888502685888,14.7782567482215
1.51098603744994,-30.3054789156549,0.212284517872304,30.5177634335272,15.0465971988913,-30.4116211745911,15.3650239756998
1.51315077389328,-31.6147869419992,0.235594713198791,31.850381655198,15.6895961144002,-31.7325842985986,16.0429881841984
1.51531551033662,-32.5975652271668,0.248935083539112,32.8465003107059,16.1743150718138,-32.7220327689364,16.5477176971225
1.51748024677995,-32.7821422981202,0.2547186103871,33.0368609085074,16.2637118438666,-32.9095016033138,16.6457897594472
1.51964498322329,-31.9588464803533,0.255832461623397,32.2146789419767,15.8515070093649,-32.086762711165,16.2352557018
1.52180971966663,-30.2695281739576,0.254923866291457,30.524452040249,15.007302153833,-30.3969901071033,15.3896879532702
1.52397445610997,-28.1338471759326,0.254127685677532,28.3879748616102,13.9398597451276,-28.2609110187714,14.3210512736439
1.52613919255331,-26.0837704111039,0.255010159698787,26.3387805708027,12.9143801257026,-26.2112754909533,13.2968953652507
1.52830392899664,-24.6035772052771,0.258537027090311,24.8621142323674,12.1725200890934,-24.7328457188223,12.5603256297289
1.53046866543998,-24.0049664471502,0.26492473364745,24.2698911807976,11.8700208567514,-24.1374288139739,12.2674079572225
1.53263340188332,-24.3462486808266,0.273295457087183,24.6195441379138,12.0364766118697,-24.4828964093702,12.4464197975005
1.53479813832666,-25.4348385977364,0.281137113271,25.7159757110074,12.5768507422327,-25.5754071543719,12.9985564121392
1.53696287477,-26.9304040733945,0.283681419586555,27.214085492981,13.323361326904,-27.0722447831877,13.7488834562838
1.53912761121333,-28.4800777966239,0.273467511560746,28.7535453081847,14.1033051425316,-28.6168115524043,14.5135064098727
1.54129234765667,-29.7887309332602,0.240553650095701,30.0292845833559,14.7740886415823,-29.9090077583081,15.1349191167258
1.54345708410001,-30.6294671801528,0.174046402405513,30.8035135825583,15.2277103888737,-30.7164903813556,15.4887799924819
1.54562182054335,-30.8720756918132,0.0657635000674456,30.9378391918806,15.4031560958729,-30.9049574418469,15.501801345974
1.54778655698669,-30.5142031258911,-0.0831960210301511,30.4310071048609,15.2986995734606,-30.472605115376,15.1739055419154
1.54995129343003,-29.6396100305038,-0.252625334017908,29.3869846964859,14.9461176822609,-29.5132973634949,14.567179681234
1.55211602987336,-28.3576515960456,-0.402244169916549,27.955407426129,14.3799478829811,-28.1565295110873,13.7765816281062
1.5542807663167,-26.8284876010031,-0.492920124366293,26.3355674766368,13.6607038626847,-26.5820275388199,12.9213236761352
1.55644550276004,-25.2939721846944,-0.509631556817015,24.7843406278773,12.9018018707557,-25.0391564062859,12.1373545355302
1.55861023920338,-23.9892143756346,-0.465515947595536,23.523698428039,12.2273651616151,-23.7564564018368,11.5290912402218
1.56077497564672,-23.020844245159,-0.388131369255878,22.6327128759031,11.7044878072074,-22.8267785605311,11.1222907533236
1.56293971209005,-22.3463379403719,-0.293274258563154,22.0530636818088,11.3198060994676,-22.1997008110904,10.8798947116228
1.56510444853339,-21.8344877196485,-0.179683291752384,21.6548044278961,11.0070855057005,-21.7446460737723,10.7375605680719
1.56726918497673,-21.3558433120549,-0.0549263683659763,21.300916943689,10.7053848402105,-21.3283801278719,10.6229952876615
1.56943392142007,-20.8753690860015,0.0546654996400961,20.9300345856416,10.4103517931807,-20.9027018358215,10.4923500426408
1.57159865786341,-20.4621676135443,0.12273263293806,20.5849002464823,10.1697174903031,-20.5235339300133,10.3538164397102
1.57376339430674,-20.1903335504558,0.137299920742485,20.3276334711983,10.0265168148567,-20.2589835108271,10.2324666959704
1.57592813075008,-20.0562593095443,0.100983872335053,20.1572431818793,9.97763771860461,-20.1067512457118,10.1291135271072
1.57809286719342,-20.0019988611988,0.0294956403395687,20.0314945015383,9.98625161042959,-20.0167466813685,10.0304950709389
1.58025760363676,-19.9865016724586,-0.0517083028239542,19.9347933696346,10.0191049876413,-19.9606475210466,9.94154253340533
1.5824223400801,-20.020040080868,-0.119570876554822,19.9004692043131,10.0698054787114,-19.9602546425906,9.89044916387916
1.58458707652343,-20.1463627822273,-0.164544755431529,19.9818180267958,10.1554537688294,-20.0640904045116,9.90863663568214
1.58675181296677,-20.4069784917838,-0.190682078300972,20.2162964134828,10.2988302850424,-20.3116374526333,10.0128071675909
1.58891654941011,-20.8028687383591,-0.205571078220262,20.5972976601388,10.5042199082897,-20.7000831992489,10.1958632909593
1.59108128585345,-21.263579895646,-0.206070326486731,21.0575095691593,10.7348251110664,-21.1605447324026,10.4257196213363
1.59324602229679,-21.6711612635793,-0.182852806916311,21.488308456663,10.9270070352478,-21.5797348601211,10.6527278248733
1.59541075874012,-21.9325175986984,-0.143771009335757,21.7887465893626,11.0381443040171,-21.8606320940305,10.8224877900134
1.59757549518346,-22.0152084486805,-0.115507440346725,21.8997010083338,11.0653579445136,-21.9574547285072,10.8920967839935
1.5997402316268,-21.9187730727824,-0.116982370314346,21.801790702468,11.0178777215484,-21.8602818876252,10.8424041660768
1.60190496807014,-21.6433880109941,-0.137953593089384,21.5054344179047,10.8906708020417,-21.5744112144494,10.6837404124077
1.60406970451348,-21.1977725598151,-0.145217635564757,21.0525549242503,10.6714950976899,-21.1251637420327,10.4536686443428
1.60623444095681,-20.6172964650617,-0.116972250016812,20.5003242150449,10.3671343575393,-20.5588103400533,10.191675982514
1.60839917740015,-19.9332939065046,-0.066319789484659,19.8669741170199,9.99980684799461,-19.9001340117622,9.90032716376762
1.61056391384349,-19.1036335278475,-0.020218091583598,19.0834154362639,9.56192580971555,-19.0935244820557,9.53159867234015
1.61272865028683,-18.020094524077,0.0117813084288915,18.0318758325059,9.00415660782404,-18.0259851782914,9.02182857046738
1.61489338673017,-16.6245026757121,0.0396044874331932,16.6641071631452,8.29244909413943,-16.6443049194286,8.35185582528922
1.6170581231735,-14.9937204873808,0.0719933940663396,15.0657138814471,7.46086354665722,-15.0297171844139,7.56885363775673
1.61922285961684,-13.3137098346841,0.102007927395232,13.4157177620793,6.60585095364443,-13.3647137983817,6.75886284473728
1.62138759606018,-11.8171525571398,0.115902802229585,11.9330553593694,5.85062487745511,-11.8751039582546,6.02447908079948
1.62355233250352,-10.7342225130883,0.108344955271653,10.8425674683599,5.3129387789083,-10.7883949907241,5.47545621181578
1.62571706894686,-10.2325131479023,0.0871743220835286,10.3196874699858,5.07266941290937,-10.276100308944,5.20343089603466
1.62788180539019,-10.3629817406801,0.067906418408094,10.4308881590882,5.14753766113602,-10.3969349498842,5.24939728874816
1.63004654183353,-11.0626776935894,0.0575938078053471,11.1202715013948,5.50254194289204,-11.0914745974921,5.58893265460006
1.63221127827687,-12.2037196048433,0.0447377097553599,12.2484573145986,6.07949094754396,-12.226088459721,6.146597512177
1.63437601472021,-13.6227836610893,0.012347312109512,13.6351309731988,6.80521817448991,-13.6289573171441,6.82373914265418
1.63654075116355,-15.0953266794446,-0.0427246884638866,15.0526019909807,7.56902568395425,-15.0739643352127,7.50493865125842
1.63870548760688,-16.3167232486075,-0.100920890394566,16.215802358213,8.20882206950105,-16.2662628034102,8.0574407339092
1.64087022405022,-16.9919335194616,-0.127552735463388,16.8643807839982,8.5597431274625,-16.9281571517299,8.36841402426742
1.64303496049356,-17.0047208706239,-0.103846913450634,16.9008739571733,8.55428389203727,-16.9527974138986,8.39851352186132
1.6451996969369,-16.5061124438529,-0.0484913354606504,16.4576211083923,8.27730188965678,-16.4818667761226,8.20456488646581
1.64736443338024,-15.8359994109448,0.00417075892240851,15.8401701698672,7.91591432601121,-15.838084790406,7.92217046439482
1.64952916982357,-15.3544773615513,0.0354235257106258,15.3899008872619,7.65952691792034,-15.3721891244066,7.71266220648628
1.65169390626691,-15.3105489851735,0.049918849878341,15.3604678350519,7.6303150676476,-15.3355084101127,7.70519334246511
1.65385864271025,-15.7974656933294,0.0668253124949218,15.8642910058243,7.86532019041724,-15.8308783495769,7.96555815915963
1.65602337915359,-16.7746517343001,0.100207990015594,16.8748597243157,8.33722187214224,-16.8247557293079,8.48753385716563
1.65818811559693,-18.1349318120646,0.145207809117092,18.2801396211817,8.99486200147376,-18.2075357166232,9.2126737151494
1.66035285204026,-19.7481698059099,0.186703514965784,19.9348733208756,9.78073314547204,-19.8415215633928,10.0607884179207
1.6625175884836,-21.4370788447663,0.213244766526195,21.6503236112925,10.6119170391201,-21.5437012280294,10.9317841889094
1.66468232492694,-22.9956395645559,0.219663035954164,23.2153026005101,11.3879882643009,-23.105471082533,11.7174828182321
1.66684706137028,-24.2994779373886,0.204958590846496,24.5044365282351,12.0472596732711,-24.4019572328119,12.3546975595408
1.66901179781362,-25.3661693677303,0.17177440838106,25.5379437761114,12.5971974796746,-25.4520565719208,12.8548590922462
1.67117653425695,-26.3046598293074,0.127580400396872,26.4322402297043,13.0885397144553,-26.3684500295058,13.2799103150506
1.67334127070029,-27.2523368631883,0.0872543230372583,27.3395911862256,13.5825412700755,-27.295964024707,13.7134227546314
1.67550600714363,-28.3449995684871,0.0705096500765892,28.4155092185636,14.1372449592052,-28.3802543935253,14.2430094343201
1.67767074358697,-29.6861491097408,0.0872563611260762,29.7734054708669,14.7994463743074,-29.7297772903038,14.9303309159965
1.67983548003031,-31.30504720373,0.127110937518895,31.4321581412489,15.5889681331056,-31.3686026724895,15.7796345393839
1.68200021647364,-33.1365948055869,0.169916236773388,33.3065110423603,16.4833392844068,-33.2215529239736,16.7382136395668
1.68416495291698,-35.0672560463173,0.200452061029922,35.2677081073472,17.4334019926437,-35.1674820768323,17.7340800841886
1.68632968936032,-37.0045109062685,0.211156361151899,37.2156672674204,18.3966772725583,-37.1100890868445,18.7134118142862
1.68849442580366,-38.8618015794798,0.199793381594742,39.0615949610745,19.3310040989425,-38.9616982702772,19.6306941713346
1.690659162247,-40.4740567119503,0.168611760802869,40.6426684727532,20.1527224755737,-40.5583625923517,20.405640116778
1.69282389869033,-41.5653275149804,0.125248178035773,41.6905756930162,20.7200396684723,-41.6279516039983,20.907911935526
1.69498863513367,-41.8369847682906,0.0851160251529489,41.9221007934435,20.8759343715688,-41.8795427808671,21.0036084092982
1.69715337157701,-41.1620924178126,0.0687258112043409,41.2308182290169,20.5466833033041,-41.1964553234147,20.6497720201106
1.69931810802035,-39.7587096843611,0.0869807993765362,39.8456904837376,19.8358644424923,-39.8022000840494,19.9663356415571
1.70148284446369,-38.1547749222011,0.130595243374645,38.2853701655757,19.0120898394132,-38.2200725438884,19.2079827044752
1.70364758090702,-36.9267645425283,0.180410639338718,37.107175181867,18.3731769515948,-37.0169698621977,18.6437929106029
1.70581231735036,-36.4252518429971,0.221702794968801,36.6469546379659,18.1017745240142,-36.5361032404815,18.4343287164674
1.7079770537937,-36.6854283144703,0.24623285178981,36.9316611662601,18.2195977313403,-36.8085447403652,18.588947009025
1.71014179023704,-37.5130956079766,0.248973923701077,37.7620695316776,18.6320608421377,-37.6375825698271,19.0055217276894
1.71230652668038,-38.6291984290327,0.226175454001151,38.8553738830339,19.2015114875158,-38.7422861560333,19.5407746685175
1.71447126312371,-39.779097885851,0.175342558211017,39.954440444062,19.80187766382,-39.8667691649565,20.0648915011365
1.71663599956705,-40.7569455710872,0.0974745696608286,40.854420140748,20.3297355007132,-40.8056828559176,20.4759473552044
1.71880073601039,-41.3955113464432,0.00165493164002295,41.3971662780833,20.6969282074016,-41.3963388122633,20.6994106048616
1.72096547245373,-41.6208437238585,-0.0883777909544965,41.532465932904,20.8546107574065,-41.5766548283812,20.7220440709747
1.72313020889707,-41.5380547704957,-0.138327307101986,41.3997274633937,20.8381910387988,-41.4688911169447,20.6307000781459
1.7252949453404,-41.4184530791379,-0.131446889502911,41.287006189635,20.7749499843204,-41.3527296343864,20.577779650066
1.72745968178374,-41.5734845267183,-0.0878259580126114,41.4856585687057,20.8306552423654,-41.529571547712,20.6989163053465
1.72962441822708,-42.2239465405058,-0.040956467234994,42.1829900732708,21.1324515038704,-42.2034683068883,21.0710168030179
1.73178915467042,-43.4295894849154,-0.00542486237607154,43.4241646225393,21.7175071736457,-43.4268770537274,21.7093698800816
1.73395389111376,-45.0574815007574,0.0254011865657575,45.0828826873232,22.5160401570958,-45.0701820940403,22.5541419369445
1.7361186275571,-46.7741748073104,0.0585944074409065,46.8327692147513,23.3577901999347,-46.8034720110308,23.4456818110961
1.73828336400043,-48.0857242355909,0.0870030503967159,48.1727272859876,23.9993605925971,-48.1292257607893,24.1298651681922
1.74044810044377,-48.407938762548,0.0980732624455986,48.5060120249936,24.1549327500512,-48.4569753937708,24.3020426437196
1.74261283688711,-47.0878583406256,0.0891471296714768,47.1770054702971,23.4993556054771,-47.1324319054613,23.6330762999843
1.74477757333045,-43.3771822780093,0.0723253689436006,43.4495076469529,21.6524284545328,-43.4133449624811,21.7609165079482
1.74694230977379,-36.4703605939171,0.0688422859750893,36.5392028798922,18.200759153971,-36.5047817369046,18.3040225829336
1.74910704621712,-25.6449119065338,0.0921882145308408,25.7371001210646,12.7763618460015,-25.6910060137992,12.9146441677977
1.75127178266046,-10.4491986601484,0.136192642681124,10.5853913028295,5.15650300873364,-10.517294981489,5.36079197275532
1.7534365191038,9.07048958629298,0.184687982009926,-8.88580160428305,-4.62758878415145,8.97814559528802,-4.35055681113656
1.75560125554714,32.1388482403759,0.225601553490905,-31.913246686885,-16.1822248969334,32.0260474636304,-15.843822566697
1.75776599199048,57.1660612807118,0.252968493362043,-56.9130927873498,-28.7095148870369,57.0395770340308,-28.3300621469939
1.75993072843381,81.9353719694744,0.263557094532113,-81.6718148749423,-41.0994645320033,81.8035934222084,-40.7041288902051
1.76209546487715,104.009273384683,0.25456689794712,-103.754706486736,-52.1319201413151,103.88198993571,-51.7500697943944
1.76426020132049,121.144073719592,0.222834895212844,-120.921238824379,-60.6834543074023,121.032656271985,-60.349201964583
1.76642493776383,131.585077062188,0.165854148689041,-131.419222913499,-65.8754656054384,131.502149987843,-65.6266843824049
1.76858967420717,134.292576075233,0.0848321804553104,-134.207743894777,-67.1887041278439,134.250159985005,-67.061455857161
1.7707544106505,129.102632222463,-0.0101674311481416,-129.112799653611,-64.5462323956574,129.107715938037,-64.5614835423796
1.77291914709384,116.736652308951,-0.0934230292961743,-116.830075338248,-58.3216146398276,116.7833638236,-58.4617491837719
1.77508388353718,98.6684604858204,-0.127845618784782,-98.7963061046052,-49.2703074335178,98.7323832952128,-49.462075861695
1.77724861998052,76.9165919484841,-0.0938734503840036,-77.0104653988681,-38.41135924905,76.9635286736761,-38.5521694246261
1.77941335642386,53.7709854529291,-0.010347393434911,-53.781332846364,-26.8803190297471,53.7761591496465,-26.8958401198994
1.78157809286719,31.4802366987357,0.0863714993239583,-31.3938651994117,-15.7833040990298,31.4370509490737,-15.6537468500439
1.78374282931053,11.9830913817331,0.171237287082052,-11.811854094651,-6.07716433440756,11.8974727381921,-5.82030840378449
1.78590756575387,-3.28814871713698,0.234621273975362,3.52276999111234,1.52676372158081,-3.40545935412466,1.87869563254385
1.78807230219721,-13.5491869564754,0.275141727305113,13.8243286837805,6.63702261458515,-13.686757820128,7.04973520554282
1.79023703864055,-18.7413034183288,0.293956971347243,19.0352603896761,9.22367322349079,-18.8882819040024,9.66460868051166
1.79240177508388,-19.5377112078351,0.290994909580197,19.8287061174153,9.62335814912745,-19.6832086626252,10.0598505134977
1.79456651152722,-17.2322897650358,0.263242115811043,17.4955318808469,8.48452382461239,-17.3639108229414,8.87938699832896
1.79673124797056,-13.455892916445,0.2052030259521,13.6610959423971,6.62534494524643,-13.558494429421,6.93314948417458
1.7988959844139,-9.79044565354356,0.111776889490206,9.90222254303376,4.83933438202668,-9.84633409828866,5.00699971626198
1.80106072085724,-7.42921732804997,-0.0161197686999149,7.41309755935006,3.72266854837494,-7.42115744370002,3.69848889532507
1.80322545730057,-6.98764925643114,-0.163060323041165,6.82458893338998,3.57535478973615,-6.90611909491056,3.33076430517441
1.80539019374391,-8.49273052990377,-0.299764329931007,8.19296619997276,4.39624742991739,-8.34284836493826,3.94660093502088
1.80755493018725,-11.5124193420539,-0.40569338932991,11.106725952724,5.95905636569189,-11.3095726473889,5.35051628169702
1.80971966663059,-15.3576803541635,-0.480632148605771,14.8770482055577,7.91915625138463,-15.1173642798606,7.19820802847597
1.81188440307393,-19.2987225388787,-0.523589515838379,18.7751330230404,9.91115602735856,-19.0369277809596,9.125771753601
1.81404913951726,-22.7539493757828,-0.526000415540818,22.2279489602419,11.6399748956618,-22.4909491680123,10.8509742723506
1.8162138759606,-25.4098079109894,-0.485441575045465,24.924366335944,12.9476247430174,-25.1670871234667,12.2194623804492
1.81837861240394,-27.2260797931474,-0.405552144923151,26.8205276482242,13.8158159690353,-27.0233037206858,13.2074877516505
1.82054334884728,-28.3435445033394,-0.293805275314144,28.0497392280252,14.3186748893268,-28.1966418656823,13.8779669763555
1.82270808529062,-28.9889493181464,-0.16264312099258,28.8263061971538,14.5757962195695,-28.9076277576501,14.3318315380806
1.82487282173395,-29.4329938861355,-0.0275131144957956,29.4054807716397,14.7302535003157,-29.4192373288876,14.688983828572
1.82703755817729,-29.9717273163808,0.093503062330899,30.0652303787117,14.9391121270249,-30.0184788475462,15.0793667205213
1.82920229462063,-30.8734748038142,0.185567655611186,31.0590424594254,15.3439535741015,-30.9662586316198,15.6223050575183
1.83136703106397,-32.2674461531719,0.244058608747902,32.5115047619198,16.011693772212,-32.3894754575458,16.3777816853338
1.83353176750731,-34.0533242685592,0.272148441135205,34.3254727096944,16.890587913712,-34.1893984891268,17.2988105754148
1.83569650395064,-35.951127416949,0.275269817679935,36.226397234629,17.8379287996346,-36.088762325789,18.2508335261545
1.83786124039398,-37.6575197313705,0.258223781734484,37.915743513105,18.699647974818,-37.7866316222377,19.0869836474197
1.84002597683732,-38.9476698295132,0.224609549661712,39.1722793791749,19.3615301399258,-39.0599746043441,19.6984444644183
1.84219071328066,-39.6985277666331,0.178171483891956,39.876699250525,19.7601781413706,-39.7876135085791,20.0274353672085
1.844355449724,-39.9154732256814,0.125652288353616,40.041125514035,19.8949104686639,-39.9782993698582,20.0833889011943
1.84652018616733,-39.7262886686215,0.080636691914846,39.8069253605363,19.8228259883533,-39.7666070145789,19.9437810262256
1.84868492261067,-39.3137819454522,0.0618256805413457,39.3756076259936,19.6259781324554,-39.3446947857229,19.7187166532674
1.85084965905401,-38.8594045464585,0.0788940492092485,38.9382985956677,19.3902552486246,-38.8988515710631,19.5085963224385
1.85301439549735,-38.5074134958419,0.122209971283432,38.6296234671253,19.1926017622792,-38.5685184814836,19.3759167192044
1.85517913194069,-38.3180318739985,0.173286029361288,38.4913179033598,19.0723729223186,-38.4046748886792,19.3323019663606
1.85734386838402,-38.2221014932166,0.219077967215034,38.4411794604317,19.0015117630008,-38.3316404768241,19.3301287138233
1.85950860482736,-38.0201543256183,0.253823437050962,38.2739777626693,18.8831654442837,-38.1470660441438,19.2639005998601
1.8616733412707,-37.4893813834561,0.275211681848467,37.7645930653045,18.6070848508038,-37.6269872243803,19.0199023735765
1.86383807771404,-36.5759808356029,0.281353630211968,36.8573344658149,18.1473136026955,-36.7166576507089,18.5693440480134
1.86600281415738,-35.5045680726454,0.268947777074522,35.77351584972,17.6178101477855,-35.6390419611827,18.0212318133972
1.86816755060071,-34.6715935622407,0.232926017227798,34.9045195794685,17.2193337725064,-34.7880565708546,17.5687227983481
1.87033228704405,-34.4114813855224,0.167902846429132,34.5793842319515,17.1217892695466,-34.4954328087369,17.3736435391903
1.87249702348739,-34.8475475516047,0.0718033307374435,34.9193508823422,17.3878721104337,-34.8834492169735,17.4955771065398
1.87466175993073,-35.9032418397981,-0.0480580952065993,35.8551837445915,17.9756499675023,-35.8792127921948,17.9035628246924
1.87682649637407,-37.3703957624145,-0.166627561511661,37.2037682009029,18.7685116619631,-37.2870819816587,18.5185703196956
1.8789912328174,-38.957391875654,-0.243086272183182,38.7143056034708,19.6002390739186,-38.8358487395624,19.2356096656438
1.88115596926074,-40.3504925033348,-0.246740322788068,40.1037521805467,20.2986164130614,-40.2271223419407,19.9285059288793
1.88332070570408,-41.2998479417004,-0.180436233760739,41.1194117079396,20.7401420877306,-41.20962982482,20.4694877370894
1.88548544214742,-41.6794191657944,-0.0743370842749742,41.6050820815195,20.8768781250347,-41.6422506236569,20.7653724986222
1.88765017859076,-41.505761732453,0.0326933633309143,41.5384550957839,20.736534184561,-41.5221084141184,20.7855742295574
1.88981491503409,-40.9317643191264,0.108596196482593,41.040360515609,20.4115840613219,-40.9860624173677,20.5744783560458
1.89197965147743,-40.1970783202114,0.13741447378648,40.3344927939979,20.0298319232125,-40.2657855571046,20.2359536338922
1.89414438792077,-39.5242690285232,0.11903879379196,39.6433078223152,19.7026151173656,-39.5837884254192,19.8811733080536
1.89630912436411,-39.0193108574573,0.0665857601064357,39.0858966175637,19.4763625486754,-39.0526037375105,19.5762411888351
1.89847386080745,-38.6534771374126,0.00157860782651387,38.6550557452391,19.325949264793,-38.6542664413259,19.3283171765328
1.90063859725078,-38.3180337599692,-0.059686489349161,38.25834727062,19.1888601246592,-38.2881905152946,19.0993303906354
1.90280333369412,-37.8825220521513,-0.112598717255009,37.7699233348963,18.9975603847032,-37.8262226935238,18.8286623088206
1.90496807013746,-37.2287734322007,-0.147483762212059,37.0812896699887,18.6881285972064,-37.1550315510947,18.4669029538883
1.9071328065808,-36.2705184623359,-0.139636238298904,36.130882224037,18.2050773503174,-36.2007003431865,17.9956229928691
1.90929754302414,-34.9739141325591,-0.0761728789312289,34.8977412536278,17.5250435057451,-34.9358276930934,17.4107841873483
1.91146227946747,-33.3856306447633,0.0196347815249358,33.4052654262882,16.6829979316192,-33.3954480355258,16.7124501039066
1.91362701591081,-31.6641758524323,0.106817424262367,31.7709932766947,15.778679214085,-31.7175845645635,15.9389053504785
1.91579175235415,-30.0911567714209,0.154702215359296,30.2458589867802,14.9682272780308,-30.1685078791006,15.2002806010698
1.91795648879749,-28.9902007555416,0.148230793640657,29.1384315491823,14.4209849809505,-29.0643161523619,14.6433311714115
1.92012122524083,-28.5498404921271,0.0845024002810834,28.6343428924082,14.232669045923,-28.5920916922677,14.3594226463447
1.92228596168416,-28.7028250743073,-0.0264511497101376,28.6763739245971,14.3646381120087,-28.6895994994522,14.3249613874435
1.9244506981275,-29.1832757237248,-0.156440482002619,29.0268352417222,14.6698581028637,-29.1050554827235,14.4351973798598
1.92661543457084,-29.7072643633242,-0.256388286508164,29.450876076816,14.9818263249162,-29.5790702200701,14.5972438951539
1.92878017101418,-30.1359903636567,-0.275966699582127,29.8600236640746,15.2059785316194,-29.9980070138657,14.7920284822462
1.93094490745752,-30.5062778418656,-0.203187308837351,30.3030905330282,15.3547325753515,-30.4046841874469,15.0499516120954
1.93310964390086,-30.9106831065211,-0.0747519783734409,30.8359311281477,15.4927175424473,-30.8733071173344,15.3805895748871
1.93527438034419,-31.3396154075085,0.0594976612919954,31.3991130688005,15.6400588731083,-31.3693642381545,15.7293053650463
1.93743911678753,-31.6293447822706,0.167839667387999,31.7971844496586,15.7307525574413,-31.7132646159646,15.9825120585233
1.93960385323087,-31.5599010196524,0.237749435698813,31.7976504553513,15.6610757919768,-31.6787757375018,16.017699945525
1.94176858967421,-31.0091099371763,0.266760365955379,31.2758703031317,15.3711747856105,-31.142490120154,15.7713153345435
1.94393332611755,-30.0193567410477,0.256227766524415,30.2755845075721,14.8815644872616,-30.1474706243099,15.2659061370482
1.94609806256088,-28.7442227577481,0.208600403984604,28.9528231617327,14.2678111768818,-28.8485229597404,14.5807117828587
1.94826279900422,-27.3657188617644,0.128241520121441,27.4939603818859,13.6187386708215,-27.4298396218252,13.8111009510037
1.95042753544756,-26.0473276767473,0.0255255133057112,26.072853190053,13.0109010817208,-26.0600904334002,13.0491893516794
1.9525922718909,-24.9147732242251,-0.0764375867805774,24.8383356374446,12.4956054055029,-24.8765544308349,12.380949025332
1.95475700833424,-24.0678661469521,-0.145226750685172,23.9226393962669,12.1065464488186,-23.9952527716095,11.8887063227909
1.95692174477757,-23.6169177151888,-0.166008571253238,23.4509091439356,11.891463143221,-23.5339134295622,11.6424502863412
1.95908648122091,-23.6638646417976,-0.158981224881878,23.5048834169157,11.9114229333397,-23.5843740293567,11.6729510960169
1.96125121766425,-24.2020341731559,-0.153401265575948,24.04863290758,12.1777177193659,-24.125333540368,11.947615821002
1.96341595410759,-25.056933890563,-0.15218335624309,24.9047505343199,12.6045586234031,-24.9808422124415,12.3762835890384
1.96558069055093,-25.9522109163798,-0.132227157679534,25.8199837587003,13.0422190370297,-25.8860973375401,12.8438783005104
1.96774542699426,-26.6042414008214,-0.0801849918053267,26.524056409016,13.3422131963133,-26.5641489049187,13.2219357086054
1.9699101634376,-26.7620960016341,-0.0179307983155416,26.7441652033186,13.3900133999748,-26.7531306024764,13.3631172025015
1.97207489988094,-26.2620667473496,0.0168555137458062,26.2789222610954,13.1226056168019,-26.2704945042225,13.1478888874206
1.97423963632428,-25.1278072448307,0.00154983515368778,25.1293570799844,12.5631287048385,-25.1285821624076,12.565453457569
1.97640437276762,-23.6107745144777,-0.0617967875292886,23.5489777269484,11.8362856510035,-23.5798761207131,11.7435904697096
1.97856910921095,-22.1092533503642,-0.150886955694737,21.9583663946695,11.1300701530295,-22.0338098725168,10.9037397194874
1.98073384565429,-21.0221163503955,-0.241572367233754,20.7805439831617,10.6318443588146,-20.9013301667786,10.269485807964
1.98289858209763,-20.6011410467345,-0.329717542473732,20.2714235042608,10.4654292946041,-20.4362822754977,9.97085298089354
1.98506331854097,-20.8600296167422,-0.423152583139999,20.4368770336022,10.6415910999411,-20.6484533251722,10.0068622252311
1.98722805498431,-21.5968628092312,-0.510291864159803,21.0865709450714,11.0535773366955,-21.3417168771513,10.2881395404558
1.98939279142764,-22.5216604502921,-0.557997849612145,21.96366260068,11.5398291499521,-22.2426615254861,10.7028323755339
1.99155752787098,-23.4141142947578,-0.545589077518241,22.8685252172396,11.979851686138,-23.1413197559987,11.1614680698607
1.99372226431432,-24.1970995512035,-0.478857849690249,23.7182417015132,12.3379787004469,-23.9576706263583,11.6196919259115
1.99588700075766,-24.87883535269,-0.373717462228851,24.5051178904612,12.6262764074594,-24.6919766215756,12.0657002141162
1.998051737201,-25.4713272679465,-0.249911781682301,25.2214154862642,12.8606195248144,-25.3463713771053,12.4857518522909
2.00021647364433,-25.9977814998374,-0.128004332870119,25.8697771669673,13.0628929163538,-25.9337793334023,12.8708864170486
2.00238121008767,-26.5417627659888,-0.0166046956218233,26.525158070367,13.2791837308053,-26.5334604181779,13.2542766873726
2.00454594653101,-27.2187893118188,0.0827228460381683,27.301512157857,13.5680332328903,-27.2601507348379,13.6921175019476
2.00671068297435,-28.0815780098645,0.159663737394535,28.241241747259,13.960957136235,-28.1614098785617,14.2004527423268
2.00887541941769,-29.0683290813155,0.198122597888786,29.2664516792043,14.4351032417133,-29.1673903802599,14.7322871385465
2.01104015586102,-30.0323397881751,0.187300740562701,30.2196405287378,14.9225195238062,-30.1259901584564,15.2034706346502
2.01320489230436,-30.8339587368341,0.124551000761815,30.9585097375959,15.3547038680361,-30.896234237215,15.5415303691788
2.0153696287477,-31.4456096492049,0.0165337437476839,31.4621433929526,15.7145379527286,-31.4538765210788,15.7393385683501
2.01753436519104,-31.9849155162028,-0.121154113875383,31.8637614023274,16.0530348150391,-31.9243384592651,15.871303644226
2.01969910163438,-32.6593018360078,-0.272173417072885,32.387128418935,16.4657376265404,-32.5232151274714,16.057477500931
2.02186383807771,-33.6946256727173,-0.424969087741129,33.2696565849761,17.0597973802292,-33.4821411288467,16.4223437486175
2.02402857452105,-35.2788768150388,-0.565367068682351,34.7135097463565,17.9221219418606,-34.9961932806976,17.0740713388371
2.02619331096439,-37.4865877594385,-0.669167971512786,36.8174197879257,19.0778778654757,-37.1520037736821,18.0741259082065
2.02835804740773,-40.2170322693069,-0.713613044946749,39.5034192243601,20.4653226571268,-39.8602257468335,19.3949030897067
2.03052278385107,-43.2345081645619,-0.697818996958976,42.536689167603,21.9661635807605,-42.8855986660824,20.919435085322
2.0326875202944,-46.2889171551208,-0.638762168840599,45.6501549862802,23.4638396619807,-45.9695360707005,22.5056964087198
2.03485225673774,-49.2052511907739,-0.548846654091433,48.6564045366824,24.8770489224327,-48.9308278637282,24.0537789412955
2.03701699318108,-51.8966085975411,-0.434835791699971,51.4617728058411,26.1657221946205,-51.6791907016911,25.5134685070706
2.03918172962442,-54.3330805690738,-0.311367837923607,54.0217127311502,27.3222242034987,-54.177396650112,26.8551724466133
2.04134646606776,-56.4991827672898,-0.199066976384514,56.3001157909053,28.3491248718372,-56.3996492790976,28.0505244072604
2.04351120251109,-58.362281283771,-0.111735736713175,58.2505455470579,29.2370085102421,-58.3064134154145,29.0694049051723
2.04567593895443,-59.8838949901277,-0.0486505755690722,59.8352444145586,29.9662727828484,-59.8595697023432,29.8932969194948
2.04784067539777,-61.0761703869891,-0.00258627542947841,61.0735841115596,30.5393783312093,-61.0748772492743,30.5354989180651
2.05000541184111,-62.0408070080713,0.0282718778600581,62.0690788859314,31.0062675651056,-62.0549429470014,31.0486753818957
2.05217014828445,-62.9127284311848,0.047430552604146,62.960158983789,31.4326489392903,-62.9364437074869,31.5037947681965
2.05433488472778,-63.7368792766192,0.0684784481422774,63.8053577247614,31.8342004142384,-63.7711185006903,31.9369180864519
2.05649962117112,-64.4388799804997,0.101094179540159,64.5399741600398,32.1688929004798,-64.4894270702698,32.32053416979
2.05866435761446,-64.938599813643,0.137118859943883,65.0757186735869,32.4007404768496,-65.007159243615,32.6064187667654
2.0608290940578,-65.2466725904782,0.159493890639801,65.406166481118,32.5435893499192,-65.3264195357981,32.7828301858789
2.06299383050114,-65.4540599695632,0.157137461692443,65.6111974312557,32.6484612539354,-65.5326287004094,32.8841674464741
2.06515856694447,-65.6828411423253,0.129286284026248,65.8121274263515,32.7767774291495,-65.7474842843384,32.9707068551889
2.06732330338781,-66.0671277943692,0.0857619813685455,66.1528897757377,32.9906829065003,-66.1100087850535,33.1193258785531
2.06948803983115,-66.7540994176625,0.043215755983052,66.7973151736455,33.3554418308397,-66.775707295654,33.4202654648143
2.07165277627449,-67.850022965291,0.0109715107616036,67.8609944760526,33.9195257272647,-67.8555087206718,33.9359829934071
2.07381751271783,-69.3182061969713,-0.017065557684535,69.3011406392868,34.6676358773279,-69.3096734181291,34.6420375408011
2.07598224916116,-70.9509825964423,-0.0476663496648662,70.9033162467774,35.4993244730536,-70.9271494216098,35.4278249485563
2.0781469856045,-72.4436232346574,-0.0738789862021503,72.3697442484552,36.2587511104298,-72.4066837415563,36.1479326311265
2.08031172204784,-73.4876059299498,-0.0840687085490221,73.4035372214008,36.7858373192494,-73.4455715756753,36.6597342564259
2.08247645849118,-73.8597603628532,-0.0773534801297314,73.7824068827235,36.9685569214915,-73.8210836227883,36.8525267012969
2.08464119493452,-73.490115092415,-0.0684318718845989,73.4216832205304,36.7792734821498,-73.4558991564727,36.6766256743229
2.08680593137785,-72.450502469645,-0.0815905714954869,72.3689118981495,36.2660465205702,-72.4097071838973,36.143660663327
2.08897066782119,-70.9109798949413,-0.132911499338014,70.7780683956033,35.5219456971397,-70.8445241452723,35.3225784481326
2.09113540426453,-69.1400832557881,-0.210958372846427,68.9291248829417,34.6755208143173,-69.0346040693649,34.3590832550476
2.09330014070787,-67.4933765847836,-0.272775060442527,67.2206015243411,33.8830758226131,-67.3569890545623,33.4739132319493
2.09546487715121,-66.3264679197329,-0.267904308338709,66.0585636113941,33.2971861140358,-66.1925157655635,32.8953296515277
2.09762961359454,-65.8623597244027,-0.181475934811983,65.6808837895907,33.0219178296074,-65.7716217569967,32.7497039273894
2.09979435003788,-66.091451349116,-0.0469719987120957,66.0444793504039,33.0692116739141,-66.06796534976,32.9987536758459
2.10195908648122,-66.7869431948235,0.0878763726455063,66.874819567469,33.349533411089,-66.8308813811462,33.4813479700573
2.10412382292456,-67.6241637581472,0.191661605826882,67.8158253639741,33.7162510761602,-67.7199945610607,34.0037434849005
2.1062885593679,-68.3145305867183,0.250299743346975,68.5648303300653,34.0321154216857,-68.4396804583918,34.4075650367061
