t,leadI,leadII,leadIII,aVR,aVL,aVF
0,394.23161301418,812.581549577784,418.349936563604,-603.406581295982,-12.0591617747123,615.465743070694
0.00216473644333802,396.628525096377,811.770173795332,415.141648698955,-604.199349445855,-9.25656180128919,613.455911247144
0.00432947288667605,398.856894076374,812.56987654577,413.712982469396,-605.713385311072,-7.42804419651134,613.141429507583
0.00649420933001407,398.631182634382,812.592816125387,413.961633491005,-605.611999379885,-7.66522542831171,613.277224808196
0.0086589457733521,397.689792554631,812.617249128287,414.927456573657,-605.153520841459,-8.61883200951297,613.772352850972
0.0108236822166901,398.51660777493,811.833714520571,413.317106745641,-605.175161147751,-7.40024948535557,612.575410633106
0.0129884186600281,397.121368679798,812.619523437554,415.498154757756,-604.870446058676,-9.18839303897926,614.058839097655
0.0151531551033662,396.554758484296,812.597493963116,416.04273547882,-604.576126223706,-9.74398849726191,614.320114720968
0.0173178915467042,393.487854967836,812.576314785987,419.088459818151,-603.032084876912,-12.8003024251572,615.832387302069
0.0194826279900422,391.02221338183,812.569978062725,421.547764680895,-601.796095722277,-15.2627756495327,617.05887137181
0.0216473644333802,390.001958411815,812.582275055379,422.580316643564,-601.292116733597,-16.2891791158744,617.581295849472
0.0238121008767183,393.745455010501,811.810576884851,418.065121874351,-602.778015947676,-12.1598334319252,614.937849379601
0.0259768373200563,396.042001822999,811.828696720374,415.786694897375,-603.935349271687,-9.87234653718792,613.807695808875
0.0281415737633943,396.159305321872,812.623591727374,416.464286405502,-604.391448524623,-10.1524905418153,614.543939066438
0.0303063102067323,395.62569163442,811.810889113893,416.185197479473,-603.718290374156,-10.2797529225269,613.998043296683
0.0324710466500704,399.049136039385,812.580763673333,413.531627633947,-605.814949856359,-7.24124579728095,613.05619565364
0.0346357830934084,396.736592163698,812.567477364614,415.830885200916,-604.652034764156,-9.54714651860894,614.199181282765
0.0368005195367464,401.339648667771,812.575364161363,411.235715493592,-606.957506414567,-4.94803341291095,611.905539827478
0.0389652559800844,400.238057343449,812.600207276994,412.362149933545,-606.419132310222,-6.06204629504776,612.48117860527
0.0411299924234224,398.391153818804,812.62517056202,414.234016743215,-605.508162190412,-7.92143146220553,613.429593652618
0.0432947288667605,403.121538953971,811.838306235003,408.716767281031,-607.479922594487,-2.79761416353,610.277536758017
0.0454594653100985,404.928798089497,812.616100493276,407.687302403779,-608.772449291387,-1.37925215714091,610.151701448527
0.0476242017534365,405.271241752073,810.996892495056,405.725650742984,-608.134067123565,-0.227204495455283,608.36127161902
0.0497889381967745,405.525396183923,811.767668100958,406.242271917036,-608.64653214244,-0.358437866556528,609.004970008997
0.0519536746401126,403.938164123976,812.561192586859,408.623028462883,-608.249678355417,-2.34243216945333,610.592110524871
0.0541184110834506,404.469633362935,812.583501090503,408.113867727568,-608.526567226719,-1.8221171823169,610.348684409036
0.0562831475267886,402.508586925092,812.615561752258,410.106974827166,-607.562074338675,-3.79919395103684,611.361268289712
0.0584478839701266,406.227463815873,811.050025510954,404.822561695081,-608.638744663413,0.702451060395788,607.936293603018
0.0606126204134647,405.462039578804,812.638247064185,407.176207485381,-609.050143321495,-0.857083953288338,609.907227274783
0.0627773568568027,408.149249264815,812.611137925039,404.461888660224,-610.380193594927,1.84368030229541,608.536513292632
0.0649420933001407,406.962563936548,810.984199710099,404.021635773552,-608.973381823324,1.47046408149799,607.502917741826
0.0671068297434787,410.392213041113,811.754962634055,401.362749592942,-611.073587837584,4.51473172408527,606.558856113499
0.0692715661868168,408.740886995102,812.555864351633,403.814977356531,-610.648375673368,2.46295481928564,608.185420854082
0.0714363026301548,404.42156215172,812.588303858976,408.166741707256,-608.504933005348,-1.87258977776833,610.377522783116
0.0736010390734928,404.000596549544,812.627234585121,408.626638035577,-608.313915567333,-2.31302074301618,610.626936310349
0.0757657755168308,406.145852273808,812.649192907411,406.503340633603,-609.39752259061,-0.178744179897762,609.576266770507
0.0779305119601689,407.031162330431,812.640314749506,405.609152419075,-609.835738539969,0.711004955678163,609.124733584291
0.0800952484035069,411.370603326491,812.60520780847,401.23460448198,-611.98790556748,5.06799942225535,606.919906145225
0.0822599848468449,411.796022999909,812.564771585672,400.768748585763,-612.180397292791,5.51363720707292,606.666760085718
0.0844247212901829,414.407727970044,812.543819605882,398.136091635838,-613.475773787963,8.13581816710303,605.33995562086
0.0865894577335209,413.507791899769,812.555793220454,399.048001320685,-613.031792560112,7.22989528954201,605.801897270569
0.088754194176859,413.130266128783,812.594025571528,399.463759442745,-612.862145850156,6.83325334301912,606.028892507137
0.090918930620197,411.911815969762,812.635302175744,400.723486205982,-612.273559072753,5.59416488188964,606.679394190863
0.093083667063535,411.693687132648,812.653932093186,400.960244960538,-612.173809612917,5.36672108605546,606.807088526862
0.095248403506873,412.604606191799,812.637814682397,400.033208490598,-612.621210437098,6.28569885060045,606.335511586498
0.0974131399502111,411.39730709678,812.596402761823,401.199095665043,-611.996854929302,5.09910571586835,606.897749213433
0.0995778763935491,413.405837319831,812.555260805054,399.149423485224,-612.980549062442,7.12820691730337,605.852342145139
0.101742612836887,413.613669941681,811.74643426916,398.132764327479,-612.680052105421,7.74045280710118,604.93959929832
0.103907349280225,413.485332576647,812.562620849202,399.077288272555,-613.023976712924,7.20402215204604,605.819954560878
0.106072085723563,415.47961605452,812.606333202799,397.126717148279,-614.04297462866,9.17644945312082,604.866525175539
0.108236822166901,415.060599567719,812.643688816351,397.583089248632,-613.852144192035,8.73875515954342,605.113389032492
0.110401558610239,411.687222158308,812.651474106079,400.964251947771,-612.169348132194,5.3614851052684,606.807863026925
0.112566295053577,412.631430458487,812.625503222525,399.994072764038,-612.628466840506,6.31867884722402,606.309787993282
0.114731031496915,414.625216049632,812.5828994033,397.957683353668,-613.604057726466,8.33376634798179,605.270291378484
0.116895767940253,415.03721286269,812.550867555566,397.513654692876,-613.794040209128,8.76177908490706,605.032261124221
0.119060504383591,419.175573766765,812.549283623356,393.373709856592,-615.862428695061,12.9009319550865,602.961496739974
0.121225240826929,421.376495165698,812.578268951994,391.201773786296,-616.977382058846,15.0873606897011,601.890021369145
0.123389977270267,424.134156242532,812.618579707095,388.484423464563,-618.376367974814,17.8248663889847,600.551501585829
0.125554713713605,422.943692499173,812.644328244521,389.700635745348,-617.794010371847,16.6215283769129,601.172481994934
0.127719450156943,422.026936670657,812.639658376761,390.612721706103,-617.333297523709,15.7071074822771,601.626190041432
0.129884186600281,423.84465522889,812.608600922263,388.763945693373,-618.226628075576,17.5403547677583,600.686273307818
0.132048923043619,425.072318215266,812.571921709125,387.499603493859,-618.822119962196,18.7863573607035,600.035762601492
0.134213659486957,425.435098067644,810.965597393449,385.530499325805,-618.200347730547,19.9522993709195,598.248048359627
0.136378395930295,424.707110968277,812.566583336273,387.859472367996,-618.636847152275,18.4238193001402,600.213027852134
0.138543132373634,425.233622525956,811.803544773844,386.569922247889,-618.5185836499,19.3318501390336,599.186733510866
0.140707868816972,423.213862250866,812.625464944432,389.411602693566,-617.919663597649,16.9011297786503,601.018533818999
0.14287260526031,422.096601528592,811.837379742128,389.740778213536,-616.96699063536,16.1779116575281,600.789078977832
0.145037341703648,418.111950440013,812.614844869638,394.502894429625,-615.363397654825,11.804528005194,603.558869649631
0.147202078146986,419.20728284189,812.588359651631,393.381076809741,-615.897821246761,12.9131030160743,602.984718230686
0.149366814590324,415.65601844789,812.571208604243,396.915190156354,-614.113613526067,9.37041414576811,604.743199380298
0.151531551033662,416.723968728144,812.574895713433,395.850926985289,-614.649432220788,10.4365208714274,604.212911349361
0.153696287477,417.47343715676,812.595210061371,395.121772904611,-615.034323609066,11.1758321260744,603.858491482991
0.155861023920338,414.759409528422,812.615980707919,397.856571179498,-613.68769511817,8.45141917446193,605.236275943709
0.158025760363676,414.358556037181,812.621363509262,398.262807472081,-613.489959773222,8.04787428254969,605.442085490672
0.160190496807014,412.555490480881,811.813770031067,399.258279550186,-612.184630255974,6.64860546534794,605.536024790626
0.162355233250352,412.659107821658,811.793250885385,399.134143063726,-612.226179353522,6.76248237896613,605.463696974555
0.16451996969369,408.243564984777,810.987701504844,402.744136520067,-609.615633244811,2.74971423235507,606.865919012456
0.166684706137028,408.615907414469,812.582470578864,403.966563164395,-610.599188996666,2.32467212503713,608.274516871629
0.168849442580366,408.771608046955,812.599206936966,403.827598890011,-610.68540749196,2.4720045784718,608.213402913488
0.171014179023704,408.611499909258,812.61296982903,404.001469919772,-610.612234869144,2.30501499474332,608.307219874401
0.173178915467042,410.623165299386,811.820342032709,401.197176733323,-611.221753666047,4.71299428303166,606.508759383016
0.17534365191038,409.486323832645,812.604290180226,403.117966347581,-611.045307006435,3.1841787425318,607.861128263904
0.177508388353718,405.426112114081,811.001665399911,405.57555328583,-608.213888756996,-0.0747205858742177,608.28860934287
0.179673124797056,401.683622240772,812.583284440594,410.899662199822,-607.133453340683,-4.60801997952484,611.741473320208
0.181837861240394,401.2878879887,812.586599557624,411.298711568924,-606.937243773162,-5.00541179011208,611.942655563274
0.184002597683732,399.206209658124,812.596475457951,413.390265799826,-605.901342558038,-7.09202807085086,612.993370628888
0.18616733412707,395.235707510847,812.606237191269,417.370529680422,-603.920972351058,-11.0674110847879,614.988383435845
0.188332070570408,391.757969248569,811.022080271069,419.2641110225,-601.390024759819,-13.7530708869656,615.143095646785
0.190496807013746,389.764968148362,812.607988772558,422.843020624196,-601.18647846046,-16.5390262379167,617.725504698377
0.192661543457084,390.314367758586,811.010328055627,420.695960297041,-600.662347907107,-15.1907962692276,615.853144176334
0.194826279900422,389.592650953,812.588594915466,422.995943962466,-601.090622934233,-16.7016465047328,617.792269438966
0.19699101634376,390.73033896934,812.582100515544,421.851761546204,-601.656219742442,-15.560711288432,617.216931030874
0.199155752787098,388.741772996892,812.58361677673,423.841843779838,-600.662694886811,-17.5500353914733,618.212730278284
0.201320489230436,388.1425342962,812.594379225138,424.451844928939,-600.368456760669,-18.1546553163695,618.523112077039
0.203485225673774,390.395808959582,812.609532496756,422.213723537174,-601.502670728169,-15.9089572887964,617.411628016965
0.205649962117112,391.607677573561,812.619935196544,421.012257622983,-602.113806385052,-14.7022900247114,616.816096409764
0.20781469856045,388.840585628852,812.617691579717,423.777105950865,-600.729138604285,-17.4682601610062,618.197398765291
0.209979435003788,387.112399172487,812.602048484148,425.489649311661,-599.857223828318,-19.1886250695866,619.045848897904
0.212144171447126,387.311692392368,812.581309847669,425.269617455301,-599.946501120019,-18.9789625314666,618.925463651485
0.214308907890464,386.926334223912,811.774762280987,424.848428057075,-599.350548252449,-18.9610469165813,618.311595169031
0.216473644333802,385.69039711267,812.574868565763,426.884471453093,-599.132632839217,-20.5970371702113,619.729670009428
0.21863838077714,384.963808215499,812.595847227145,427.632039011647,-598.779827721322,-21.3341153980741,620.113943119396
0.220803117220478,386.28946184478,812.619087785187,426.329625940407,-599.454274814984,-20.0200820478133,619.474356862797
0.222967853663816,388.244633214333,812.629961562486,424.385328348152,-600.437297388409,-18.0703475669095,618.507644955319
0.225132590107154,388.721059595289,811.827083862944,423.106024267655,-600.274071729117,-17.192482336183,617.4665540653
0.227297326550492,388.722852885992,812.598126053357,423.875273167365,-600.660489469675,-17.5762101406868,618.236699610361
0.229462062993831,389.844463413853,811.779259449559,421.934796035707,-600.811861431706,-16.0451663109271,616.857027742633
0.231626799437169,388.70208064929,812.562801822785,423.860721173496,-600.632441236038,-17.5793202621029,618.211761498141
0.233791535880507,387.39232858748,812.572578018037,425.180249430557,-599.982453302759,-18.8939604215383,618.876413724297
0.235956272323845,385.732466427982,812.597641750047,426.865175322065,-599.165054089014,-20.5663544470419,619.731408536056
0.238121008767183,383.761839332406,812.623852913205,428.862013580799,-598.192846122805,-22.5500871241968,620.742933247002
0.240285745210521,384.101827331128,811.841778832483,427.739951501355,-597.971803081806,-21.8190620851133,619.790865166919
0.242450481653859,384.655922867295,812.62655282505,427.970629957755,-598.641237846173,-21.6573535452297,620.298591391402
0.244615218097197,383.197211427916,812.598715180406,429.40150375249,-597.897963304161,-23.1021461622873,621.000109466448
0.246779954540535,382.829494038055,812.567820883451,429.738326845395,-597.698657460753,-23.4544164036698,621.153073864423
0.248944690983873,386.464047582425,812.553095512922,426.089047930496,-599.508571547674,-19.8125001740355,619.321071721709
0.251109427427211,389.040113816046,812.565246451891,423.525132635844,-600.802680133968,-17.2425094098991,618.045189543867
0.253274163870549,390.428701411102,812.598771988546,422.170070577445,-601.513736699824,-15.8706845831713,617.384421282996
0.255438900313887,389.167939984138,812.634083407894,423.466143423756,-600.901011696016,-17.1491017198092,618.050113415825
0.257603636757225,388.736935167496,812.648940768961,423.912005601465,-600.692937968229,-17.5875352169845,618.280473185213
0.259768373200563,388.619794492984,812.632526422112,424.012731929129,-600.626160457548,-17.6964687180725,618.32262917562
0.261933109643901,389.68400570342,812.593205023409,422.909199319989,-601.138605363414,-16.6125968082849,617.751202171699
0.264097846087239,390.163431273929,812.554467464512,422.391036190583,-601.35894936922,-16.1138024583274,617.472751827548
0.266262582530577,390.542249157755,812.540870789719,421.998621631964,-601.541559973737,-15.7281862371049,617.269746210842
0.268427318973915,393.754378757606,811.768568596305,418.014189838699,-602.761473676956,-12.1299055405468,614.891379217502
0.270592055417253,391.043553115607,812.608650674441,421.565097558834,-601.826101895025,-15.2607722216133,617.086874116638
0.272756791860591,387.397410256282,812.649187225383,425.251776969101,-600.023298740833,-18.9271833564092,618.950482097242
0.274921528303929,389.478469940999,811.864015933492,422.385545992493,-600.671242937246,-16.4535380257468,617.124780962993
0.277086264747267,392.704379717492,812.629664407241,419.925284689749,-602.667022062366,-13.6104524861286,616.277474548495
0.279251001190605,392.261136036298,812.579436795304,420.318300759006,-602.420286415801,-14.0285823613537,616.448868777155
0.281415737633943,391.094336991625,812.538459458475,421.44412246685,-601.81639822505,-15.1748927376124,616.991290962662
0.283580474077281,388.14705751301,812.533579664964,424.386522151954,-600.340318588987,-18.1197323194721,618.460050908459
0.285745210520619,389.640012633851,810.981924451718,421.341911817867,-600.310968542784,-15.8509495920083,616.161918134792
0.287909946963957,390.875739318216,812.627896734939,421.752157416723,-601.751818026578,-15.4382090492534,617.190027075831
0.290074683407295,392.872523839075,811.873393806131,419.000869967056,-602.372958822603,-13.0641730639906,615.437131886593
0.292239419850633,396.662663231976,812.66241640417,415.999753172194,-604.662539818073,-9.668544970109,614.331084788182
0.294404156293971,398.379906889929,812.613539969482,414.233633079552,-605.496723429706,-7.92686309481127,613.423586524517
0.296568892737309,398.733925689188,812.551947377151,413.818021687963,-605.642936533169,-7.54204799938771,613.184984532557
0.298733629180647,399.094995732784,812.518715008172,413.423719275388,-605.806855370478,-7.16436177130208,612.97121714178
0.300898365623985,396.862593535962,812.53728751973,415.674693983768,-604.699940527846,-9.40605022390304,614.105990751749
0.303063102067323,396.716818636208,811.803281334027,415.086462697819,-604.260049985117,-9.18482203080595,613.444872015923
0.305227838510661,396.366502966662,812.660999485098,416.294496518435,-604.51375122588,-9.96399677588653,614.477748001767
0.307392574953999,394.435285719128,812.684060594928,418.248774875801,-603.559673157028,-11.9067445783365,615.466417735364
0.309557311397337,391.923753330172,811.855374916949,419.931621586777,-601.889564123561,-14.0039341283028,615.893498251863
0.311722047840675,388.113380522761,811.785668078837,423.672287556076,-599.949524300799,-17.7794535166577,617.728977817457
0.313886784284013,386.874358307333,811.726150900442,424.85179259311,-599.300254603887,-18.9887171428885,618.288971746776
0.316051520727351,387.194075356857,811.716036987511,424.521961630654,-599.455056172184,-18.6639431368987,618.118999309083
0.318216257170689,388.873247355788,812.55671040811,423.683463052322,-600.714978881949,-17.4051078482668,618.120086730216
0.320380993614027,393.444889425462,812.629559197418,419.184669771955,-603.03722431144,-12.8698901732467,615.907114484687
0.322545730057366,396.266438683918,811.888496121755,415.622057437837,-604.077467402837,-9.67780937695932,613.755276779796
0.324710466500704,396.772403899648,812.683047536543,415.910643636896,-604.727725718095,-9.56911986862394,614.296845586719
0.326875202944042,397.534283403672,812.629003829908,415.094720426236,-605.08164361679,-8.78021851128244,613.861862128072
0.32903993938738,396.986226267522,812.554084327972,415.56785806045,-604.770155297747,-9.29081589646415,614.060971194211
0.331204675830718,393.382122186459,812.506062782684,419.123940596225,-602.944092484571,-12.8709092048831,615.815001689454
0.333369412274056,391.251529962142,812.516064128993,421.264534166851,-601.883797045567,-15.0065021023548,616.890299147922
0.335534148717394,390.427296846573,810.990692561566,420.563395714992,-600.70899470407,-15.0680494342093,615.777044138279
0.337698885160732,390.91985045467,812.656406102326,421.736555647657,-601.788128278498,-15.4083525964935,617.196480874991
0.33986362160407,391.328276374054,812.695787720192,421.367511346138,-602.012032047123,-15.0196174860419,617.031649533165
0.342028358047408,390.314367942393,811.082678407827,420.768310465434,-600.69852317511,-15.2269712615201,615.92549443663
0.344193094490746,393.587661923854,812.599518516886,419.011856593032,-603.09359022037,-12.712097334589,615.805687554959
0.346357830934084,392.356503314488,810.937731104884,418.581227790396,-601.647117209686,-13.1123622379538,614.75947944764
0.348522567377422,391.957792452441,812.498907443665,420.541114991224,-602.228349948053,-14.2916612693915,616.520011217444
0.35068730382076,392.137696329837,812.533759150561,420.396062820724,-602.335727740199,-14.1291832454436,616.464910985642
0.352852040264098,391.97853250899,811.814350363338,419.835817854348,-601.896441436164,-13.9286426726787,615.825084108843
0.355016776707436,397.923780706599,811.883403237621,413.959622531022,-604.90359197211,-8.01792091221165,612.921512884322
0.357181513150774,400.692166357536,812.697159883174,412.004993525638,-606.694663120355,-5.65641358405077,612.351076704406
0.359346249594112,400.549726225113,812.653187655392,412.103461430279,-606.601456940253,-5.77686760258268,612.378324542836
0.36151098603745,396.815973812559,812.573097957738,415.757124145179,-604.694535885149,-9.47057516631003,614.165111051459
0.363675722480788,398.098417778366,812.508203223055,414.409785444689,-605.303310500711,-8.15568383316173,613.458994333873
0.365840458924126,398.525705897459,812.500369462859,413.974663565399,-605.513037680159,-7.72447883396995,613.237516514129
0.368005195367464,397.806287947061,812.554955059634,414.748667112574,-605.180621503348,-8.47118958275644,613.651811086104
0.370169931810802,399.839354374536,812.63720524618,412.797850871644,-606.238279810358,-6.47924824855386,612.717528058912
0.37233466825414,396.890228192479,812.694498257088,415.804270064609,-604.792363224784,-9.45702093606508,614.249384160849
0.374499404697478,397.270021120067,812.69013310624,415.420111986173,-604.980077113154,-9.07504543305282,614.055122546207
0.376664141140816,399.67371111735,812.62688963286,412.953178515511,-606.150300375105,-6.63973369908058,612.790034074185
0.378828877584154,402.516492856141,812.54520342975,410.028710573609,-607.530848142945,-3.75610885873436,611.28695700168
0.380993614027492,403.924235910246,812.497183423322,408.572947513075,-608.210709666784,-2.32435580141453,610.535065468198
0.38315835047083,403.502568897866,812.51324455729,409.010675659424,-608.007906727578,-2.75405338077917,610.761960108357
0.385323086914168,400.209571226727,812.582800270738,412.373229044011,-606.396185748733,-6.08182890864185,612.478014657375
0.387487823357506,402.048660671427,811.867456932383,409.818796260956,-606.958058801905,-3.88506779476455,610.843126596669
0.389652559800844,401.410482566917,812.70023680361,411.289754236693,-607.055359685263,-4.93963583488801,611.994995520151
0.391817296244182,405.053095816454,812.673062746713,407.61996693026,-608.863079281584,-1.28343555690287,610.146514838486
0.39398203268752,408.427653636348,812.597389750451,404.169736114103,-610.512521693399,2.12895876112214,608.383562932277
0.396146769130858,409.835530287842,812.522157197713,402.68662690987,-611.178843742778,3.57445168898602,607.604392053792
0.398311505574196,409.698434526385,812.495844098831,402.797409572446,-611.097139312608,3.45051247696949,607.646626835638
0.400476242017534,409.195204186029,812.535119888377,403.339915702348,-610.865162037203,2.92764424184054,607.937517795363
0.402640978460872,408.926535367163,812.614274329444,403.687738962281,-610.770404848304,2.6193982024414,608.151006645862
0.40480571490421,409.042107266848,811.888294064839,402.846186797991,-610.465200665843,3.09796023442846,607.367240431415
0.406970451347548,407.571019914855,812.696638059922,405.125618145067,-610.133828987389,1.22270088489415,608.911128102495
0.409135187790886,408.11573470618,812.646822646951,404.531087940772,-610.381278676566,1.79232338270396,608.588955293862
0.411299924234225,409.256539817519,812.565066876453,403.308527058934,-610.910803346986,2.97400637929223,607.936796967694
0.413464660677562,410.791846691292,812.504588872644,401.712742181352,-611.648217781968,4.53955225496998,607.108665526998
0.415629397120901,410.679292026399,812.504667143877,401.825375117478,-611.591979585138,4.42695845446099,607.165021130677
0.417794133564239,410.08076303233,812.565044639735,402.484281607405,-611.322903836033,3.79824071246264,607.52466312357
0.419958870007577,408.069448838321,812.646251472556,404.576802634236,-610.357850155438,1.74632310204231,608.611527053396
0.422123606450915,402.515282088701,812.695526175423,410.180244086722,-607.605404132062,-3.83248099901056,611.437885131072
0.424288342894253,401.847411980261,812.68124672339,410.83383474313,-607.264329351826,-4.49321138143438,611.75754073326
0.426453079337591,403.301153785321,811.819470269893,408.518316484571,-607.560312027607,-2.60858134962496,610.168893377232
0.428617815780929,403.784048924475,812.537621985902,408.753573061427,-608.160835455189,-2.48476206847562,610.645597523664
0.430782552224267,406.18062324638,812.500849016461,406.320225770081,-609.34073613142,-0.0698012618505004,609.410537393271
0.432947288667605,405.232864420027,812.525670330051,407.292805910024,-608.879267375039,-1.02997074499831,609.909238120037
0.435112025110943,406.11015813563,812.595369657986,406.485211522357,-609.352763896808,-0.187526693363679,609.540290590172
0.437276761554281,404.788440256265,811.871283054069,407.082842797804,-608.329861655167,-1.1472012707693,609.477062925936
0.439441497997619,402.382461294141,812.692348595873,410.309887301732,-607.537404945007,-3.96371300379531,611.501117948803
0.441606234440957,398.5984159358,812.65866467062,414.060248734819,-605.62854030321,-7.73091639950957,613.35945670272
0.443770970884295,398.573592061394,812.586505467961,414.012913406567,-605.580048764677,-7.71966067258643,613.299709437264
0.445935707327633,398.347932522112,812.522776597236,414.174844075124,-605.435354559674,-7.91345577650577,613.34881033618
0.448100443770971,397.570313654397,812.508191181767,414.937877527371,-605.039252418082,-8.68378193648698,613.723034354569
0.450265180214309,398.127926863797,812.551083337661,414.423156473864,-605.339505100729,-8.14761480503347,613.487119905763
0.452429916657647,396.50548274776,812.622655199163,416.117172451403,-604.564068973461,-9.8058448518218,614.369913825283
0.454594653100985,397.493367477453,812.676367323066,415.182999845613,-605.084867400259,-8.84481618408046,613.92968358434
0.456759389544323,392.724930828405,811.884547869719,419.159617041313,-602.304739349062,-13.2173431064542,615.522082455516
0.458924125987661,392.22213070795,812.630419936287,420.408289228336,-602.426275322118,-14.093079260193,616.519354582312
0.461088862430999,392.31668437467,811.768727859904,419.452043485234,-602.042706117287,-13.5676795552816,615.610385672569
0.463253598874337,392.147344876195,812.519828053866,420.372483177672,-602.333586465031,-14.1125691507385,616.446155615769
0.465418335317675,392.914832893787,812.526550545206,419.611717651419,-602.720691719496,-13.3484423788163,616.069134098312
0.467583071761013,390.974654214468,812.576760341595,421.602106127127,-601.775707278032,-15.3137259563294,617.089433234361
0.469747808204351,392.418769219205,811.049998838182,418.631229618977,-601.734384028694,-13.1062301998858,614.84061422858
0.471912544647689,394.163447082203,811.880126844314,417.716679762111,-603.021786963259,-11.7766163399541,614.798403303213
0.474077281091027,393.422415444896,811.073572490554,417.651157045658,-602.247993967725,-12.1143708003812,614.362364768106
0.476242017534365,390.649967870604,811.815617681768,421.165649811164,-601.232792776186,-15.2578409702796,616.490633746466
0.478406753977703,390.849668637054,812.549754234865,421.70008559781,-601.69971143596,-15.4252084803779,617.124919916337
0.480571490421041,393.097680637967,812.518498778233,419.420818140267,-602.8080897081,-13.1615687511501,615.96965845925
0.482736226864379,395.39198125788,812.536398000829,417.144416742949,-603.964189629354,-10.8762177425345,614.840407371889
0.484900963307717,394.122233788372,812.59337583889,418.471142050518,-603.357804813631,-12.1744541310731,615.532258944704
0.487065699751055,397.839099421044,812.654253007986,414.815153586942,-605.246676214515,-8.48802708294892,613.734703297464
0.489230436194393,398.763744010116,812.680686549627,413.916942539511,-605.722215279871,-7.57659926469768,613.298814544569
0.491395172637731,395.722186701923,812.655548553377,416.933361851455,-604.18886762765,-10.605587574766,614.794455202416
0.493559909081069,393.095607727543,812.594100375377,419.498492647834,-602.84485405146,-13.2014424601459,616.046296511606
0.495724645524407,394.998483898201,812.534627061272,417.536143163071,-603.766555479736,-11.2688296324353,615.035385112171
0.497889381967745,395.659375711248,812.514346790066,416.854971078818,-604.086861250657,-10.5977976837847,614.684658934442
0.500054118411083,397.83472102385,812.545905884093,414.711184860242,-605.190313453971,-8.43823191819581,613.628545372167
0.502218854854422,394.811486096245,811.815595574766,417.004109478521,-603.313540835505,-11.0963116911378,614.409852526643
0.50438359129776,389.694283237714,812.666545869814,422.9722626321,-601.180414553764,-16.6389896971934,617.819404250957
0.506548327741097,387.489675895823,812.67953217501,425.189856279187,-600.084604035416,-18.8500901916819,618.934694227098
0.508713064184436,386.991773275376,812.640609541769,425.648836266393,-599.816191408572,-19.3285314955085,619.144722904081
0.510877800627774,386.89814038374,811.781401448691,424.88326106495,-599.339770916216,-18.9925603406051,618.332331256821
0.513042537071112,383.268485233373,812.526685201268,429.258199967895,-597.897585217321,-22.9948573672609,620.892442584582
0.51520727351445,383.821269970931,812.522984500601,428.70171452967,-598.172127235766,-22.4402222793696,620.612349515135
0.517372009957788,386.62885502623,812.5649266132,425.936071586971,-599.596890819715,-19.6536082803703,619.250499100086
0.519536746401126,391.443879076842,811.831340892349,420.387461815506,-601.637609984595,-14.471791369332,616.109401353927
0.521701482844464,396.667594832348,812.667626896262,416.000032063913,-604.667610864305,-9.66621861578255,614.333829480088
0.523866219287802,402.52214710677,811.871161088331,409.349013981561,-607.196654097551,-3.41343343739561,610.610087534946
0.52603095573114,417.254139161861,811.828250693292,394.57411153143,-614.541194927577,11.3400138152155,603.201181112361
0.528195692174478,429.146015519063,812.566503387299,383.420487868236,-620.856259453181,22.8627638254136,597.993495627768
0.530360428617816,442.955733483146,812.530704622959,369.574971139813,-627.743219053052,36.690381171666,591.052837881386
0.532525165061154,462.460174437318,812.535780776514,350.075606339196,-637.497977606916,56.1922840490611,581.305693557855
0.534689901504492,485.807301143066,812.577616199873,326.770315056807,-649.19245867147,79.5184930431294,569.67396562834
0.53685463794783,505.678050480972,811.042458161352,305.36440768038,-658.360254321162,100.156821400296,558.203432920866
0.539019374391168,523.683999623329,811.870636139723,288.186636516393,-667.777317881526,117.748681553468,550.028636328058
0.541184110834506,532.86456221068,811.0699866748,278.20542446412,-671.96727444274,127.32956887328,544.63770556946
0.543348847277844,531.859796364472,812.614930089468,280.755133724996,-672.23736322697,125.552331319738,546.685031907232
0.545513583721182,524.764554105155,812.558798626772,287.794244521617,-668.661676365964,118.485154791769,550.176521574194
0.54767832016452,510.726818597707,811.730663731082,301.003845133375,-661.228741164395,104.861486732166,556.367254432228
0.549843056607858,490.352377214476,811.742468059507,321.390090845032,-651.047422636992,84.4811431847221,566.56627945227
0.552007793051196,469.013707198487,812.587651032,343.573943833513,-640.800679115243,62.7198816824871,578.080797432756
0.554172529494534,453.788301457185,812.644870070727,358.856568613541,-633.216585763956,47.4658664218221,585.750719342134
0.556337265937872,439.993177639374,811.084641601152,371.091463961778,-625.538909620263,34.4508568387978,591.088052781465
0.55850200238121,431.78400258122,812.656116141038,380.872113559818,-622.220059361129,25.4559445107009,596.764114850428
0.560666738824548,421.388112086283,812.602350944296,391.214238858014,-616.99523151529,15.0869366141345,601.908294901155
0.562831475267886,416.798073183476,812.54409289888,395.746019715403,-614.671083041178,10.5260267340365,604.145056307142
0.564996211711224,410.757889316699,812.518133199301,401.760243882602,-611.638011258,4.49882271704865,607.139188540952
0.567160948154562,412.600072455596,811.747760141105,399.147687685509,-612.173916298351,6.72619238504336,605.447723913307
0.5693256845979,414.214766202531,812.602040944472,398.38727474194,-613.408403573501,7.91374573029543,605.494657843206
0.571490421041238,416.376011702389,811.072088291317,394.696076588928,-613.724049996853,10.8399675567302,602.884082440123
0.573655157484576,417.641134581422,811.887137112323,394.246002530901,-614.764135846872,11.6975660252603,603.066569821612
0.575819893927914,418.22701873219,812.649157348944,394.422138616754,-615.438088040567,11.9024400577178,603.535647982849
0.577984630371252,417.48257062404,812.581633099161,395.099062475121,-615.0321018616,11.1917540744591,603.840347787141
0.58014936681459,412.998381459479,812.521689900817,399.523308441338,-612.760035680148,6.73753650907059,606.022499171078
0.582314103257928,409.358507145512,812.509300434094,403.150793288582,-610.933903789803,3.10385692846484,607.830046861338
0.584478839701266,404.751808804473,812.554464596803,407.80265579233,-608.653136700638,-1.52542349392843,610.178560194567
0.586643576144604,403.033230222282,812.629599554543,409.596369332261,-607.831414888412,-3.28156955498912,611.112984443402
0.588808312587942,404.272384474566,812.686552795468,408.414168320902,-608.479468635017,-2.07089192316778,610.550360558185
0.59097304903128,403.129426645992,812.687630731321,409.55820408533,-607.908528688656,-3.21438871966893,611.122917408325
0.593137785474618,403.811635967216,812.630548580498,408.818912613282,-608.221092273857,-2.50363832303276,610.72473059689
0.595302521917957,404.027306336941,812.550792038551,408.523485701611,-608.289049187746,-2.24808968233515,610.537138870081
0.597467258361295,405.240568094122,812.499383079386,407.258814985263,-608.869975586754,-1.00912344557059,609.879099032325
0.599631994804633,406.388434083921,812.510094652528,406.121660568608,-609.449264368224,0.133386757656524,609.315877610568
0.601796731247971,407.231288355332,812.577266956568,405.345978601236,-609.90427765595,0.942654877048028,608.961622778902
0.603961467691309,404.546184990019,812.658788558983,408.112603568964,-608.602486774501,-1.78320928947272,610.385696063974
0.606126204134647,404.874687925161,811.908819855234,407.034131930073,-608.391753890198,-1.07972200245581,609.471475892653
0.608290940577985,403.751382030093,812.681627840243,408.93024581015,-608.216504935168,-2.58943189002849,610.805936825197
0.610455677021323,404.573017195532,812.605924866956,408.032907671424,-608.589471031244,-1.72994523794551,610.31941626919
0.612620413464661,402.567111834281,812.522810988878,409.955699154597,-607.54496141158,-3.69429366015834,611.239255071738
0.614785149907999,403.059096990344,812.485574393396,409.426477403051,-607.77233569187,-3.18369020635333,610.956025898223
0.616949886351337,400.965560228467,810.931589827692,409.966029599225,-605.948575028079,-4.50023468537916,610.448809713458
0.619114622794675,398.476041356407,811.812782062832,413.336740706425,-605.14441170962,-7.43034967500921,612.574761384629
0.621279359238013,398.032247712079,812.689477767958,414.657230055879,-605.360862740018,-8.31249117190015,613.673353911918
0.623444095681351,398.321482741551,811.917895910511,413.596413168959,-605.119689326031,-7.63746521370405,612.757154539735
0.625608832124689,399.665336336086,812.660079701916,412.994743365831,-606.162708019001,-6.66470351487237,612.827411533873
0.627773568568027,400.638706346599,812.56636612526,411.92765977866,-606.60253623593,-5.64447671603045,612.24701295196
0.629938305011365,401.139461093758,812.492087519876,411.352626426118,-606.815774306817,-5.10658266617958,611.922356972997
0.632103041454703,400.064466315649,812.486628688224,412.422162372575,-606.275547501936,-6.17884802846288,612.454395530399
0.634267777898041,397.883961781,812.554471342508,414.670509561508,-605.219216561754,-8.39327389025379,613.612490452008
0.636432514341379,396.844927316122,812.651745121545,415.806817805423,-604.748336218833,-9.48094524465091,614.229281463484
0.638597250784717,398.675310712845,812.714671652315,414.03936093947,-605.69499118258,-7.68202511331242,613.377016295892
0.640761987228055,398.944827428526,812.701413970412,413.756586541886,-605.823120699469,-7.40587955668013,613.229000256149
0.642926723671393,398.780013070134,811.032168595212,412.252155525078,-604.906090832673,-6.73607122747188,611.642162060145
0.645091460114731,399.888188340367,812.52555566045,412.637367320083,-606.206872000408,-6.37458948985784,612.581461490266
0.647256196558069,403.67520127133,812.475681676848,408.800480405519,-608.075441474089,-2.56263956709444,610.638081041184
0.649420933001407,405.790535914527,810.91498216888,405.124446254352,-608.352759041703,0.333044830087431,608.019714211616
0.651585669444745,406.692934329502,812.593116117684,405.900181788182,-609.643025223593,0.396376270660085,609.246648952933
0.653750405888083,404.718327278463,812.685646375045,407.967319096583,-608.701986826754,-1.6244959090601,610.326482735814
0.655915142331421,404.868467041349,811.926923736148,407.058456694798,-608.397695388749,-1.09499482672453,609.492690215473
0.658079878774759,402.778350326322,812.677843838728,409.899493512406,-607.728097082525,-3.56057159304237,611.288668675567
0.660244615218097,401.942299055354,812.58301143752,410.640712382166,-607.262655246437,-4.34920666340616,611.611861909843
0.662409351661435,402.391402241321,812.497423924507,410.106021683186,-607.444413082914,-3.8573097209329,611.301722803847
0.664574088104773,400.670652648904,811.682600374334,411.011947725431,-606.176626511619,-5.17064753826344,611.347274049882
0.666738824548111,403.513921525205,812.535129463458,409.021207938252,-608.024525494331,-2.75364320652341,610.778168700855
0.668903560991449,401.096545960151,812.633395518497,411.536849558346,-606.864970739324,-5.22015179909778,612.085122538422
0.671068297434787,402.174365784525,812.707429346294,410.533063561769,-607.44089756541,-4.17934888862163,611.620246454031
0.673233033878125,401.505657562206,812.70981691321,411.204159351004,-607.107737237708,-4.84925089439918,611.956988132107
0.675397770321463,402.687239034043,811.846106864071,409.158867830028,-607.266672949057,-3.23581439799261,610.50248734705
0.677562506764801,400.418456904677,812.545194465295,412.126737560618,-606.481825684986,-5.85414032797058,612.335966012956
0.679727243208139,400.988670649028,812.484740525027,411.496069876,-606.736705587027,-5.25369961348594,611.990405200513
0.681891979651477,403.246340570155,812.496759673656,409.250419103501,-607.871550121906,-3.00203926667251,610.873589388578
0.684056716094815,404.381954056602,812.572926184352,408.19097212775,-608.477440120477,-1.90450903557411,610.381949156051
0.686221452538153,404.175429663346,812.664122203868,408.488692540522,-608.419775933607,-2.15663143858808,610.576407372195
0.688386188981492,403.550627330263,812.712115889114,409.161488558851,-608.131371609688,-2.80543061429375,610.936802223982
0.69055092542483,404.492183218815,812.686780810086,408.194597591271,-608.58948201445,-1.8512071862279,610.440689200678
0.692715661868168,407.408827694805,811.811202670535,404.40237497573,-609.61001518267,1.50322635953739,608.106788823133
0.694880398311506,411.668611674508,812.520967098573,400.852355424065,-612.09478938654,5.40812812522188,606.686661261319
0.697045134754844,413.117882713345,812.485864188795,399.367981475451,-612.80187345107,6.87495061894708,605.926922832123
0.699209871198182,416.11365733115,812.52116538382,396.40750805267,-614.317411357485,9.85307463923959,604.464336718245
0.70137460764152,414.715437470087,812.603971654182,397.888534184095,-613.659704562135,8.41345164299622,605.246252919139
0.703539344084858,411.193433985486,812.681885652418,401.488451666932,-611.937659818952,4.85249115927672,607.085168659675
0.705704080528196,408.15103523487,811.912338135221,403.761302900351,-610.031686685046,2.19486616725948,607.836820517786
0.707868816971534,409.965653866244,812.663640931786,402.697987065543,-611.314647399015,3.6338334003504,607.680813998664
0.710033553414872,409.827596046663,812.57942300263,402.751826955967,-611.203509524646,3.53788454534805,607.665624979298
0.71219828985821,412.57669663854,812.506435025489,399.929738386949,-612.541565832015,6.32347912579593,606.218086706219
0.714363026301548,414.806208227691,812.490751623954,397.684543396263,-613.648479925822,8.56083241571406,605.087647510108
0.716527762744886,417.716064603299,812.542501822805,394.826437219505,-615.129283213052,11.4448136918971,603.684469521155
0.718692499188224,420.200268801328,812.629303374852,392.429034573524,-616.41478608809,13.8856171139017,602.529168974188
0.720857235631562,421.414270945053,812.69651249155,391.282241546497,-617.055391718302,15.0660146992783,601.989377019023
0.7230219720749,420.800008667385,812.701632211961,391.901623544576,-616.750820439673,14.4491925614047,602.301627878269
0.725186708518238,423.495435610617,812.641207204087,389.14577159347,-618.068321407352,17.1748320085733,600.893489398778
0.727351444961576,421.839156558637,811.759326920915,389.920170362278,-616.799241739776,15.9594930981798,600.839748641596
0.729516181404914,419.040947707754,812.494374384038,393.453426676285,-615.767661045896,12.7937605157346,602.973900530162
0.731680917848252,417.252404310059,812.499719357362,395.247315047303,-614.87606183371,11.0025446313777,603.873517202332
0.73384565429159,420.084163775548,812.565667597081,392.481503821533,-616.324915686315,13.8013299770078,602.523585709307
0.736010390734928,416.14484314339,811.063535308424,394.918692165033,-613.604189225907,10.6130754891784,602.991113736728
0.738175127178266,417.335876937051,812.706054841511,395.370177904461,-615.020965889281,10.9828495162951,604.038116372986
0.740339863621604,416.752670559778,812.691615681326,395.938945121548,-614.722143120552,10.406862719115,604.315280401437
0.742504600064942,417.1298814067,812.61630837141,395.48642696471,-614.873094889055,10.821727220995,604.05136766806
0.74466933650828,414.746711329406,812.527995578408,397.781284249001,-613.637353453907,8.48271354020272,605.154639913704
0.746834072951618,415.956772020103,812.48360348416,396.526831464057,-614.220187752132,9.71497027802332,604.505217474108
0.748998809394956,418.915874051925,812.512451230646,393.596577178721,-615.714162641285,12.6596484366019,603.054514204684
0.751163545838294,420.887954508822,812.596913875684,391.708959366862,-616.742434192253,14.5894975709803,602.152936621273
0.753328282281632,421.642791147733,812.683153291122,391.040362143389,-617.162972219427,15.3012145021721,601.861757717255
0.75549301872497,423.59383056605,812.715406230406,389.121575664356,-618.154618398228,17.236127450847,600.918490947381
0.757657755168308,422.243122755786,812.672010005306,390.42888724952,-617.457566380546,15.9071177531328,601.550448627413
0.759822491611646,417.139989778634,810.992222986067,393.852233207433,-614.06610638235,11.6438782856006,602.42222809675
0.761987228054984,415.639766468844,812.500623118074,396.860856649229,-614.070194793459,9.38945490980763,604.680739883651
0.764151964498322,414.501917994657,812.480959566727,397.97904157207,-613.491438780692,8.26143821129313,605.230000569399
0.76631670094166,415.025865119391,812.533864717992,397.507999598601,-613.779864918691,8.75893276039506,605.020932158296
0.768481437384998,416.882346522697,811.833389597607,394.95104307491,-614.357868060152,10.9656517238934,603.392216336259
0.770646173828336,418.320500958487,812.704664172213,394.384163213726,-615.51258256535,11.9681688723802,603.544413692969
0.772810910271674,422.620317725865,812.715268752404,390.09495102654,-617.667793239135,16.2626833496624,601.405109889472
0.774975646715013,423.725540019945,812.651224420772,388.925684400827,-618.188382220358,17.3999278095589,600.788454410799
0.777140383158351,421.944653384414,812.552110750854,390.607457366439,-617.248382067634,15.6685980089875,601.579784058647
0.779305119601688,419.784758031393,812.480492565628,392.695734534235,-616.13262529851,13.5445117485786,602.588113549932
0.781469856045027,418.690632336222,810.894766940583,392.204134604361,-614.792699638403,13.2432488659303,601.549450772472
0.783634592488365,418.340299777171,812.560624523947,394.220324746776,-615.450462150559,12.0599875151977,603.390474635361
0.785799328931703,416.85483374452,812.661717781133,395.806884036613,-614.758275762827,10.5239748539537,604.234300908873
0.787964065375041,414.96096865881,812.720956007074,397.759987348264,-613.840962332942,8.60049065527318,605.240471677669
0.790128801818379,412.857611791531,812.700876285461,399.84326449393,-612.779244038496,6.50717364880029,606.272070389695
0.792293538261717,412.46736447835,812.615022694421,400.147658216071,-612.541193586386,6.15985313113936,606.381340455246
0.794458274705055,412.452764665581,812.518878666297,400.066114000716,-612.485821665939,6.19332533243283,606.292496333506
0.796623011148393,412.821673559922,812.474072545307,399.652398985385,-612.647873052615,6.58463728726861,606.063235765346
0.798787747591731,411.748211235366,812.508910697596,400.76069946223,-612.128560966481,5.49375588656756,606.634805079913
0.800952484035069,409.698847181682,812.600490391519,402.901643209836,-611.1496687866,3.39860198592294,607.751066800677
0.803117220478407,407.257837277613,812.689699118056,405.431861840443,-609.973768197834,0.912987718584873,609.06078047925
0.805281956921745,406.051280164792,812.719311696814,406.668031532022,-609.385295930803,-0.30837568361477,609.693671614418
0.807446693365083,404.749410883553,812.670668145995,407.921257262442,-608.710039514774,-1.58592318944409,610.295962704218
0.809611429808421,400.495060405172,812.575442350778,412.080381945606,-606.535251377975,-5.79266077021731,612.327912148192
0.811776166251759,399.029212645572,811.701227019404,412.672014373831,-605.365219832488,-6.8214008641296,612.186620696618
0.813940902695097,399.479165929208,812.482498628106,413.003332698898,-605.980832278657,-6.7620833848452,612.742915663502
0.816105639138435,395.204823133823,812.543206762933,417.33838362911,-603.874014948378,-11.0667802476432,614.940795196021
0.818270375581773,391.460338381196,812.637451541969,421.177113160773,-602.048894961583,-14.8583873897882,616.907282351371
0.820435112025111,394.457523455907,812.704886739103,418.247363283195,-603.581205097505,-11.8949199136441,615.476125011149
0.822599848468449,391.593767898913,812.703171171386,421.109403272473,-602.14846953515,-14.7578176867797,616.906287221929
0.824764584911787,388.7302724581,812.634552282802,423.904279824702,-600.682412370451,-17.5870036833009,618.269416053752
0.826929321355125,389.349776405779,810.956046204124,421.606269798345,-600.152911304952,-16.128246696283,616.281158001235
0.829094057798463,386.416176682344,812.491467105172,426.075290422827,-599.453821893758,-19.8295568702417,619.283378764
0.831258794241801,383.753285994447,812.505718148343,428.752432153896,-598.129502071395,-22.4995730797241,620.629075151119
0.833423530685139,386.599110447588,810.987821589565,424.388711141977,-598.793466018576,-18.8948003471944,617.688266365771
0.835588267128477,385.123884484944,812.659074287532,427.535189802588,-598.891479386238,-21.2056526588221,620.09713204506
0.837753003571815,385.604776886038,812.700425798694,427.095648912657,-599.152601342366,-20.7454360133094,619.898037355675
0.839917740015153,385.853401718369,812.675075534727,426.821673816358,-599.264238626548,-20.4841360489946,619.748374675543
0.842082476458491,383.83257770618,811.807989444611,427.975411738432,-597.820283575395,-22.071417016126,619.891700591522
0.844247212901829,382.999585050432,812.530515566802,429.53093051637,-597.765050308617,-23.2656727329691,621.030723041586
0.846411949345167,384.972676593433,812.504080394929,427.531403801496,-598.738378494181,-21.2793636040315,620.017742098212
0.848576685788505,386.330326245898,812.536966272771,426.206640026873,-599.433646259335,-19.9381568904876,619.371803149822
0.850741422231843,385.125369488987,812.606044031418,427.480674542431,-598.865706760202,-21.1776525267217,620.043359286924
0.852906158675181,385.880354977274,812.666698556346,426.786343579072,-599.27352676681,-20.4529943008988,619.726521067709
0.855070895118519,387.028708166175,812.681636988387,425.652928822213,-599.855172577281,-19.312110328019,619.1672829053
0.857235631561857,385.668994240088,811.849982998484,426.180988758396,-598.759488619286,-20.2559972591544,619.01548587844
0.859400368005195,385.33774882698,812.580775435087,427.243026608107,-598.959262131033,-20.9526388905633,619.911901021597
0.861565104448533,385.45331735099,812.530702675916,427.077385324926,-598.992010013453,-20.812033986968,619.804044000421
0.863729840891871,385.944552240748,812.523554480471,426.579002239723,-599.234053360609,-20.3172249994877,619.551278360097
0.865894577335209,386.50123055152,812.56178399371,426.060553442191,-599.531507272615,-19.7796614453354,619.311168717951
0.868059313778548,385.976595380393,812.620085376611,426.643489996218,-599.298340378502,-20.3334473079123,619.631787686414
0.870224050221886,385.787956072796,812.662124733203,426.874168660406,-599.225040402999,-20.5431062938052,619.768146696804
0.872388786665224,383.670681912906,812.663221932985,428.992540020079,-598.166951922946,-22.6609290535866,620.827880976532
0.874553523108562,385.516920303734,811.830953428901,426.314033125167,-598.673936866317,-20.3985564107163,619.072493277034
0.8767182595519,385.307162545962,812.573478768217,427.266316222255,-598.94032065709,-20.9795768381463,619.919897495236
0.878882995995238,385.556336810919,812.538594063572,426.982257252653,-599.047465437246,-20.7129602208668,619.760425658112
0.881047732438576,388.492998116848,812.539703373545,424.046705256697,-600.516350745196,-17.7768535699242,618.293204315121
0.883212468881914,387.417436526378,812.574434833987,425.156998307609,-599.995935680182,-18.8697808906157,618.865716570798
0.885377205325252,388.366445221257,811.827199646924,423.460754425667,-600.096822434091,-17.5471546022046,617.643977036295
0.88754194176859,388.067101530502,812.65340788584,424.586306355337,-600.360254708171,-18.2596024124173,618.619857120588
0.889706678211928,388.29245877825,812.651335330484,424.358876552234,-600.471897054367,-18.033208886992,618.505105941359
0.891871414655266,387.011318943138,812.617359878691,425.606040935552,-599.814339410914,-19.2973609962068,619.111700407121
0.894036151098604,384.526950831291,812.573015901923,428.046065070632,-598.549983366607,-21.7595571196705,620.309540486278
0.896200887541942,384.081999173801,812.545121672525,428.463122498724,-598.313560423163,-22.1905616624615,620.504122085624
0.89836562398528,381.489060927834,812.549522050759,431.060461122925,-597.019291489297,-24.7857000975455,621.804991586842
0.900530360428618,383.532524045411,811.788331172846,428.255807127435,-597.660427609128,-22.3616415410119,620.02206915014
0.902695096871956,385.951304613524,812.623870212084,426.672565598559,-599.287587412804,-20.3606304925175,619.648217905322
0.904859833315294,387.12803883658,812.647383065968,425.519344229388,-599.887710951274,-19.1956526964036,619.083363647678
0.907024569758632,386.526814863018,811.845623078608,425.31880821559,-599.186218970813,-19.3959966762861,618.582215647099
0.90918930620197,389.295521945588,812.608219785286,423.312697839698,-600.951870865437,-17.0085879470552,617.960458812492
0.911354042645308,391.722107424846,812.571792424353,420.849684999507,-602.1469499246,-14.5637887873306,616.71073871193
0.913518779088646,393.78092002733,812.552000524399,418.771080497069,-603.166460275865,-12.4950802348695,615.661540510734
0.915683515531984,395.972775405098,812.559900743096,416.587125337998,-604.266338074097,-10.3071749664497,614.573513040547
0.917848251975322,396.331400664586,812.589720933206,416.25832026862,-604.460560798896,-9.96345980201733,614.424020600913
0.92001298841866,395.427077005945,811.82922947285,416.402152466905,-603.628153239398,-10.48753773048,614.115690969878
0.922177724861998,391.741505318589,811.847872079558,420.106366760968,-601.794688699073,-14.1824307211896,615.977119420263
0.924342461305336,391.152365991738,812.634515747142,421.482149755404,-601.89344086944,-15.164891881833,617.058332751273
0.926507197748674,386.874946602319,811.810209162965,424.935262560646,-599.342577882642,-19.0301579791635,618.372735861805
0.928671934192012,383.863316690748,812.570306206967,428.706989516219,-598.216811448857,-22.4218364127356,620.638647861593
0.93083667063535,386.775533187414,810.964276686065,424.188743498651,-598.869904936739,-18.7066051556185,617.576510092358
0.933001407078688,388.125052685884,811.769210514082,423.644157828198,-599.947131599983,-17.7595525711573,617.70668417114
0.935166143522026,391.535489879021,812.594243254687,421.058753375666,-602.064866566854,-14.7616317483224,616.826498315177
0.937330879965364,393.69096359671,811.036783493282,417.345819896572,-602.363873544996,-11.8274281499314,614.191301694927
0.939495616408702,393.158050410946,811.051693709608,417.893643298663,-602.104872060277,-12.3677964438585,614.472668504135
0.94166035285204,395.840776439411,812.63043486292,416.789658423509,-604.235605651165,-10.4744409920493,614.710046643215
0.943825089295378,398.868040117344,812.599695472037,413.731655354693,-605.733867794691,-7.43180761867433,613.165675413365
0.945989825738716,397.556133447671,811.772507041509,414.216373593839,-604.66432024459,-8.33012007308395,612.994440317674
0.948154562182054,396.490239378166,812.553310309087,416.063070930921,-604.521774843626,-9.78641577637785,614.308190620004
0.950319298625392,394.548263506732,811.773540187441,417.225276680709,-603.160901847086,-11.3385065869888,614.499408434075
0.95248403506873,394.635000862989,812.60145318554,417.966452322551,-603.618227024265,-11.6657257297809,615.283952754045
0.954648771512068,394.316886221584,812.632473121467,418.315586899883,-603.474679671525,-11.9993503391494,615.474030010675
0.956813507955406,390.619964485962,811.847405723875,421.227441237913,-601.233685104919,-15.3037383759757,616.537423480894
0.958978244398744,388.639366089675,812.624314984997,423.984948895321,-600.631840537336,-17.672791402823,618.304631940159
0.961142980842082,387.029376753612,812.590556916773,425.561180163161,-599.809966835192,-19.2659017047745,619.075868539967
0.963307717285421,387.382624821884,812.560790763744,425.17816594186,-599.971707792814,-18.8977705599881,618.869478352802
0.965472453728759,390.260689035552,810.96583285245,420.705143816899,-600.613260944001,-15.2222273906734,615.835488334674
0.967637190172097,392.964305515028,811.782264156019,418.817958640991,-602.373284835524,-12.9268265629815,615.300111398505
0.969801926615435,396.092574480697,812.611463868914,416.518889388217,-604.352019174805,-10.2131574537602,614.565176628565
0.971966663058773,395.721577136135,812.634905439898,416.913328303764,-604.178241288017,-10.5958755838144,614.774116871831
0.974131399502111,398.456165147081,812.632805320609,414.176640173529,-605.544485233845,-7.86023751322404,613.404722747069
0.976296135945449,399.018140392128,812.609106550452,413.590966158324,-605.81362347129,-7.28641288309802,613.100036354388
0.978460872388787,399.925514034581,812.581089550982,412.655575516401,-606.253301792781,-6.36503074090979,612.618332533691
0.980625608832125,399.50085068549,812.566891763678,413.066041078189,-606.033871224584,-6.78259519634952,612.816466420933
0.982790345275463,399.08704447692,812.573716589855,413.486672112934,-605.830380533388,-7.19981381800699,613.030194351395
0.984955081718801,400.031738114034,811.006736153322,410.974998039289,-605.519237133678,-5.47162996262745,610.990867096306
0.987119818162139,395.898365027764,811.028889079256,415.130524051492,-603.46362705351,-9.61607951186397,613.079706565374
0.989284554605477,397.134630606423,812.624315515599,415.489684909176,-604.879473061011,-9.17752715137652,614.057000212388
0.991449291048815,399.204386595467,811.021904352638,411.817517757171,-605.113145474052,-6.3065655808519,611.419711054904
0.993614027492153,402.294840217164,812.587538581746,410.292698364582,-607.441189399455,-3.99892907370901,611.440118473164
0.995778763935491,401.678106385105,812.572140873658,410.894034488553,-607.125123629382,-4.60796405172437,611.733087681106
0.997943500378829,399.616749418091,812.575615050158,412.958865632067,-606.096182234125,-6.67105810698837,612.767240341113
1.00010823682217,399.882779247318,812.59643581396,412.713656566642,-606.239607530639,-6.41543865966213,612.655046190301
1.0022729732655,402.315833645437,812.619932097603,410.304098452166,-607.46788287152,-3.99413240336457,611.462015274885
1.00443770970884,404.508088810236,811.834767175693,407.326678365457,-608.171427992965,-1.40929477761046,609.580722770575
1.00660244615218,404.997011747812,812.616292104406,407.619280356594,-608.806651926109,-1.31113430439115,610.1177862305
1.00876718259552,407.94852214924,811.00061230321,403.05209015397,-609.474567226225,2.44821599763492,607.02635122859
1.01093191903886,407.145921024708,812.566417909902,405.420496885194,-609.856169467305,0.86271206975681,608.993457397548
1.01309665548219,407.354271701598,812.562779359,405.208507657403,-609.958525530299,1.07288202209742,608.885643508202
1.01526139192553,406.848562055665,812.581528566268,405.732966510602,-609.715045310967,0.557797772531558,609.157247538435
1.01742612836887,406.239618706702,812.61237266555,406.372753958848,-609.425995686126,-0.0665676260733221,609.492563312199
1.01959086481221,404.620579104827,812.636171593128,408.015592488301,-608.628375348977,-1.69750669173686,610.325882040714
1.02175560125555,405.98850179727,812.636907370732,406.648405573462,-609.312704584001,-0.329951888096105,609.642656472097
1.02392033769889,407.307054374754,812.612489803414,405.30543542866,-609.959772089084,1.00080947304673,608.958962616037
1.02608507414222,407.949637556414,812.57710010004,404.627462543626,-610.263368828227,1.66108750639421,608.602281321833
1.02824981058556,408.008494495588,812.55295108479,404.544456589202,-610.280722790189,1.73201895319312,608.548703836996
1.0304145470289,405.856519106252,812.55625915815,406.699740051898,-609.206389132201,-0.421610472822636,609.627999605024
1.03257928347224,408.496287573513,812.586340685777,404.090053112264,-610.541314129645,2.20311723062457,608.33819689902
1.03474401991558,407.820853704285,812.62516735044,404.804313646154,-610.223010527362,1.50827002906556,608.714740498297
1.03690875635891,407.729116135549,811.854359981422,404.125243845873,-609.791738058485,1.80193614483818,607.989801913647
1.03907349280225,406.696632640229,812.641316802319,405.94468416209,-609.668974721274,0.375974239069535,609.293000482204
1.04123822924559,405.673260294365,812.605310564518,406.932050270152,-609.139285429442,-0.62939498789342,609.768680417335
1.04340296568893,404.803546692198,810.974115071378,406.17056837918,-607.888830881788,-0.683510843490751,608.572341725279
1.04556770213227,404.922184297415,812.541546361644,407.619362064229,-608.73186532953,-1.34858888340671,610.080454212937
1.0477324385756,403.561364769802,812.554540427673,408.99317565787,-608.057952598738,-2.71590544403381,610.773858042771
1.04989717501894,402.95507733325,812.593782073694,409.638704740444,-607.774429703472,-3.34181370359676,611.116243407069
1.05206191146228,399.017703834332,812.636294243039,413.618590408707,-605.826999038686,-7.30044328718714,613.127442325873
1.05422664790562,401.269801064383,812.656559935196,411.386758870814,-606.963180499789,-5.05847890321564,612.021659403005
1.05639138434896,401.856171979334,812.641858393652,410.785686414318,-607.249015186493,-4.46475721749238,611.713772403985
1.05855612079229,406.46575423416,812.600272900895,406.134518666736,-609.533013567527,0.165617783712094,609.367395783815
1.06072085723563,404.071452142484,812.556317370555,408.484865228071,-608.31388475652,-2.2067065427932,610.520591299313
1.06288559367897,401.035803654792,811.742657221628,410.706853566836,-606.38923043821,-4.83552495602203,611.224755394232
1.06505033012231,399.65583768725,812.554654324282,412.898816637032,-606.105246005766,-6.62148947489112,612.726735480657
1.06721506656565,398.209805449482,811.010492488128,412.800687038645,-604.610148968805,-7.29544079458157,611.905589763386
1.06937980300898,397.397680652432,812.643575141716,415.245894489284,-605.020627897074,-8.92410691842599,613.9447348155
1.07154453945232,397.227062331116,812.659140291295,415.43207796018,-604.943101311205,-9.10250781453215,614.045609125738
1.07370927589566,397.010958745273,812.635285149034,415.62432640376,-604.823121947153,-9.30668382924358,614.129805776397
1.075874012339,395.3016755954,812.587784852348,417.286109256948,-603.944730223874,-10.9922168307741,614.936947054648
1.07803874878234,393.771056375024,812.547352090884,418.776295715861,-603.159204232954,-12.5026196704187,615.661823903373
1.08020348522567,393.179570162241,812.539756596437,419.360186434196,-602.859663379339,-13.0903081359778,615.949971515317
1.08236822166901,391.806095778735,812.569374005745,420.763278227011,-602.18773489224,-14.4785912241378,616.666326116378
1.08453295811235,391.889513448512,812.616680160561,420.727166712049,-602.253096804536,-14.4188266317689,616.671923436305
1.08669769455569,392.575471232372,812.651113446866,420.075642214494,-602.613292339619,-13.7500854910607,616.36337783068
1.08886243099903,388.373982589105,812.650836509951,424.276853920846,-600.512409549528,-17.9514356658701,618.463845215398
1.09102716744236,390.561350793299,812.616610262845,422.055259469547,-601.588980528072,-15.7469543381241,617.335934866196
1.0931919038857,392.118350461053,812.570952773357,420.452602312304,-602.344651617205,-14.1671259256253,616.51177754283
1.09535664032904,389.888462239765,812.543337953217,422.654875713452,-601.215900096491,-16.3832067368437,617.599106833335
1.09752137677238,392.509630558347,812.551154486842,420.041523928496,-602.530392522594,-13.7659466850745,616.296339207669
1.09968611321572,390.2916114922,812.588732667972,422.297121175772,-601.440172080086,-16.0027548417857,617.442926921872
1.10185084965905,393.449312532022,812.631376135181,419.18206360316,-603.040344333601,-12.8663755355689,615.90671986917
1.10401558610239,394.842785813964,812.651573334558,417.808787520594,-603.747179574261,-11.4830008533148,615.230180427576
1.10618032254573,395.394838516155,812.636759070764,417.241920554609,-604.01579879346,-10.9235410192269,614.939339812687
1.10834505898907,398.447802295525,812.597154040459,414.149351744934,-605.522478167992,-7.85077472470471,613.373252892697
1.11050979543241,398.529520167253,812.558779185892,414.02925901864,-605.544149676572,-7.74986942569353,613.294019102266
1.11267453187574,399.5626248249,812.54638342128,412.98375859638,-606.05450412309,-6.71056688574004,612.76507100883
1.11483926831908,399.0066027132,811.77362609651,412.76702338331,-605.390114404855,-6.88021033505464,612.27032473991
1.11700400476242,395.905782940283,812.609065511626,416.703282571342,-604.257424225955,-10.3987498155295,614.656174041484
1.11916874120576,391.0006973454,812.641508570353,421.640811224953,-601.821102957876,-15.3200569397766,617.141159897653
1.1213334776491,390.733767611379,812.643486167805,421.909718556426,-601.688626889592,-15.5879754725235,617.276602362116
1.12349821409243,387.332943524318,811.027014290534,423.694070766216,-599.179978907426,-18.1805636209492,617.360542528375
1.12566295053577,385.711870265809,812.578152552082,426.866282286273,-599.145011408946,-20.5772060102315,619.722217419177
1.12782768697911,385.895592835071,812.554253270561,426.65866043549,-599.224923052816,-20.3815338002099,619.606456853026
1.12999242342245,386.970137944127,812.557963077282,425.587825133155,-599.764050510705,-19.3088435945143,619.072894105219
1.13215715986579,388.749390296691,812.586740647366,423.837350350675,-600.668065472029,-17.5439800269921,618.212045499021
1.13432189630912,387.135450445558,812.622244318982,425.486793873424,-599.87884738227,-19.1756717139328,619.054519096203
1.13648663275246,386.914030753502,812.642000681317,425.727969927815,-599.77801571741,-19.4069695871565,619.184985304566
1.1386513691958,388.233582284381,812.633632339012,424.400050054631,-600.433607311697,-18.0832338851249,618.516841196821
1.14081610563914,392.063561731873,812.602636716723,420.53907498485,-602.333099224298,-14.2377566264885,616.570855850787
1.14298084208248,402.459967142399,812.568813529667,410.108846387268,-607.514390336033,-3.82443962243462,611.338829958467
1.14514557852581,417.772501000498,812.553641325216,394.781140324718,-615.163071162857,11.4956803378903,603.667390824967
1.14731031496915,429.903515002896,812.566636691592,382.663121688696,-621.235075847244,23.6201966570997,597.614879190144
1.14947505141249,449.043160776806,812.599359095381,363.556198318575,-630.821259936094,42.7434812291158,588.077778706978
1.15163978785583,470.388803190074,811.043163917784,340.65436072771,-640.715983553929,64.8672212311821,575.848762322747
1.15380452429917,493.225860819196,811.056003667127,317.83014284793,-652.140932243162,87.6978589856332,564.443073257528
1.1559692607425,514.519529409453,812.627757231919,298.108227822466,-663.573643320686,108.205650793494,555.367992527193
1.15813399718584,532.79130290545,811.79406584164,279.00276293619,-672.292684373544,126.89426998463,545.398414388915
1.16029873362918,540.899904039386,812.551240857218,271.651336817832,-676.725572448302,134.624283610777,542.101288837525
1.16246347007252,540.336522846588,810.954265339348,270.61774249276,-675.645394092968,134.859390176914,540.786003916054
1.16462820651586,530.163537710586,812.572252635644,282.408714925058,-671.367895173115,123.877411392764,547.490483780351
1.16679294295919,513.455822534743,812.620958570154,299.165136035411,-663.038390552448,107.145343249666,555.893047302783
1.16895767940253,494.980089387696,812.656465464172,317.676376076475,-653.818277425934,88.6518566556106,565.166420770323
1.17112241584587,475.636856155661,812.65454328889,337.017687133229,-644.145699722275,69.3095845112161,574.836115211059
1.17328715228921,456.376468644947,812.614774064638,356.238305419691,-634.495621354793,50.069081612628,584.426539742165
1.17545188873255,440.493208015304,810.974187220062,370.480979204758,-625.733697617683,35.0061144052729,590.72758321241
1.17761662517588,427.990881386337,811.739202842435,383.748321456098,-619.865042114386,22.1212799651192,597.743762149266
1.17978136161922,422.720592867382,812.545116005739,389.824523138357,-617.63285443656,16.4480348645124,601.184819572048
1.18194609806256,418.944820118305,812.588941323054,393.644121204749,-615.766880720679,12.6503494567781,603.116531263901
1.1841108345059,419.717388164945,811.843767704119,392.126379539174,-615.780577934532,13.7955043128856,601.985073621647
1.18627557094924,418.695512921154,812.662908719553,393.967395798399,-615.679210820353,12.3640585613775,603.315152258976
1.18844030739257,418.408095500356,812.647345436421,394.239249936065,-615.527720468389,12.0844227821459,603.443297686243
1.19060504383591,419.83699480763,812.600342578354,392.763347770724,-616.218668692992,13.5368235184528,602.681845174539
1.19276978027925,423.086895114498,812.551253664474,389.464358549976,-617.819074389486,16.8112682822612,601.007806107225
1.19493451672259,420.96570848868,812.531088080081,391.565379591401,-616.74839828438,14.7001644486397,602.048233835741
1.19709925316593,418.079156049775,812.552948942625,394.473792892849,-615.3160524962,11.802681578463,603.513370917737
1.19926398960927,416.627420234143,812.603510179173,395.976089945031,-614.615465206658,10.3256651445558,604.289800062102
1.2014287260526,414.132595308879,812.651081200672,398.518485891793,-613.391838254776,7.80705470854281,605.584783546233
1.20359346249594,410.65467237853,812.665417676346,402.010745297816,-611.660045027438,4.32196354035705,607.338081487081
1.20575819893928,406.379393480128,812.636927196689,406.257533716562,-609.508160338409,0.0609298817830108,609.447230456626
1.20792293538262,407.060949954835,811.789243683303,404.728293728468,-609.425096819069,1.16632811318357,608.258768705886
1.21008767182596,406.420205735528,810.951424446085,404.531218710557,-608.685815090806,0.944493512485622,607.741321578321
1.21225240826929,407.543317340568,811.739639168561,404.196321827993,-609.641478254565,1.67349775628736,607.967980498277
1.21441714471263,405.462761173034,812.566685667233,407.103924494199,-609.014723420133,-0.820581660582718,609.835305080716
1.21658188115597,404.756510199994,812.615642517837,407.859132317843,-608.686076358915,-1.5513110589244,610.23738741784
1.21874661759931,406.157778202545,812.651074596231,406.493296393686,-609.404426399388,-0.167759095570659,609.572185494958
1.22091135404265,404.21386723821,812.65359709989,408.439729861679,-608.43373216905,-2.11293131173454,610.546663480785
1.22307609048598,404.703594635656,812.624083406801,407.920488771145,-608.663839021229,-1.60844706774446,610.272286088973
1.22524082692932,401.468378072958,812.581600532897,411.113222459939,-607.024989302927,-4.82242219349064,611.847411496418
1.22740556337266,404.880150395251,812.551145346647,407.670994951396,-608.715647870949,-1.39542227807232,610.111070149021
1.229570299816,403.676880659401,812.549035933565,408.872155274164,-608.112958296483,-2.59763730738104,610.710595603864
1.23173503625934,406.354248749548,812.574428828514,406.220180078967,-609.464338789031,0.0670343352906002,609.397304453741
1.23389977270267,406.366624613922,811.81733832931,405.450713715388,-609.091981471616,0.457955449266819,608.634026022349
1.23606450914601,403.700006735708,812.639407186799,408.939400451091,-608.169706961254,-2.61969685769117,610.789403818945
1.23822924558935,403.297273637319,812.641753547302,409.344479909984,-607.969513592311,-3.0236031363325,610.993116728643
1.24039398203269,400.64750583775,812.618254794436,411.970748956686,-606.632880316093,-5.66162155946819,612.294501875561
1.24255871847603,400.688791134709,812.584059199575,411.895268064866,-606.636425167142,-5.60323846507816,612.23966363222
1.24472345491936,399.427382928421,812.559699251787,413.132316323366,-605.993541090104,-6.85246669747249,612.846007787576
1.2468881913627,399.835539223775,812.558799039561,412.723259815785,-606.197169131668,-6.44386029600491,612.641029427673
1.24905292780604,400.857999520942,812.580556976529,411.722557455586,-606.719278248735,-5.43227896732213,612.151557216058
1.25121766424938,399.167944168876,812.611083121361,413.443138952485,-605.889513645119,-7.13759739180432,613.027111036923
1.25338240069272,400.386204262478,812.632245488744,412.246041226266,-606.509224875611,-5.92991848189399,612.439143357505
1.25554713713605,399.979597636747,812.632404675997,412.65280703925,-606.306001156372,-6.33660470125125,612.642605857623
1.25771187357939,398.209713212104,812.612703549069,414.402990336964,-605.411208380587,-8.09663856242997,613.507846943017
1.25987661002273,399.171288081091,811.791744631872,412.620456550781,-605.481516356482,-6.72458423484511,612.206100591327
1.26204134646607,399.585737669519,812.56828335098,412.98254568146,-606.07701051025,-6.69840400597042,612.77541451622
1.26420608290941,399.189934864068,812.567662945795,413.377728081727,-605.878798904932,-7.09389660882948,612.972695513761
1.26637081935274,401.696673229698,811.788759653178,410.09208642348,-606.742716441438,-4.19770659689141,610.940423038329
1.26853555579608,400.663318745117,811.811782087603,411.148463342486,-606.23755041636,-5.24257229868442,611.480122715044
1.27070029223942,397.827276894064,812.623551105063,414.796274210999,-605.225413999564,-8.48449865846749,613.709912658031
1.27286502868276,397.45281311956,812.624990821545,415.172177701985,-605.038901970553,-8.85968229121255,613.898584261765
1.2750297651261,397.400628473511,812.610450769386,415.209822295875,-605.005539621448,-8.90459691118195,613.91013653263
1.27719450156943,400.089511823206,812.589803595333,412.500291772128,-606.33965770927,-6.20538997446107,612.545047683731
1.27935923801277,399.764823765873,812.57560763685,412.810783870977,-606.170215701362,-6.5229800525517,612.693195753914
1.28152397445611,400.893774115567,812.575449992514,411.681675876947,-606.734612054041,-5.3939508806896,612.12856293473
1.28368871089945,403.260394753442,812.587997407647,409.327602654206,-607.924196080545,-3.03360395038192,610.957800030927
1.28585344734279,401.31056778205,811.81089296828,410.50032518623,-606.560730375165,-4.59487870208989,611.155609077255
1.28801818378612,399.247111105898,811.823230024571,412.576118918673,-605.535170565234,-6.66450390638761,612.199674471622
1.29018292022946,398.170793202137,812.617708445964,414.446915243827,-605.39425082405,-8.13806102084544,613.532311844896
1.2923476566728,402.231887419678,811.811110820504,409.579223400826,-607.021499120091,-3.67366799057413,610.695167110665
1.29451239311614,401.837033120681,812.588775083038,410.751741962357,-607.212904101859,-4.45735442083787,611.670258522697
1.29667712955948,404.674490641968,812.577756175228,407.903265533261,-608.626123408598,-1.6143874456464,610.240510854244
1.29884186600281,407.279057954871,812.578847883399,405.299789928529,-609.928952919135,0.989634013170928,608.939318905964
1.30100660244615,404.747936619922,811.797794162553,407.04985754263,-608.272865391237,-1.1509604613538,609.423825852591
1.30317133888949,403.537893314764,812.609788157719,409.071894842955,-608.073840736242,-2.76700076409503,610.840841500337
1.30533607533283,399.151998890451,812.619813158473,413.467814268022,-605.885906024462,-7.15790768878543,613.043813713247
1.30750081177617,399.792653632043,812.615075355421,412.822421723378,-606.203864493732,-6.51488404566732,612.718748539399
1.3096655482195,401.571320878499,812.598846051479,411.02752517298,-607.085083464989,-4.72810214724097,611.81318561223
1.31183028466284,403.557935907239,812.582036523735,409.024100616496,-608.069986215487,-2.73308235462832,610.803068570115
1.31399502110618,405.497185540516,812.575846127378,407.078660586861,-609.036515833947,-0.790737523172425,609.827253357119
1.31615975754952,404.796862412573,812.584289395535,407.787426982963,-608.690575904054,-1.49528228519489,610.185858189249
1.31832449399286,406.183987132892,812.6015953726,406.417608239708,-609.392791252746,-0.116810553407959,609.509601806154
1.32048923043619,406.621499829845,812.616163935238,405.994664105393,-609.618831882541,0.31341786222572,609.305414020316
1.32265396687953,407.126601752781,811.824518480178,404.697916727397,-609.475560116479,1.21434251269199,608.261217603787
1.32481870332287,406.278801186735,812.608240416271,406.329439229535,-609.443520801503,-0.0253190214000369,609.468839822903
1.32698343976621,406.477709563928,812.590414781848,406.11270521792,-609.534062172888,0.182502173004252,609.351559999884
1.32914817620955,405.205686295266,812.576395541137,407.370709245871,-608.891040918202,-1.08251147530223,609.973552393504
1.33131291265288,407.826291572252,812.575776302104,404.749484729852,-610.201033937178,1.53840342119997,608.662630515978
1.33347764909622,408.640812226683,812.589684590698,403.948872364015,-610.61524840869,2.34596993133403,608.269278477356
1.33564238553956,410.827741902034,812.609625771479,401.781883869445,-611.718683836756,4.52292901629414,607.195754820462
1.3378071219829,411.341966576758,812.622719406879,401.280752830122,-611.982342991818,5.03060687331805,606.9517361185
1.33997185842624,414.328612927919,812.620068343452,398.291455415533,-613.474340635685,8.01857875619294,605.455761879492
1.34213659486957,411.953523949655,812.60279261305,400.649268663395,-612.278158281352,5.65212764313003,606.626030638222
1.34430133131291,412.145631908391,812.581642527917,400.436010619526,-612.363637218154,5.85481064443252,606.508826573722
1.34646606775625,413.190133126465,812.570250428669,399.380117302204,-612.880191777567,6.9050079121302,605.975183865437
1.34863080419959,414.135599806718,812.576294532697,398.440694725978,-613.355947169708,7.84745254037,605.508494629338
1.35079554064293,413.307060752162,812.596332647435,399.289271895273,-612.951696699799,7.00889442844425,605.942802271354
1.35296027708626,415.502912508329,812.617777575584,397.114865067256,-614.060345041956,9.19402372053634,604.86632132142
1.3551250135296,416.078467373761,812.626869055201,396.54840168144,-614.352668214481,9.76503284616007,604.587635368321
1.35728974997294,413.579903568781,812.617552374723,399.037648805942,-613.098727971752,7.27112738141983,605.827600590332
1.35945448641628,416.809480648301,812.595504107866,395.786023459565,-614.702492378084,10.5117285943678,604.190763783716
1.36161922285962,414.602962749109,812.574630861619,397.97166811251,-613.588796805364,8.31564731829951,605.273149487065
1.36378395930295,415.583929080527,812.568227890972,396.984298810446,-614.076078485749,9.29981513504026,604.776263350709
1.36594869574629,417.256878802339,812.580462422793,395.323583620454,-614.918670612566,10.9666475909422,603.952023021624
1.36811343218963,419.57627508264,812.603668057311,393.027392974671,-616.089971569976,13.2744410539846,602.815530515991
1.37027816863297,417.82541397141,812.623204542371,394.797790570961,-615.224309256891,11.5138117002248,603.710497556666
1.37244290507631,416.879561465631,812.626768096027,395.747206630396,-614.753164780829,10.5661774176178,604.186987363211
1.37460764151965,416.83108567638,812.612185153054,395.781099476674,-614.721635414717,10.5249930998528,604.196642314864
1.37677237796298,416.90227146541,812.588723059317,395.686451593906,-614.745497262364,10.6079099357519,604.137587326612
1.37893711440632,413.858390014292,812.571135865701,398.71274585141,-613.214762939996,7.5728220814409,605.641940858556
1.38110185084966,413.9681100082,812.5703095682,398.60219956,-613.2692097882,7.68295522410017,605.5862545641
1.383266587293,416.373397070381,812.586486701386,396.213089631005,-614.479941885884,10.0801537196878,604.399788166196
1.38543132373634,418.685214341327,812.60931299361,393.924098652283,-615.647263667469,12.3805578445225,603.266705822946
1.38759606017967,420.956713605534,812.624537409556,391.667823804022,-616.790625507545,14.6444449007556,602.146180606789
1.38976079662301,420.086601904703,812.622987069754,392.536385165051,-616.354794487229,13.7751083698257,602.579686117403
1.39192553306635,417.71301333451,812.606114888783,394.893101554273,-615.159564111646,11.4099558901181,603.749608221528
1.39409026950969,417.00193075553,812.584748561136,395.582817805606,-614.793339658333,10.7095564749617,604.083783183371
1.39625500595303,414.712247218935,812.572061307486,397.859814088551,-613.642154263211,8.42621656519202,605.215937698019
1.39841974239636,414.747253951784,812.575375338322,397.828121386538,-613.661314645053,8.45956628262303,605.20174836243
1.4005844788397,417.080997789247,812.591947544168,395.510949754922,-614.836472666707,10.7850240171625,604.051448649545
1.40274921528304,418.570931906601,811.817313650079,393.246381743478,-615.19412277834,12.6622750815616,602.531847696778
1.40491395172638,414.528301167217,811.828886521205,397.300585353988,-613.178593844211,8.61385790661438,604.564735937597
1.40707868816972,412.165912631387,812.619291697282,400.453379065894,-612.392602164334,5.85626678274639,606.536335381588
1.40924342461305,412.269286968076,812.601077541857,400.331790573782,-612.435182254967,5.96874819714702,606.466434057819
1.41140816105639,406.816179415905,812.579783651338,405.763604235433,-609.697981533621,0.526287590235938,609.171693943385
1.41357289749973,406.0459416566,812.569634654198,406.523692997599,-609.307788155399,-0.238875670499397,609.546663825899
1.41573763394307,404.367137944719,812.577844525567,408.210706580848,-608.472491235143,-1.92178431806491,610.394275553208
1.41790237038641,401.835276729362,812.5995566633,410.764279933939,-607.217416696331,-4.46450160228852,611.681918298619
1.42006710682974,401.736988220645,812.620776041438,410.883787820794,-607.178882131042,-4.5733998000747,611.752281931116
1.42223184327308,404.151976095966,812.627482229774,408.475506133808,-608.38972916287,-2.1617650189213,610.551494181791
1.42439657971642,405.890457688615,811.821090378595,405.930632689979,-608.855774033605,-0.0200875006819956,608.875861534287
1.42656131615976,406.060134710496,812.592298360507,406.532163650011,-609.326216535502,-0.236014469757379,609.562231005259
1.4287260526031,401.369238693119,812.57182667673,411.202587983611,-606.970532684924,-4.91667464524591,611.88720733017
1.43089078904643,397.325952432372,812.566476864678,415.240524432306,-604.946214648525,-8.95728599996738,613.903500648492
1.43305552548977,393.972712355435,812.580328349085,418.60761599365,-603.27652035226,-12.3174518191072,615.593972171367
1.43522026193311,392.212565759698,812.60559231621,420.393026556512,-602.409079037954,-14.0902303984067,616.499309436361
1.43738499837645,389.77053788129,812.627018126573,422.856480245283,-601.198778003932,-16.5429711819966,617.741749185928
1.43954973481979,389.068775426691,812.631179182578,423.562403755887,-600.849977304635,-17.2468141645978,618.096791469233
1.44171447126312,385.285987107041,812.614929278684,427.328942171643,-598.950458192862,-21.0214775323011,619.971935725163
1.44387920770646,384.659898601571,812.587675931838,427.927777330267,-598.623787266705,-21.6339393643478,620.257726631053
1.4460439441498,381.52305231437,812.565879436462,431.042827122091,-597.044465875416,-24.7598874038606,621.804353279277
1.44820868059314,382.994921790159,812.563036187927,429.568114397768,-597.778978989043,-23.2865963038047,621.065575292847
1.45037341703648,384.377550149956,812.581293599343,428.203743449388,-598.479421874649,-21.913096649716,620.392518524365
1.45253815347981,385.798990248751,811.022236117332,425.223245868581,-598.410613183042,-19.7121278099153,618.122740992957
1.45470288992315,387.370122467037,812.634353954646,425.264231487609,-600.002238210841,-18.9470545102863,618.949292721127
1.45686762636649,391.491662018301,812.634907248081,421.143245229779,-602.063284633191,-14.825791605739,616.88907623893
1.45903236280983,390.130356481225,811.81641369055,421.686057209326,-600.973385085887,-15.7778503640506,616.751235449938
1.46119709925317,387.913359523003,812.577487424059,424.664127901057,-600.245423473531,-18.3753841890269,618.620807662558
1.4633618356965,383.943516344087,811.76222995026,427.818713606173,-597.852873147173,-21.9375986310432,619.790471778216
1.46552657213984,384.567714937168,812.561777167148,427.99406222998,-598.564746052158,-21.7131736464064,620.277919698564
1.46769130858318,381.143829494138,812.589778708594,431.445949214455,-596.866804101366,-25.1510598601586,622.017863961525
1.46985604502652,381.763201119208,812.622733105732,430.859531986524,-597.19296711247,-24.5481654336578,621.741132546128
1.47202078146986,382.563454142852,812.640284414275,430.076830271423,-597.601869278564,-23.7566880642855,621.358557342849
1.47418551791319,381.164069141299,812.631705678371,431.467636537072,-596.897887409835,-25.1517836978865,622.049671107721
1.47635025435653,383.016543335564,811.808597271327,428.792053935763,-597.412570303445,-22.8877553000999,620.300325603545
1.47851499079987,380.018931986856,812.571899630236,432.552967643381,-596.295415808546,-26.2670178282625,622.562433636809
1.48067972724321,383.178850678332,812.556338581496,429.377487903164,-597.867594629914,-23.0993186124157,620.966913242329
1.48284446368655,382.966397759842,812.564610250864,429.598212491022,-597.765504005353,-23.3159073655902,621.081411370943
1.48500920012988,381.890171273107,812.591874444572,430.701703171465,-597.24102285884,-24.4057659491788,621.646788808019
1.48717393657322,381.715962894307,811.034816319097,429.31885342479,-596.375389606702,-23.8014452652417,620.176834871944
1.48933867301656,381.76301729336,812.641716284929,430.878698991569,-597.202366789145,-24.5578408491045,621.760207638249
1.4915034094599,379.624683563969,812.633750161857,433.009066597888,-596.129216862913,-26.6921915169597,622.821408379872
1.49366814590324,380.710760212434,812.602407577403,431.89164736497,-596.656583894919,-25.5904435762679,622.247027471187
1.49583288234657,378.480508587737,812.566668083286,434.08615949555,-595.523588335511,-27.8028254539066,623.326413789418
1.49799761878991,382.362320853065,812.549117206419,430.186796353354,-597.455719029742,-23.9122377501444,621.367956779887
1.50016235523325,383.666161215335,812.561638266437,428.895477051102,-598.113899740886,-22.6146579178832,620.728557658769
1.50232709167659,384.159591831236,811.803610194869,427.644018363634,-597.981601013053,-21.7422132661989,619.723814279252
1.50449182811993,387.218998310229,812.63612731354,425.417129003311,-599.927562811885,-19.0990653465409,619.026628158426
1.50665656456326,386.575674752438,812.651014399947,426.075339647509,-599.613344576193,-19.7498324475357,619.363177023728
1.5088213010066,388.496416813493,812.631679525815,424.135262712322,-600.564048169654,-17.8194229494146,618.383471119068
1.51098603744994,386.415214035585,812.589747075887,426.174533040302,-599.502480555736,-19.8796595023584,619.382140058095
1.51315077389328,383.311232752339,812.551828609102,429.240595856764,-597.93153068072,-22.9646815522126,620.896212232933
1.51531551033662,380.718108875086,812.542556359861,431.824447484775,-596.630332617473,-25.5531693048442,622.183501922318
1.51748024677995,377.967469774606,812.56858794894,434.601118174334,-595.268028861773,-28.3168241998641,623.584853061637
1.51964498322329,380.848295366619,812.613963863058,431.76566849644,-596.731129614839,-25.4586865649105,622.189816179749
1.52180971966663,383.192328117323,812.649982812711,429.457654695387,-597.921155465017,-23.1326632890321,621.053818754049
1.52397445610997,387.411377815581,812.653425056702,425.242047241121,-600.032401436141,-18.9153347127702,618.947736148911
1.52613919255331,389.386669867239,812.621511516053,423.234841648814,-601.004090691646,-16.9240858907876,617.928176582433
1.52830392899664,392.854595268581,812.573968490118,419.719373221537,-602.71428187935,-13.4323889764781,616.146670855828
1.53046866543998,392.86974881593,812.54074422795,419.67099541202,-602.70524652194,-13.4006232980452,616.105869819985
1.53263340188332,391.805146152547,812.543083904469,420.737937751922,-602.174115028508,-14.4663957996872,616.640510828195
1.53479813832666,388.239989978408,812.57995843909,424.339968460682,-600.409974208749,-18.0499892411369,618.459963449886
1.53696287477,386.385646558566,812.62850663014,426.242860071574,-599.507076594353,-19.9286067565038,619.435683350857
1.53912761121333,386.401164032307,812.658295328104,426.257131295797,-599.529729680205,-19.9279836317452,619.457713311951
1.54129234765667,385.091211653777,812.650447535296,427.559235881519,-598.870829594536,-21.2340121138714,620.104841708408
1.54345708410001,383.868054706511,812.609585233997,428.741530527486,-598.238819970254,-22.4367379104875,620.675557880742
1.54562182054335,384.096171556139,812.561044110958,428.464872554819,-598.328607833549,-22.1843504993398,620.512958332889
1.54778655698669,387.226405972877,812.535082907474,425.308676934597,-599.880744440176,-19.0411354808596,618.921879921035
1.54995129343003,386.143830830098,812.547980667405,426.404149837306,-599.345905748752,-20.130159503604,619.476065252356
1.55211602987336,385.007722459154,811.004166213947,425.996443754794,-598.00594433655,-20.4943606478201,618.500304984371
1.5542807663167,388.006019247562,812.64220538978,424.636186142218,-600.324112318671,-18.3150834473283,618.639195765999
1.55644550276004,392.063499047528,811.075423991976,419.011924944448,-601.569461519752,-13.4742129484601,615.043674468212
1.55861023920338,392.347966447834,812.643535057359,420.295568609525,-602.495750752597,-13.9738010808455,616.469551833442
1.56077497564672,392.650682565986,812.591898491748,419.941215925763,-602.621290528867,-13.6452666798886,616.266557208755
1.56293971209005,393.583545250282,811.74766679811,418.164121547828,-602.665606024196,-12.2902881487733,614.955894172969
1.56510444853339,391.893741163933,811.733847982495,419.840106818562,-601.813794573214,-13.9731828273146,615.786977400528
1.56726918497673,391.626272231184,812.560405288392,420.934133057208,-602.093338759788,-14.6539304130121,616.7472691728
1.56943392142007,393.742415105256,812.617224414326,418.874809309071,-603.179819759791,-12.5661971019076,615.746016861699
1.57159865786341,396.013329530237,812.66152010809,416.648190577853,-604.337424819163,-10.3174305238083,614.654855342971
1.57376339430674,394.524499249879,812.664797176716,418.140297926837,-603.594648213297,-11.8078993384788,615.402547551776
1.57592813075008,394.771002514877,812.625037684487,417.85403516961,-603.698020099682,-11.5415163273663,615.239536427048
1.57809286719342,394.221688506984,812.56790878303,418.346220276047,-603.394798645007,-12.0622658845315,615.457064529539
1.58025760363676,395.115705191475,811.736291598034,416.620586406559,-603.425998394754,-10.7524406075422,614.178439002296
1.5824223400801,395.809113397778,812.537170707597,416.728057309819,-604.173142052688,-10.4594719560204,614.632614008708
1.58458707652343,394.778682502622,811.78808249282,417.009399990198,-603.283382497721,-11.1153587437881,614.398741241509
1.58675181296677,396.140417682694,812.636444557988,416.496026875294,-604.388431120341,-10.1778045962999,614.566235716641
1.58891654941011,395.262076242997,812.663924223606,417.401847980609,-603.963000233301,-11.0698858688057,615.032886102107
1.59108128585345,393.778712482383,811.853837663898,418.075125181515,-602.81627507314,-12.148206349566,614.964481422706
1.59324602229679,393.212436612192,811.807439252942,418.59500264075,-602.509937932567,-12.6912830142793,615.201220946846
1.59541075874012,394.216745918487,812.555025018934,418.338279100447,-603.385885468711,-12.0607665909803,615.446652059691
1.59757549518346,395.074289447795,812.53611056831,417.461821120514,-603.805200008052,-11.1937658363596,614.998965844412
1.5997402316268,394.161699912903,812.555517190722,418.393817277819,-603.358608551813,-12.1160586824581,615.474667234271
1.60190496807014,394.735561294591,812.600325704536,417.864764409945,-603.667943499564,-11.5646015576767,615.23254505724
1.60406970451348,393.757828289651,811.054643290296,417.296815000645,-602.406235789973,-11.7694933554971,614.17572914547
1.60623444095681,396.898169342576,812.658521496259,415.760352153683,-604.778345419417,-9.43109140555367,614.209436824971
1.60839917740015,397.814898209611,812.635116748535,414.820218538924,-605.225007479073,-8.5026601646569,613.72766764373
1.61056391384349,396.426960807544,812.586861219765,416.159900412221,-604.506911013654,-9.86646980233883,614.373380815993
1.61272865028683,395.792260643575,812.54503924045,416.752778596875,-604.168649942012,-10.4802589766499,614.648908918662
1.61489338673017,398.99581327062,811.743300127805,412.747486857185,-605.369556699212,-6.87583679328219,612.245393492495
1.6170581231735,400.463132089042,812.570109951129,412.106977862088,-606.516621020086,-5.82192288652294,612.338543906608
1.61922285961684,401.858292104712,812.620526102883,410.762233998172,-607.239409103798,-4.45197094672983,611.691380050528
1.62138759606018,403.300674841628,812.65525871656,409.354583874932,-607.977966779094,-3.02695451665176,611.004921295746
1.62355233250352,405.672429040918,812.651925895277,406.979496854359,-609.162177468098,-0.653533906720327,609.815711374818
1.62571706894686,405.800493336772,812.613369227102,406.812875890329,-609.206931281937,-0.506191276778509,609.713122558715
1.62788180539019,405.195657618918,811.771564789928,406.575907171009,-608.483611204423,-0.690124776045423,609.173735980468
1.63004654183353,404.53933288699,812.540903274266,408.001570387276,-608.540118080628,-1.73111875014285,610.271236830771
1.63221127827687,403.74909287869,812.55314470478,408.80405182609,-608.151118791735,-2.52747947370045,610.678598265435
1.63437601472021,404.409568303959,812.592949016271,408.183380712312,-608.501258660115,-1.88690620417623,610.388164864291
1.63654075116355,401.833555216038,812.634028397714,410.800473181676,-607.233791806876,-4.48345898281883,611.717250789695
1.63870548760688,398.522573863806,812.650358684649,414.127784820843,-605.586466274227,-7.80260547851867,613.389071752746
1.64087022405022,396.149537151279,811.045050131744,414.895512980465,-603.597293641512,-9.37298791459273,612.970281556104
1.64303496049356,398.676979436786,812.596616235202,413.919636798416,-605.636797835994,-7.6213286808146,613.258126516809
1.6451996969369,400.447329048234,812.561286843731,412.113957795497,-606.504307945982,-5.83331437363171,612.337622319614
1.64736443338024,403.726527956702,812.54820500587,408.821677049169,-608.137366481286,-2.54757454623353,610.68494102752
1.64952916982357,402.896961427278,812.565241515578,409.6682800883,-607.731101471428,-3.38565933051109,611.116760801939
1.65169390626691,403.555151519923,812.601903332369,409.046751812446,-608.078527426146,-2.74580014626156,610.824327572408
1.65385864271025,402.620327823207,811.841950142799,409.221622319592,-607.231138983003,-3.30064724819243,610.531786231195
1.65602337915359,399.388133643689,812.647668125277,413.259534481588,-606.017900884483,-6.9357004189493,612.953601303432
1.65818811559693,401.031660094245,812.628134713896,411.596474619652,-606.82989740407,-5.28240726270349,612.112304666774
1.66035285204026,400.34771038533,812.588997912093,412.241287526762,-606.468354148711,-5.94678857071591,612.415142719427
1.6625175884836,396.460874796378,812.554799932749,416.093925136371,-604.507837364563,-9.81652516999651,614.32436253456
1.66468232492694,394.090201970744,812.547372649849,418.457170679105,-603.318787310297,-12.1834843541801,615.502271664477
1.66684706137028,395.62477662958,812.57182852607,416.94705189649,-604.098302577825,-10.6611376334553,614.75944021128
1.66901179781362,394.754582735785,812.613022690243,417.858439954459,-603.683802713014,-11.5519286093369,615.235731322351
1.67117653425695,393.915648192898,812.644941274407,418.729293081509,-603.280294733652,-12.4068224443056,615.687117177958
1.67334127070029,393.927329188199,812.647189902656,418.719860714458,-603.287259545428,-12.3962657631295,615.683525308557
1.67550600714363,393.182594117966,811.824250136053,418.641656018087,-602.50342212701,-12.7295309500605,615.23295307707
1.67767074358697,393.227381189683,812.577284770871,419.349903581189,-602.902332980277,-13.0612611957529,615.96359417603
1.67983548003031,391.646445689841,812.548322916314,420.901877226473,-602.097384303078,-14.6277157683156,616.725100071393
1.68200021647364,388.442961102004,812.549316931876,424.106355829873,-600.49613901694,-17.8316973639343,618.327836380874
1.68416495291698,386.825350491835,812.580201928513,425.754851436678,-599.702776210174,-19.4647504724215,619.167526682595
1.68632968936032,388.40756947448,812.622393864757,424.214824390277,-600.514981669619,-17.9036274578988,618.418609127517
1.68849442580366,386.040069748522,812.649970828322,426.6099010798,-599.345020288422,-20.2849156656391,619.629935954061
1.690659162247,385.264186125307,812.645654218054,427.381468092747,-598.954920171681,-21.0586409837203,620.013561155401
1.69282389869033,382.088708742893,812.611701375698,430.522992632805,-597.350205059296,-24.2171419449559,621.567347004252
1.69498863513367,378.893934002208,812.568802114734,433.674868112526,-595.731368058471,-27.3904670551591,623.12183511363
1.69715337157701,379.665625237289,811.749613040658,432.083987803368,-595.707619138974,-26.2091812830394,621.916800422013
1.69931810802035,384.417628278408,812.552875927728,428.13524764932,-598.485252103068,-21.8588096854559,620.344061788524
1.70148284446369,389.977155196903,812.589118449607,422.611963252704,-601.283136823255,-16.3174040279004,617.600540851155
1.70364758090702,390.786021509033,812.629508337957,421.843486828924,-601.707764923495,-15.5287326599457,617.236497583441
1.70581231735036,390.025533174426,812.649524444519,422.623991270093,-601.337528809473,-16.2992290478331,617.636757857306
1.7079770537937,388.484167083995,812.637734498887,424.153567414892,-600.560950791441,-17.8347001654486,618.395650956889
1.71014179023704,386.931287932382,812.60231673567,425.671028803288,-599.766802334026,-19.3698704354533,619.136672769479
1.71230652668038,385.334220428051,812.565452085995,427.231231657944,-598.949836257023,-20.9485056149466,619.898341871969
1.71447126312371,386.854467103176,812.549396302354,425.694929199178,-599.701931702765,-19.4202310480009,619.122162750766
1.71663599956705,384.367726609249,812.563000844222,428.195274234972,-598.465363726736,-21.9137738128615,620.379137539597
1.71880073601039,382.704837087557,812.596875456279,429.892038368722,-597.650856271918,-23.5936006405825,621.2444569125
1.72096547245373,381.928774153949,812.62980977447,430.701035620521,-597.27929196421,-24.3861307332859,621.665422697496
1.72313020889707,385.2232933218,811.054407074108,425.831113752308,-598.138850197954,-20.3039102152541,618.442760413208
1.7252949453404,386.168524766638,812.630010250877,426.461485484239,-599.399267508758,-20.1464803588007,619.545747867558
1.72745968178374,387.050757717491,812.597343152227,425.546585434736,-599.824050434859,-19.2479138586224,619.071964293482
1.72962441822708,386.21710006584,812.563756814773,426.346656748932,-599.390428440307,-20.0647783415459,619.455206781853
1.73178915467042,386.063677686611,812.550276326739,426.486598640128,-599.306977006675,-20.2114604767584,619.518437483433
1.73395389111376,384.296329712719,811.772220548634,427.475890835915,-598.034275130676,-21.5897805615979,619.624055692274
1.7361186275571,381.823649934785,812.603514304254,430.779864369469,-597.21358211952,-24.4781072173418,621.691689336861
1.73828336400043,380.300500891938,812.637400609851,432.336899717913,-596.468950750895,-26.0181994129872,622.487150163882
1.74044810044377,382.076571671547,812.646016412414,430.569444740867,-597.36129404198,-24.2464365346602,621.607730576641
1.74261283688711,383.856070694146,812.623804434323,428.767733740177,-598.239937564235,-22.4558315230157,620.69576908725
1.74477757333045,383.92511498181,812.584977646444,428.659862664635,-598.255046314127,-22.3673738414124,620.62242015554
1.74694230977379,389.382133239575,811.760577161767,422.378443922192,-600.571355200671,-16.4981553413087,617.069510541979
1.74910704621712,395.516440646277,812.553031286957,417.03659064068,-604.034735966617,-10.7600749972011,614.794810963818
1.75127178266046,404.843120824786,812.579286358785,407.736165533999,-608.711203591786,-1.4465223546066,610.157725946392
1.7534365191038,418.285806131089,812.615850644437,394.330044513348,-615.450828387763,11.9778808088703,603.472947578893
1.75560125554714,439.062686119733,812.63967563273,373.576989512998,-625.851180876232,32.7428483033676,593.108332572864
1.75776599199048,463.125675750198,812.636575256232,349.510899506035,-637.881125503215,56.8073881220814,581.073737381134
1.75993072843381,488.7435321011,812.609701124448,323.866169023348,-650.676616612774,82.4386815388764,568.237935073898
1.76209546487715,506.272958398481,812.576835187186,306.303876788705,-659.424896792833,99.984540804888,559.440355987946
1.76426020132049,522.058121101308,812.5586402075,290.500519106192,-667.308380654404,115.778800997558,551.529579656846
1.76642493776383,533.003403142932,812.565621533602,279.56221839067,-672.784512338267,126.720592376131,546.063919962136
1.76858967420717,534.456544778816,812.592056479938,278.135511701123,-673.524300629377,128.160516538847,545.363784090531
1.7707544106505,528.878773754105,812.620404486248,283.741630732143,-670.749589120176,122.568571510981,548.181017609195
1.77291914709384,517.85602446145,812.632930381287,294.776905919836,-665.244477421368,111.539559270807,553.704918150561
1.77508388353718,502.10589582843,811.035159514272,308.929263685842,-656.570527671351,96.5883160712943,559.982211600057
1.77724861998052,481.533932880057,812.600607172298,331.066674292241,-647.067270026177,75.2336292939077,571.83364073227
1.77941335642386,460.855447435628,812.576414266446,351.720966830818,-636.715930851037,54.5672403024051,582.148690548632
1.78157809286719,443.264681085215,812.56451762627,369.299836541055,-627.914599355743,36.9824222720803,590.932177083662
1.78374282931053,424.858613484552,812.572152213149,387.713538728597,-618.715382848851,18.5725373779776,600.142845470873
1.78590756575387,413.657914360727,812.595098282854,398.937183922127,-613.12650632179,7.36036521930021,605.76614110249
1.78807230219721,404.935075518965,812.619951729236,407.684876210271,-608.7775136241,-1.37490034565343,610.152413969754
1.79023703864055,401.055845584058,812.631928868929,411.576083284871,-606.843887226494,-5.26011885040663,612.1040060769
1.79240177508388,403.551388834135,812.623676295756,409.072287461621,-608.087532564946,-2.76044931374327,610.847981878689
1.79456651152722,409.97518439997,812.599824360304,402.624639960334,-611.287504380137,3.67527221981771,607.612232160319
1.79673124797056,415.531865040866,812.574441130722,397.042576089856,-614.053153085794,9.24464447550463,604.808508610289
1.7988959844139,421.036415157068,812.562751085051,391.526335927983,-616.799583121059,14.7550396145426,602.044543506517
1.80106072085724,421.773239512856,812.571984189227,390.798744676372,-617.172611851041,15.4872474182419,601.6853644328
1.80322545730057,421.755268434839,812.596868730658,390.841600295819,-617.176068582748,15.4568340695099,601.719234513239
1.80539019374391,417.808281192605,811.034909680569,393.226628487963,-614.421595436587,12.2908263523209,602.130769084266
1.80755493018725,414.665417420538,812.636285646506,397.970868225968,-613.650851533522,8.34727459728464,605.303576936237
1.80971966663059,409.11085143653,812.62468778247,403.51383634594,-610.8677696095,2.79850754529542,608.069262064205
1.81188440307393,405.89960906105,811.006139002982,405.106529941932,-608.452874032016,0.39653955955896,608.056334472457
1.81404913951726,401.88044834383,812.56601746563,410.6855691218,-607.22323290473,-4.40256038898525,611.625793293715
1.8162138759606,402.654426452137,811.76179626533,409.107369813193,-607.208111358734,-3.22647168052777,610.434583039261
1.81837861240394,401.888302742595,811.777854216511,409.889551473916,-606.833078479553,-4.00062436566077,610.833702845214
1.82054334884728,401.156956899736,812.605062118571,411.448105218835,-606.881009509153,-5.14557415954971,612.026583668703
1.82270808529062,401.213578372876,811.839744863865,410.626166490989,-606.52666161837,-4.70629405905623,611.232955677427
1.82487282173395,400.427445560256,812.640962728656,412.2135171684,-606.534204144456,-5.89303580407176,612.427239948528
1.82703755817729,401.963522314428,812.620461923689,410.656939609261,-607.291992119058,-4.34670864741679,611.638700766475
1.82920229462063,402.673458597872,812.584703366809,409.911244768937,-607.62908098234,-3.61889308553231,611.247974067873
1.83136703106397,401.81974834655,812.556569786914,410.736821440364,-607.188159066732,-4.45853654690711,611.646695613639
1.83353176750731,397.069745308772,812.554563088883,415.484817780111,-604.812154198827,-9.20753623566992,614.019690434497
1.83569650395064,394.781017249783,812.580631083356,417.799613833573,-603.680824166569,-11.5092982918953,615.190122458464
1.83786124039398,395.686424522145,812.618477198496,416.932052676351,-604.15245086032,-10.6228140771029,614.775264937423
1.84002597683732,393.34482337135,812.643727862382,419.298904491032,-602.994275616866,-12.9770405598411,615.971316176707
1.84219071328066,391.686647973492,812.639626762448,420.952978788956,-602.16313736797,-14.633165407732,616.796302775702
1.844355449724,394.720305842165,812.608153844209,417.887848002044,-603.664229843187,-11.5837710799397,615.248000923127
1.84652018616733,393.802423272373,812.569194873128,418.766771600754,-603.18580907275,-12.4821741641906,615.667983236941
1.84868492261067,394.587793406188,811.754156730169,417.166363323981,-603.170975068178,-11.2892849588969,614.460260027075
1.85084965905401,396.30523252988,812.56015873022,416.25492620034,-604.43269563005,-9.97484683523004,614.40754246528
1.85301439549735,396.496442520562,812.596162009656,416.099719489094,-604.546302265109,-9.80163848426599,614.347940749375
1.85517913194069,398.210070903131,812.632690479844,414.422619576713,-605.421380691488,-8.1062743367907,613.527655028278
1.85734386838402,397.379047438891,812.646348333766,415.267300894875,-605.012697886328,-8.944126727992,613.95682461432
1.85950860482736,394.809197158162,812.628651062332,417.81945390417,-603.718924110247,-11.5051283730037,615.224052483251
1.8616733412707,393.002526823675,812.591333392377,419.588806568702,-602.796930108026,-13.2931398725137,616.09006998054
1.86383807771404,395.281863911238,812.558635879396,417.276771968159,-603.920249895317,-10.9974540284607,614.917703923778
1.86600281415738,400.128976697211,812.551601796928,412.422625099718,-606.34028924707,-6.14682420125348,612.487113448323
1.86816755060071,402.727870299742,812.574530219995,409.846659920253,-607.651200259868,-3.5593948102553,611.210595070124
1.87033228704405,402.151320764902,812.612306757081,410.460985992179,-607.381813760991,-4.15483261363829,611.53664637463
1.87249702348739,400.650707083418,812.640295149676,411.989588066258,-606.645501116547,-5.66944049141978,612.314941607967
1.87466175993073,400.554703455292,812.640357813445,412.085654358153,-606.597530634368,-5.76547545143058,612.363006085799
1.87682649637407,398.740724633779,812.612616145413,413.871891511634,-605.676670389596,-7.56558343892738,613.242253828523
1.8789912328174,396.138378792456,810.987634595426,414.84925580297,-603.563006693941,-9.35543850525664,612.918445199198
1.88115596926074,394.471055040906,812.555584520369,418.084529479463,-603.513319780638,-11.8067372192783,615.320056999916
1.88332070570408,394.58113133716,811.767847790478,417.186716453318,-603.174489563819,-11.3027925580787,614.477282121898
1.88548544214742,394.016529796,812.590150003125,418.573620207125,-603.303339899563,-12.2785452055626,615.581885105125
1.88765017859076,395.017970200297,812.620773967442,417.602803767145,-603.81937208387,-11.2924167834238,615.111788867294
1.88981491503409,396.662954134441,812.634943640084,415.971989505644,-604.648948887262,-9.65451768560149,614.303466572864
1.89197965147743,398.91679262955,812.625567926023,413.708775296473,-605.771180277787,-7.39599133346115,613.167171611248
1.89414438792077,399.47921073979,812.600430832874,413.121220093084,-606.039820786332,-6.82100467664668,612.860825462979
1.89630912436411,398.50055012751,812.576167416353,414.075617288843,-605.538358771932,-7.78753358066666,613.325892352598
1.89847386080745,398.48414922665,811.773486615732,413.289337389083,-605.128817921191,-7.40259408121659,612.531412002407
1.90063859725078,399.438377949173,812.579018959519,413.140641010346,-606.008698454346,-6.85113153058666,612.859829984933
1.90280333369412,398.871996524257,812.599745966526,413.727749442269,-605.735871245392,-7.42787645900592,613.163747704398
1.90496807013746,401.398814312697,812.615379789965,411.216565477269,-607.007097051331,-4.90887558228599,611.915972633617
1.9071328065808,399.775373071173,811.029661012781,411.254287941609,-605.402517041977,-5.73945743521801,611.141974477195
1.90929754302414,402.765552794155,812.609898890585,409.84434609643,-607.68772584237,-3.53939665113762,611.227122493508
1.91146227946747,401.759098632697,812.595668624667,410.83656999197,-607.177383628682,-4.5387356796366,611.716119308319
1.91362701591081,404.04831405804,812.583726164293,408.535412106252,-608.316020111166,-2.24354902410596,610.559569135272
1.91579175235415,408.104647656114,812.581170024975,404.476522368861,-610.342908840545,1.81406264362693,608.528846196918
1.91795648879749,411.481816111059,812.588914810903,401.107098699844,-612.035365460981,5.18735870560727,606.848006755374
1.92012122524083,410.867218308339,812.601502536616,401.734284228277,-611.734360422477,4.56646704003072,607.167893382447
1.92228596168416,408.531533232472,812.610847113343,404.079313880871,-610.571190172907,2.22610967580079,608.345080497107
1.9244506981275,406.836661297061,812.611396954607,405.774735657546,-609.724029125834,0.530962819757178,609.193066306076
1.92661543457084,405.063030461576,811.809594448074,406.746563986498,-608.436312454825,-0.841766762461305,609.278079217286
1.92878017101418,407.29839048971,811.006210201513,403.707819711804,-609.152300345612,1.79528538895295,607.357014956659
1.93094490745752,408.859813518548,812.589315149881,403.729501631334,-610.724564334215,2.56515594360684,608.159408390608
1.93310964390086,409.754054491473,812.587237610599,402.833183119126,-611.170646051036,3.46043568617358,607.710210364863
1.93527438034419,408.328424885494,812.588117903296,404.259693017802,-610.458271394395,2.03436593384561,608.423905460549
1.93743911678753,406.078421495273,812.592856548193,406.51443505292,-609.335639021733,-0.218006778823622,609.553645800557
1.93960385323087,405.315209750133,812.601272840589,407.286063090456,-608.958241295361,-0.985426670161246,609.943667965523
1.94176858967421,407.610445576088,812.61044180497,404.999996228882,-610.110443690529,1.30522467360265,608.805219016926
1.94393332611755,409.039002085191,812.615069713322,403.576067628131,-610.827035899256,2.73146722853016,608.095568670726
1.94609806256088,410.485044990151,812.610575391203,402.125530401053,-611.547810190677,4.17975729454912,607.368052896128
1.94826279900422,411.23939013096,812.597064512476,401.357674381516,-611.918227321718,4.94085787472233,606.977369446996
1.95042753544756,413.713233684795,812.580984819954,398.86775113516,-613.147109252374,7.4227412748175,605.724367977557
1.9525922718909,413.092189285496,812.572333947406,399.48014466191,-612.832261616451,6.8060223117933,606.026239304658
1.95475700833424,414.043480871382,810.990710291117,396.947229419735,-612.51709558125,8.54812572582392,603.968969855426
1.95692174477757,416.47113619268,812.60062950744,396.12949331476,-614.53588285006,10.1708214389598,604.3650614111
1.95908648122091,417.956714459928,812.622064429366,394.665349969438,-615.289389444647,11.6456822452447,603.643707199402
1.96125121766425,416.17399472366,812.6282433698,396.454248646139,-614.40111904673,9.85987303876033,604.541246007969
1.96341595410759,412.833390894372,812.614305579421,399.780914685049,-612.723848236897,6.52623810466179,606.197610132235
1.96558069055093,414.395146716847,811.001004246562,396.605857529714,-612.698075481704,8.89464459356657,603.803430888138
1.96774542699426,412.932794968181,812.57070217855,399.637907210369,-612.751748573365,6.64744387890573,606.10430469446
1.9699101634376,412.338535102753,812.567972270049,400.229437167296,-612.453253686401,6.05454896772846,606.398704718672
1.97207489988094,410.899020517896,812.582294794205,401.683274276309,-611.740657656051,4.60787312079333,607.132784535257
1.97423963632428,414.872710784856,812.605756714627,397.733045929771,-613.739233749742,8.56983242754228,605.169401322199
1.97640437276762,416.309208336817,812.625028861508,396.315820524691,-614.467118599163,9.99669390606277,604.4704246931
1.97856910921095,419.273865146856,811.835036890391,392.561171743535,-615.554451018623,13.3563467016604,602.198104316963
1.98073384565429,421.521850282878,811.822207578849,390.300357295972,-616.672028930863,15.610746493453,601.06128243741
1.98289858209763,421.55845660048,812.592489512682,391.034032912202,-617.075473056581,15.2622118441389,601.813261212442
1.98506331854097,420.165439874017,812.568939395739,392.403499521722,-616.367189634878,13.8809701761473,602.486219458731
1.98722805498431,418.812555360077,811.765717753685,392.953162393609,-615.289136556881,12.9296964832338,602.359440073647
1.98939279142764,415.756835061148,810.985712704695,395.228877643547,-613.371273882921,10.2639787088007,603.107295174121
1.99155752787098,418.055393115703,812.605182020966,394.549788905263,-615.330287568334,11.7528021052197,603.577485463115
1.99372226431432,417.800485446525,811.838464870438,394.037979423913,-614.819475158482,11.8812530113063,602.938222147176
1.99588700075766,417.530684558884,811.845248851403,394.314564292518,-614.687966705143,11.6080601331831,603.07990657196
1.998051737201,415.046930948448,812.620286334167,397.573355385719,-613.833608641307,8.73678778136446,605.096820859943
2.00021647364433,415.200977434591,812.585013111585,397.384035676994,-613.892995273088,8.90847087879848,604.98452439429
2.00238121008767,417.907747936128,811.761720116487,393.853972180358,-614.834734026308,12.026887877885,602.807846148423
2.00454594653101,417.397522523453,812.55328210939,395.155759585937,-614.975402316421,11.1208814687583,603.854520847663
2.00671068297435,416.654267231824,812.579162488981,395.924895257157,-614.616714860402,10.3646859873336,604.252028873069
2.00887541941769,415.631411336062,812.617668878866,396.986257542804,-614.124540107464,9.32257689662902,604.801963210835
2.01104015586102,412.084326163923,812.644724618895,400.560398454972,-612.364525391409,5.76196385447537,606.602561536933
2.01320489230436,411.812471858106,812.642795361937,400.830323503831,-612.227633610021,5.49107417713719,606.736559432884
2.0153696287477,411.820306288191,812.612267959903,400.791961671712,-612.216287124047,5.51417230823949,606.702114815807
2.01753436519104,413.698948684998,811.777888896302,398.078940211305,-612.73841879065,7.81000423684668,604.928414553803
2.01969910163438,412.502094480539,812.547987162521,400.045892681982,-612.52504082153,6.2281008992781,606.296939922252
2.02186383807771,413.54054027901,811.760313893737,398.219773614727,-612.650427086373,7.66038333214163,604.990043754232
2.02402857452105,413.475481848837,812.588062678893,399.112580830056,-613.031772263865,7.18145050939052,605.850321754474
2.02619331096439,411.546934852113,811.039319959969,399.492385107855,-611.293127406041,6.02727487212894,605.265852533912
2.02835804740773,406.382960385868,811.855929099387,405.472968713519,-609.119444742627,0.454995836174305,608.664448906453
2.03052278385107,403.80372259727,811.845733832882,408.042011235611,-607.824728215076,-2.11914431917046,609.943872534247
2.0326875202944,401.55518966244,812.601707910636,411.046518248197,-607.078448786538,-4.74566429287859,611.824113079417
2.03485225673774,400.343934767825,810.970553221491,410.626618453666,-605.657243994658,-5.1413418429201,610.798585837578
2.03701699318108,399.129264055471,812.540738482772,413.411474427301,-605.835001269122,-7.14110518591525,612.976106455037
2.03918172962442,397.667451312609,811.76418846296,414.096737150351,-604.715819887784,-8.21464291887111,612.930462806655
2.04134646606776,396.670659108373,812.601700305521,415.931041197147,-604.636179706947,-9.630191044387,614.266370751334
2.04351120251109,393.095334320558,812.642990697575,419.547656377017,-602.869162509066,-13.2261610282298,616.095323537296
2.04567593895443,391.969459594327,811.862069770213,419.892610175886,-601.91576468227,-13.9615752907799,615.87733997305
2.04784067539777,390.331703957555,812.633627920841,422.301923963286,-601.482665939198,-15.9851100028653,617.467775942064
2.05000541184111,392.97523095016,812.5877746952,419.61254374504,-602.78150282268,-13.3186563974402,616.10015922012
2.05217014828445,394.162702726961,812.546817291662,418.384114564701,-603.354760009311,-12.1107059188702,615.465465928181
2.05433488472778,390.461031223271,811.743177304116,421.282146080844,-601.102104263693,-15.4105574287867,616.51266169248
2.05649962117112,388.854047051346,812.566918651944,423.712871600597,-600.710482851645,-17.4294122746256,618.139895126271
2.05866435761446,390.155556112738,812.616264772068,422.46070865933,-601.385910442403,-16.1525762732961,617.538486715699
2.0608290940578,388.990274883881,812.653863674489,423.663588790607,-600.822069279185,-17.336656953363,618.158726232548
2.06299383050114,390.358830515792,812.655988887026,422.297158371234,-601.507409701409,-15.9691639277208,617.47657362913
2.06515856694447,388.83744495895,812.621382471143,423.783937512193,-600.729413715046,-17.4732462766218,618.202659991668
2.06732330338781,389.146497584218,812.572004409757,423.42550682554,-600.859250996987,-17.1395046206611,617.998755617648
2.06948803983115,391.880402006797,811.745237515611,419.864835508813,-601.812819761204,-13.992216751008,615.805036512212
2.07165277627449,391.253579728211,812.544656830227,421.291077102016,-601.899118279219,-15.0187486869026,616.917866966121
2.07381751271783,388.754281223504,812.582684861547,423.828403638043,-600.668483042526,-17.5370612072694,618.205544249795
2.07598224916116,386.056400009789,812.628601866997,426.572201857207,-599.342500938393,-20.2579009237089,619.600401862102
2.0781469856045,385.748198758975,811.860032251251,426.111833492277,-598.804115505113,-20.1818173666509,618.985932871764
2.08031172204784,381.66640532122,812.645098942539,430.978693621319,-597.15575213188,-24.6561441500491,621.811896281929
2.08247645849118,383.401699937427,811.812858858775,428.411158921348,-597.607279398101,-22.5047294919607,620.112008890061
2.08464119493452,385.28504580811,812.564357910188,427.279312102078,-598.924701859149,-20.997133146984,619.921835006133
2.08680593137785,385.532420515971,812.54233613498,427.009915619009,-599.037378325476,-20.7387475515191,619.776125876995
2.08897066782119,386.378272073835,812.553866418468,426.175594344633,-599.466069246152,-19.8986611353988,619.36473038155
2.09113540426453,389.396045384336,812.591856068874,423.195810684537,-600.993950726605,-16.8998826501005,617.893833376706
2.09330014070787,391.523975744245,811.839419425571,420.315443681326,-601.681697584908,-14.3957339685407,616.077431553449
2.09546487715121,393.722625873824,811.066731286413,417.34410541259,-602.394678580119,-11.8107397693829,614.205418349502
2.09762961359454,395.307330625717,812.642941599895,417.335610974178,-603.975136112806,-11.0141401742305,614.989276287037
2.09979435003788,391.503154093563,812.600781850419,421.097627756856,-602.051967971991,-14.7972368316468,616.849204803637
2.10195908648122,392.521554354308,812.55331057154,420.031756217232,-602.537432462924,-13.7551009314618,616.292533394386
2.10412382292456,389.478452764555,812.531383831953,423.052931067398,-601.004918298254,-16.7872391514214,617.792157449675
2.1062885593679,389.440844146753,812.551273708258,423.110429561504,-600.996058927506,-16.8347927073754,617.830851634881
2.10845329581123,389.262916160997,812.602867587544,423.339951426547,-600.93289187427,-17.0385176327753,617.971409507046
2.11061803225457,391.445891666448,812.65454760591,421.208655939462,-602.050219636179,-14.8813821365072,616.931601772686
2.11278276869791,392.145742185948,812.672594785087,420.526852599139,-602.409168485518,-14.1905552065951,616.599723692113
2.11494750514125,391.42083475592,812.643189630138,421.222354874219,-602.032012193029,-14.9007600591496,616.932772252179
2.11711224158459,392.401695812452,812.582654492478,420.180958680026,-602.492175152465,-13.8896314337872,616.381806586252
2.11927697802793,390.200987614475,810.940833401167,420.739845786692,-600.570910507821,-15.2694290861089,615.84033959393
2.12144171447126,391.850670405412,812.518882817838,420.668212412426,-602.184776611625,-14.4087710035073,616.593547615132
2.1236064509146,392.544929420494,811.763673023275,419.218743602781,-602.154301221885,-13.3369070911437,615.491208313028
2.12577118735794,394.730302743488,811.828790099904,417.098487356415,-603.279546421696,-11.1840923064636,614.463638728159
2.12793592380128,396.151589113791,812.673536573428,416.521947459637,-604.412562843609,-10.1851791729229,614.597742016532
2.13010066024462,395.331361998831,812.676094878358,417.344732879526,-604.003728438595,-11.0066854403474,615.010413878942
2.13226539668795,395.468751371134,811.040718363386,415.571966992252,-603.25473486726,-10.0516078105588,613.306342677819
2.13443013313129,394.094348315921,812.563488318805,418.469140002884,-603.328918317363,-12.1873958434818,615.516314160845
2.13659486957463,396.626101002032,812.518219837367,415.892118835334,-604.572160419699,-9.63300891665108,614.205169336351
2.13875960601797,398.192343060816,812.520939740341,414.328596679525,-605.356641400578,-8.06812680935434,613.424768209933
2.14092434246131,398.007280769522,811.777193405218,413.769912635696,-604.89223708737,-7.88131593308708,612.773553020457
2.14308907890464,397.783449750888,812.63999921422,414.856549463332,-605.211724482554,-8.53654985622222,613.748274338776
2.14525381534798,401.644752530268,812.683331734445,411.038579204176,-607.164042132356,-4.69691333695403,611.860955469311
2.14741855179132,405.693091818608,811.879619474101,406.186527655493,-608.786355646355,-0.246717918442243,609.033073564797
2.14958328823466,405.907111625182,812.617290274483,406.7101786493,-609.262200949833,-0.401533512058904,609.663734461892
2.151748024678,406.916388971918,811.753351921085,404.836962949167,-609.334870446502,1.0397130113758,608.295157435126
2.15391276112133,403.818872781396,812.507987550739,408.689114769343,-608.163430166067,-2.4351209939735,610.598551160041
