t,ecgI,ecgII,leadIII_f,aVR_f,aVL_f,aVF_f
0,-20.8880201591255,-3.646921848935,17.2410983101905,12.2674710040303,-19.064559234658,6.79708823062776
0.00472813238770686,-102.63324171819,-10.3487067037179,92.2845350144726,56.4909742109542,-97.4588883663315,40.9679141553773
0.00945626477541371,-169.80378737709,-15.827002420537,153.976784956553,92.8153948988135,-161.890286166821,69.0748912680079
0.0141843971631206,-215.883895413113,-19.059286809033,196.82460860408,117.471591111073,-206.354252008596,88.8826608975234
0.0189125295508274,-243.527398284116,-19.6112850377436,223.916113246372,131.56934166093,-233.721755765244,102.152414104314
0.0236406619385343,-260.378741627318,-19.1269970003947,241.251744626924,139.752869313857,-250.815243127121,111.062373813264
0.0283687943262411,-274.428076778477,-21.2710971535637,253.156979624913,147.84958696602,-263.792528201695,115.942941235675
0.033096926713948,-289.524620876154,-27.787079381221,261.737541494933,158.655850128688,-275.631081185544,116.975231056856
0.0378250591016548,-302.880300432765,-34.590286163856,268.290014268909,168.735293298311,-285.585157350837,116.849864052527
0.0425531914893617,-308.017623627874,-33.7814327436992,274.236190884175,170.899528185786,-291.126907256024,120.227379070238
0.0472813238770686,-300.738198179924,-20.4162016707716,280.321996509153,160.577199925348,-290.530097344539,129.952897419191
0.0520094562647754,-282.122537009806,3.11577007533073,285.238307085137,139.503383467238,-283.680422047472,144.177038580234
0.0567375886524823,-257.378292715515,29.090473711781,286.468766427296,114.143909501867,-271.923529571406,157.779620069539
0.0614657210401891,-233.010022998056,49.7327658417869,282.742788839843,91.6386285781347,-257.87640591895,166.237777340815
0.066193853427896,-214.068904258278,60.5354357336354,274.604339991913,76.7667342623211,-244.336622125095,167.569887862774
0.0709219858156028,-203.185497217985,60.2061989412494,263.391696159234,71.4896491383678,-233.28859668861,161.798947550242
0.0756501182033097,-201.619612537156,49.8156587969941,251.43527133415,75.9019768700809,-226.527441935653,150.625465065572
0.0803782505910166,-209.082259440935,33.2258154601219,242.308074901057,87.9282219904064,-225.695167170996,137.766945180589
0.0851063829787234,-221.231086302147,17.4552216663762,238.686307968523,101.887932317885,-229.958697135335,128.07076481745
0.0898345153664303,-229.744920538375,10.2350605386552,239.97998107703,109.75492999986,-234.862450807702,125.107520807843
0.0945626477541371,-227.995119289488,14.9278937647989,242.923013054287,106.533612762345,-235.459066171887,128.925453409543
0.099290780141844,-216.913375303804,27.2499215355279,244.163296839332,94.831726884138,-230.538336071568,135.70660918743
0.104018912529551,-203.999747972946,38.3135590610275,242.313307033974,82.8430944559593,-223.15652750346,140.313433047501
0.108747044917258,-196.019729194855,42.2922519999968,238.311981194852,76.8637385974293,-217.165855194854,140.302116597424
0.113475177304965,-193.010508324768,40.7637351134999,233.774243438268,76.1233866056341,-213.392375881518,137.268989275884
0.118203309692671,-189.973758590414,39.0018154032361,228.97557399365,75.4859715935891,-209.474666292032,133.988694698443
0.122931442080378,-183.633927813767,40.0307187696642,223.664646583432,71.8016045220515,-203.649287198599,131.847682676548
0.127659574468085,-175.041072722869,44.7597300109538,219.800802733822,65.1406713559574,-197.420937728346,132.280266372388
0.132387706855792,-165.087892098364,55.6760810413037,220.763973139667,54.70590552853,-192.925932619015,138.220027090486
0.137115839243499,-151.409331176634,74.9106136131464,226.31994478978,38.2493587817437,-188.864637983207,150.615279201463
0.141843971631206,-132.998358712353,97.7107936848468,230.709152397199,17.6437825137529,-181.853755554776,164.209973041023
0.146572104018913,-115.486096432745,112.630145413441,228.116241846186,1.42797550965222,-171.801169139465,170.373193629813
0.151300236406619,-107.609808822237,111.218764995634,218.82857381787,-1.80447808669857,-163.219191320054,165.023669406752
0.156028368794326,-112.353866571126,95.7795924240837,208.13345899521,8.28713707352137,-160.243662783168,151.956525709647
0.160756501182033,-123.887989285775,76.1880881138407,200.076077399616,23.8499505859674,-161.982033342696,138.132082756728
0.16548463356974,-133.365871301216,60.6079191514975,193.973790452714,36.3789760748594,-163.669830876965,127.290854802106
0.170212765957447,-136.420085078841,50.4838073118703,186.903892390711,42.9681388834855,-161.661988734776,118.693849851291
0.174940898345154,-134.977166328185,43.5449402183667,178.522106546552,45.7161130549093,-156.749636437369,111.033523382459
0.179669030732861,-132.844315837627,39.7718021018874,172.616117939515,46.53625686787,-152.730216888571,106.193960020701
0.184397163120567,-130.575057077973,42.9912393436874,173.566296421661,43.791908867143,-152.070676749817,108.278767882674
0.189125295508274,-125.012864972733,56.5108808178749,181.523745790607,34.2509920774288,-153.26830538167,119.017313304241
0.193853427895981,-112.834557210691,78.615537936741,191.450095147432,17.109509636975,-152.142326179061,135.032816542086
0.198581560283688,-93.2894076138989,103.700320812247,196.989728426146,-5.20545659917416,-145.139568020022,150.345024619197
0.203309692671395,-68.3495427447718,127.029065967465,195.378608712237,-29.3397616113465,-131.864075728504,161.203837339851
0.208037825059102,-42.2833893801593,146.351447672159,188.634837052319,-52.034029146,-115.459113216239,167.493142362239
0.212765957446809,-21.1537119774804,158.950213778238,180.103925755719,-68.898250900379,-100.6288188666,169.527069766979
0.217494089834515,-10.6535128562174,160.068831242404,170.722344098622,-74.7076591930935,-90.6879284774196,165.395587670513
0.222222222222222,-12.8036291777072,146.856648661819,159.660277839526,-67.0265097420557,-86.2319535086165,153.258463250672
0.226950354609929,-24.2571625255454,123.813243463058,148.070405988604,-49.7780404687565,-86.1637842570746,135.941824725831
0.231678486997636,-37.5894140858911,102.707216378479,140.29663046437,-32.5589011462937,-88.9430222751304,121.501923421424
0.236406619385343,-44.7620221860541,95.5263496427893,140.288371828843,-25.3821637283676,-92.5251970074488,117.907360735816
0.24113475177305,-40.9086825004479,106.381000434757,147.289682935205,-32.7361589671547,-94.0991827178266,126.835341684981
0.245862884160756,-26.0086327291391,129.677206172597,155.685838901736,-51.8342867217288,-90.8472358154374,142.681522537166
0.250591016548463,-3.48087824803734,155.771601589578,159.252479837615,-76.1453616707701,-81.3666790428261,157.512040713596
0.25531914893617,22.0008337247298,178.092623287212,156.091789562482,-100.046728505971,-67.0454779188763,167.092206424847
0.260047281323877,45.3068551326086,195.301935168909,149.9950800363,-120.304395150759,-52.3441124518456,172.648507602604
0.264775413711584,61.6250619560072,208.144299895202,146.519237939194,-134.884680925604,-42.4470879915936,177.331768917198
0.269503546099291,68.5695121118129,215.678430068153,147.10891795634,-142.123971089983,-39.2697029222637,181.393674012247
0.274231678486998,67.5229699646209,215.20274658879,147.679776624169,-141.362858276706,-40.0784033297742,181.44126160648
0.278959810874705,62.3318223562663,206.034334542066,143.7025121858,-134.183078449166,-40.6853449147669,174.868423363933
0.283687943262411,56.996039349536,192.853017735459,135.856978385923,-124.924528542497,-39.4304695181932,164.354998060691
0.288416075650118,54.2985783263448,183.635854409105,129.337276082761,-118.967216367725,-37.5193488782079,156.486565245933
0.293144208037825,54.9749435060742,182.7035552141,127.728611708025,-118.839249360087,-36.3768341009756,155.216083461063
0.297872340425532,57.4049908447105,186.452868079537,129.047877234827,-121.928929462124,-35.821443195058,157.750372657182
0.302600472813239,59.4686758933657,188.190276130176,128.72160023681,-123.829476011771,-34.6264621717221,158.455938183493
0.307328605200946,61.819542262135,187.195893706915,125.37635144478,-124.507717984525,-31.7784045913223,156.286122575847
0.312056737588652,68.0297769163581,189.706971551634,121.677194635276,-128.868374233996,-26.823708859459,155.692083093455
0.316784869976359,79.7045608423992,199.168241184734,119.463680342335,-139.436401013567,-19.879559749968,159.315960763535
0.321513002364066,92.1223084464514,208.572632259945,116.450323813493,-150.347470353198,-12.1640076835209,162.511478036719
0.326241134751773,96.9752020103448,206.043616184365,109.06841417402,-151.509409097355,-6.04660608183774,157.556015179193
0.33096926713948,90.1064700925132,187.419143280095,97.3126731875814,-138.762806686304,-3.60310154753412,142.365908233838
0.335697399527187,75.2956352270982,160.80930085834,85.513665631242,-118.052468042719,-5.10901520207192,123.161483244791
0.340425531914894,60.0229691920922,138.619500885393,78.5965316933013,-99.3212350387429,-9.28678125060452,108.608016289347
0.3451536643026,48.9627057577569,126.895820472264,77.9331147145071,-87.9292631150105,-14.4852044783751,102.414467593386
0.349881796690307,42.1611594580997,122.756714510566,80.595555052466,-82.4589369843327,-19.2171977971832,101.676134781516
0.354609929078014,37.5136968519185,120.099438487559,82.5857416356407,-78.8065676697388,-22.5360223918611,101.3425900616
0.359338061465721,33.0303852371307,115.750143001798,82.7197577646672,-74.3902641194642,-24.8446862637682,99.2349503832325
0.364066193853428,27.1602688419323,109.937503484655,82.7772346427222,-68.5488861632935,-27.808482900395,96.3573690636884
0.368794326241135,18.3300501577394,102.107944384835,83.777894227096,-60.2189972712874,-32.7239220346783,92.9429193059657
0.373522458628842,4.96266302848137,88.3330595573889,83.3703965289075,-46.6478612929351,-39.2038667502131,85.8517280431482
0.378250591016548,-13.2486524583072,64.9253397781268,78.173992236434,-25.8383436599098,-45.7113223473706,71.5496660072804
0.382978723404255,-33.5860112592092,34.7710476315197,68.3570588907288,-0.592518186155242,-50.971535074969,51.5640532611242
0.387706855791962,-50.8394231749381,7.63697318902513,58.4763963639632,21.6012249929565,-54.6579097694506,33.0566847764942
0.392434988179669,-61.0303257525171,-7.74217177869494,53.2881539738222,34.386248765606,-57.1592398631697,22.7729910975636
0.397163120567376,-64.6475281233632,-11.1655630817918,53.4819650415714,37.9065456025775,-59.0647465824673,21.1582009798898
0.401891252955083,-65.625589839735,-9.8721800715833,55.7534097681517,37.7488849556592,-60.6894998039434,22.9406148482842
0.40661938534279,-67.4455793611199,-11.3169125028202,56.1286668582997,39.3812459319701,-61.7871231097098,22.4058771777397
0.411347517730496,-70.7222875981053,-17.8409131056492,52.8813744924561,44.2816003518773,-61.8018310452807,17.5202306934034
0.416075650118203,-74.1266784749139,-26.7750702529415,47.3516082219725,50.4508743639277,-60.7391433484432,10.2882689845155
0.42080378250591,-76.768489598983,-33.9251176631462,42.8433719358367,55.3468036310646,-59.8059307674099,4.45912713634526
0.425531914893617,-79.2216353131961,-37.1128335376311,42.108801775565,58.1672344254136,-60.6652185443806,2.49798411896696
0.430260047281324,-82.3518100610888,-37.3203963669367,45.0314136941521,59.8361032140127,-63.6916118776205,3.85550866360773
0.434988179669031,-85.8630316191924,-37.0103376126286,48.8526940065638,61.4366846159105,-67.3578628128781,5.92117819696762
0.439716312056738,-88.7308967335729,-37.9201780552552,50.8107186783177,63.3255373944141,-69.7708077059453,6.44527031153124
0.444444444444444,-90.8826259978688,-40.7257456127234,50.1568803851454,65.8041858052961,-70.5197531915071,4.71556738621098
0.449172576832151,-93.7393417758531,-45.9517610295962,47.787580746257,69.8455514027247,-70.7634612610551,0.917909858330404
0.453900709219858,-98.8781583943576,-53.8470014416832,45.0311569526744,76.3625799180204,-71.954657673516,-4.40792224450439
0.458628841607565,-106.144690886259,-62.9195524720556,43.2251384142036,84.5321216791574,-74.6849146502314,-9.84720702892604
0.463356973995272,-112.846898211476,-69.5459637634039,43.300934448072,91.1964309874399,-78.073916329774,-13.1225146576659
0.468085106382979,-115.174766613707,-70.610000890027,44.56476572368,92.892383751867,-79.8697661686935,-13.0226175831735
0.472813238770686,-111.575315238535,-67.1496200040039,44.4256952345307,89.3624676212692,-78.0005052365327,-11.3619623847366
0.477541371158392,-105.123447482083,-64.4178562233641,40.7055912587193,84.7706518527238,-72.9145193704014,-11.8561324823224
0.482269503546099,-101.545490766825,-67.2884200492818,34.2570707175436,84.4169554080536,-67.9012807421845,-16.5156746658691
0.486997635933806,-104.119050816777,-75.842812359026,28.2762384577506,89.9809315879013,-66.1976446372636,-23.7832869506377
0.491725768321513,-110.945795663062,-85.959052812185,24.9867428508766,98.4524242376232,-67.966269256969,-30.4861549806542
0.49645390070922,-117.489477880485,-93.4421055025906,24.0473723778946,105.465791691538,-70.7684251291899,-34.697366562348
0.501182033096927,-120.963432813574,-96.5184269541099,24.4450058594636,108.740929883842,-72.7042193365186,-36.0367105473231
0.505910165484634,-121.695301450228,-95.1440188824261,26.551282567802,108.419660166327,-74.123292009015,-34.2963681573121
0.51063829787234,-121.005236249806,-90.0303680891814,30.9748681606247,105.517802169494,-75.9900522052154,-29.5277499642783
0.515366430260047,-118.880049342317,-82.932373960835,35.9476753814815,100.906211651576,-77.413862361899,-23.4923492896767
0.520094562647754,-114.118186855009,-76.5296935864601,37.5884932685487,95.3239402207344,-75.8533400617787,-19.4706001589557
0.524822695035461,-106.672778270347,-73.1818032703034,33.490975000044,89.9272907703254,-70.0818766351957,-19.8454141351297
0.529550827423168,-99.5256304006584,-74.2811535745086,25.2444768261498,86.9033919875835,-62.3850536134041,-24.5183383741794
0.534278959810875,-97.4661898078324,-80.7802327067123,16.6859571011201,89.1232112572724,-57.0760734544763,-32.0471378027961
0.539007092198582,-103.186586781728,-92.8386198805549,10.3479669011736,98.0126033311417,-56.767276841451,-41.2453264896906
0.543735224586288,-114.299383546412,-107.717900965186,6.58148258122668,111.008642255799,-60.4404330638195,-50.5682091919795
0.548463356973995,-124.31971505871,-118.872951722372,5.44676333633765,121.596333390541,-64.8832391975238,-56.7130941930173
0.553191489361702,-126.924734172068,-119.293025779222,7.63170839284606,123.108879975645,-67.2782212824572,-55.8306586931881
0.557919621749409,-119.997613797816,-107.185422903752,12.8121908940635,113.591518350784,-66.4049023459396,-47.1866160048443
0.562647754137116,-106.453536325904,-88.4058835090775,18.0476528168262,97.4297099174907,-62.250594571365,-35.1791153461257
0.567375886524823,-91.9162331718073,-72.8343527641814,19.0818804076259,82.3752929679943,-55.4990567897166,-26.8762361782778
0.57210401891253,-81.8213717800199,-67.8623559656067,13.9590158144132,74.8418638728133,-47.8901937972166,-26.9516700755967
0.576832151300236,-79.5761102545461,-74.1902623699348,5.38584788461129,76.8831863122404,-42.4809790695787,-34.4022072426617
0.581560283687943,-85.1724008157144,-86.2072198267997,-1.03481901108532,85.6898103212571,-42.0687909023145,-43.6210194189425
0.58628841607565,-94.4664860723698,-95.9833282412243,-1.51684216885444,95.2249071567971,-46.4748219517577,-48.7500852050394
0.591016548463357,-101.253114590933,-98.5282437322161,2.72487085871644,99.8906791615743,-51.9889927248245,-47.9016864367498
0.595744680851064,-101.998361893226,-95.1593570797235,6.83900481350288,98.5788594864749,-54.4186833533646,-44.1601761331103
0.600472813238771,-98.565050640964,-91.8470368058332,6.71801383513076,95.2060437233986,-52.6415322380474,-42.5645114853512
0.605200945626478,-95.0281663173653,-92.6819140658787,2.34625225148666,93.855040191622,-48.687209284426,-45.167830907196
0.609929078014184,-91.8433058514199,-94.3277042592513,-2.48439840783143,93.0855050553356,-44.6794537217942,-48.4060513335414
0.614657210401891,-85.0178303636537,-88.5413558560636,-3.52352549240995,86.7795931098586,-40.7471524356219,-46.0324406742368
0.619385342789598,-72.0354880211603,-71.7077388358702,0.327749185290145,71.8716134285153,-36.1816186032252,-35.68999482529
0.624113475177305,-56.9548160220562,-50.8335271946347,6.12128882742154,53.8941716083455,-31.5380524247389,-22.3561191836066
0.628841607565012,-47.624204822186,-38.075408120355,9.54879670183097,42.8498064712705,-28.5865007620085,-14.263305709262
0.633569739952719,-48.0761901711232,-39.3541148019293,8.72207536919385,43.7151524865263,-28.3991327701585,-15.3160197163677
0.638297872340426,-55.0749422294371,-49.8276811673542,5.24726106208288,52.4513116983956,-30.16110164576,-22.2902100526357
0.643026004728132,-62.4136946760821,-60.7048134459119,1.70888123017019,61.559254060997,-32.0612879531261,-29.4979661078709
0.647754137115839,-67.6638984306219,-68.981913377709,-1.31801494708708,68.3229059041655,-33.1729417417674,-35.149964162398
0.652482269503546,-73.8486654150396,-79.1168277754147,-5.26816236037511,76.4827465952272,-34.2902515273322,-42.1924950678949
0.657210401891253,-84.3828533882984,-95.0640899405415,-10.6812365522431,89.7234716644199,-36.8508084180276,-52.8726632463923
0.66193853427896,-97.1155636550577,-112.191590743971,-15.0760270889136,104.653577199515,-41.0197682830721,-63.6338089164424
0.666666666666667,-104.528363414416,-119.391777950104,-14.8634145356888,111.96007068226,-44.8324744393634,-67.1275962428966
0.671394799054373,-100.268978300686,-109.926312279578,-9.65733397889203,105.097645290132,-45.3058221608968,-59.7918231292349
0.67612293144208,-84.9142612671436,-88.5020850097461,-3.58782374260244,86.7081731384448,-40.6632187622706,-46.0449543761742
0.680851063829787,-65.0895485719542,-66.5608055738259,-1.47125700187171,65.8251770728901,-31.8091457850413,-34.0160312878488
0.685579196217494,-47.8836282317897,-52.3167702954955,-4.43314206370579,50.1001992636426,-21.725243084042,-28.3749561796006
0.690307328605201,-36.8938543915557,-47.0973794535903,-10.2035250620346,41.995616922573,-13.3451646647606,-28.6504522578125
0.695035460992908,-32.9782969699762,-49.7110066349212,-16.732709664945,41.3446518024487,-8.1227936525156,-33.2218581499331
0.699763593380615,-36.9204769831646,-60.7133795044811,-23.7929025213165,48.8169282438228,-6.56378723092404,-42.2531410128988
0.704491725768322,-49.3854533856305,-80.418855424978,-31.0334020393476,64.9021544053043,-9.17602567314145,-55.7261287321628
0.709219858156028,-67.6019245317116,-103.576243144523,-35.9743186128115,85.5890838381173,-15.81380295945,-69.7752808786673
0.713947990543735,-83.3610999334997,-118.503185614462,-35.142085680962,100.932142773981,-24.1095071262688,-76.8226356477119
0.718676122931442,-86.5647626912506,-114.134950592227,-27.5701879009761,100.349856641739,-29.4972873951373,-70.8525692466014
0.723404255319149,-72.6052705875497,-89.5503865801135,-16.9451159925638,81.0778285838315,-27.8300772974929,-53.2477512863386
0.728132387706856,-47.0196211568474,-56.6609773170413,-9.6413561601939,51.8402992369443,-18.6891324983267,-33.1511667386176
0.732860520094563,-22.5572931285103,-32.4606080763254,-9.90331494781506,27.5089506024179,-6.32698909034763,-21.1819615120702
0.737588652482269,-10.6063589953805,-27.0550770611042,-16.4487180657237,18.8307180282424,2.92117953517159,-21.751897563414
0.742316784869976,-14.0066594084996,-37.8703763811985,-23.8637169726989,25.938517894849,4.92852878209963,-30.8670466769487
0.747044917257683,-26.6200632533971,-54.2966185686963,-27.6765553152991,40.4583409110467,0.52824603095101,-40.9865869419977
0.75177304964539,-39.0059199665018,-66.734778648232,-27.7288586817302,52.8703493073669,-5.63853064238577,-47.2318186649811
0.756501182033097,-45.1441800008908,-71.5256653639068,-26.381485363016,58.3349226823988,-9.38134731893739,-48.9535753634614
0.761229314420804,-45.1979095533129,-70.1944248572811,-24.9965153039681,57.696167205297,-10.1006971246724,-47.5954700806246
0.765957446808511,-42.8916762940329,-66.4821249806813,-23.5904486866484,54.6869006373571,-9.65061380369229,-45.0362868336648
0.770685579196217,-40.5768549469253,-63.050376570365,-22.4735216234397,51.8136157586451,-9.05166666174284,-42.7619490969023
0.775413711583924,-37.0269038685567,-59.2397375282985,-22.2128336597419,48.1333206984276,-7.40703510440739,-40.7262855940202
0.780141843971631,-30.115868997172,-52.8157721341004,-22.6999031369284,41.4658205656362,-3.70798293012179,-37.7578376355144
0.784869976359338,-20.8974304695503,-44.7597325492679,-23.8623020797176,32.8285815094091,1.48243580508365,-34.3110173144928
0.789598108747045,-13.7285009437903,-40.5309586891871,-26.8024577453968,27.1297298164887,6.53697840080327,-33.666708217292
0.794326241134752,-12.0244556538812,-44.6380464430537,-32.6135907891725,28.3312510484674,10.2945675676456,-38.6258186161131
0.799054373522459,-14.7379762829572,-54.4134128521171,-39.6754365691599,34.5756945675371,12.4687301431014,-47.0444247106385
0.803782505910166,-17.5215149037285,-60.8655464620602,-43.3440315583317,39.1935306828944,12.9112583273016,-52.104789010196
0.808510638297872,-16.9792064724181,-56.991572095153,-40.0123656227349,36.9853892837856,11.5165795751584,-48.5019688589439
0.813238770685579,-13.5723975549777,-45.4960648116471,-31.9236672566694,29.5342311833124,9.17563485084588,-38.7098660341583
0.817966903073286,-10.8027700040565,-37.1952227948586,-26.392452790802,23.9989963994575,7.79484139337273,-31.7938377928303
0.822695035460993,-11.9367815707498,-40.5638647164803,-28.6270831457305,26.2503231436151,8.34515078749034,-34.5954739311054
0.8274231678487,-17.2131892879997,-53.1824219423162,-35.9692326543165,35.1978056151579,9.37802168315844,-44.5758272983164
0.832151300236407,-23.545046163214,-64.4878181264069,-40.9427719631929,44.0164321448104,8.69886289998948,-52.7152950447999
0.836879432624113,-26.7338008388518,-66.553391521325,-39.8195906824732,46.6435961800884,6.54289492181066,-53.1864911018991
0.84160756501182,-24.6057503350182,-60.8956211472748,-36.2898708122566,42.7506857411465,5.84206023861922,-48.5927459797657
0.846335697399527,-18.9289070993982,-55.0975939666076,-36.1686868672094,37.0132505330029,8.61988988390558,-45.6331404169085
0.851063829787234,-14.661456850047,-55.2376983973808,-40.5762415473337,34.9495776237139,12.9573923486434,-47.9069699723572
0.855791962174941,-16.6266968824839,-62.8186270396108,-46.1919301571268,39.7226619610474,14.7826166373215,-54.5052785983688
0.860520094562648,-25.7208091265233,-76.4276099925633,-50.70680086604,51.0742095595433,12.4929958697583,-63.5672054293017
0.865248226950355,-38.0869243772655,-92.8233616894457,-54.7364373121802,65.4551430333556,8.32475646745733,-73.779899500813
0.869976359338062,-48.5646363620914,-106.651902901531,-58.0872665394394,77.6082696318111,4.76131508867397,-82.3695847204851
0.874704491725768,-54.8070628315251,-112.376800804315,-57.56973797279,83.5919318179201,1.38133757063245,-84.9732693885526
0.879432624113475,-57.3663037525207,-108.084754289715,-50.7184505371945,82.7255290211179,-3.32392660766307,-79.4016024134549
0.884160756501182,-56.4895634507835,-96.4767371106156,-39.9871736598321,76.4831502806996,-8.25119489547572,-68.2319553852239
0.888888888888889,-50.7816747621537,-81.9003477098744,-31.1186729477206,66.341011236014,-9.83150090721655,-56.5095103287975
0.893617021276596,-39.6605760339047,-67.484078182037,-27.8235021481324,53.5723271079708,-5.91853694288616,-47.6537901650847
0.898345153664303,-25.7586693606,-55.1348311205535,-29.3761617599535,40.4467502405768,1.80874619967671,-42.2554964402535
0.903073286052009,-13.7634263535933,-46.8109323655729,-33.0475060119797,30.2871793595831,9.6420398291932,-39.9292191887763
0.907801418439716,-7.23158711555288,-44.4518097544063,-37.2202226388535,25.8416984349796,14.9943177616503,-40.8360161966299
0.912529550827423,-6.70719856826689,-48.2919518780775,-41.5847533098107,27.4995752231722,17.4387773707719,-44.9383525939441
0.91725768321513,-10.0994106196653,-55.8695690953703,-45.770158475705,32.9844898575178,17.8353739280198,-50.8198637855376
0.921985815602837,-14.5727812802039,-63.6136742253391,-49.0408929451353,39.0932277527715,17.2340558324657,-56.3272835852372
0.926713947990544,-18.5064728206219,-69.2149925869464,-50.7085197663245,43.8607327037842,16.1010234728513,-59.9617561766354
0.931442080378251,-21.4761585793341,-71.6258074727188,-50.1496488933847,46.5509830260265,14.3367451570253,-60.8877281830518
0.936170212765957,-22.4691757162277,-69.6350202594916,-47.1658445432639,46.0520979878597,12.3483344135181,-58.4004324013777
0.940898345153664,-19.7157556453714,-62.6355048493643,-42.919749203993,41.1756302473678,11.6019967793108,-52.7776270266786
0.945626477541371,-13.1843857374508,-52.8732387196027,-39.6888529821518,33.0288122285268,13.2522336223505,-46.2810458508772
0.950354609929078,-5.75725548033633,-44.6010361684088,-38.8437806880724,25.1791458243725,16.5432626038681,-41.7224084282406
0.955082742316785,-0.524789268626005,-40.121643534925,-39.596854266299,20.3232164017755,19.5360324988365,-39.859248900612
0.959810874704492,2.07275903519718,-38.5704311408807,-40.6431901760779,18.2488360528418,21.3579746056375,-39.6068106584793
0.964539007092199,2.8780662690086,-39.6803576138813,-42.5584238828899,18.4011456724363,22.7182450759492,-41.1193907483856
0.969267139479905,0.648416159455208,-46.426922638028,-47.0753387974832,22.8892532392864,23.8618774784692,-46.7511307177556
0.973995271867612,-7.32095724837346,-60.8733223271965,-53.552365078823,34.097139787785,23.1157039152248,-57.2128437030098
0.978723404255319,-20.0773515013752,-77.7078425514791,-57.6304910501038,48.8925970264271,18.7765697743643,-67.6691668007915
0.983451536643026,-30.5055802798171,-85.6191019302591,-55.113521650442,58.0623411050381,12.3039706853124,-70.3663117903506
0.988179669030733,-30.7614877898295,-77.9132407037006,-47.151752913871,54.337364246765,8.19513256202075,-62.5324968087858
0.99290780141844,-20.591669606985,-60.5871181806749,-39.9954485736899,40.58939389383,9.70188948335244,-50.2912833771824
0.997635933806147,-8.29738438258637,-46.8728816539047,-38.5754972713183,27.5851330182455,15.139056444366,-42.7241894626115
1.00236406619385,-2.08624404278572,-43.1942065726725,-41.1079625298868,22.6402253077291,19.5108592435505,-42.1510845512796
1.00709219858156,-1.33547265235226,-42.6494158129642,-41.3139431606119,21.9924442326582,19.9892352541298,-41.981679486788
1.01182033096927,1.92698194366865,-33.930009698679,-35.8569916423477,16.0015138775052,18.8919867930082,-34.8935006705133
1.01654846335697,12.7832586016841,-15.7463655745961,-28.5296241762802,1.48155348645602,20.6564413889822,-22.1379948754382
1.02127659574468,26.3597644118272,-0.302467191798915,-26.6622316036261,-13.0286486100142,26.5109980077267,-13.4823493977125
1.02600472813239,32.3102829906722,-1.44014065294855,-33.7504236436207,-15.4350711688618,33.0303533171464,-17.5952821482846
1.03073286052009,25.7600618927806,-20.0736722693693,-45.8337341621499,-2.84319481170563,35.7968980274652,-32.9537032157596
1.0354609929078,12.4623811806937,-42.3089580898434,-54.7713392705371,14.9232884545748,33.6168602256154,-48.5401486801902
1.04018912529551,3.15064581181563,-51.6244890004074,-54.775134812223,24.2369215942959,28.9628903120193,-53.1998119063152
1.04491725768322,4.00369964161994,-42.4178675919972,-46.4215672336171,19.2070839751886,25.2126334376185,-44.4197174128072
1.04964539007092,12.7797969882239,-22.9045744080707,-35.6843713962946,5.06238870992341,24.2320841922593,-29.2944729021827
1.05437352245863,22.5367168602886,-7.1160026076137,-29.6527194679023,-7.71035712633744,26.0947181640954,-18.384361037758
1.05910165484634,27.3791797402306,-4.65387299656947,-32.0330527368001,-11.3626533718306,29.7061162385153,-18.3434628666848
1.06382978723404,24.9586378316404,-15.8470582330342,-40.8056960646747,-4.55578979930308,32.8821669481575,-28.3263771488545
1.06855791962175,16.0204426338317,-33.2842579158349,-49.3047005496666,8.63190764100163,32.6625715917492,-41.2944792327508
1.07328605200946,4.22336161001326,-46.4056388113194,-50.6290004213327,21.0911386006531,27.426181015673,-48.517319616326
1.07801418439716,-3.67394677932401,-46.6732997626414,-42.9993529833174,25.1736232709827,19.6627031019967,-44.8363263729794
1.08274231678487,-0.595808901886537,-32.3197400781385,-31.7239311762519,16.4577744900125,15.5640611371827,-32.0218356271952
1.08747044917258,14.7922755693843,-10.2340293647906,-25.0263049341749,-2.27912310229685,19.9092902517796,-17.6301671494827
1.09219858156028,34.8509630211027,8.0961544626808,-26.7548085584219,-21.4735587418917,30.8028857897623,-9.32932704787054
1.09692671394799,48.333887488721,15.0639787348139,-33.2699087539071,-31.6989331117675,40.8018981213141,-9.1029650095466
1.1016548463357,50.4327265642499,12.343702257876,-38.089024306374,-31.388214411063,44.2608754353119,-12.872661024249
1.1063829787234,46.2576322414887,7.27358994922417,-38.9840422922646,-26.7656110953565,42.6208372668767,-15.8552261715202
1.11111111111111,43.3406625693115,4.15055749948037,-39.1901050698311,-23.7456100343959,41.2653838195713,-17.5197737851754
1.11583924349882,42.492509297237,0.508248040474905,-41.9842612567621,-21.500378668856,42.2383852769996,-20.7380066081436
1.12056737588652,38.2710553120134,-8.03578570082353,-46.3068410128369,-15.1176348055949,42.2889481624252,-27.1713133568302
1.12529550827423,27.5865145724696,-21.1169372823911,-48.7034518548607,-3.23478864503925,38.1449832136652,-34.9101945686259
1.13002364066194,15.1822774876289,-32.629720249512,-47.8119977371408,8.72372138094153,31.4971376123849,-40.2208589933264
1.13475177304965,9.80835510916464,-35.4385826498875,-45.2469377590521,12.8151137703614,27.5276464341084,-40.3427602044698
1.13947990543735,16.027125014699,-26.8580685960268,-42.8851936107258,5.41547179066388,29.4561593127124,-34.8716311033763
1.14420803782506,30.1837996215887,-10.8460137892828,-41.0298134108715,-9.66889291615293,35.6068065162301,-25.9379136000772
1.14893617021277,43.7679946917212,4.39168234795093,-39.3763123437703,-24.0798385198361,41.5721535177457,-17.4923149979097
1.15366430260047,50.3584457458806,11.9680570443895,-38.3903887014911,-31.1632513951351,44.3744172236859,-13.2111658285508
1.15839243498818,49.6469553834629,10.9196636182419,-38.727291765221,-30.2833095008524,44.1871235743419,-13.9038140734895
1.16312056737589,45.5256138531989,5.79971614809614,-39.7258977051027,-25.6626650006475,42.6257557791508,-16.9630907785033
1.16784869976359,41.4474563103424,1.84945299787737,-39.5980033124651,-21.6484546541099,40.5227298114037,-18.8742751572938
1.1725768321513,38.3132738860164,0.778847393426258,-37.5344264925901,-19.5460606397213,37.9238501893033,-18.3777895495819
1.17730496453901,35.7782201600856,0.754486267041359,-35.0237338930443,-18.2663532135635,35.400977026565,-17.1346238130015
1.18203309692671,33.5652253061054,-0.974056071519425,-34.5392813776248,-16.295584617293,34.0522533418651,-17.7566687245721
1.18676122931442,30.9592661069589,-6.22605061800804,-37.185316724967,-12.3666077444754,34.0722914159629,-21.7056836714875
1.19148936170213,26.3699052636338,-15.531858685363,-41.9017639489967,-5.41902328913539,34.1358346063152,-28.7168113171799
1.19621749408983,18.2424846879837,-28.2992262305879,-46.5417109185716,5.02837077130209,32.3920978032777,-37.4204685745798
1.20094562647754,5.69325615189087,-43.6510623856578,-49.3443185375486,18.9789031168835,27.5187873447198,-46.4976904616032
1.20567375886525,-11.9203720046254,-61.5727420300336,-49.6523700254082,36.7465570173295,18.8659990103914,-55.6125560277209
1.21040189125296,-34.3351780012673,-81.9901816153522,-47.6550036140849,58.1626798083098,6.65991280640878,-64.8225926147185
1.21513002364066,-57.9057839544002,-101.644077165342,-43.7382932109423,79.7749305598713,-7.08374537172898,-72.6911851881424
1.21985815602837,-75.1934147638215,-113.563579983142,-38.370165219321,94.378497373482,-18.4116247722503,-75.9668726012317
1.22458628841608,-79.7401604197263,-112.265085028171,-32.5249246084447,96.0026227239487,-23.6076179056408,-72.3950048183079
1.22931442080378,-71.8643859177206,-99.4039316280854,-27.5395457103648,85.634158772903,-22.1624201036779,-63.4717386692251
1.23404255319149,-58.1958546482334,-82.2641187348013,-24.0682640865679,70.2299866915174,-17.0637952808328,-53.1661914106846
1.2387706855792,-45.2075689033427,-66.8519770639316,-21.6444081605889,56.0297729836371,-11.7815803713769,-44.2481926122602
1.2434988179669,-35.0623204282942,-55.1300433979575,-20.0677229696633,45.0961819131259,-7.49729872931548,-37.5988831838104
1.24822695035461,-28.2902532340262,-49.20566661136,-20.9154133773338,38.7479599226931,-3.68741992834622,-35.0605399943469
1.25295508274232,-27.728925356259,-54.0530081392096,-26.3240827829507,40.8909667477343,-0.702421286654161,-40.1885454610801
1.25768321513002,-37.033516263262,-72.8122201314914,-35.7787038682295,54.9228681973767,-0.627406197516251,-54.2954619998604
1.26241134751773,-55.697714226316,-100.789027897343,-45.0913136710273,78.2433710618296,-5.30320027764437,-72.9401707841853
1.26713947990544,-77.2997167266342,-126.580136182299,-49.2804194556652,101.939926454467,-14.0096486354845,-87.9302778189823
1.27186761229314,-92.9368103958256,-139.158206298894,-46.2213959030686,116.04750834736,-23.3577072463785,-92.6898011009814
1.27659574468085,-96.1954644857698,-133.912006699103,-37.716542213333,115.053735592436,-29.2394611362184,-85.8142744562179
1.28132387706856,-86.1748808566688,-114.181346546972,-28.0064656903034,100.178113701821,-29.0842075831827,-71.0939061186378
1.28605200945626,-67.627289231428,-88.9769785213452,-21.3496892899173,78.3021338763866,-23.1387999707554,-55.1633339056312
1.29078014184397,-48.4073781927923,-68.2789584174798,-19.8715802246875,58.3431683051361,-14.2678989840524,-44.0752693210837
1.29550827423168,-35.5194802291188,-58.2979892074197,-22.7785089783009,46.9087347182693,-6.37048562540893,-40.5382490928603
1.30023640661939,-32.5075035371167,-60.0724813207247,-27.564977783608,46.2899924289207,-2.47126287675434,-43.8187295521664
1.30496453900709,-39.8209179487318,-72.0327024093261,-32.2117844605942,55.926810179029,-3.8045667440688,-52.1222434349602
1.3096926713948,-56.2697537691555,-92.5614198150795,-36.291666045924,74.4155867921175,-9.98904386161573,-64.4265429305018
1.31442080378251,-78.6358544116341,-118.519312219092,-39.8834578074576,98.5775833153629,-19.3761983020882,-79.2013850132747
1.31914893617021,-100.066180112118,-141.813832743861,-41.7476526317431,120.94000642799,-29.1592637401876,-91.7807426878023
1.32387706855792,-111.348454448172,-150.897941575041,-39.5494871268695,131.123198011606,-35.8994836606511,-95.2237143509553
1.32860520094563,-106.870242536963,-139.419667769583,-32.5494252326193,123.144955153273,-37.1604086521721,-85.9845465011011
1.33333333333333,-90.3097975510946,-113.985544853094,-23.6757473019989,102.147671202094,-33.3170251245478,-68.8306460775462
1.33806146572104,-72.600217614687,-90.5890683006868,-17.9888506859998,81.5946429576869,-27.3056834643436,-54.2889594933433
1.34278959810875,-62.0708700898056,-80.2591841730559,-18.1883140832502,71.1650271314307,-21.9412780032777,-49.223749128153
1.34751773049645,-56.2372812869243,-77.3960375904097,-21.1587563034854,66.816659438667,-17.5392624917194,-49.2773969469476
1.35224586288416,-43.4848472728007,-62.8251990314546,-19.3403517586538,53.1550231521277,-12.0722477570734,-41.0827753950542
1.35697399527187,-11.7865585954387,-18.2233379669252,-6.43677937148653,15.0049482811819,-2.67488961197607,-12.3300586692059
1.36170212765957,44.6758840649519,62.2278780082373,17.5519939432854,-53.4518810365946,13.5619450608332,39.8899359757613
1.36643026004728,124.968273022885,171.686905469612,46.7186324467276,-148.327589246249,39.1248202880787,109.20276895817
1.37115839243499,224.089429852012,298.503100479913,74.4136706279008,-261.296265165963,74.8378796120558,186.458385553907
1.3758865248227,335.754063648049,433.195046876428,97.4409832283785,-384.474555262238,119.156540209835,265.318015052403
1.3806146572104,453.985222297574,568.981067445077,114.995845147502,-511.483144871325,169.494688575036,341.988456296289
1.38534278959811,571.98479328694,696.909346425916,124.924553138976,-634.447069856428,223.530120073982,410.916949782446
1.39007092198582,678.690507928702,801.613082449584,122.922574520882,-740.151795189143,277.88396670391,462.267828485233
1.39479905437352,758.107297178674,863.69927720226,105.591980023586,-810.903287190467,326.257658577544,484.645628612923
1.39952718676123,795.587734767932,869.190681132185,73.6029463642533,-832.389207950058,360.992394201839,471.396813748219
1.40425531914894,786.686713014884,819.044775263783,32.3580622488985,-802.865744139333,377.164325382993,425.701418756341
1.40898345153664,739.301000949767,729.593789408639,-9.70721154112766,-734.447395179203,374.504106245447,359.943288933756
1.41371158392435,666.671457177072,622.226051936963,-44.4454052401092,-644.448754557018,355.558431208591,288.890323348427
1.41843971631206,579.104285597769,511.609061853943,-67.4952237438262,-545.356673725856,323.299754670798,222.056919055058
1.42316784869976,482.636832205672,403.199218326357,-79.437613879315,-442.918025266014,281.037223042493,161.880802223521
1.42789598108747,383.641362988117,300.09712207257,-83.5442409155471,-341.869242530344,233.592801951832,108.276440578512
1.43262411347518,291.964250587167,209.579859120644,-82.3843914665238,-250.772054853906,187.174321026846,63.5977338270599
1.43735224586288,218.616166963674,142.022718238464,-76.5934487252098,-180.319442601069,147.604807844442,32.7146347566271
1.44208037825059,170.895858602702,104.581976933507,-66.313881669195,-137.738917768104,118.604870135948,19.1340476321559
1.4468085106383,149.421865426747,96.5631858500335,-52.8586795767133,-122.99252563839,101.14027250173,21.8522531366601
1.451536643026,148.232744857263,109.370556980315,-38.862187876948,-128.801650918789,93.5474663671055,35.2541845516836
1.45626477541371,156.741059305839,129.148465287761,-27.5925940180784,-142.9447622968,92.1668266619588,50.7779356348412
1.46099290780142,162.820473555233,140.716097668497,-22.1043758867356,-151.768285611865,92.4624247209843,59.3058608908809
1.46572104018913,156.958956261725,133.218140694704,-23.7408155670212,-145.088548478215,90.3498859143732,54.7386625638415
1.47044917257683,136.310681997781,105.800569939466,-30.5101120583149,-121.055625968623,83.4103970280478,37.6452289405754
1.47517730496454,105.924219119716,68.5015849465226,-37.4226341731939,-87.2129020331195,71.6734266464552,15.5394753866643
1.47990543735225,75.1307773893512,35.4682977606192,-39.6624796287321,-55.2995375749852,57.3966285090416,-2.09709093405645
1.48463356973995,50.8396731280069,14.3640976052311,-36.4755755227758,-32.601885366619,43.6576243253913,-11.0557389587723
1.48936170212766,33.0861545759041,0.985889619390012,-32.1002649565141,-17.0360220976471,32.5932097662091,-15.557187668562
1.49408983451537,16.966328217211,-15.028724496299,-31.99505271351,-0.968801860455986,24.4806904653605,-23.5118886049045
1.49881796690307,-1.14783549501219,-38.5996662955552,-37.451830800543,19.8737508952837,18.1519976527654,-38.0257485480491
1.50354609929078,-20.0141373637949,-64.2613337676583,-44.2471964038634,42.1377355657266,12.1165295200342,-54.2542650857608
1.50827423167849,-36.1500832146274,-83.0063866355517,-46.8563034209243,59.5782349250896,5.35311010314841,-64.931345028238
1.51300236406619,-48.3591032343289,-91.8300560644236,-43.4709528300947,70.0945796493762,-2.44407520211709,-67.6505044472592
1.5177304964539,-58.1447105770028,-94.7794212190992,-36.6347106420964,76.462065898051,-10.7549999674532,-65.7070659305978
1.52245862884161,-66.5339584263253,-96.2999872532315,-29.7660288269063,81.4169728397784,-18.3839647997095,-63.0330080400689
1.52718676122931,-72.3491235263706,-96.4136583064177,-24.0645347800472,84.3813909163942,-24.1422943731617,-60.2390965432325
1.53191489361702,-73.8459797514551,-92.5502927842058,-18.7043130327506,83.1981362678304,-27.5708333593522,-55.6273029084782
1.53664302600473,-71.1302248869302,-84.088654872589,-12.9584299856588,77.6094398797596,-29.0858974506357,-48.5235424291239
1.54137115839243,-66.7284238492128,-74.3339512469565,-7.60552739774367,70.5311875480846,-29.5614482257346,-40.9697393223501
1.54609929078014,-64.0456956542714,-68.7022128960072,-4.65651724173578,66.3739542751393,-29.6945892062678,-36.6793650688715
1.55082742316785,-64.8823429054779,-70.6006887956045,-5.71834589012659,67.7415158505412,-29.5819985076757,-38.1595173428656
1.55555555555556,-67.9265708587879,-78.0450139097755,-10.1184430509876,72.9857923842817,-28.9040639039002,-44.0817284803815
1.56028368794326,-70.1245582207189,-84.9813393856827,-14.8567811649638,77.5529488032008,-27.6338885278776,-49.9190602753232
1.56501182033097,-70.4605274852187,-87.5839068224901,-17.1233793372714,79.0222171538544,-26.6685740739737,-52.3536430798807
1.56973995271868,-72.3043409738867,-88.9696655832943,-16.6653246094075,80.6370032785905,-27.8195081822396,-52.8174950963509
1.57446808510638,-80.5230806556783,-95.4461534757249,-14.9230728200466,87.9846170657016,-32.8000039178159,-55.1846131478857
1.57919621749409,-94.7053988542216,-106.936678226651,-12.2312793724295,100.821038540436,-41.2370597408961,-59.5839787995403
1.5839243498818,-105.639110167983,-112.870748607384,-7.23163843940065,109.254929387683,-49.2037358642912,-60.0511935233922
1.5886524822695,-101.094024556004,-100.528682413524,0.565342142479693,100.811353484764,-50.8296833492416,-49.9816701355221
1.59338061465721,-77.3743749058093,-68.7720477885973,8.60232711721206,73.0732113472033,-42.9883510115107,-30.0848603356926
1.59810874704492,-44.9583761741695,-32.4867681087216,12.4716080654479,38.7225721414455,-28.7149921198087,-10.0075800216368
1.60283687943262,-21.1685593140266,-11.5718741885061,9.59668512552055,16.3702167512663,-15.3826222197736,-0.987594531492761
1.60756501182033,-16.4489289369442,-14.309627756239,2.13930118070515,15.3792783465916,-9.29411505882467,-6.08516328776695
1.61229314420804,-27.3197458079476,-31.2388423302786,-3.91909652233103,29.2792940691131,-11.7003246428083,-17.5789694263048
1.61702127659574,-41.103183159539,-44.7980173535941,-3.69483419405512,42.9506002565665,-18.7041744827419,-24.2464257738246
1.62174940898345,-45.9891429454925,-43.9251097505729,2.06403319491962,44.9571263480327,-24.0265880702061,-20.9305382778266
1.62647754137116,-38.1008315348694,-30.3098584015507,7.79097313331871,34.2053449682101,-22.9459023340941,-11.259442634116
1.63120567375887,-22.8289283723363,-14.4045686137982,8.42435975853814,18.6167484930673,-15.6266440654372,-2.99010442763003
1.63593380614657,-10.866793034136,-7.28320811133106,3.58358492280492,9.07500057273352,-7.22518897847045,-1.84981159426307
1.64066193853428,-10.272723943501,-13.1734098566634,-2.90068591316242,11.7230669000822,-3.68601901516928,-8.03704788491291
1.64539007092199,-19.9705733192319,-26.5797689615669,-6.60919564233501,23.2751711403994,-6.68068883844846,-16.594482301951
1.65011820330969,-31.6607748980533,-37.5475472877755,-5.8867723897222,34.6041610929144,-12.8870012541655,-21.7171598387488
1.6548463356974,-38.6668001034437,-41.2914275946479,-2.62462749120424,39.9791138490458,-18.0210863061197,-21.9580275429261
1.65957446808511,-41.4704077628116,-41.61482882356,-0.144421060748414,41.5426182931858,-20.6629933510316,-20.8796249421542
1.66430260047281,-44.3296795951725,-44.4015607338975,-0.071881138725054,44.365620164535,-22.1288992282237,-22.2367209363113
1.66903073286052,-49.0537160512353,-50.3795864406478,-1.32587038941254,49.7166512459416,-23.8639228309114,-25.8527284150302
1.67375886524823,-54.0003517153494,-56.1178818675777,-2.11753015222835,55.0591167914636,-25.9414107815605,-29.117706009903
1.67848699763593,-57.6244876565937,-59.4964512234168,-1.87196356682312,58.5604694400052,-27.8762620448853,-30.68420739512
1.68321513002364,-60.1126516793858,-60.6427008633114,-0.530049183925577,60.3776762713486,-29.7913012477301,-30.5863750236185
1.68794326241135,-60.9378811730964,-58.3794101434764,2.55847102961992,59.6586456582864,-31.7481761013581,-27.9104695569283
1.69267139479905,-57.0630822116373,-49.5785784091917,7.48450380244563,53.3208303104145,-32.2737930070415,-21.047037303373
1.69739952718676,-45.76433155642,-33.3362824085406,12.4280491478794,39.5503069824803,-29.0961903521497,-10.4541166303306
1.70212765957447,-28.8503352670823,-13.782869980261,15.0674652868213,21.3166026236716,-21.9589002769518,0.642297653280155
1.70685579196217,-12.2368989877473,2.97106717958317,15.2079661673304,4.63291590408205,-13.7224325775388,9.0895166734568
1.71158392434988,-0.718995479412402,14.3992962534113,15.1182917328237,-6.84015038699946,-7.91864360611807,14.7587939931175
1.71631205673759,6.0424764554619,23.2323154283365,17.1898389728747,-14.6373959418992,-5.57368125870638,20.2110772006056
1.7210401891253,12.0760737302771,33.6234995197797,21.5474257895026,-22.8497866250284,-4.73567602961275,27.5854626546411
1.725768321513,20.5397685174085,46.3462590187707,25.8064905013622,-33.4430137680896,-2.63336099197687,36.0763747600665
1.73049645390071,30.898234954859,57.784162174184,26.885927219325,-44.3411985645215,2.00615386776702,42.3350446967545
1.73522458628842,39.3065537700921,62.5633023417908,23.2567485716986,-50.9349280559415,8.02490259919675,42.9100254567447
1.73995271867612,41.0112262812126,57.0206773851012,16.0094511038886,-49.0159518331569,12.500887588662,36.5150642444949
1.74468085106383,34.1670557269906,42.3496588184757,8.18260309148503,-38.2583572727332,12.9922263177528,25.2661309549803
1.74940898345154,23.1690600277757,26.231129609003,3.06206958122723,-24.7000948183893,10.0534952232742,14.6465995951151
1.75413711583924,16.9631769056792,19.4259295228656,2.46275261718643,-18.1945532142724,7.25021214424639,10.944341070026
1.75886524822695,21.545967448873,27.1635406778723,5.61757322899929,-24.3547540633727,7.96419710993686,16.3905569534358
1.76359338061466,33.9716045182746,43.4442034829496,9.47259896467502,-38.7079040006121,12.2495027767998,26.4584012238123
1.76832151300236,45.1571552432173,55.9512735984778,10.7941183552605,-50.5542144208475,17.1815184439784,33.3726959768691
1.77304964539007,48.5247869580768,57.1261697348717,8.60138277679487,-52.8254783464742,19.961702090641,32.8637762558333
1.77777777777778,44.8426307561626,49.6047001051001,4.76206934893747,-47.2236654306313,20.0402807036126,27.1833847270188
1.78250591016548,39.4653246204863,41.9142171047999,2.44889248431357,-40.6897708626431,18.5082160680864,22.1815547945567
1.78723404255319,37.2520841818938,41.0982236164491,3.84613943455535,-39.1751538991715,16.7029723736692,22.4721815255023
1.7919621749409,40.4362217262572,48.9850738725041,8.54885214624689,-44.7106477993806,15.9436847900051,28.7669630093755
1.79669030732861,48.6812673142228,62.2604413111753,13.5791739969525,-55.470854312699,17.5510466586351,37.9198076540639
1.80141843971631,59.08969968776,74.3395571347266,15.2498574469667,-66.7146284112433,21.9199211203967,44.7947072908466
1.80614657210402,67.1712716017701,79.1249848142118,11.9537132124417,-73.148128207991,27.6087791946642,45.5393490133267
1.81087470449173,70.0085757270206,75.8045742815782,5.79599855455756,-72.9065750042994,32.1062885862315,40.8002864180679
1.81560283687943,69.1637954121896,70.3884075328754,1.22461212068575,-69.7761014725325,33.9695916457519,35.8065098267806
1.82033096926714,69.625938447238,71.026183902398,1.40024545516002,-70.326061174818,34.112846496039,36.213214678779
1.82505910165485,75.0667446322754,80.8786140526342,5.81186942035879,-77.9726793424548,34.6274376059583,43.3452417364965
1.82978723404255,84.2935790366319,95.8863158154119,11.59273677878,-90.0899474260219,36.350421128926,53.7395262970959
1.83451536643026,93.0709945583235,109.552818669196,16.4818241108727,-101.31190661376,38.2945852237254,63.0173213900345
1.83924349881797,99.2602312957438,118.929470860334,19.6692395645905,-109.094851078039,39.7954958655767,69.2993552124624
1.84397163120567,104.927889284212,125.691357438786,20.7634681545744,-115.309623361499,42.0822105648186,73.2274127966802
1.84869976359338,113.01789887119,132.90028641013,19.8823875389399,-122.95909264066,46.567755666125,76.3913369745348
1.85342789598109,123.228073355494,141.567457136337,18.3393837808429,-132.397765245916,52.4443447873258,79.9534204585901
1.85815602836879,131.919639921221,148.914393610416,16.994753689195,-140.417016765818,57.4624431160129,82.9545736498054
1.8628841607565,135.058231469393,149.160427106735,14.1021956373422,-142.109329288064,60.4780179160254,81.6313113720388
1.86761229314421,130.603017693858,138.180121010182,7.57710331632376,-134.39156935202,61.512957188767,72.8786121632527
1.87234042553191,119.443578962726,119.368561897983,-0.0750170647429798,-119.406070430354,59.7592980137343,59.6467724166198
1.87706855791962,105.650333276248,103.381981449479,-2.26835182676962,-104.516157362863,53.9593425515089,50.5568148113545
1.88179669030733,95.497799116424,99.9178099838568,4.42001086743285,-97.7078045501404,45.5388941244956,52.1689104256448
1.88652482269504,94.7597049641598,110.687388618888,15.9276836547278,-102.723546791524,39.416010654716,63.3075361368076
1.89125295508274,105.884383606633,131.493717745507,25.6093341388744,-118.68905067607,40.1375247338793,78.5515259421908
1.89598108747045,126.894566412451,157.993807651115,31.0992412386634,-142.444187031783,47.897662586894,94.5465244448891
1.90070921985816,151.954889838325,185.67493115994,33.720041321615,-168.814910499132,59.1174242583549,109.697486240777
1.90543735224586,173.013993850019,206.358136160798,33.3441423107797,-189.686065005409,69.8349257696195,119.851139235789
1.91016548463357,182.775410217001,210.731672829999,27.9562626129976,-196.7535415235,77.4095738020017,119.343967721498
1.91489361702128,178.3844625738,196.501624747128,18.1171621733287,-187.443043660464,80.1336502002355,107.309393460228
1.91962174940898,163.170056201461,171.299940697355,8.12988449589346,-167.234998449408,77.5200858527839,89.7149125966241
1.92434988179669,144.569470362901,146.068003927077,1.4985335641756,-145.318737144989,71.5354683993627,73.7832687456261
1.9290780141844,130.012705900432,127.846785521182,-2.16592037925039,-128.929745710807,66.0893131398412,62.8404325709656
1.9338061465721,123.993600113252,119.879070764334,-4.11452934891784,-121.936335438793,64.0540647310849,57.8822707077082
1.93853427895981,127.069284692939,124.191998532634,-2.87728616030535,-125.630641612787,64.9732854266223,60.6573561861643
1.94326241134752,135.640259943933,138.719930450304,3.07967050637072,-137.180095197118,66.280294718781,70.8998004783371
1.94799054373522,142.807359790198,152.917694061125,10.1103342709266,-147.862526925661,66.3485127596357,81.5140141660256
1.95271867612293,141.658380188846,152.623370080902,10.9649898920562,-147.140875134874,65.3466951483951,81.7941799864793
1.95744680851064,129.666373886614,132.859343526442,3.19296963982802,-131.262858706528,63.2367021233928,68.0261565831348
1.96217494089835,110.047855866212,103.158880367685,-6.88897549852766,-106.603368116949,58.46841568237,48.1349524345785
1.96690307328605,88.3109477442608,77.2861570130765,-11.0247907311843,-82.7985523786686,49.6678692377225,33.1306831409461
1.97163120567376,67.8814102622498,59.7386195064698,-8.14279075577994,-63.8100148843598,38.0121005090149,25.7979143753449
1.97635933806147,49.7953066603021,45.532098390791,-4.26320826951105,-47.6637025255466,27.0292574649066,20.63444506064
1.98108747044917,35.613200411733,31.3449326339993,-4.26826777773369,-33.4790665228661,19.9407340947333,13.5383324281328
1.98581560283688,27.9746799190961,21.5060328169733,-6.46864710212281,-24.7403563680347,17.2216635106094,7.51869285742522
1.99054373522459,26.95164881114,20.9237315131231,-6.02791729801687,-23.9376901621316,16.4897830545784,7.44790710755313
1.99527186761229,27.2758537939688,25.2084753469796,-2.06737844698929,-26.2421645704742,14.6716161204791,11.5705484499951
2,21.1260308782957,21.6497675274081,0.523736649112379,-21.3878992028519,10.3011471145916,11.0867520882602
2.00472813238771,4.23528003655995,1.13322213700018,-3.10205789955977,-2.68425108678006,3.66866896805986,-0.984417881279797
2.00945626477541,-20.4575929443973,-31.5650354263255,-11.1074424819282,26.0113141853614,-4.67507523123456,-21.3362389541268
2.01418439716312,-44.4336297159106,-60.2056339765704,-15.7720042606598,52.3196318462405,-14.3308127276254,-37.9888191186151
2.01891252955083,-59.1829597776956,-70.6582858242881,-11.4753260465926,64.9206228009918,-23.8538168655515,-41.0668059354404
2.02364066193853,-61.9324611148904,-62.7316442566901,-0.799183141799674,62.3320526857902,-30.5666389865454,-31.7654136992449
2.02836879432624,-56.9652749137182,-48.9178547440628,8.04742016965545,52.9415648288905,-32.5063475416868,-20.4352172872037
2.03309692671395,-51.3879353294108,-42.2354837596124,9.15245156979844,46.8117095445116,-30.2701934496046,-16.541516094907
2.03782505910165,-49.9956207026232,-46.2061918151395,3.78942888748379,48.1009062588814,-26.8925247950535,-21.2083814638278
2.04255319148936,-54.3152487695907,-56.2145253991311,-1.89927662954042,55.2648870843609,-26.2079860700251,-29.0569010143358
2.04728132387707,-64.7138448816243,-68.1509409362233,-3.43709605459897,66.4323929089238,-30.6383744135127,-35.7940184954111
2.05200945626478,-80.7843351974198,-82.7385002747323,-1.95416507731247,81.7614177360761,-39.4150850600537,-42.3463326760224
2.05673758865248,-99.3625292032111,-100.778300943458,-1.41577174024702,100.070415073335,-48.9733787314821,-51.0970363418526
2.06146572104019,-114.560428041794,-117.36613769563,-2.80570965383561,115.963282868712,-55.8773591939792,-60.0859236747326
2.0661938534279,-121.979417604988,-124.801216382077,-2.82179877708955,123.390316993533,-59.5788094139491,-63.8115075795834
2.0709219858156,-122.822329906763,-121.254775016386,1.56755489037695,122.038552461575,-62.19494239857,-59.8436100630046
2.07565011820331,-122.50651388969,-113.360704962755,9.14580892693587,117.933609426223,-65.8261614083132,-52.1074480179093
2.08037825059102,-124.850435223065,-109.046118881549,15.8043163415162,116.948277052307,-70.3273757822907,-46.6209012700164
2.08510638297872,-128.555567034367,-109.936486686644,18.6190803477224,119.246026860505,-73.5873236910445,-45.6587031694609
2.08983451536643,-129.884442723239,-112.188908625823,17.6955340974162,121.036675674531,-73.7899884103277,-47.2466872642033
2.09456264775414,-127.836578753512,-112.939109487729,14.8974692657824,120.387844120621,-71.3670240096471,-49.0208201109734
2.09929078014184,-125.478877294746,-113.297454196463,12.1814230982827,119.388165745604,-68.8301501965142,-50.5580155490902
2.10401891252955,-126.076184503868,-114.916922765592,11.1592617382765,120.49655363473,-68.6177231210725,-51.8788305136577
2.10874704491726,-128.743608575011,-115.992324260285,12.7512843147262,122.367966417648,-70.7474464448687,-51.6205199727794
2.11347517730496,-128.754119446546,-112.639289334898,16.1148301116484,120.696704390722,-72.4344747790971,-48.2622296116246
2.11820330969267,-122.367119416925,-103.91851559309,18.4486038238351,113.142817505007,-70.40786162038,-42.7349558846273
2.12293144208038,-110.980234128029,-93.8381837024935,17.1420504255359,102.409208915261,-64.0611422767826,-38.3480666384788
2.12765957446809,-100.211652904481,-87.5904293122564,12.6212235922248,93.9010411083688,-56.416438248353,-37.4846028600158
2.13238770685579,-95.1796044653349,-86.6698007641572,8.50980370117769,90.924702614746,-51.8447040832563,-39.0799985314897
2.1371158392435,-96.944298060331,-88.7766973467893,8.16760071354169,92.8604977035601,-52.5559493869363,-40.3045483166238
2.14184397163121,-103.012163488232,-92.0707409707617,10.9414225174707,97.5414522294971,-56.9767930028516,-40.5646592266455
2.14657210401891,-110.333908954849,-97.8660214719139,12.4678874829347,104.099965213381,-61.4008982188916,-42.6990669944896
2.15130023640662,-117.319434677611,-108.156260384515,9.16317429309574,112.737847531063,-63.2413044853534,-49.4965430457098
2.15602836879433,-123.380377475416,-121.101789498993,2.27858797642291,122.241083487204,-62.8294827259194,-59.411600761285
2.16075650118203,-127.67216130449,-130.437098466468,-2.76493716197766,129.054629885479,-62.4536120712563,-66.6010178142228
2.16548463356974,-129.112307698696,-130.431941760987,-1.31963406229056,129.772124729842,-63.896336818203,-65.8757879116388
2.17021276595745,-127.392127214965,-121.461567072572,5.9305601423933,124.426847143768,-66.6613436786791,-57.7655034650891
2.17494089834515,-123.351054476122,-109.890984120275,13.4600703558469,116.621019298198,-68.4055624159843,-48.2154568822139
2.17966903073286,-118.193855419939,-101.97618625961,16.217669160328,110.085020839775,-67.2057622901333,-42.8792585496412
2.18439716312057,-112.56959542657,-98.5214961780835,14.0480992484866,105.545545802327,-63.3088473375283,-42.2366984647985
2.18912529550827,-106.663708755076,-96.185552249129,10.4781565059473,101.424630502103,-58.5709326305118,-42.8536978715909
2.19385342789598,-101.065830410682,-92.758585324731,8.30724508595065,96.9122078677063,-54.6865377483162,-42.2256701193902
2.19858156028369,-96.9529553135571,-89.1093254057677,7.84362990778939,93.0311403596624,-52.3982926106732,-40.6328477489891
2.20330969267139,-94.9159704760601,-86.4301786867053,8.48579178935481,90.6730745813827,-51.7008811327074,-38.9721934486752
2.2080378250591,-93.7448425008932,-84.0086211086495,9.73622139224371,88.8767318047714,-51.7405319465685,-37.1361998582029
2.21276595744681,-91.1324462212733,-80.4185383295967,10.7139078916766,85.775492275435,-50.9231770564749,-34.85231521896
2.21749408983452,-86.4292535342805,-75.9183439807933,10.5109095534873,81.1737987575369,-48.4700815438839,-32.703717213653
2.22222222222222,-82.7898143152829,-73.6658022758791,9.12401203940385,78.227808295581,-45.9569131773434,-32.2708951182376
2.22695035460993,-85.6030220787513,-78.7036778956541,6.89934418309718,82.1533499872027,-46.2511831309242,-35.9021668562784
2.23167848699764,-97.5631819034642,-93.8938665663401,3.66931533712402,95.7285242349022,-50.6162486202941,-45.1122756146081
2.23640661938534,-114.834350859294,-114.944799242165,-0.110448382871056,114.889575050729,-57.3619512382112,-57.5276238125178
2.24113475177305,-128.585887239292,-130.591368770678,-2.00548153138541,129.588628004985,-63.2902028539533,-66.2984251510315
2.24586288416076,-131.426057229438,-130.830830138591,0.595227090846947,131.128443684014,-66.0106421601424,-65.117801523872
2.25059101654846,-123.459316195972,-116.445852882764,7.01346331320728,119.952584539368,-65.2363897545895,-54.7161947847786
2.25531914893617,-112.130639652658,-98.7681131293685,13.3625265232898,105.449376391013,-62.746583087974,-42.7027933030393
2.26004728132388,-104.943133706823,-87.9036460132252,17.0394876935978,96.4233898600241,-60.9913107002104,-35.4320791598137
2.26477541371158,-101.734930524157,-81.9812952030412,19.7536353211153,91.8581128635988,-60.7442829226359,-31.1138299409629
2.26950354609929,-95.5443253207222,-71.1201577870164,24.4241675337057,83.3322415538693,-59.9842464272139,-23.3479951266553
2.274231678487,-82.3547461066711,-52.6302159775003,29.7245301291708,67.4924810420857,-56.0396381179209,-11.4528429241647
2.2789598108747,-68.2714468962075,-38.1137902734913,30.1576566227162,53.1926185848494,-49.2145517594618,-3.97806682538757
2.28368794326241,-63.9637623374336,-41.3185606513737,22.6452016860599,52.6411614944036,-43.3044820117467,-9.3366794826569
2.28841607565012,-71.9306426711121,-60.6328654410275,11.2977772300846,66.2817540560698,-41.6142099505983,-24.6675441054715
2.29314420803783,-82.6912356233722,-78.9036210486573,3.78761457471481,80.7974283360147,-43.2394250990435,-37.5580032369713
2.29787234042553,-85.4372763961353,-81.6235499900588,3.81372640607653,83.530413193097,-44.6255014011059,-38.9049117919911
2.30260047281324,-79.7848168797798,-71.0446683420161,8.7401485377637,75.4147426108979,-44.2624827087717,-31.1522599021262
2.30732860520095,-74.2350791822965,-60.4949638192793,13.7401153630172,67.3650215007879,-43.9875972726569,-23.377424228131
2.31205673758865,-74.7675105374316,-58.7953985553796,15.972111982052,66.7814545464056,-45.3698112597418,-21.4116432866638
2.31678486997636,-78.3765898193112,-63.5361736061403,14.8404162131708,70.9563817127257,-46.608503016241,-24.3478786964848
2.32151300236407,-78.0293563844602,-67.0488822717621,10.9804741126981,72.5391193281111,-44.5049152485792,-28.034204079532
2.32624113475177,-71.3774447744393,-64.903141724717,6.47430304972225,68.1402932495782,-38.9258739120808,-29.2144193374974
2.33096926713948,-63.0130746588048,-58.720694728128,4.29237993067687,60.8668846934664,-33.6527272947409,-27.2141573987255
2.33569739952719,-59.1853372379039,-53.5046625411109,5.68067469679296,56.3449998895074,-32.4330059673484,-23.911993922159
2.34042553191489,-61.9171864107116,-53.1091400363769,8.80804637433469,57.5131632235442,-35.3626163925231,-22.1505468310211
2.3451536643026,-67.9996447781247,-56.8879884907972,11.1116562873275,62.443816634461,-39.5556505327261,-22.8881661017349
2.34988179669031,-72.1160571706668,-59.8697072057288,12.246349964938,65.9928821881978,-42.1812035678024,-23.8116786203954
2.35460992907801,-70.6890337258594,-56.9604024530925,13.7286312727669,63.824718089476,-42.2088324993131,-21.6158855901628
2.35933806146572,-64.2468546901763,-48.1122107132901,16.1346439768862,56.1795327017332,-40.1907493335312,-15.9887833682019
2.36406619385343,-57.2035394720486,-39.5944263897318,17.6091130823168,48.3989829308902,-37.4063262771827,-10.9926566537075
2.36879432624113,-54.7085710277338,-39.1545104848646,15.5540605428692,46.9315407562992,-35.1313157853015,-11.8002249709977
2.37352245862884,-58.2408090114847,-48.5786268439924,9.66218216749239,53.4097179277385,-33.9514955894886,-19.45822233825
2.37825059101655,-63.6110108258271,-60.944267899613,2.66674292621413,62.2776393627201,-33.1388768760206,-29.1387624866994
2.38297872340426,-64.0043325561996,-66.3200172110791,-2.31568465487946,65.1621748836394,-30.8443239506601,-34.3178509329793
2.38770685579196,-56.3200805108397,-60.9621180873617,-4.64203757652193,58.6410992991007,-25.8390214671589,-32.8020778319418
2.39243498817967,-45.2922563905275,-51.1449624817029,-5.85270609117539,48.2186094361152,-19.719775149676,-28.4988342864391
2.39716312056738,-40.9656563324794,-48.1973764493568,-7.23172011687734,44.5815163909181,-16.866968107801,-27.7145482831171
2.40189125295508,-50.738277110147,-59.3818010670146,-8.64352395686762,55.0600390885808,-21.0473765766397,-34.0126625119411
2.40661938534279,-72.5699303339332,-82.0290300135386,-9.45909967960537,77.2994801737359,-31.5554153271639,-45.744064846572
2.4113475177305,-95.7947392501964,-104.883052682786,-9.08831343258971,100.338895966491,-43.3532129088033,-56.9856830576879
2.4160756501182,-109.109875869807,-115.154712775623,-6.04483690581674,112.132294322715,-51.5325194819949,-60.59977484072
2.42080378250591,-108.029311591212,-106.373084771347,1.65622681986493,107.20119818128,-54.8427692055385,-52.3584289757411
2.42553191489362,-95.2443681219708,-81.9004110248227,13.3439570971481,88.5723895733967,-54.2941626095595,-34.2782269638373
2.43026004728132,-76.0395279358261,-52.0730473610829,23.9664805747431,64.0562876484545,-50.0030042552846,-14.0532833931699
2.43498817966903,-55.5217273349354,-27.9345130434921,27.5872142914433,41.7281201892138,-41.5544708131893,-0.173649376024443
2.43971631205674,-39.1039002804029,-16.2867804315756,22.8171198488273,27.6953403559893,-30.9605100646151,3.26516970862583
2.44444444444444,-31.6371323641835,-17.5325149791387,14.1046173850448,24.5848236716611,-22.8708748746141,-1.71394879704697
2.44917257683215,-33.5935506237865,-25.7830775202312,7.81047310355532,29.6883140720089,-20.7020118636709,-8.98630220833794
2.45390070921986,-39.4959374815329,-32.4208955517145,7.07504192981844,35.9584165166237,-23.2854897056757,-12.672926810948
2.45862884160757,-42.6654325145159,-33.0039729329822,9.66145958153368,37.8347027237491,-26.1634460480248,-11.6712566757243
2.46335697399527,-41.9866586785483,-31.7352185261579,10.2514401523903,36.8609386023531,-26.1190494154693,-10.7418891868838
2.46808510638298,-42.6999878894524,-37.1945672835195,5.50542060593285,39.9472775864859,-24.1027042476926,-15.8445733387933
2.47281323877069,-49.8350234350721,-52.1461868345011,-2.31116339942898,50.9906051347866,-23.7619300178216,-27.228675116965
2.47754137115839,-61.8346142871419,-68.7322581975275,-6.89764391038558,65.2834362423347,-27.4684851883782,-37.8149510539565
2.4822695035461,-72.0413014960177,-75.8722907561796,-3.8309892601619,73.9567961260987,-34.1051561179279,-39.8516400081708
2.48699763593381,-76.3442029525055,-71.5212342580824,4.82296869442311,73.932718605294,-40.5835858234643,-33.3491327818296
2.49172576832151,-77.6489245138886,-65.6074661886003,12.0414583252883,71.6281953512444,-44.8451914195885,-26.783003931656
2.49645390070922,-81.5899379150196,-69.3135763304663,12.2763615845533,75.451757122743,-46.9331497497864,-28.5186073729565
2.50118203309693,-88.7237865224732,-82.1898421907623,6.5339443317109,85.4568143566178,-47.6288654270921,-37.8279489295257
2.50591016548463,-92.9922901419265,-91.9126677589072,1.07962238301926,92.4524789504169,-47.0359562624729,-45.416522687944
2.51063829787234,-88.4878226191694,-87.3337324087934,1.154090210376,87.9107775139814,-44.8209564147727,-43.0898210992087
2.51536643026005,-76.0851633496312,-69.9023423619887,6.18282098764251,72.9937528558099,-41.1339921686369,-31.8597606871731
2.52009456264775,-62.1588155404281,-51.050990396853,11.1078251435751,56.6049029686405,-36.6333203420016,-19.9715826266389
2.52482269503546,-52.1296359975881,-40.442345880028,11.6872901175601,46.285990938808,-31.9084630575741,-14.377527881234
2.52955082742317,-47.1005801211301,-39.2483341536072,7.85224596752293,43.1744571373686,-27.4764130443265,-15.6980440930421
2.53427895981087,-46.0228583408799,-43.5738438045326,2.44901453634728,44.7983510727062,-24.2359364386136,-20.5624146340927
2.53900709219858,-48.6003420508774,-50.5982084243564,-1.99786637347904,49.5992752376169,-23.3012378386992,-26.2980373989177
2.54373522458629,-54.851335081566,-59.6544454323174,-4.80311035075143,57.2528902569417,-25.0241123654073,-32.2287778915344
2.548463356974,-62.7383287778431,-68.9190281875278,-6.18069940968471,65.8286784826855,-28.2788146840792,-37.5498637986063
2.5531914893617,-67.8283695318966,-73.6807886950667,-5.85241916317003,70.7545791134817,-30.9879751843633,-39.7666039291183
2.55791962174941,-66.6267673812418,-69.7965667194513,-3.16979933820956,68.2116670503465,-31.7284840215161,-36.4831830288304
2.56264775413712,-60.9524351584146,-59.5149612544462,1.43747390396835,60.2336982064304,-31.1949545311915,-29.0387436752389
2.56737588652482,-58.2700428620584,-52.5615821264871,5.70846073557131,55.4158124942727,-31.9892517988148,-23.4265606954579
2.57210401891253,-65.6062848812834,-58.4889969355423,7.11728794574115,62.0476409084129,-36.3617864135123,-25.6858544949006
2.57683215130024,-81.6263837753684,-76.0071508071136,5.61923296825474,78.816767291241,-43.6228083718116,-35.1939589194295
2.58156028368794,-95.2812771721442,-91.1618459097973,4.11943126234689,93.2215615409708,-49.7003542172456,-43.5212073237252
2.58628841607565,-94.0877904636597,-88.7152422304047,5.37254823325505,91.4015163470322,-49.7301693484574,-41.6713469985748
2.59101654846336,-74.9804903256119,-66.1050260616866,8.87546426392535,70.5427581936492,-41.9279772947686,-28.6147808988806
2.59574468085106,-47.228144829255,-35.5535700354497,11.6745747938052,41.3908574323523,-29.4513598115301,-11.9394976208223
2.60047281323877,-24.7107350850781,-12.8271046896799,11.8836303953982,18.768919887379,-18.2971827402381,-0.471737147140875
2.60520094562648,-15.2076133809919,-4.69104185442012,10.5165715265717,9.94932761770599,-12.8620924537818,2.9127648360758
2.60992907801418,-16.1221954021425,-6.10193781341817,10.0202575887243,11.1120666077803,-13.0712264954334,1.95915988765309
2.61465721040189,-18.7683113785755,-6.94826848309853,11.820042895477,12.858289930837,-15.2941771370262,2.43588720618922
2.6193853427896,-15.7261380514888,-0.488265099940483,15.2378729515483,8.10720157571465,-15.4820055015186,7.37480392580392
2.6241134751773,-4.93314521733556,13.2654497314834,18.198594948819,-4.16615225707392,-11.5658700830773,15.7320223401512
2.62884160756501,11.1020893248206,30.2115315623406,19.10944223752,-20.6568104435806,-4.00367645634974,24.6604868999303
2.63356973995272,28.3147859504977,46.5429254841136,18.228139533616,-37.4288557173056,5.04332320844085,32.3855325088648
2.63829787234043,43.1623713528891,59.8674913751054,16.7051200222162,-51.5149313639972,13.2286256653365,38.2863056986608
2.64302600472813,52.7818214167014,67.1667399177884,14.3849185010869,-59.9742806672449,19.1984514578073,40.7758292094377
2.64775413711584,54.7361230172438,64.2970788596751,9.56095584243124,-59.5166009384594,22.5875835874063,36.9290173510531
2.65248226950355,48.1831657102667,49.5782638902676,1.3950981800009,-48.8807148002672,23.3940337651329,25.4866810351343
2.65721040189125,35.7251719219907,27.8355880696058,-7.88958385238489,-31.7803799957982,21.8073778871878,9.97300210861044
2.66193853427896,23.0007096526965,9.02033823052552,-13.980371422171,-16.010523941611,18.4905405374337,-2.48001659582272
2.66666666666667,14.9976935420756,0.900240199503648,-14.097453342572,-7.94896687078964,14.5475734423238,-6.59860657153417
2.67139479905437,12.3069975905966,2.69290076620035,-9.61409682439627,-7.49994917839848,10.9605472074964,-3.46059802909796
2.67612293144208,11.2978190531859,6.40586166436849,-4.8919573888174,-8.85184035877719,8.09488822100164,0.756952137775544
2.68085106382979,7.95743338869682,4.49538745370287,-3.46204593499395,-6.22641042119984,5.70973966184538,0.516670759354463
2.68557919621749,1.34939028577336,-3.95906277426856,-5.30845306004192,1.3048362442476,3.32892167290764,-4.63375791715524
2.6903073286052,-6.29703234036235,-14.1499878503121,-7.85295550994973,10.2235100953372,0.777961584793692,-11.0014716801309
2.69503546099291,-12.3057206962457,-21.5140088348056,-9.20828813855996,16.9098647655256,-1.54871627884285,-15.3611484866828
2.69976359338061,-16.3846143021866,-26.0784218253827,-9.69380752319611,21.2315180637847,-3.34540338949526,-17.8861146742894
2.70449172576832,-20.9555930262477,-31.1857645065179,-10.2301714802702,26.0706787663828,-5.36271077298875,-20.707967993394
2.70921985815603,-28.5593901880775,-38.9892848786083,-10.4298946905308,33.7743375333429,-9.06474774877332,-24.7095897845696
2.71394799054374,-39.1041593864864,-48.055573936991,-8.95141455050457,43.5798666617387,-15.0763724179909,-28.5034942437478
2.71867612293144,-50.1682452452167,-55.6100762616661,-5.44183101644941,52.8891607534414,-22.3632071143837,-30.5259536390578
2.72340425531915,-59.7751684341197,-61.5557742481367,-1.78060581401695,60.6654713411282,-28.9972813100514,-31.6681900310768
2.72813238770686,-67.9441634225921,-68.8365861223928,-0.892422699800733,68.3903747724925,-33.5258703613957,-34.8645044110968
2.73286052009456,-75.310044090854,-78.9407993100175,-3.6307552191635,77.1254217004358,-35.8396444358453,-41.2857772645905
2.73758865248227,-81.0347652557478,-88.1805346468904,-7.14576939114261,84.6076499513191,-36.9444979323026,-47.6631520190165
2.74231678486998,-82.8162761159439,-90.273309436569,-7.45703332062516,86.5447927762565,-37.6796213976594,-48.8651713785971
2.74704491725768,-79.2001643421241,-82.9325025633579,-3.73233822123383,81.066333452741,-37.7339130604451,-43.3324203922959
2.75177304964539,-71.9546914587514,-71.0522355268984,0.902455931853012,71.5034634928249,-36.4285736953022,-35.0748897975227
2.7565011820331,-65.8940765225682,-63.0444642210584,2.84961230150985,64.4692703718133,-34.371844412039,-30.0974259597743
2.7612293144208,-65.5265341610844,-64.1241396117955,1.40239454928891,64.82533688644,-33.4644643551867,-31.3608725312533
2.76595744680851,-71.1915752983204,-72.6092922251097,-1.41771692678925,71.9004337617151,-34.8869291857656,-37.0135045759495
2.77068557919622,-78.8995141149852,-82.1963976637521,-3.29688354876689,80.5479558893687,-37.8013152831092,-42.7466406062595
2.77541371158392,-84.952738653985,-88.5959480374115,-3.64320938342649,86.7743433456982,-40.6547646352792,-46.119578710419
2.78014184397163,-90.6000063771993,-94.7703831729588,-4.17037679575949,92.685194775079,-43.2148147907199,-49.4703799843591
2.78486997635934,-100.663578660538,-108.241944139011,-7.57836547847356,104.452761399774,-46.542606591032,-57.9101548087423
2.78959810874704,-116.725431226903,-131.024740671007,-14.2993094441039,123.875085948955,-51.2130608913996,-72.6620250575554
2.79432624113475,-132.732149665507,-152.980426294478,-20.2482766289716,142.856287979992,-56.2419365182675,-86.6143514617249
2.79905437352246,-138.954971933582,-158.394328735575,-19.4393568019928,148.674650334579,-59.7578075657947,-88.9168427687839
2.80378250591017,-130.676953634833,-140.531128988907,-9.85417535407376,135.60404131187,-60.4113891403797,-75.1926521714903
2.80851063829787,-112.38960030425,-108.434737802842,3.95486250140745,110.412169053546,-58.1722314028285,-52.2399376507173
2.81323877068558,-93.3853028061451,-78.9859034021208,14.3993994040243,86.185603104133,-53.8923511050847,-32.2932519990483
2.81796690307329,-80.172852968675,-63.6091961443142,16.5636568243608,71.8910245564946,-48.3682548965179,-23.5227696599767
2.82269503546099,-73.6932124173834,-62.584917305861,11.1082951115225,68.1390648616222,-42.400753764453,-25.7383110971692
2.8274231678487,-72.3756585662917,-69.5235063335384,2.85215223275333,70.949582449915,-37.6139053995225,-33.3356770503925
2.83215130023641,-75.4038106845991,-78.9111359684648,-3.5073252838657,77.157473326532,-35.9482427003667,-41.2092306261653
2.83687943262411,-82.3791263878017,-89.3770032956039,-6.99787690780224,85.8780648417028,-37.6906247399997,-48.1874401017031
2.84160756501182,-91.4663807913386,-101.225718947655,-9.75933815631602,96.3460498694966,-40.8535213175113,-55.4925285519853
2.84633569739953,-99.5990807525821,-112.579572767943,-12.9804920153609,106.089326760263,-43.3092943686106,-62.780032391652
2.85106382978723,-104.787913412986,-119.43534669849,-14.6474332855038,112.111630055738,-45.0702400637413,-67.041389991997
2.85579196217494,-107.435293864463,-119.664107489424,-12.2288136249611,113.549700676943,-47.6032401197509,-65.9464605571925
2.86052009456265,-108.792599695148,-115.452990611179,-6.66039091603022,112.122795153163,-51.0661043895591,-61.0566907636044
2.86524822695035,-108.833392683012,-110.980003569548,-2.14661088653651,109.90669812628,-53.3433908982376,-56.5633072280424
2.86997635933806,-106.905026608126,-109.006401446139,-2.10137483801348,107.955714027132,-52.401825885056,-55.5538881420762
2.87470449172577,-103.867025269117,-110.025212788285,-6.15818751916717,106.946119028701,-48.8544188749751,-58.0917001537259
2.87943262411348,-100.714310294157,-111.20810155381,-10.4937912596536,105.961205923984,-45.1102595172516,-60.850946406732
2.88416075650118,-93.3150579612426,-103.00573265896,-9.69067469771765,98.1603953101015,-41.8121916317625,-56.348203678339
2.88888888888889,-70.5035981889449,-69.4805307722688,1.02306741667617,69.9920644806069,-35.7633328028106,-34.2287316777963
2.8936170212766,-20.968155000308,1.85020612563333,22.8183611259413,9.55897443733733,-21.8932580631247,12.3342836257873
2.8983451536643,56.7043974289539,107.758118810192,51.0537213812382,-82.231258119573,2.82533802385785,79.4059200957151
2.90307328605201,152.117146503239,229.133396068994,77.0162495657548,-190.625271286116,37.5504484687421,153.074822817374
2.90780141843972,252.13333996187,346.169352167004,94.036012205134,-299.151346064437,79.0486638783682,220.102682186069
2.91252955082742,351.305751549311,454.181438819507,102.875687270196,-402.743595184409,124.215032139557,278.528563044852
2.91725768321513,452.763020129995,562.713237711165,109.95021758117,-507.73812892058,171.406401274412,336.331727646167
2.92198581560284,559.203891361924,678.103732300085,118.899840938161,-618.653811831004,220.152025211881,398.501786619123
2.92671394799054,663.374571398786,788.016352886431,124.641781487645,-725.695462142609,269.366394955571,456.329067187038
2.93144208037825,747.192405868507,864.443198538613,117.250792670106,-805.81780220356,314.970806599201,490.846995604359
2.93617021276596,790.682656573339,882.214745011205,91.5320884378657,-836.448700792272,349.575284067737,486.873416724535
2.94089834515366,783.72755657863,835.548404403312,51.8208478246826,-809.637980490971,365.953354376973,443.684626113997
2.94562647754137,731.528558480482,739.608532647152,8.0799741666699,-735.568545563817,361.724292156906,373.844253406911
2.95035460992908,649.992464279556,619.220757859217,-30.7717064203395,-634.606611069386,340.382085349948,294.224525719439
2.95508274231678,555.581451365379,496.154747270889,-59.4267040944901,-525.868099318134,307.504077729935,218.364021588199
2.95981087470449,458.367498809112,383.236451532333,-75.1310472767789,-420.801975170723,266.749273042946,154.052702127777
2.9645390070922,363.02730964464,285.350181153831,-77.6771284908091,-324.188745399236,220.352219067725,103.836526331511
2.96926713947991,274.216127461351,203.592607874382,-70.6235195869688,-238.904367667867,172.41982352416,66.4845441437068
2.97399527186761,199.189107100637,139.458655979078,-59.7304511215586,-169.323881539858,129.459779111098,39.8641024287598
2.97872340425532,145.182227981104,96.4158044581327,-48.7664235229709,-120.799016219618,96.9743257520373,23.8246904675809
2.98345153664303,115.284181654796,77.3065182377753,-37.9776634170208,-96.2953499462857,76.6309225359085,19.6644274103773
2.98817966903073,106.898415872009,79.903378551233,-26.9950373207759,-93.400897211621,66.9467265963924,26.4541706152285
2.99290780141844,113.026636590779,95.6916025456535,-17.335034045125,-104.359119568216,65.1808353179518,39.1782842502643
2.99763593380615,124.678896990555,113.7014518175,-10.9774451730552,-119.190174404027,67.8281710818051,51.3620033222223
3.00236406619385,133.472166274099,125.28106856612,-8.19109770797874,-129.37661742011,70.8316319910389,58.5449854290708
3.00709219858156,133.62330964992,125.106500126297,-8.51680952362288,-129.364904888108,71.0700595867712,58.2948453013369
3.01182033096927,122.232377752987,109.459020677589,-12.7733570753983,-115.845699215288,67.5028674141927,48.3428318010952
3.01654846335697,98.3560562146812,76.6274530438772,-21.728603170804,-87.4917546292792,60.0423296927426,27.4494249365366
3.02127659574468,63.127483495571,30.2134290679966,-32.9140544275744,-46.6704562817838,48.0207689615727,-1.35031267978892
3.02600472813239,21.2483569094905,-19.9514429765027,-41.1997998859932,-0.648456966493873,31.2240783977418,-30.5756214312479
3.03073286052009,-19.2225431979582,-62.5836734121429,-43.3611302141846,40.9031083050506,12.0692935081132,-52.9724018131638
3.0354609929078,-50.5504458870409,-91.0255091163761,-40.4750632293352,70.7879775017085,-5.03769132885287,-65.7502861728556
3.04018912529551,-69.3636163656292,-104.812060387316,-35.4484440216866,87.0878383764724,-16.9575861719713,-70.1302522045011
3.04491725768322,-77.0942797206963,-107.17974590746,-30.0854661867641,92.1370128140783,-23.5044067669661,-68.6326060471122
3.04964539007092,-77.1757297075059,-102.271782886899,-25.0960531793933,89.7237562972026,-26.0398382640563,-63.6839180331462
3.05437352245863,-72.4030836316176,-93.3043457802765,-20.9012621486589,82.8537147059471,-25.7509107414794,-57.1028039644677
3.05910165484634,-64.6825945287707,-81.9242223724037,-17.241627843633,73.3034084505872,-23.7204833425688,-49.5829251080183
3.06382978723404,-56.5685309770856,-69.8801512092697,-13.3116202321841,63.2243410931776,-21.6284553724507,-41.5958857207269
3.06855791962175,-52.0498773717902,-61.3463502821837,-9.29647291039358,56.698113826987,-21.3767022306983,-35.3214115962887
3.07328605200946,-54.6287359396567,-61.4186540969848,-6.7899181573281,58.0236950183207,-23.9194088911643,-34.1042861271564
3.07801418439716,-64.1132707938609,-70.8519748772502,-6.73870408338928,67.4826228355555,-28.6872833552358,-38.7953394803197
3.08274231678487,-75.9337722276859,-83.5185555695004,-7.58478334181446,79.7261638985931,-34.1744944429357,-45.5516694556574
3.08747044917258,-84.3349357823578,-90.7390479313441,-6.40411214898631,87.536991856851,-38.9654118166857,-48.5715800401652
3.09219858156028,-86.3383191516319,-88.3621194169413,-2.02380026530939,87.3502192842866,-42.1572594431613,-45.1929598411254
3.09692671394799,-82.8478818497542,-79.4914979426234,3.35638390713086,81.1696898961888,-43.1021328784425,-38.0675570177463
3.1016548463357,-76.9062521982075,-70.8862136257919,6.0200385724156,73.8962329119997,-41.4631453853115,-32.4330875266881
3.1063829787234,-71.6206168525651,-67.2090855628252,4.41153128973994,69.4148512076952,-38.0160740711525,-31.3987771365426
3.11111111111111,-69.027672925695,-68.2343183862027,0.793354539492313,68.6309956559489,-34.9105137325937,-33.7204819233552
3.11583924349882,-69.3910811967549,-70.4733192946213,-1.08223809786634,69.9322002456881,-34.1544215494443,-35.7777786962438
3.12056737588652,-71.052753941404,-70.8066449018868,0.246109039517208,70.9296994216454,-35.6494314904606,-35.2802679311848
3.12529550827423,-71.5833127340694,-68.5471414239094,3.03617131015996,70.0652270789894,-37.3097420221147,-32.7554850568747
3.13002364066194,-69.2810129009605,-64.378251894859,4.90276100610153,66.8296323979098,-37.091886953531,-29.7377454443787
3.13475177304965,-63.3803697964118,-58.2946967156072,5.08567308080469,60.8375332560095,-34.2330214386083,-26.6045118174012
3.13947990543735,-53.7669307321031,-49.9581098939381,3.80882083816505,51.8625203130206,-28.7878757851341,-23.0746445278865
3.14420803782506,-41.9016905007569,-41.1702088593474,0.731481641409481,41.5359496800522,-21.3165860710832,-20.219363608969
3.14893617021277,-31.8169887752424,-36.2985645863113,-4.48157581106892,34.0577766807768,-13.6677064820867,-20.3900701986901
3.15366430260047,-28.7128267291466,-39.0205960621778,-10.3077693330312,33.8667113956622,-9.20252869805773,-24.6641826976045
3.15839243498818,-35.4026508905799,-49.1693562020613,-13.7667053114814,42.2860035463206,-10.8179727895493,-31.4680307567713
3.16312056737589,-49.4275732635215,-62.9331044706908,-13.5055312071693,56.1803388671062,-17.9610210281761,-38.2193178389301
3.16784869976359,-63.3345439352913,-74.5935625705754,-11.2590186352841,68.9640532529334,-26.0377626500036,-42.9262906029298
3.1725768321513,-68.5886637249698,-77.6013164428678,-9.01265271789791,73.0949900839188,-29.788005503536,-43.3069845803828
3.17730496453901,-60.9862504962774,-66.9647322877052,-5.97848179142782,63.9754913919913,-27.5038843524248,-36.4716070395665
3.18203309692671,-43.5602282727118,-44.0873504769086,-0.527122204196736,43.8237893748102,-21.5165530342575,-22.3072363405526
3.18676122931442,-24.2730225438982,-18.6417569286589,5.63126561523936,21.4573897362785,-14.9521440795688,-6.50524565670975
3.19148936170213,-10.2391284052791,-1.98581562018609,8.25331278509306,6.11247201273262,-9.2462205951861,3.13374858245349
3.19621749408983,-3.43299940000577,2.69864967487465,6.13164907488042,0.367174862565558,-4.78232423744309,4.41514937487753
3.20094562647754,-1.07494745353317,1.86501131751751,2.93995877105068,-0.395031931992168,-2.00745311229193,2.4024850442841
3.20567375886525,0.677005540535585,2.71804172413652,2.04103618360093,-1.69752363233605,-0.682015321532673,2.37953895386872
3.21040189125296,3.30557053708034,5.37467531664243,2.06910477956209,-4.34012292686139,0.618232878759121,3.72189004810226
3.21513002364066,5.15388650509817,5.14803494963933,-0.00585155545884675,-5.15096072736875,2.57986903027851,2.57109169709024
3.21985815602837,3.61563564130624,0.148823041220489,-3.46681260008575,-1.88222934126336,3.54122412069599,-1.65899477943263
3.22458628841608,-1.55781439239866,-6.3270452321204,-4.76923083972174,3.94242981225953,1.60570822366154,-5.54813803592107
3.22931442080378,-7.40039956633606,-10.5823206268086,-3.18192106047259,8.99136009657235,-2.10923925293173,-6.88212084364062
3.23404255319149,-10.7120197348634,-12.7598076147968,-2.0477878799334,11.7359136748301,-4.33211592746502,-7.40379774736513
3.2387706855792,-11.0321910960843,-14.6909839487251,-3.65879285264087,12.8615875224047,-3.6866991217217,-9.174888400683
3.2434988179669,-9.39636499937984,-15.0492411094459,-5.65287611006609,12.2228030544129,-1.87174444465688,-10.351058609756
3.24822695035461,-5.25487126991478,-9.45212285283867,-4.1972515829239,7.35349706137672,-0.52880984349544,-6.82468721788129
3.25295508274232,2.69691737352089,3.29939976018452,0.602482386663629,-2.9981585668527,1.04721749342863,1.95094107342407
3.25768321513002,12.4094997259044,16.5280643514258,4.11856462552142,-14.4687820386651,4.14546755019149,10.3233144884736
3.26241134751773,18.1798726775271,20.4144131706006,2.23454049307355,-19.2971429240639,7.97266609222677,11.3244768318371
3.26713947990544,16.5784536217481,12.9207448788723,-3.65770874287578,-14.7495992503102,10.1180811823119,4.63151806799825
3.27186761229314,11.3849047740942,3.69483243944024,-7.69007233465395,-7.53986860676722,9.53748855437407,-1.99761994760685
3.27659574468085,10.3999698512363,4.43668663128756,-5.96328321994872,-7.41832824126192,8.1816265355925,-0.763298294330581
3.28132387706856,17.3762296577033,16.5966620939441,-0.779567563759187,-16.9864458758237,9.07789861073125,7.90854726509247
3.28605200945626,28.6331426817004,31.3211294922459,2.68798681054544,-29.9771360869732,12.9725779355775,17.0045581513957
3.29078014184397,37.7794733218067,40.4898840351873,2.71041071338061,-39.134678678497,17.534531304213,21.600147374284
3.29550827423168,42.0937512102455,43.9658535823436,1.87210237209806,-43.0298023962946,20.1108244190737,22.9189779772208
3.30023640661939,43.3585546318591,45.3386728626718,1.98011823081271,-44.3486137472655,20.6892182005232,23.6593955467423
3.30496453900709,43.8569355021382,44.6381528340058,0.78121733186763,-44.247544168072,21.5378590851353,22.7096850829367
3.3096926713948,43.5997588972339,39.0830678817509,-4.51669101548302,-41.3414133894924,24.0582249563585,17.2831884331339
3.31442080378251,41.9257053556357,30.3129193415229,-11.6127860141128,-36.1193123485793,26.7692456848743,9.35006666370504
3.31914893617021,40.6270458147641,26.9145617228698,-13.7124840918943,-33.7708037688169,27.1697649533292,6.60103881548774
3.32387706855792,43.9369630606193,36.9113844285601,-7.02557863205922,-40.4241737445897,25.4812708463393,14.9429028982504
3.32860520094563,54.557177152923,58.3330336262655,3.77585647334252,-56.4451053895943,25.3906603397902,31.054445049804
3.33333333333333,69.9244271206775,79.3808734872261,9.45644636654863,-74.6526503039518,30.2339903770644,44.4186599268874
3.33806146572104,83.2082851242016,88.6019223361736,5.39363721197196,-85.9051037301876,38.9073239561148,46.9977797740728
3.34278959810875,88.5471718672859,84.4318079163089,-4.11536395097701,-86.4894898917974,46.3312679091315,40.1582219826659
3.34751773049645,85.6971744673207,75.3858754733735,-10.3112989939471,-80.5415249703471,48.0042367306339,32.5372882397132
3.35224586288416,80.18724820362,72.4072861467876,-7.77996205683236,-76.2972671752038,43.9836051302262,32.3136620449776
3.35697399527187,79.3301540185648,81.2165353915312,1.88638137296641,-80.273344705048,38.7218863227992,41.5514583822488
3.36170212765957,87.5339904248582,100.387407318063,12.8534168932052,-93.9606988714608,37.3402867658265,56.6204121056343
3.36643026004728,104.110231212679,124.522130647548,20.4118994348694,-114.316180930114,41.8491658889047,72.4670150412089
3.37115839243499,124.29606475632,147.901937845533,23.6058730892131,-136.099001300926,50.3450958335534,85.7539054673731
3.3758865248227,142.205646593065,165.58540982141,23.3797632283456,-153.895528207238,59.4129416823596,94.4825865248779
3.3806146572104,153.886766909587,173.384491712574,19.4977248029868,-163.635629311081,67.1945210533002,96.4411082577804
3.38534278959811,158.738060948424,169.621407053265,10.8833461048417,-164.179734000845,73.927357421791,90.2523765790536
3.39007092198582,158.60175858404,157.830635703258,-0.771122880782769,-158.216197143649,79.6864407324115,78.5297564112374
3.39479905437352,155.889012570694,145.832564245892,-10.0564483248023,-150.860788408293,82.9727304477483,67.8880579605449
3.39952718676123,152.541086364957,139.81888528269,-12.722201082267,-146.179985823824,82.6316437236122,63.5483421002117
3.40425531914894,149.960759121239,139.546482224822,-10.4142768964174,-144.753620673031,80.1875180088283,64.5661026642023
3.40898345153664,149.140562238567,140.794572699823,-8.34598953874394,-144.967567469195,78.7432758886553,66.2242915805394
3.41371158392435,150.601388490995,141.569051344431,-9.032337146564,-146.085219917713,79.8168628187796,66.2683570989336
3.41843971631206,153.935037193596,143.380512595295,-10.5545245983014,-148.657774894445,82.2447808959487,66.4129939984967
3.42316784869976,157.291612372624,146.855950549253,-10.4356618233716,-152.073781460939,83.863637097998,68.2101443629406
3.42789598108747,158.005383805789,149.275394417976,-8.72998938781333,-153.640389111882,83.3676865968012,70.2727025150812
3.43262411347518,154.651989192547,147.764129118413,-6.88786007413393,-151.20805915548,80.7699246333405,70.4381345221396
3.43735224586288,148.807710050376,143.401296262067,-5.40641378830878,-146.104503156222,77.1070619193425,68.9974412368793
3.44208037825059,144.449979739922,140.696658407966,-3.75332133195624,-142.573319073944,74.101650535939,68.4716685380046
3.4468085106383,144.779184130732,142.731175873892,-2.04800825683995,-143.755180002312,73.4135961937861,70.3415838085262
3.451536643026,148.88926946397,147.137267635473,-1.7520018284969,-148.013268549722,75.3206356462334,72.6926329034881
3.45626477541371,152.01676689246,147.89762940246,-4.11913748999964,-149.95719814746,78.0679521912298,71.8892459562303
3.46099290780142,150.389531524872,142.487890870605,-7.90164065426785,-146.438711197738,79.1455860895701,67.2931251081683
3.46572104018913,146.21854637679,137.004420176982,-9.21412619980819,-141.611483276886,77.7163362882993,63.8951469885871
3.47044917257683,146.556266443559,141.465099363882,-5.09116707967729,-144.010682903721,75.8237167616184,68.1869661421024
3.47517730496454,155.424242410096,157.552689082706,2.12844667261078,-156.488465746401,76.6478978687424,79.8405678776586
3.47990543735225,166.793513157689,172.185665363454,5.39215220576517,-169.489589260572,80.700680475962,88.7889087846098
3.48463356973995,167.312598619746,167.007008772077,-0.305589847669211,-167.159803695912,83.8090942337077,83.3507094622039
3.48936170212766,148.587912207622,136.601445094093,-11.9864671135294,-142.594678650857,80.2871896605757,62.3074889902815
3.49408983451537,117.297078982575,96.3456798785407,-20.9513991040346,-106.821379430558,69.124239043305,37.6971403872531
3.49881796690307,91.0388251940697,69.660120180644,-21.3787050134257,-80.3494726873569,56.2087651037477,24.1407075836091
3.50354609929078,82.1797965898957,66.4381750705015,-15.7416215193943,-74.3089858301986,48.960709054645,25.3482767755536
3.50827423167849,86.1803110443824,75.1219394188079,-11.0583716255745,-80.6511252315952,48.6193413349785,32.0317838966167
3.51300236406619,87.1196580273305,76.2824654621739,-10.8371925651566,-81.7010617447522,48.9784252962435,32.7226364485087
3.5177304964539,74.4451641047872,62.0095315268247,-12.4356325779625,-68.2273478158059,43.4403983413749,24.7869494744311
3.52245862884161,53.0043257158795,40.9899471451214,-12.0143785707581,-46.9971364305004,32.5093521433188,14.4877842871817
3.52718676122931,36.4854134215624,26.8958246195444,-9.58958880201804,-31.6906190205534,23.0375011117902,8.65311790876319
3.53191489361702,32.4677140260895,24.4180040888659,-8.04970993722362,-28.4428590574777,20.2587119816566,8.18414707582114
3.53664302600473,35.2670519339725,26.2836385206449,-8.98341341332762,-30.7753452273087,22.1252326736501,8.65011255365863
3.54137115839243,32.9924300619793,21.7993573693019,-11.1930726926773,-27.3958937156406,22.0927513773283,5.30314233831229
3.54609929078014,19.8124588229638,7.20958998041375,-12.60286884255,-13.5110244016888,16.2076638327569,-2.69663943106813
3.55082742316785,0.383765874526037,-11.914050722308,-12.297816596834,5.76514242389098,6.34079123568003,-12.105933659571
3.55555555555556,-16.5869009583992,-27.3982982399357,-10.8113972815366,21.9925995991675,-2.88775183843129,-19.1048477607362
3.56028368794326,-27.1088138332089,-36.3674353417391,-9.25862150853023,31.738124587474,-8.92509616233934,-22.8130284251347
3.56501182033097,-33.6347076903929,-42.0385185986035,-8.40381090821069,37.8366131444982,-12.6154483910911,-25.2211647534071
3.56973995271868,-39.7037869739171,-47.913800712829,-8.21001373891185,43.808793843373,-15.7468866175026,-28.0619072258704
3.57446808510638,-45.2403181727058,-53.3410963033792,-8.10077813067348,49.2907072380425,-18.5697700210161,-30.7209372170264
3.57919621749409,-47.7419331634655,-55.5392145984191,-7.79728143495366,51.6405738809423,-19.9723258642559,-31.6682480166864
3.5839243498818,-46.5728896577661,-54.4026627763995,-7.82977311863342,50.4877762170828,-19.3715582695663,-31.1162179475165
3.5886524822695,-44.7143826307713,-53.6284030411462,-8.9140204103749,49.1713928359587,-17.9001811101982,-31.2712117257606
3.59338061465721,-46.5115709555243,-57.420344466465,-10.9087735109407,51.9659577109946,-17.8013987222918,-34.1645589887029
3.59810874704492,-54.416646995331,-67.2102853414001,-12.7936383460691,60.8134661683655,-20.8115043246309,-40.0019618437346
3.60283687943262,-67.8705682367804,-81.5308330304794,-13.660264793699,74.7007006336299,-27.1051517215407,-47.5955489120892
3.60756501182033,-84.6868996365494,-97.9748218701263,-13.2879222335769,91.3308607533379,-35.6994887014862,-55.6313720518516
3.61229314420804,-102.785084334781,-114.370119740326,-11.5850354055452,108.577602037554,-45.600024464618,-62.9775775729358
3.61702127659574,-120.002102987008,-127.944052236898,-7.94194924989021,123.973077611953,-56.030076868559,-67.9430007433943
3.62174940898345,-132.503975151254,-134.42512208143,-1.92114693017618,133.464548616342,-65.2914141105388,-68.1731345058031
3.62647754137116,-135.231712649019,-130.18598487023,5.04572777878849,132.708848759625,-70.1387202139037,-62.5701285457209
3.63120567375887,-126.137950234375,-116.867157209781,9.27079302459364,121.502553722078,-67.7043716294844,-53.7981820925939
3.63593380614657,-110.334232619789,-102.919265478252,7.41496714153698,106.626749049021,-58.8745998806631,-47.7521491683577
3.64066193853428,-98.2872606960455,-98.0707053486518,0.216555347393751,98.1789830223487,-49.2519080217196,-48.927075000629
3.64539007092199,-98.0004475516857,-105.129623212139,-7.12917566045354,101.565035381913,-45.4356359456161,-56.1293994362964
3.65011820330969,-108.300448521271,-117.96489739746,-9.66444887618889,113.132672959365,-49.317999822541,-63.8146731368243
3.6548463356974,-120.0130828704,-127.742708226804,-7.72962535640451,123.877895548602,-56.1417287569976,-67.7361667916043
3.65957446808511,-123.872037074155,-129.865318843073,-5.99328176891876,126.868677958614,-58.9393776526179,-67.929300305996
3.66430260047281,-117.263183324614,-124.518007953679,-7.25482462906493,120.890595639147,-55.0041793477746,-65.886416291372
3.66903073286052,-103.940215646878,-112.92403355901,-8.98381791213225,108.432124602944,-47.4781988673727,-60.9539257355711
3.67375886524823,-89.0412974896707,-96.1274545487402,-7.08615705906949,92.5843760192054,-40.9775702153006,-51.6068058039048
3.67848699763593,-75.9748230255116,-77.6840000889127,-1.70917706340104,76.8294115572121,-37.1328229810553,-39.6965885761568
3.68321513002364,-67.3376099798637,-64.9311778394679,2.40643214039575,66.1343939096658,-34.8720210601297,-31.2623728495361
3.68794326241135,-66.1217155865203,-65.1785728250157,0.943142761504561,65.650144205768,-33.5324291740124,-32.1177150317556
3.69267139479905,-74.1582866020453,-79.9217694511188,-5.76348284907353,77.0400280265821,-34.1974018764859,-42.8426261500962
3.69739952718676,-89.5435639882823,-102.50171993925,-12.9581559509682,96.0226419637664,-38.2927040186571,-57.7299379451093
3.70212765957447,-106.445814996114,-121.370465063318,-14.9246500672035,113.908140029716,-45.7605824644552,-68.1475575652605
3.70685579196217,-118.089595221774,-127.25232274556,-9.16272752378609,122.670958983667,-54.4634338489939,-68.207525134673
3.71158392434988,-120.773115039816,-119.615178814579,1.15793622523671,120.194146927197,-60.9655256325262,-59.2286212946711
3.71631205673759,-116.072331888886,-107.051901176708,9.02043071217757,111.562116532797,-62.5463813005316,-49.0157352322653
3.7210401891253,-109.600572983589,-100.289440083066,9.31113290052383,104.945006533327,-59.4558529420566,-45.4891535912709
3.725768321513,-106.768600397487,-103.348113050074,3.42048734741296,105.058356723781,-55.0945438724501,-49.9638128513306
3.73049645390071,-108.498967017305,-110.642074011881,-2.14310699457613,109.570520514593,-53.1779300113642,-56.3925905032284
3.73522458628842,-110.855245028778,-112.678446020765,-1.82320099198655,111.766845524772,-54.5160220183959,-57.2508235063757
3.73995271867612,-109.197635842089,-105.129066300854,4.0685695412344,107.163351071471,-56.6331026916615,-50.5302483798099
3.74468085106383,-102.456873774667,-92.6170129545531,9.83986082011359,97.5369433646099,-56.1483672973901,-41.3885760672197
3.74940898345154,-93.2658401859581,-83.485512798459,9.78032738749903,88.3756764922086,-51.5230837867285,-36.85259270548
3.75413711583924,-84.8888947380918,-81.1627242662011,3.72617047189067,83.0258095021464,-44.3075326049912,-38.7182768971552
3.75886524822695,-78.6870918265912,-81.4552285284211,-2.76813670182995,80.0711601775061,-37.9594775623806,-42.1116826151255
3.76359338061466,-73.7308896716719,-78.1730825534881,-4.44219288181627,75.95198611258,-34.6443483949278,-41.3076377176522
3.76832151300236,-68.01843549821,-69.8501101834384,-1.83167468522838,68.9342728408242,-33.0933804064908,-35.8408924343334
3.77304964539007,-60.6743584788108,-60.0856592561054,0.588699222705444,60.3800088674581,-30.6315288507581,-29.7484800167
3.77777777777778,-53.7661328218045,-52.9769358618573,0.789196959947205,53.3715343418309,-27.2776648908758,-26.093869450955
3.78250591016548,-51.4885499412003,-50.4319114618495,1.05663847935078,50.9602307015249,-26.2725942102755,-24.6876364912494
3.78723404255319,-56.7100298290414,-53.2909213756906,3.41910845335081,55.000475602366,-30.0645691411961,-24.9359064611699
3.7919621749409,-68.3316322528602,-62.1352392012481,6.19639305161205,65.2334357270542,-37.2640126522361,-27.969423074818
3.79669030732861,-82.3030713882098,-75.7979161310498,6.50515525716006,79.0504937596298,-44.4041133226849,-34.6463804369449
3.80141843971631,-94.9204330800287,-90.9161916034839,4.00424147654483,92.9183123417563,-49.4623372782868,-43.4559750634695
3.80614657210402,-104.860207328313,-104.447785477942,0.412421850371658,104.653996403127,-52.6363145893424,-52.017681813785
3.81087470449173,-112.433465055388,-115.483818246818,-3.0503531914307,113.958641651103,-54.6915559319784,-59.2670857191245
3.81560283687943,-117.539860720367,-123.36427151012,-5.82441078975327,120.452066115243,-55.8577249653067,-64.5943411499367
3.82033096926714,-118.69541633776,-125.402967552545,-6.70755121478551,122.049191945152,-55.993932561487,-66.0552593836653
3.82505910165485,-114.152809015537,-118.559316677484,-4.40650766194678,116.356062846511,-54.8731506767953,-61.4829121697155
3.82978723404255,-103.971644552066,-103.239664095829,0.73198045623721,103.605654323948,-52.3518125041517,-51.2538418197959
3.83451536643026,-90.7302615968774,-84.1373820877311,6.5928795091463,87.4338218423042,-48.6615705530118,-38.7722512892924
3.83924349881797,-77.8264272182735,-67.2956912309139,10.5307359873595,72.5610592245937,-44.1785816028165,-28.3824776217772
3.84397163120567,-67.2833624550971,-57.1014540914146,10.1819083636825,62.1924082732559,-38.7326354093898,-23.4597728638661
3.84869976359338,-59.8804479946581,-55.4741001419738,4.40634785268433,57.6772740683159,-32.1433979236712,-25.5338761446447
3.85342789598109,-56.9862912976605,-61.7944584185602,-4.80816712089969,59.3903748581103,-26.0890620883804,-33.3013127697299
3.85815602836879,-60.2520303721944,-72.2586365450323,-12.0066061728379,66.2553334586134,-24.1227120996782,-42.1326213589351
3.8628841607565,-68.2618302789587,-80.4026237210435,-12.1407934420849,74.3322270000011,-28.0605184184369,-46.2717085815642
3.86761229314421,-75.0561202798992,-80.6943153602835,-5.63819508038434,77.8752178200914,-34.7089625997574,-43.1662552203339
3.87234042553191,-74.6367388665877,-73.0084917237125,1.62824714287525,73.8226152951501,-38.1324930047315,-35.6901222904186
3.87706855791962,-67.3927410530236,-63.2130955790869,4.17964547393666,65.3029183160553,-35.7861932634801,-29.5167250525751
3.88179669030733,-60.2234678069028,-58.4079404131454,1.81552739375733,59.3157041100241,-31.01949760033,-28.296206509694
3.88652482269504,-59.2023055014143,-61.0006314677256,-1.79832596631128,60.10146848457,-28.7019897675515,-31.3994787170184
3.89125295508274,-63.2447228358103,-67.2469767895972,-4.00225395378686,65.2458498127038,-29.6212344410117,-35.624615371692
3.89598108747045,-66.4686187290791,-71.6712481497159,-5.20262942063682,69.0699334393975,-30.6329946542211,-38.4369387851764
3.90070921985816,-66.2971991519236,-72.9925589252824,-6.69535977335879,69.6448790386031,-29.8009196892824,-39.8439593493206
3.90543735224586,-67.0603170734662,-75.2531729605424,-8.19285588707616,71.1567450170043,-29.433730593195,-41.7230144238093
3.91016548463357,-74.1927402547663,-82.4041247879224,-8.21138453315606,78.2984325213444,-32.9906778608051,-45.3077546605392
3.91489361702128,-85.9326836860378,-92.0442472913651,-6.11156360532722,88.9884654887015,-39.9105600403553,-49.0779054483461
3.91962174940898,-93.0830103239855,-96.0918348999961,-3.00882457601054,94.5874226119908,-45.0370928739875,-49.5503297380033
3.92434988179669,-87.9931031579456,-88.8148911882932,-0.821788030347605,88.4039971731194,-43.585657563799,-44.8183396093204
3.9290780141844,-72.7442533550486,-73.2874665683567,-0.543213213308078,73.0158599617027,-36.1005200708703,-36.9153398908324
3.9338061465721,-57.1250185326683,-58.3124618627763,-1.18744333010793,57.7187401977223,-27.9687876012802,-29.7499525964421
3.93853427895981,-48.8533188300741,-49.4263936686035,-0.573074838529351,49.1398562493388,-24.1401219957724,-24.9997342535664
3.94326241134752,-47.4605360574639,-45.0281463746837,2.43238968278018,46.2443412160738,-24.946462870122,-21.2978783459518
3.94799054373522,-48.0639249065649,-41.7536206705685,6.31030423599633,44.9087727885667,-27.1871145712806,-17.7216582172861
3.95271867612293,-48.6992178030093,-41.0044529905477,7.69476481246155,44.8518353967785,-28.1969913077354,-16.6548440890431
3.95744680851064,-51.7066030067691,-47.4076083492917,4.29899465747734,49.5571056780304,-28.0027988321232,-21.5543068459072
3.96217494089835,-58.8399586137927,-61.2808124354026,-2.44085382160991,60.0603855245977,-28.1995523960914,-31.8608331285063
3.96690307328605,-67.4056800218534,-75.2909133254449,-7.88523330359149,71.3482966736492,-29.760223359131,-41.5880733145182
3.97163120567376,-71.9158575503279,-79.9258403726066,-8.00998282227873,75.9208489614673,-31.9529373640246,-43.9679115974427
3.97635933806147,-68.8416221628252,-71.7325392901145,-2.89091712728927,70.2870807264699,-32.975352517768,-37.3117282087019
3.98108747044917,-59.7672982782473,-56.0079361707941,3.7593621074532,57.8876172245207,-31.7633301928502,-26.1242870316704
3.98581560283688,-50.6139969061773,-42.3419502517815,8.27204665439574,46.4779735789794,-29.4430217802865,-17.0349517986929
3.99054373522459,-47.463118363193,-37.7864168748355,9.67670148835747,42.6247676190142,-28.5699099257752,-14.054857693239
3.99527186761229,-51.68418747329,-42.7160773843102,8.9681100889798,47.2001324288001,-30.3261487811349,-16.8739836476652
4,-58.5484266494527,-51.2765605175551,7.27186613189761,54.9124935835039,-32.9101463906752,-22.0023471928288
4.00472813238771,-61.5985031435872,-56.0127282390886,5.58577490449862,58.8056156913379,-33.5921390240429,-25.213476667295
4.00945626477541,-59.1453878737729,-54.3083857752896,4.83700209848332,56.7268868245313,-31.9911949861281,-24.7356918384031
4.01418439716312,-55.8931206920987,-51.4371473628294,4.4559733292693,53.6651340274641,-30.174547010684,-23.4905870167801
4.01891252955083,-57.6728435167522,-55.8134031255928,1.85944039115935,56.7431233211725,-29.7661419539558,-26.9769813672167
4.02364066193853,-65.383924392219,-69.833599329231,-4.44967493701198,67.608761860725,-30.4671247276035,-37.1416371331215
4.02836879432624,-74.9414351398694,-86.4451221273016,-11.5036869874322,80.6932786335855,-31.7188740762186,-48.9744045573669
4.03309692671395,-82.4248389912878,-96.2309081666454,-13.8060691753577,89.3278735789666,-34.309384907965,-55.0184886710016
4.03782505910165,-87.8076827362409,-97.0539327266949,-9.24624999045402,92.4308077314679,-39.2807163728934,-53.1500913585745
4.04255319148936,-93.4221053520855,-95.0499362033373,-1.62783085125173,94.2360207777114,-45.8971372504169,-48.3388835272945
4.04728132387707,-99.8535128181216,-96.4808366683354,3.37267614978613,98.1671747432285,-51.6130944839538,-46.5540802592746
4.05200945626478,-104.11173274035,-100.28445876172,3.82727397862932,102.198095751035,-53.9695033594895,-48.2285923915455
4.05673758865248,-101.777636406342,-99.154029688508,2.62360671783429,100.465833047425,-52.2006215620883,-48.2652114853369
4.06146572104019,-91.0290997109203,-87.2325931962058,3.79650651471449,89.1308464535631,-47.4128031128174,-41.7180433407457
4.0661938534279,-74.96141837786,-66.4011496897591,8.56026868810088,70.6812840338095,-41.7608435329804,-28.9204405008291
4.0709219858156,-59.9185035446232,-45.6094256218586,14.3090779227646,52.7639645832409,-37.1137907336939,-15.650173849547
4.07565011820331,-51.1301987691382,-34.5678552938956,16.5623434752426,42.8490270315169,-33.8462711221904,-9.00275590932648
4.08037825059102,-49.5997749159254,-37.1344739085151,12.4653010074103,43.3671244122202,-31.0325379616678,-12.3345864505524
4.08510638297872,-52.5041745599518,-48.7407522151649,3.76342234478687,50.6224633875584,-28.1337984523693,-22.488664935189
4.08983451536643,-55.6877085359089,-59.4340070439285,-3.74629850801963,57.5608577899187,-25.9707050139446,-31.5901527759741
4.09456264775414,-56.0746948262327,-61.2349169048589,-5.16022207862627,58.6548058655458,-25.4572363738032,-33.1975694917426
4.09929078014184,-53.4088893066456,-54.8147732151364,-1.4058839084908,54.111831260891,-26.0015026990774,-28.1103285618136
4.10401891252955,-50.8025952508825,-49.0089932703267,1.79360198055575,49.9057942606046,-26.2980986157191,-23.6076956448855
4.10874704491726,-52.7222179762435,-52.2701426949145,0.452075281328909,52.496180335579,-26.5871466287862,-25.9090337067928
4.11347517730496,-60.6892820660938,-64.0858494032515,-3.39656733715763,62.3875657346726,-28.6463573644681,-33.7412083702045
4.11820330969267,-70.4934002926833,-75.4161502394952,-4.92274994681188,72.9547752660893,-32.7853251729357,-40.1694500931535
4.12293144208038,-74.9203064607521,-77.5951258790218,-2.67481941826966,76.2577161698869,-36.1227435212412,-40.1349726486457
4.12765957446809,-70.3305575598428,-70.0944847646031,0.236072795239721,70.212521162223,-35.2833151775413,-34.9292059846817
4.13238770685579,-59.9538626690186,-59.4306629788987,0.523199690119938,59.6922628239587,-30.2385311795693,-29.4537316443894
4.1371158392435,-49.8930377958796,-51.370939953909,-1.47790215802942,50.6319888748943,-24.2075678189251,-26.4244210559692
4.14184397163121,-42.6900589306347,-45.2363461359589,-2.54628720532419,43.9632025332968,-20.0718858626553,-23.8913166706416
4.14657210401891,-35.8584793329635,-35.7932064012175,0.0652729317460228,35.8258428670905,-17.9618761323548,-17.8639667347358
4.15130023640662,-25.9059721278974,-19.5373533733867,6.36861875451079,22.7216627506421,-16.1372954412041,-6.58436730943793
4.15602836879433,-12.2281503802773,1.70661921750892,13.9347695977863,5.26076558138421,-13.0814599890318,7.82069440764758
4.16075650118203,2.80130192770591,22.6360384455079,19.834736517802,-12.7186701866069,-8.51671729504804,21.2353874816549
4.16548463356974,15.960406077547,38.4831204581292,22.5227143805822,-27.2217632678381,-3.2811541515176,30.5029174193557
4.17021276595745,24.6216119418121,46.9041070437475,22.2824951019354,-35.7628594927798,1.16955841993835,34.5933010728414
4.17494089834515,27.0518697662055,47.1877513024272,20.1358815362217,-37.1198105343163,3.45799411499191,33.6618164193244
4.17966903073286,22.8542518032989,39.475762098181,16.6215102948821,-31.16500695074,3.11637075420842,28.0486361965316
4.18439716312057,13.9174569835973,25.7554664704686,11.8380094868712,-19.836461727033,1.03972374836305,18.7967379786699
4.18912529550827,4.48585980835653,10.9421769899148,6.45631718155825,-7.71401839913566,-0.985228686600863,8.69924708573652
4.19385342789598,-0.821942027139991,1.32279103779452,2.14473306493451,-0.250424505327262,-1.48333754603725,1.73376205136451
4.19858156028369,0.129695685973825,0.720533684247313,0.590837998273488,-0.425114685110569,-0.230571156149832,0.655685841260401
4.20330969267139,5.83959381874393,7.85709468052464,2.01750086178072,-6.84834424963429,1.91104647848161,4.93729777115268
4.2080378250591,12.7033553054835,17.318164377911,4.61480907242751,-15.0107598416972,4.04427311652798,10.9664867251692
4.21276595744681,17.4568463172571,22.9922524011285,5.53540608387133,-20.2245493591928,5.9607201166929,14.2638292424999
4.21749408983452,18.1147711515692,21.2203883400206,3.10561718845133,-19.6675797457949,7.50457698155895,12.1630027642359
4.22222222222222,13.3829534220721,11.876623190465,-1.50633023160707,-12.6297883062685,7.44464182683956,5.18514647942896
4.22695035460993,2.86471987222239,-2.61008836131666,-5.47480823353905,-0.127315755452866,4.16976405288072,-4.04244829742785
4.23167848699764,-11.0968075327278,-18.6835183875694,-7.5867108548416,14.8901629601486,-1.75504833894308,-13.1351146212055
4.23640661938534,-22.7797361955027,-31.9581433279004,-9.17840713239774,27.3689397617015,-6.80066453155246,-20.5682752301491
4.24113475177305,-26.3910372800333,-37.4094906676281,-11.0184533875948,31.9002639738307,-7.68629194621922,-24.2139720276115
4.24586288416076,-21.0780404362002,-32.0816527285061,-11.0036122923059,26.5798465823531,-5.03721407194717,-21.542632510406
4.25059101654846,-12.2845724780406,-19.3832878634982,-7.09871538545761,15.8339301707694,-2.59292854629147,-13.2410016244779
4.25531914893617,-7.68522081191557,-9.25498086118809,-1.56976004927252,8.47010083655183,-3.05773038132152,-5.41237045523031
4.26004728132388,-11.5878049636461,-10.912281386842,0.675523576804178,11.250043175244,-6.13166427022515,-5.11837890501889
4.26477541371158,-22.449208693185,-23.9366033567741,-1.4873946635891,23.1929060249796,-10.480907014798,-12.7119990101816
4.26950354609929,-34.5580745859699,-37.8611030348895,-3.30302844891958,36.2095888104297,-15.6275230685252,-20.5820657419045
4.274231678487,-42.1609438921923,-42.5762174504236,-0.41527355823127,42.3685806713079,-20.8728351669805,-21.4957455043274
4.2789598108747,-43.63060299522,-39.1683050076166,4.46229798760338,41.3994540014183,-24.0464504914117,-17.3530035100066
4.28368794326241,-42.7804301864502,-38.6108394119498,4.16959077450039,40.6956347992,-23.4750104804753,-17.2206243187247
4.28841607565012,-45.407769595467,-49.1480360802777,-3.74026648481065,47.2779028378724,-20.8337515553282,-26.4441512825442
4.29314420803783,-53.8065656897095,-67.1285400229476,-13.3219743332381,60.4675528563286,-20.2422956782357,-40.2252571780929
4.29787234042553,-65.413578642682,-82.0733357562525,-16.6597571135705,73.7434571994673,-24.3769107645557,-49.3665464349115
4.30260047281324,-77.0578633208874,-89.1732443112553,-12.1153809903679,83.1155538160713,-32.4712411652597,-50.6443126508116
4.30732860520095,-88.5002602745139,-93.56012757328,-5.05986729876609,91.030193923897,-41.7201964878739,-49.3099974360231
4.31205673758865,-100.05818706031,-101.322953671225,-1.26476661091475,100.690570365767,-49.3967102246976,-51.2938601410697
4.31678486997636,-108.192776905148,-108.931809571519,-0.739032666371187,108.562293238333,-53.7268721193882,-54.835421118945
4.32151300236407,-106.462009544037,-105.160611346474,1.3013981975637,105.811310445256,-53.8817038708006,-51.929606574455
4.32624113475177,-92.1491175312017,-84.5214871052661,7.62763042593556,88.3353023182339,-49.8883739785686,-38.4469283396653
4.33096926713948,-71.2517116793339,-56.8489372139831,14.4027744653508,64.0503244466585,-42.8272430723423,-21.2230813743162
4.33569739952719,-55.8088756861425,-41.319429900685,14.4894457854575,48.5641527934138,-35.1491607358001,-13.4149920576137
4.34042553191489,-55.109472912757,-49.7971086287135,5.31236428404345,52.4532907707353,-30.2109185984002,-22.242372172335
4.3451536643026,-68.0181209682955,-75.3525560986656,-7.33443513037003,71.6853385334805,-30.3418429189628,-41.3434956145178
4.34988179669031,-83.2916877605186,-97.2916650397219,-13.9999772792032,90.2916764001203,-34.6458552406577,-55.6458211594625
4.35460992907801,-88.6131361846181,-98.8556950922419,-10.2425589076238,93.73441563843,-39.1852886384971,-54.5491269999329
4.35933806146572,-80.977687551238,-81.267208415641,-0.289520864402945,81.1224479834395,-40.3440833434175,-40.778364640022
4.36406619385343,-68.7255755391031,-60.9511669798654,7.7744085592377,64.8383712594843,-38.2499920491704,-26.5883792103139
4.36879432624113,-63.2246818357739,-53.7859170579153,9.43876477785861,58.5052994468446,-36.3317233068163,-22.1735761400283
4.37352245862884,-68.6402121850519,-62.417227636131,6.22298454892088,65.5287199105915,-37.4315983669864,-28.0971215436051
4.37825059101655,-79.6001202877858,-77.0637736359858,2.53634665180006,78.3319469618858,-41.068233469793,-37.2637134920929
4.38297872340426,-87.7288129238774,-86.1147978938705,1.61401503000697,86.921805408874,-44.6714139769422,-42.2503914319317
4.38770685579196,-89.4550167238085,-85.9537907835189,3.50122594028969,87.7044037536637,-46.4781213320491,-41.2262824216146
4.39243498817967,-87.9243415840396,-82.6164952879719,5.30784629606761,85.2704184360057,-46.6160939400536,-38.6543244959522
4.39716312056738,-89.0022884358336,-85.2477997105526,3.75448872528102,87.1250440731931,-46.3783885805573,-40.7466554926358
4.40189125295508,-96.391685405837,-97.8054594195368,-1.41377401369979,97.0985724126869,-47.4889556960686,-49.6096167166183
4.40661938534279,-109.473036617196,-116.250386829944,-6.77735021274837,112.86171172357,-51.3478432022236,-61.5138685213462
4.4113475177305,-123.801527137597,-132.434109956263,-8.63258281866649,128.11781854693,-57.5844721594652,-70.533346387465
4.4160756501182,-133.29281990444,-139.946487872596,-6.65366796815607,136.619653888518,-63.3195759681421,-73.3000779203762
4.42080378250591,-133.676602057397,-137.299013237826,-3.62241118042922,135.487807647612,-65.0270954384839,-70.4607122091277
4.42553191489362,-125.383868048061,-127.311901768783,-1.92803372072191,126.347884908422,-61.7279171636697,-64.6199677447525
4.43026004728132,-112.653844696013,-113.702557367423,-1.04871267140918,113.178201031718,-55.8025660123021,-57.3756350194159
4.43498817966903,-98.497869455681,-96.6379276172435,1.85994183843741,97.5678985364623,-50.1789056470592,-47.3889928894031
4.43971631205674,-80.025987071275,-70.3116832825064,9.71430378876856,75.1688351768907,-44.8701454300218,-30.2986897468689
4.44444444444444,-49.1465887701093,-25.7541649552863,23.392423814823,37.4503768626978,-36.2695062924661,-1.18087057023169
4.44917257683215,1.32095675726684,42.2482025370176,40.9272457797507,-21.7845796471422,-19.803144511242,41.5877241583842
4.45390070921986,71.6980876827699,130.85419738569,59.1561097029201,-101.27614253423,6.27098898992489,95.005153544305
4.45862884160757,156.106927944952,232.834699534929,76.7277715899774,-194.47081373994,39.689578177487,154.781235562453
4.46335697399527,249.802934656396,344.640875514326,94.8379408579309,-297.221905085361,77.4824968992323,219.739408186129
4.46808510638298,354.65806953906,468.994898385282,114.336828846222,-411.826483962171,120.160620346419,291.665863615752
4.47281323877069,474.428026749292,606.684178884143,132.256152134851,-540.556102816717,171.08593730722,369.470165509497
4.47754137115839,602.80122437067,744.251095832626,141.449871461956,-673.526160101648,230.675676454357,442.850483647291
4.4822695035461,717.338296610099,851.534869049519,134.19657243942,-784.436582829809,291.570862085339,492.86572074447
4.48699763593381,788.59996936233,896.068500450127,107.468531087797,-842.334234906229,340.565719137267,501.768515768962
4.49172576832151,798.637887624801,864.652630716894,66.0147430920932,-831.645259170847,366.311572266354,465.333686904494
4.49645390070922,752.297847949511,772.857547176805,20.5596992272943,-762.577697563158,365.869074361108,396.70862320205
4.50118203309693,670.997131946186,652.825610229897,-18.1715217162882,-661.911371088042,344.584326831237,317.327044256805
4.50591016548463,576.033946285732,530.807222934318,-45.2267233514137,-553.420584610025,310.630334818573,242.790249791452
4.51063829787234,477.864927654349,415.898644755016,-61.9662828993326,-446.881786204682,269.915605276841,176.966180927842
4.51536643026005,379.365477435918,307.995518507254,-71.3699589286649,-343.680497971586,225.367718182292,118.312779789294
4.52009456264775,285.633859318979,211.543332765129,-74.0905265538502,-248.588596042054,179.862192936415,68.7264031056396
4.52482269503546,207.430070617183,137.843569667685,-69.5865009494979,-172.636820142434,138.50828578334,34.1285343590935
4.52955082742317,154.370883610366,94.8991175310618,-59.4717660793041,-124.635000570714,106.921324844835,17.7136757258789
4.53427895981087,126.486564621264,78.7084910132299,-47.7780736080342,-102.597527817247,87.1323191146492,15.4652087025978
4.53900709219858,114.573876175415,76.8917397653321,-37.6821364100826,-95.7328079703734,76.1280062927487,19.6048016776248
4.54373522458629,109.191535143813,79.988228284306,-29.2033068595073,-94.5898817140596,69.1974210016603,25.3924607123993
4.548463356974,107.865202032147,86.8413450661018,-21.0238569660457,-97.3532735491247,64.4445294990966,32.908744050028
4.5531914893617,112.558109044649,98.8197806874971,-13.7383283571516,-105.688944866073,63.1482187009002,42.5407261651727
4.55791962174941,121.679694092314,111.939181122326,-9.74051296998769,-116.80943760732,65.7101035311506,51.0993340761691
4.56264775413712,127.386727697292,117.31733486295,-10.0693928343418,-122.352031280121,68.728060265817,53.6239710143043
4.56737588652482,121.424256361889,108.385510709621,-13.0387456522674,-114.904883535755,67.231501007078,47.6733825286769
4.57210401891253,101.716511613153,85.344387339013,-16.3721242741404,-93.5304494760832,59.0443179436469,34.4861315324363
4.57683215130024,72.2204017288704,52.7545971862621,-19.4658045426083,-62.4874994575663,45.8431031357393,16.6443963218269
4.58156028368794,38.3307192596515,15.3316571872868,-22.9990620723646,-26.8311882234691,30.664890666008,-3.83370244253892
4.58628841607565,4.60619637620105,-22.3359192616744,-26.9421156378754,8.86486144273666,15.7741560070382,-24.6390174497749
4.59101654846336,-24.1499607394879,-53.8368441414771,-29.6868834019892,38.9934024404825,2.76846133125063,-41.7618637717332
4.59574468085106,-42.959926767001,-72.6236627310292,-29.6637359640282,57.7917947490151,-6.64809540148641,-51.1436993475287
4.60047281323877,-49.9334635585816,-77.3550634507868,-27.4215998922052,63.6442635046842,-11.2559318331882,-52.388331671496
4.60520094562648,-49.1484714367369,-73.8753910964253,-24.7269196596884,61.5119312665811,-12.2107758885243,-49.3011553780568
4.60992907801418,-48.7213086232988,-70.4358649521541,-21.7145563288553,59.5785867877264,-13.5033761472218,-46.0752106405047
4.61465721040189,-54.6505660579358,-71.7134322349625,-17.0628661770268,63.1819991464492,-18.7938499404545,-44.3881492059947
4.6193853427896,-66.1718925801036,-77.5079964422926,-11.3361038621889,71.8399445111981,-27.4178943589573,-44.4220501522407
4.6241134751773,-77.2044939995087,-84.7254579977271,-7.52096399821838,80.9649759986179,-34.8417650006452,-46.1232109979727
4.62884160756501,-81.9007369474691,-88.8464848640994,-6.94574791663024,85.3736109057843,-37.4774945154195,-47.8961163903648
4.63356973995272,-78.5574316252932,-85.4918100315293,-6.93437840623615,82.0246208284113,-35.8115266095285,-46.2130942188827
4.63829787234043,-69.4527508542866,-73.9368591069996,-4.48410825271296,71.6948049806431,-32.4843213007868,-39.2104836798563
4.64302600472813,-58.8341407409283,-59.3870453203747,-0.552904579446434,59.1105930306515,-29.1406180807409,-29.9699749499106
