t,leadI,leadII,leadIII,aVR,aVL,aVF
0,532.120880055679,-2088.35424689569,-2620.47512695137,778.116683420006,1576.29800350352,-2354.41468692353
0.00214707461084273,532.251646748868,-1715.14974592714,-2247.40139267601,591.449049589135,1389.82651971244,-1981.27556930157
0.00429414922168545,532.351605671458,-1424.14604814346,-1956.49765381492,445.897221236003,1244.42462974319,-1690.32185097919
0.00644122383252818,532.352146245809,-1187.92463085666,-1720.27677710247,327.786242305425,1126.31446167414,-1454.10070397956
0.00858829844337091,528.366838795215,-990.429853478404,-1518.79669227362,231.031507341595,1023.58176553442,-1254.61327287601
0.0107353730542136,532.1059366331,-819.663458262932,-1351.76939489603,143.778760814916,941.937665764567,-1085.71642657948
0.0128824476650564,528.130152769851,-671.823962842194,-1199.95411561205,71.8469050361714,864.042134190948,-935.88903922712
0.0150295222758991,528.152266241993,-535.663965255795,-1063.81623149779,3.75584950690063,795.984248869891,-799.740098376791
0.0171765968867418,532.163719763584,-427.058345060464,-959.222064824048,-52.5526873515602,745.692892293816,-693.140204942256
0.0193236714975845,528.436419707912,-326.569687160502,-855.006106868414,-100.933366273705,691.721263288163,-590.787897014458
0.0214707461084273,528.520979524427,-245.458316138524,-773.979295662951,-141.531331692951,651.250137593689,-509.718805900738
0.02361782071927,528.477876516152,-167.768606575766,-696.246483091918,-180.354634970193,612.362179804035,-432.007544833842
0.0257648953301127,532.205051599576,-108.93702035433,-641.142071953907,-211.634015622623,586.673561776741,-375.039546154118
0.0279119699409554,528.14607559495,-49.9211067419206,-578.06718233687,-239.112484426515,553.10662896591,-313.994144539396
0.0300590445517982,528.066282461403,-2.96821935160399,-531.034501813007,-262.5490315549,529.550392137205,-267.001360582306
0.0322061191626409,524.266466151334,43.1849814280812,-481.081484723253,-283.725723789708,502.673975437294,-218.948251647586
0.0343531937734836,543.871398424822,84.821690375913,-459.049708048909,-314.346544400367,501.460553236865,-187.114008836498
0.0365002683843264,536.275990698567,122.610837663888,-413.66515303468,-329.443414181227,474.970571866623,-145.527157685396
0.0386473429951691,528.558988006933,153.419458028065,-375.139529978869,-340.989223017499,451.849258992901,-110.860035975402
0.0407944176060118,536.232887015144,181.423339786137,-354.809547229007,-358.828113400641,445.521217122076,-86.693103721435
0.0429414922168545,528.289112368831,202.309078016484,-325.980034352347,-365.299095192658,427.134573360589,-61.8354781679316
0.0450885668276973,524.246067890024,226.785628961896,-297.460438928127,-375.51584842596,410.853253409076,-35.3374049831155
0.04723564143854,528.079455869363,238.481338005235,-289.598117864128,-383.280396937299,408.838786866745,-25.5583899294469
0.0493827160493827,528.159408422766,260.537536431669,-267.621871991097,-394.348472427217,397.890640206932,-3.54216777971442
0.0515297906602254,524.436040605589,278.123117857618,-246.312922747971,-401.279579231603,385.37448167678,15.9050975548232
0.0536768652710682,528.470148485949,288.516235244354,-239.953913241595,-408.493191865151,384.212030863772,24.2811610013792
0.0558239398819109,528.530404713045,304.248636104276,-224.281768608769,-416.38952040866,376.406086660907,39.9834337477537
0.0579710144927536,528.467337122771,317.537291979383,-210.930045143387,-423.002314551077,369.698691133079,53.303623417998
0.0601180891035964,532.200300305179,327.408353514964,-204.791946790215,-429.804326910071,368.496123547697,61.3082033623741
0.0622651637144391,528.166824496728,336.399375271911,-191.767449224817,-432.28309988432,359.967136860773,72.3159630235469
0.0644122383252818,528.103737905708,339.775072647793,-188.328665257915,-433.93940527675,358.216201581811,75.7232036949389
0.0665593129361245,532.046061030711,345.527368218568,-186.518692812143,-438.78671462464,359.282376921427,79.5043377032126
0.0687063875469673,528.307736678818,354.86867511926,-173.439061559558,-441.588205899039,350.873399119188,90.7148067798511
0.07085346215781,532.334740923793,361.496515837413,-170.83822508638,-446.915628380603,351.586483005086,95.3291453755163
0.0730005367686527,528.515270994941,370.078836653052,-158.436434341889,-449.297053823997,343.475852668415,105.821201155582
0.0751476113794954,536.223757035634,380.183882788309,-156.039874247326,-458.203819911972,346.13181564148,112.072004270492
0.0772946859903382,528.316093256068,386.50266952437,-141.813423731698,-457.409381390219,335.064758493883,122.344622896336
0.0794417606011809,528.177088978094,383.61301383571,-144.564075142383,-455.895051406902,336.370582060239,119.524469346663
0.0815888352120236,524.246889271863,390.247655502797,-133.999233769066,-457.24727238733,329.123061520465,128.124210866865
0.0837359098228663,535.954652500427,395.390682390019,-140.563970110408,-465.672667445223,338.259311305417,127.413356139806
0.0858829844337091,528.308235377378,396.755761815594,-131.552473561783,-462.531998596486,329.930354469581,132.601644126906
0.0880300590445518,536.178322463536,403.699183989035,-132.479138474502,-469.938753226285,334.328730469019,135.610022757266
0.0901771336553945,532.335714990717,405.15000940625,-127.185705584467,-468.742862198483,329.760710287592,138.982151910891
0.0923242082662372,532.301955805573,411.917336622844,-120.384619182729,-472.109646214208,326.343287494151,145.766358720057
0.09447128287708,532.226331971686,422.225415719485,-110.000916252201,-477.225873845586,321.113624111944,156.112249733642
0.0966183574879227,528.269132931422,415.051130874439,-113.218002056983,-471.660131902931,320.743567494202,150.916564408728
0.0987654320987654,532.10724893418,421.035756107642,-111.071492826538,-476.571502520911,321.589370880359,154.982131640552
0.100912506709608,532.097739559181,417.942355556179,-114.155384003002,-475.02004755768,323.126561781091,151.893485776589
0.103059581320451,524.357768536613,415.443540422636,-108.914228113977,-469.900654479624,316.635998325295,153.26465615433
0.105206655931294,532.17830673774,419.001818480183,-113.176488257558,-475.590062608961,322.677397497649,152.912665111312
0.107353730542136,528.362358148628,424.977657723012,-103.384700425617,-476.67000793582,315.873529287123,160.796478648697
0.109500805152979,528.414732110313,432.101144220524,-96.3135878897883,-480.257938165419,312.36416000005,167.893778165368
0.111647879763822,528.429428237722,438.363820296089,-90.0656079416324,-483.396624266905,309.247518089677,174.149106177228
0.113794954374665,536.148148023559,434.506906353391,-101.641241670168,-485.327527188475,318.894694846864,166.432832341611
0.115942028985507,532.164114769602,432.140886795304,-100.023227974299,-482.152500782453,316.09367137195,166.058829410502
0.11808910359635,532.060340491986,428.833797067001,-103.226543424985,-480.447068779494,317.643441958486,162.803626821008
0.120236178207193,528.144804410585,422.749813381122,-105.394991029464,-475.447308895853,316.769897720024,158.677411175829
0.122383252818035,528.219354186969,426.908976005554,-101.310378181415,-477.564165096261,314.764866184192,162.799298912069
0.124530327428878,524.487913969203,425.620200833431,-98.867713135772,-475.054057401317,311.677813552488,163.37624384883
0.126677402039721,532.385632965369,432.812353728434,-99.5732792369355,-482.598993346901,315.979456101152,166.619537245749
0.128824476650564,528.519937788047,434.786089544301,-93.7338482437468,-481.653013666174,311.126893015897,170.526120650277
0.130971551261406,532.277369332325,426.43730354467,-105.840065787656,-479.357336438497,319.058717559991,160.298618878507
0.133118625872249,528.201150658874,415.904908049661,-112.296242609213,-472.053029354267,320.248696634043,151.804332720224
0.135265700483092,528.066723866462,408.792995662594,-119.273728203868,-468.429859764528,323.670226035165,144.759633729363
0.137412775093935,539.72934013981,414.848987238929,-124.880352900881,-477.28916368937,332.304846520346,144.984317169024
0.139559849704777,528.24512800294,423.445361507266,-104.799766495674,-475.845244755103,316.522447249307,159.322797505796
0.14170692431562,524.593169678865,426.278506474248,-98.314663204617,-475.435838076557,311.453916441741,163.981921634816
0.143853998926463,532.516725163479,425.495733894554,-107.020991268924,-479.006229529017,319.768858216201,159.237371312815
0.146001073537305,540.237427591765,430.869748778341,-109.367678813424,-485.553588185053,324.802553202594,160.751034982459
0.148148148148148,532.224424840692,425.985299476862,-106.23912536383,-479.104862158777,319.231775102261,159.873087056516
0.150295222758991,524.170180100459,423.123193565541,-101.046986534918,-473.646686833,312.608583317689,161.038103515311
0.152442297369834,531.806527951842,420.151525116531,-111.65500283531,-475.979026534187,321.730765393576,154.248261140611
0.154589371980676,524.168090512378,418.863477592059,-105.304612920318,-471.515784052218,314.736351716348,156.779432335871
0.156736446591519,528.361437249664,416.13435306588,-112.227084183784,-472.247895157772,320.294260716724,151.953634441048
0.158883521202362,528.657753034372,430.645566325758,-98.0121867086145,-479.651659680065,313.334969871493,166.316689808572
0.161030595813205,528.737821921397,421.820044027974,-106.917777893423,-475.278932974686,317.82779990741,157.451133067276
0.163177670424047,544.058018213247,426.790557219543,-117.267460993704,-485.424287716395,330.662739603475,154.76154811292
0.16532474503489,528.151797356768,429.399201265035,-98.7525960917335,-478.775499310901,313.452196724251,165.323302586651
0.167471819645733,527.871619940641,422.6768418793,-105.194778061342,-475.27423090997,316.533199000991,158.741031908979
0.169618894256575,527.894026872808,420.004772045554,-107.889254827254,-473.949399459181,317.891640850031,156.05775860915
0.171765968867418,528.210392334254,411.346909844423,-116.863482489831,-469.778651089338,322.536937412042,147.241713677296
0.173913043478261,532.489537834777,412.746496616773,-119.743041218004,-472.618017225775,326.116289526391,146.501727699384
0.176060118089104,536.571578600952,419.434191149611,-117.137387451341,-478.002884875281,326.854483026146,151.148401849135
0.178207192699946,532.54834396968,421.919454293764,-110.628889675917,-477.233899131722,321.588616822799,155.645282308923
0.180354267310789,528.282479215776,426.471611046025,-101.810868169751,-477.377045130901,315.046673692764,162.330371438137
0.182501341921632,535.680954106734,421.080760295715,-114.600193811019,-478.380857201225,325.140573958877,153.240283242348
0.184648416532474,527.812062317506,418.35884137272,-109.453220944785,-473.085451845113,318.632641631146,154.452810213967
0.186795491143317,528.048906810877,416.094822459698,-111.954084351179,-472.071864635288,320.001495581028,152.070369054259
0.18894256575416,536.235981452876,419.517504526075,-116.718476926802,-477.876742989476,326.477229189839,151.399513799637
0.191089640365003,536.551457425949,421.086203496088,-115.465253929861,-478.818830461019,326.008355677905,152.810474783113
0.193236714975845,532.664752489033,419.80803564403,-112.856716845003,-476.236394066532,322.760734667018,153.475659399513
0.195383789586688,528.469312115984,429.626177067879,-98.843135048105,-479.047744591932,313.656223582045,165.391521009887
0.197530864197531,528.060530572348,433.788606551869,-94.271924020479,-480.924568562108,311.166227296413,169.758341265695
0.199677938808374,527.822178534044,432.172714584602,-95.6494639494413,-479.997446559323,311.735821241742,168.261625317581
0.201825013419216,527.903034593748,433.569902164581,-94.3331324291668,-480.736468379164,311.118083511457,169.618384867707
0.203972088030059,528.244557802497,431.734896203233,-96.5096615992638,-479.989727002865,312.37710970088,167.612617301985
0.206119162640902,524.743043557345,431.635515229641,-93.1075283277037,-478.189279393493,308.925285942524,169.263993450969
0.208266237251745,540.442683296645,429.402356838644,-111.040326458001,-484.922520067644,325.741504877323,159.181015190321
0.210413311862587,528.642554325946,435.640139995485,-93.0024143304609,-482.141347160715,310.822484328203,171.318862832512
0.21256038647343,543.803015890489,441.138040089103,-102.664975801386,-492.470527989796,323.233995845938,169.236532143858
0.214707461084273,524.059173046734,441.056265975965,-83.002907070769,-482.55771951135,303.531040058752,179.026679452598
0.216854535695115,531.759220061302,443.261821472348,-88.4973985889542,-487.510520766825,310.128309325128,177.382211441697
0.219001610305958,531.99617381765,441.054574492702,-90.9415993249477,-486.525374155176,311.468886571299,175.056487583877
0.221148684916801,528.475382912037,435.790684614789,-92.6846982972474,-482.133033763413,310.580040604642,171.552993158771
0.223295759527644,532.594044988788,443.809504308566,-88.7845406802219,-488.201774648677,310.689292834505,177.512481814172
0.225442834138486,536.424321674183,445.48262937696,-90.9416922972222,-490.953475525572,313.683006985702,177.270468539869
0.227589908749329,528.363395432043,439.751394127791,-88.6120013042528,-484.057394779917,308.487698368148,175.569696411769
0.229736983360172,524.166258327672,448.676217720847,-75.4900406068249,-486.42123802426,299.828149467249,186.593088557011
0.231884057971014,539.581897124709,448.288397277832,-91.2934998468771,-493.935147201271,315.437698485793,178.497448715477
0.234031132581857,531.964081941787,442.757067812972,-89.2070141288144,-487.360574877379,310.585548035301,176.775026842079
0.2361782071927,528.384266893149,440.893576319748,-87.4906905734003,-484.638921606448,307.937478733274,176.701442873174
0.238325281803543,528.640086831109,432.189113126027,-96.4509737050815,-480.414599978568,312.545530268095,167.869069710473
0.240472356414385,528.670738095829,440.467971521141,-88.2027665746878,-484.569354808485,308.436752335258,176.132602473227
0.242619431025228,532.329716449507,438.174855084953,-94.1548613645543,-485.25228576723,313.242288907031,172.009996860199
0.244766505636071,531.999388920585,435.952221228606,-96.0471676919793,-483.975805074596,314.023278306282,169.952526768313
0.246913580246914,531.792797416,440.5665265165,-91.2262708995004,-486.17966196625,311.50953415775,174.6701278085
0.249060654857756,527.984550151406,439.969235073021,-88.0153150783842,-483.976892612214,307.999932614895,175.976959997319
0.251207729468599,532.1845980577,442.34166672707,-89.8429313306305,-487.263132392385,311.013764694165,176.24936769822
0.253354804079442,536.407615559046,444.749671435974,-91.6579441230725,-490.57864349751,314.032779841059,176.545863656451
0.255501878690285,528.763561760921,444.198065178986,-84.5654965819356,-486.480813469954,306.664529171429,179.816284298525
0.257648953301127,524.696760192957,444.866740256289,-79.8300199366674,-484.781750224623,302.263390064812,182.518360159811
0.25979602791197,528.208084610291,446.304093822551,-81.9039907877405,-487.256089216421,305.056037699016,182.200051517405
0.261943102522813,527.889632253445,447.609472821295,-80.2801594321504,-487.74955253737,304.084895842798,183.664656694572
0.264090177133655,527.838459751416,447.99701528618,-79.8414444652358,-487.917737518798,303.839952108326,184.077785410472
0.266237251744498,535.862702233442,451.148266197896,-84.714436035546,-493.505484215669,310.288569134494,183.216915081175
0.268384326355341,528.508038766083,449.783161418915,-78.7248773471675,-489.145600092499,303.616458056625,185.529142035874
0.270531400966184,524.932778764254,452.519463670637,-72.4133150936169,-488.726121217445,298.673046928935,190.05307428851
0.272678475577026,532.698149571706,448.401374744798,-84.2967748269076,-490.549762158252,308.497462199307,182.052299958945
0.274825550187869,532.36458223759,449.191128217063,-83.1734540205272,-490.777855227326,307.769018129059,183.008837098268
0.276972624798712,531.893322961851,450.488224417248,-81.4050985446034,-491.19077368955,306.649210753227,184.541562936322
0.279119699409555,523.832140917936,451.47711252406,-72.3550283938766,-487.654626720998,298.093584655906,189.561042065091
0.281266774020397,527.807391218331,451.559362595668,-76.2480286226624,-489.683376907,302.027709920497,187.655666986503
0.28341384863124,539.88431979132,450.715595389532,-89.168724401788,-495.299957590426,314.526522096554,180.773435493872
0.285560923242083,524.845008845534,453.378435241948,-71.4665736035852,-489.111722043741,298.155791224559,190.955930819182
0.287707997852925,528.970641967265,456.425866311316,-72.544775655949,-492.698254139291,300.757708811607,191.940545327684
0.289855072463768,524.921819066788,452.597001157502,-72.3248179092864,-488.759410112145,298.623318488037,190.136091624108
0.292002147074611,532.193711810024,453.486958148347,-78.7067536616775,-492.840334979186,305.450232735851,187.390102243335
0.294149221685454,527.790173848916,454.641979629407,-73.1481942195086,-491.216076739161,300.469184034212,190.746892704949
0.296296296296296,523.699990942761,455.334511151065,-68.3654797916961,-489.517251046913,296.032735367229,193.484515679685
0.298443370907139,527.844768060765,451.260865896987,-76.5839021637779,-489.552816978876,302.214335112271,187.338481866605
0.300590445517982,532.304752686697,454.207044079894,-78.0977086068032,-493.255898383295,305.20123064675,188.054667736545
0.302737520128824,536.708364338341,457.002568485588,-79.7057958527525,-496.855466411965,308.207080095547,188.648386316418
0.304884594739667,540.710874994022,452.563066510989,-88.1478084830323,-496.636970752505,314.429341738527,182.207629013978
0.30703166935051,524.82202681981,456.763621948821,-68.0584048709894,-490.792824384316,296.4402158454,194.352608538916
0.309178743961353,524.225031654469,457.746548505816,-66.4784831486524,-490.985790080142,295.351757401561,195.634032678582
0.311325818572195,531.530903456071,458.76760459037,-72.7632988657008,-495.14925402322,302.147101160886,193.002152862335
0.313472893183038,535.360785752084,459.184828970663,-76.1759567814208,-497.272807361373,305.768371266752,191.504436094621
0.315619967793881,535.737005436146,454.861674320353,-80.8753311157926,-495.299339878249,308.306168275969,186.99317160228
0.317767042404724,524.674512034295,453.851575655583,-70.8229363787121,-489.263043844939,297.748724206504,191.514319638436
0.319914117015566,529.007833415251,456.7915580915,-72.2162753237508,-492.899695753375,300.612054369501,192.287641383875
0.322061191626409,529.04499392315,456.501519759225,-72.5434741639256,-492.773256841188,300.794234043538,191.97902279765
0.324208266237252,532.509391551757,453.160613670295,-79.3487778814624,-492.835002611026,305.92908471661,186.905917894416
0.326355340848094,531.878769823407,458.076154830403,-73.8026149930038,-494.977462326905,302.840692408205,192.1367699187
0.328502415458937,527.544415807658,458.947657714498,-68.5967580931598,-493.246036761078,298.070586950409,195.175449810669
0.33064949006978,523.688056881789,462.987162440879,-60.70089444091,-493.337609661334,292.19447566135,201.143133999985
0.332796564680623,528.074236801661,454.570398161036,-73.5038386406251,-491.322317481349,300.789037721143,190.533279760206
0.334943639291465,528.740899789527,453.532129532722,-75.2087702568051,-491.136514661125,301.974835023166,189.161679637959
0.337090713902308,540.784125452876,456.646506292046,-84.1376191608298,-498.715315872461,312.460872306853,186.254443565608
0.339237788513151,532.881918483505,460.502470626809,-72.3794478566962,-496.692194555157,302.630683170101,194.061511385056
0.341384863123994,536.184237351255,461.224041691401,-74.9601956598539,-498.704139521328,305.572216505554,193.131923015774
0.343531937734836,523.89859228095,458.361199148887,-65.537393132062,-491.129895714918,294.717992706506,196.411903008413
0.345679012345679,535.263034097828,462.929451886659,-72.3335822111698,-499.096242992243,303.798308154499,195.297934837744
0.347826086956522,527.743211272525,462.852060833756,-64.8911504387697,-495.29763605314,296.317180855648,198.980455197493
0.349973161567364,536.110586479151,458.177217281038,-77.9333691981133,-497.143901880094,307.021977838632,190.121924041462
0.352120236178207,536.673338584974,453.288768222422,-83.3845703625527,-494.981053403698,310.028954473764,184.952098929935
0.35426731078905,529.073983510039,456.58086216362,-72.4931213464187,-492.82742283683,300.783552428229,192.043870408601
0.356414385399893,532.63697106163,460.646296507527,-71.9906745541031,-496.641633784579,302.313822807867,194.327810976712
0.358561460010735,528.167607692152,461.478808898478,-66.6887987936732,-494.823208295315,297.428203242912,197.395005052403
0.360708534621578,527.693387498444,462.444805499232,-65.2485819992114,-495.069096498838,296.470984748828,198.598111750011
0.362855609232421,527.629713363235,462.952565464348,-64.6771478988877,-495.291139413792,296.153430631061,199.13770878273
0.365002683843264,524.121553690011,462.6939074074,-61.4276462826112,-493.407730548705,292.774599986311,200.633130562394
0.367149758454106,536.322368646148,457.951252847875,-78.3711157982726,-497.136810747011,307.34674222221,189.790068524801
0.369296833064949,536.682936634132,453.1430404291,-83.5398962050321,-494.912988531616,310.111416419582,184.801572112034
0.371443907675792,528.866471536019,460.48154000718,-68.384931528839,-494.6740057716,298.625701532429,196.048304239171
0.373590982286634,532.353322018046,460.800427946941,-71.5528940711052,-496.576874982494,301.953108044576,194.623766937918
0.375738056897477,528.01011195759,461.660915810006,-66.3491961475834,-494.835513883798,297.179654052587,197.655859831211
0.37788513150832,527.784053973479,466.421734990589,-61.3623189828897,-497.102894482034,294.573186478184,202.52970800385
0.380032206119163,531.799342580345,462.907159821217,-68.8921827591275,-497.353251200781,300.345762669736,197.007488531045
0.382179280730005,528.288940472315,462.552429880197,-65.7365105921174,-495.420685176256,297.012725532216,198.40795964404
0.384326355340848,540.279344513182,457.81717078558,-82.4621737276017,-499.048257649381,311.370759120392,187.677498528989
0.386473429951691,520.962667621048,460.863407211861,-60.0992604091871,-490.913037416454,290.530964015117,200.382073401337
0.388620504562534,528.550342794206,456.657740676438,-71.8926021177676,-492.604041735322,300.221472455987,192.382569279335
0.390767579173376,524.366626197728,457.035726634079,-67.3308995636492,-490.701176415903,295.848762880689,194.852413535215
0.392914653784219,531.908360596707,457.883893332714,-74.0244672639939,-494.89612696471,302.966413930351,191.92971303436
0.395061728395062,539.653144336454,458.689464060672,-80.9636802757822,-499.171304198563,310.308412306118,188.862891892445
0.397208803005904,532.057704060591,458.969141328849,-73.0885627317416,-495.51342269472,302.573133396166,192.940289298554
0.399355877616747,528.41894531665,454.678300733779,-73.7406445828703,-491.548623025215,301.07979494976,190.468828075455
0.40150295222759,528.583657381083,457.714534445335,-70.8691229357486,-493.149095913209,299.726390158416,193.422705754793
0.403650026838433,528.565088783162,456.936846119606,-71.6282426635565,-492.750967451384,300.096665723359,192.654301728025
0.405797101449275,524.499410161942,452.812434533482,-71.6869756284598,-488.655922347712,298.093192895201,190.562729452511
0.407944176060118,524.280459760936,461.016663180785,-63.2637965801512,-492.64856147086,293.772128170544,198.876433300317
0.410091250670961,524.171980160203,461.86715240721,-62.304827752993,-493.019566283707,293.238403956598,199.781162327109
0.412238325281804,539.759760693521,462.616320205083,-77.1434404884385,-501.188040449302,308.45160059098,192.736439858322
0.414385399892646,528.284651261868,462.820015202886,-65.4646360589816,-495.552333232377,296.874643660425,198.677689571952
0.416532474503489,532.348233410186,458.480058967484,-73.8681744427014,-495.414146188835,303.108203926444,192.305942262392
0.418679549114332,532.432416203537,461.519484797977,-70.9129314055601,-496.975950500757,301.672673804548,195.303276696208
0.420826623725174,528.489169826277,453.028965955578,-75.4602038706986,-490.759067890928,301.974686848488,188.78438104244
0.422973698336017,528.328815200737,456.73554548542,-71.593269715317,-492.532180343079,299.961042458027,192.571137885052
0.42512077294686,532.04917243093,457.208677049928,-74.8404953810027,-494.628924740429,303.444833905967,191.184090834462
0.427267847557703,528.096085831351,461.92226088083,-66.1738249505206,-495.00917335609,297.134955390936,197.874217965155
0.429414922168545,528.157895794402,458.733640053574,-69.424255740828,-493.445767923988,298.791075767615,194.654692156373
0.431561996779388,528.312136691349,462.766117076362,-65.5460196149874,-495.539126883855,296.929078153168,198.610048730687
0.433709071390231,528.460087314692,458.408207822583,-70.0518794921088,-493.434147568637,299.2559834034,194.178164165237
0.435856146001074,528.509881871259,461.475815719813,-67.0340661514463,-494.992848795536,297.771974011353,197.220874784183
0.438003220611916,520.674358813238,456.923011429359,-63.7513473838789,-488.798685121299,292.212853098559,196.58583202274
0.440150295222759,528.299733500634,452.913828944654,-75.3859045559794,-490.606781222644,301.842819028307,188.763962194338
0.442297369833602,520.412564169352,457.286102158443,-63.1264620109084,-488.849333163897,291.76951309013,197.079820073767
0.444444444444444,528.142332571601,465.850328711351,-62.29200386025,-496.996330641476,295.217168215925,201.77916242555
0.446591519055287,528.2048201922,466.470789594207,-61.7340305979928,-497.337804893204,294.969425395097,202.368379498107
0.44873859366613,532.198547933695,462.671708407087,-69.5268395266074,-497.435128170391,300.862693730151,196.57243444024
0.450885668276973,524.532204046519,458.313488404078,-66.218715642441,-491.422846225298,295.37545984448,196.047386380818
0.453032742887815,528.456629491033,461.459180753777,-66.997448737256,-494.957905122405,297.727039114144,197.23086600826
0.455179817498658,524.545404669381,457.009350768633,-67.5360539007487,-490.777377719007,296.040729285065,194.736648433942
0.457326892109501,528.344767687585,456.929952375134,-71.4148153124513,-492.63736003136,299.879791500018,192.757568531341
0.459473966720344,532.126510073291,453.48671386051,-78.6397962127812,-492.806611966901,305.383153143036,187.423458823864
0.461621041331186,535.932776908139,461.936267030292,-73.9965098778464,-498.934521969216,304.964643392993,193.969878576223
0.463768115942029,524.281296714551,458.577472416438,-65.7038242981131,-491.429384565495,294.992560506332,196.436824059162
0.465915190552872,528.25299673183,462.528937369426,-65.7240593624044,-495.390967050628,296.988528047117,198.402439003511
0.468062265163714,536.151354255849,466.004536789863,-70.1468174659854,-501.077945522856,303.149085860917,197.928859661939
0.470209339774557,520.718231725488,461.492647666832,-59.2255840586565,-491.10543969616,289.971907892072,201.133531804088
0.4723564143854,524.610401931906,461.01783982551,-63.5925621063957,-492.814120878708,294.101482019151,198.712638859557
0.474503488996243,524.520850878403,460.966758158275,-63.554092720128,-492.743804518339,294.037471799266,198.706332719073
0.476650563607085,524.367130909965,453.586209282056,-70.7809216279094,-488.97667009601,297.574026268937,191.402643827073
0.478797638217928,531.991814454577,461.926903643565,-70.0649108110126,-496.959359049071,301.028362632795,195.930996416276
0.480944712828771,524.185289763046,462.34100043452,-61.844289328526,-493.263145098783,293.014789545786,200.248355552997
0.483091787439614,520.410719107517,462.355584450089,-58.0551346574274,-491.383151778803,289.232926882472,202.150224896331
0.485238862050456,520.629962692814,465.869620689625,-54.7603420031893,-493.24979169122,287.695152348002,205.554639343218
0.487385936661299,524.710498629916,457.598751825478,-67.1117468044383,-491.154625227697,295.911122717177,195.24350251052
0.489533011272142,520.866180488701,453.390753543257,-67.4754269454444,-487.128467015979,294.170803717073,192.957663298906
0.491680085882984,524.581751068563,465.067803043398,-59.5139480251647,-494.824777055981,292.047849546864,202.776927509117
0.493827160493827,524.295426617361,457.625981650107,-66.6694449672546,-490.960704133734,295.482435792308,195.478268341426
0.49597423510467,520.184473599234,461.905582367825,-58.278891231409,-491.045027983529,289.231682415321,201.813345568208
0.498121309715513,520.174849537436,462.142775022502,-58.0320745149348,-491.158812279969,289.103462026186,202.055350253783
0.500268384326355,520.410549607244,462.105434204013,-58.3051154032306,-491.257991905629,289.357832505237,201.900159400391
0.502415458937198,524.634829975481,461.854897681166,-62.7799322943153,-493.244863828324,293.707381134898,199.537482693425
0.504562533548041,524.863544913677,465.444600869182,-59.4189440444955,-495.154072891429,292.141244479086,203.012828412343
0.506709608158884,524.824952691593,461.394773400769,-63.4301792908248,-493.109863046181,294.127565991209,198.982297054972
0.508856682769726,520.65310517317,461.425262759963,-59.2278424132073,-491.039183966566,289.940473793189,201.098710173378
0.511003757380569,520.290899136079,465.481085265654,-54.8098138704248,-492.885992200866,287.550356503252,205.335635697615
0.513150831991412,523.960879370274,465.668697915897,-58.2921814543768,-494.814788643086,291.126530412325,203.68825823076
0.515297906602254,516.268265551052,458.007949174222,-58.2603163768296,-487.138107362637,287.264290963941,199.873816398696
0.517444981213097,520.473715034402,461.891141994079,-58.5825730403233,-491.182428514241,289.528144037363,201.654284476878
0.51959205582394,520.851742407201,465.700824120803,-55.1509182863978,-493.276283264002,288.001330346799,205.274952917203
0.521739130434783,528.807955751761,461.720972510882,-67.0869832408786,-495.264464131321,297.94746949632,197.316994635002
0.523886205045625,520.924872267845,461.642910294496,-59.2819619733492,-491.283891281171,290.103417120597,201.180474160573
0.526033279656468,524.456908075686,465.479213690462,-58.9776943852245,-494.968060883074,291.717301230455,203.250759652619
0.528180354267311,535.732672061447,461.577689999536,-74.1549820619109,-498.655181030491,304.943827061679,193.711353968813
0.530327428878154,523.916784975888,461.593585062392,-62.3231999134967,-492.75518501914,293.119992444692,199.635192574447
0.532474503488996,520.190680146118,457.77912872078,-62.4115514253381,-488.984904433449,291.301115785728,197.683788647721
0.534621578099839,524.471320174687,461.775918372845,-62.6954018018422,-493.123619273766,293.583360988265,199.540258285501
0.536768652710682,520.975134875127,469.647858203626,-51.3272766715011,-495.311496539376,286.151205773314,209.160290766062
0.538915727321524,524.97798394136,465.792980072552,-59.1850038688074,-495.385482006956,292.081493905084,203.303988101872
0.541062801932367,532.503209494115,465.709046033925,-66.7941634601897,-499.10612776402,299.648686477152,199.457441286868
0.54320987654321,524.280640491581,461.664014583836,-62.616625907745,-492.972327537709,293.448633199663,199.523694338046
0.545356951154053,523.909070241658,457.626309869122,-66.2827603725362,-490.76769005539,295.095915307097,195.671774748293
0.547504025764895,523.877980627321,457.571529498045,-66.3064511292762,-490.724755062683,295.092215878298,195.632539184384
0.549651100375738,516.454542880783,457.657878946873,-58.7966639339099,-487.056210913828,287.625603407347,199.430607506482
0.551798174986581,524.715813220287,465.607028988459,-59.1087842318274,-495.161421104373,291.912298726057,203.249122378316
0.553945249597424,525.031169907415,465.785703789713,-59.2454661177021,-495.408436848564,292.138318012559,203.270118836006
0.556092324208266,521.064990602864,465.860702807094,-55.2042877957704,-493.462846704979,288.134639199317,205.328207505662
0.558239398819109,520.635581516367,465.792099816636,-54.8434816997303,-493.213840666501,287.739531608048,205.474309058453
0.560386473429952,524.021288164929,465.613313907045,-58.4079742578834,-494.817301035987,291.214631211406,203.602669824581
0.562533548040794,519.899773291291,461.535845975562,-58.3639273157292,-490.717809633427,289.13185030351,201.585959329917
0.564680622651637,520.0845222892,457.551415758518,-62.5331065306822,-488.817969023859,291.308814409941,197.509154613918
0.56682769726248,524.463080019316,461.482775486626,-62.9803045326898,-492.972927752971,293.721692276003,199.251235476968
0.568974771873323,532.706481249994,465.532873923329,-67.1736073266645,-499.119677586662,299.940044288329,199.179633298332
0.571121846484165,521.206773308918,465.724965139824,-55.4818081690939,-493.465869224371,288.344290739006,205.121578485365
0.573268921095008,520.938170585492,469.724063989755,-51.2141065957367,-495.331117287623,286.076138590614,209.254978697009
0.575415995705851,524.309493690993,469.70720472796,-54.6022889630336,-497.008349209477,289.455891327013,207.552457882463
0.577563070316694,523.870189391566,465.688969548482,-58.1812198430839,-494.779579470024,291.025704617325,203.753874852699
0.579710144927536,523.775527920773,465.509817873776,-58.2657100469968,-494.642672897275,291.020618983885,203.62205391339
0.581857219538379,520.208032231392,465.376135540129,-54.8318966912631,-492.79208388576,287.519964461327,205.272119424433
0.584004294149222,520.743760529766,465.349182141734,-55.3945783880329,-493.04647133575,288.0691694589,204.97730187685
0.586151368760064,528.927354225901,461.561009201413,-67.3663450244879,-495.244181713657,298.146849625195,197.097332088463
0.588298443370907,517.315644227284,465.616418844112,-51.699225383172,-491.466031535698,284.507434805228,206.95859673047
0.59044551798175,524.712505824151,465.780550577352,-58.931955246799,-495.246528200751,291.822230535475,203.424297665276
0.592592592592593,524.164854424925,469.728704821859,-54.4361496030661,-496.946779623392,289.300502013996,207.646277609396
0.594739667203435,523.771978573302,469.654797950873,-54.1171806224299,-496.713388262088,288.944579597866,207.768808664221
0.596886741814278,519.902186172685,461.716084151701,-58.1861020209848,-490.809135162193,289.044144096835,201.764991065358
0.599033816425121,524.203118294031,461.542317308315,-62.6608009857156,-492.872717801173,293.431959639873,199.4407581613
0.601180891035964,520.88903253333,465.341425347771,-55.5476071855584,-493.115228940551,288.218319859444,204.896909081106
0.603327965646806,521.255996597846,457.624154702225,-63.63184189562,-489.440075650036,292.443919246733,196.996156403303
0.605475040257649,517.310458953316,461.663768346111,-55.6466906072051,-489.487113649714,286.478574780261,203.008538869453
0.607622114868492,524.610060284783,465.726958917802,-58.883101366981,-495.168509601293,291.746580825882,203.421928775411
0.609769189479334,520.134332971295,473.587952459714,-46.5463805115806,-496.861142715504,283.340356741438,213.520785974067
0.611916264090177,515.899809164137,465.783152807463,-50.1166563566744,-490.8414809858,283.008232760406,207.833248225394
0.61406333870102,516.021977165662,465.645360019497,-50.3766171461651,-490.833668592579,283.199297155913,207.634371436666
0.616210413311863,516.553112090378,461.615374340359,-54.9377377500192,-489.084243215368,285.745424920199,203.33881829517
0.618357487922705,524.9267720364,465.414809733888,-59.5119623025125,-495.170790885144,292.219367169456,202.951423715688
0.620504562533548,532.985966031612,461.54248860909,-71.4434774225219,-497.264227320351,302.214721727067,195.049505593284
0.622651637144391,525.013853710133,465.508768101659,-59.5050856084748,-495.261310905896,292.259469659304,203.001841246592
0.624798711755233,524.449560546485,461.737332000753,-62.7122285457324,-493.093446273619,293.580894546109,199.51255172751
0.626945786366076,523.890952107719,465.70823678254,-58.1827153251793,-494.799594445129,291.036833716449,203.76276072868
0.629092860976919,519.800403041964,469.618723749069,-50.1816792928955,-494.709563395517,284.99104116743,209.718522228087
0.631239935587762,520.061792270336,465.6952196263,-54.3665726440368,-492.878505948318,287.214182457187,205.664323491131
0.633387010198604,516.734874495125,469.492598573487,-47.2422759216383,-493.113736534306,281.988575208382,211.125161325924
0.635534084809447,517.232108229975,461.641210253469,-55.5908979765051,-489.436659241722,286.41150310324,203.025156138482
0.63768115942029,529.003521388362,469.354466333025,-59.6490550553365,-499.178993860693,294.326288221849,204.852705638844
0.639828234031133,524.796527673902,465.470512752414,-59.3260149214877,-495.133520213158,292.061271297695,203.072248915463
0.641975308641975,516.487203792135,465.519305867218,-50.9678979249168,-491.003254829677,283.727550858526,207.275703971151
0.644122383252818,523.852236958093,469.484746783514,-54.3674901745791,-496.668491870803,289.109863566336,207.558628304467
0.646269457863661,519.958721550453,469.565861239989,-50.3928603104644,-494.762291395221,285.175790930459,209.586500464762
0.648416532474503,512.561835166046,461.848634788257,-50.7132003777892,-487.205234977152,281.637517771918,205.567717205234
0.650563607085346,520.823017700614,469.603740470607,-51.2192772300064,-495.213379085611,286.02114746531,209.192231620301
0.652710681696189,521.112832589221,465.641221888346,-55.4716107008756,-493.377027238784,288.292221645048,205.084805593735
0.654857756307032,521.012336710689,465.516583681933,-55.4957530287566,-493.264460196311,288.254044869723,205.010415326588
0.657004830917874,520.610122395177,461.531534279447,-59.0785881157306,-491.070828337312,289.844355255454,201.226473081858
0.659151905528717,524.070403085126,465.398280105853,-58.6721229792726,-494.734341595489,291.371263032199,203.36307856329
0.66129898013956,523.908099706338,469.370036316414,-54.5380633899244,-496.639068011376,289.223081548131,207.415986463245
0.663446054750403,520.222936043806,473.40362106714,-46.8193149766662,-496.813278555473,283.521125510236,213.292153045237
0.665593129361245,524.518602521427,465.778608821492,-58.739993699935,-495.14860567146,291.629298110681,203.519307560779
0.667740203972088,524.857309144024,465.838382957652,-59.0189261863719,-495.347846050838,291.938117665198,203.40972838564
0.669887278582931,517.130082444513,469.654347827526,-47.4757346169866,-493.39221513602,282.30290853075,211.08930660527
0.672034353193773,520.737100675818,465.589582870161,-55.1475178056569,-493.16334177299,287.942309240737,205.221032532252
0.674181427804616,516.460398972514,461.499785559959,-54.9606134125551,-488.980092266236,285.710506192534,203.269586073702
0.676328502415459,520.095710589528,465.271869287248,-54.8238413022798,-492.683789938388,287.459775945904,205.224013992484
0.678475577026302,524.035712690208,469.213608865856,-54.8221038243518,-496.624660778032,289.42890825728,207.195752520752
0.680622651637144,520.468441890908,473.305052696879,-47.1633891940293,-496.886747293894,283.815915542469,213.070831751425
0.682769726247987,516.952775957659,469.680394197326,-47.2723817603334,-493.316585077492,282.112578858996,211.204006218496
0.68491680085883,521.014455007131,469.85162074887,-51.1628342582612,-495.433037878,286.088644632696,209.344393245304
0.687063875469673,520.883242305762,465.948583361355,-54.9346589444072,-493.415912833558,287.908950625085,205.506962208474
0.689210950080515,524.405000247322,469.60256155861,-54.8024386887114,-497.003780902966,289.603719468017,207.400061434949
0.691358024691358,524.052354405731,465.385553592106,-58.6668008136251,-494.718953998918,291.359577609678,203.35937638924
0.693505099302201,523.947210199483,469.010050486471,-54.9371597130112,-496.478630342977,289.442184956247,207.03644538673
0.695652173913043,520.289364917749,465.11339103776,-55.1759738799894,-492.701377977754,287.732669398869,204.968708578885
0.697799248523886,524.584375024848,469.26795374003,-55.316421284818,-496.926164382439,289.950398154833,206.975766227606
0.699946323134729,524.904863367173,469.695842198701,-55.2090211684724,-497.300352782937,290.056942267823,207.243410515114
0.702093397745572,521.028129035165,473.914407625723,-47.1137214094414,-497.471268330444,284.070925222303,213.400343108141
0.704240472356414,520.709540517349,470.059239811352,-50.6503007059973,-495.384390164351,285.679920611673,209.704469552677
0.706387546967257,520.273379556617,473.612324234849,-46.6610553217671,-496.942851895733,283.467217439192,213.475634456541
0.7085346215781,523.888253731342,469.212858103406,-54.6753956279362,-496.550555917374,289.281824679639,207.268731237735
0.710681696188943,520.089866373426,461.052621475822,-59.0372448976035,-490.571243924624,289.563555635515,201.007688289109
0.712828770799785,524.364912491757,464.92221674201,-59.4426957497468,-494.643564616884,291.903804120752,202.739760496132
0.714975845410628,520.934044873524,465.322087720964,-55.6119571525604,-493.128066297244,288.273001013042,204.855065284202
0.717122920021471,525.02864079615,469.78785701375,-55.2407837824001,-497.40824890495,290.134712289275,207.273536615675
0.719269994632313,517.089684077806,474.081402927752,-43.0082811500539,-495.585543502779,280.04898261393,215.536560888849
0.721417069243156,516.636188719588,470.176538084695,-46.4596506348925,-493.406363402142,281.54791967724,211.858443724901
0.723564143853999,523.95251282804,465.843611109718,-58.1089017183211,-494.898061968879,291.03070727318,203.867354695699
0.725711218464842,516.02985674118,472.992649095098,-43.0372076460823,-494.511252918139,279.533532193631,214.977720724508
0.727858293075684,516.280599539328,460.932827218239,-55.3477723210892,-488.606713378783,285.814185930208,202.792527448575
0.730005367686527,528.435691100811,468.748486053201,-59.6872050476099,-498.592088577006,294.061448074211,204.530640502796
0.73215244229737,517.2263933597,473.120825413028,-44.1055679466721,-495.173609386364,280.665980653186,214.507628733178
0.734299516908213,521.199757675189,473.755014250171,-47.4447434250179,-497.47738596268,284.322250550104,213.155135412577
0.736446591519055,524.759846963834,470.276710226049,-54.483136737785,-497.518278594942,289.62149185081,207.896786744132
0.738593666129898,520.333292941945,470.211938326952,-50.1213546149925,-495.272615634448,285.227323778469,210.04529185598
0.740740740740741,519.914794599503,473.588838266131,-46.3259563333714,-496.751816432817,283.120375466437,213.63144096638
0.742887815351583,519.896930533366,469.047936430776,-50.8489941025903,-494.472433482071,285.372962317978,209.099471164093
0.745034889962426,524.179089769227,464.748538441647,-59.4305513275798,-494.463814105437,291.804820548404,202.658993557034
0.747181964573269,524.743318380021,464.834381923392,-59.9089364566293,-494.788850151707,292.326127418325,202.462722733381
0.749329039184112,525.113201445704,469.260687859949,-55.8525135857545,-497.186944652826,290.482857515729,206.704087137097
0.751476113794954,521.172625647914,473.81634696068,-47.3562786872339,-497.494486304297,284.264452167574,213.230034136723
0.753623188405797,520.72336628998,470.331153048093,-50.3922132418868,-495.527259669037,285.557789765933,209.969469903103
0.75577026301664,520.16324197349,470.218022202874,-49.945219770616,-495.190632088182,285.054230872053,210.136401216129
0.757917337627483,515.960955639532,465.782428174173,-50.1785274653594,-490.871691906852,283.069741552446,207.801950354407
0.760064412238325,516.085240573603,468.998094926113,-47.0871456474907,-492.541667749858,281.586193110547,210.955474639311
0.762211486849168,524.335637952529,468.607057443373,-55.7285805091568,-496.471347697951,290.032109230843,206.439238467108
0.764358561460011,524.86753106986,464.842049693778,-60.0254813760819,-494.854790381819,292.446506222971,202.408284158848
0.766505636070853,517.35357258921,473.168288592822,-44.1852839963881,-495.260930591016,280.769428292799,214.491502298217
0.768652710681696,524.945459768147,473.840041980719,-51.1054177874283,-499.392750874433,288.025438777788,211.367312096645
0.770799785292539,512.81838381292,470.345160526394,-42.4732232865264,-491.581772169657,277.645803549723,213.935968619934
0.772946859903382,520.098137082242,474.106224834544,-45.9919122476974,-497.102180958393,283.04502466497,214.057156293423
0.775093934514224,519.897042889157,469.661847877605,-50.2351950115519,-494.779445383381,285.066118950354,209.713326433027
0.777241009125067,523.967667416918,465.106884605876,-58.8607828110425,-494.537276011397,291.41422511398,203.123050897417
0.77938808373591,520.540469183077,468.600904395649,-51.9395647874275,-494.570686789363,286.240016985252,208.330669804111
0.781535158346753,517.111076157428,460.958701488607,-56.1523746688208,-489.034888823017,286.631725413124,202.403163409893
0.783682232957595,521.180264155943,469.285536997235,-51.894727158708,-495.232900576589,286.537495657326,208.695404919264
0.785829307568438,517.108754616228,469.952227281858,-47.1565273343693,-493.530490949043,282.132640975299,211.397849973745
0.787976382179281,516.659657995473,470.330333094958,-46.3293249005158,-493.494995545216,281.494491447995,212.000504097221
0.790123456790123,520.09945210979,466.324235922958,-53.7752161868318,-493.211844016374,286.937334148311,206.274509868063
0.792270531400966,519.920126138012,465.7797861493,-54.1403399887119,-492.849956143656,287.030233063362,205.819723080294
0.794417606011809,520.109315163315,472.89295683631,-47.216358327005,-496.501135999812,283.66283674516,212.838299254652
0.796564680622652,520.558821540913,464.74124407836,-55.8175774625528,-492.650032809636,288.188199501733,204.461833307903
0.798711755233494,524.885870658442,460.969770309594,-63.9161003488485,-492.927820484018,294.400985503645,198.526834980373
0.800858829844337,517.299781140557,469.28372037394,-48.0160607666173,-493.291750757249,282.657920953587,210.633829803661
0.80300590445518,524.872988806009,469.94045289421,-54.9325359117991,-497.40672085011,289.902762358904,207.503958491206
0.805152979066023,520.536095290219,470.315115549756,-50.2209797404627,-495.425605419988,285.378537515341,210.047067904647
0.807300053676865,520.084556857254,470.192275261485,-49.892281595769,-495.13841605937,284.988419226512,210.149996832858
0.809447128287708,516.025715962872,473.529253482528,-42.4964624803438,-494.7774847227,279.261089221608,215.516395501092
0.811594202898551,520.113492808299,469.001315930831,-51.1121768774682,-494.557404369565,285.612834842884,208.944569526681
0.813741277509393,520.575212805898,472.520111111507,-48.0551016943908,-496.547661958702,284.315157250144,212.232504708558
0.815888352120236,513.256431832235,464.890370273913,-48.3660615583217,-489.073401053074,280.811246695278,208.262154357796
0.818035426731079,525.070524181528,473.208030848863,-51.862493332665,-499.139277515195,288.466508757096,210.672768758099
0.820182501341922,517.088193283274,473.842200959741,-43.2459923235322,-495.465197121507,280.167092803403,215.298104318105
0.822329575952764,516.618513857278,474.176257306961,-42.4422565503176,-495.39738558212,279.530385203798,215.867000378322
0.824476650563607,520.062451688493,474.018053776777,-46.0443979117159,-497.040252732635,283.053424800104,213.986827932531
0.82662372517445,516.031254449323,469.589995234782,-46.4412592145406,-492.810624842052,281.236256831932,211.574368010121
0.828770799785293,520.142430469953,468.98963325188,-51.1527972180729,-494.566031860916,285.647613844013,208.918418016904
0.830917874396135,516.729951775092,468.688133448473,-48.0418183266185,-492.709042611782,282.385885050855,210.323157560927
0.833064949006978,521.043360082684,468.852035876179,-52.1913242065054,-494.947697979431,286.617342144595,208.330355834837
0.835212023617821,513.416899882705,469.372392788353,-44.0445070943524,-491.394646335529,278.730703488529,212.663942847
0.837359098228664,524.826131722093,469.936625167178,-54.8895065549154,-497.381378444636,289.857819138504,207.523559306131
0.839506172839506,516.583032904692,477.976060357883,-38.6069725468091,-497.279546631288,277.595002725751,219.684543905537
0.841653247450349,516.153078250043,466.163699181799,-49.9893790682441,-491.158388715921,283.071228659143,208.087160056777
0.843800322061192,516.0347082867,473.441227159294,-42.5934811274061,-494.737967722997,279.314094707053,215.423873015944
0.845947396672034,520.176881616995,469.042376964571,-51.1345046524235,-494.609629290783,285.655693134709,208.953936156074
0.848094471282877,516.77245463202,464.912508870099,-51.859945761921,-490.842481751059,284.31620019697,206.526281554089
0.85024154589372,517.185164733555,468.948869822241,-48.2362949113139,-493.067017277898,282.710729822434,210.356287455463
0.852388620504563,521.169472350002,469.392441789211,-51.7770305607907,-495.280957069606,286.473251455396,208.80770561421
0.854535695115405,524.776693425263,469.855584213807,-54.9211092114566,-497.316138819535,289.84890131836,207.467237501175
0.856682769726248,516.527338702205,473.957041087023,-42.5702976151817,-495.242189894614,279.548818158693,215.693371735921
0.858829844337091,520.016983169675,473.821686123652,-46.1952970460238,-496.919334646664,283.10614010785,213.813194538814
0.860976918947933,523.832156905028,473.432207788721,-50.3999491163061,-498.632182346875,287.116053010667,211.516129336208
0.863123993558776,512.479525112821,465.267314019799,-47.2122110930223,-488.87341956631,279.845868102922,209.027551463388
0.865271068169619,524.604597526056,468.968227392733,-55.6363701333236,-496.786412459395,290.12048382969,206.665928629705
0.867418142780462,517.205767464245,472.960775553837,-44.2449919104085,-495.083271509041,280.725379687327,214.357891821714
0.869565217391304,521.120890723207,469.38263295778,-51.7382577654269,-495.251761840493,286.429574244317,208.822187596176
0.871712292002147,520.805687710708,465.820741522748,-54.9849461879597,-493.313214616728,287.895316949334,205.417897667394
0.87385936661299,520.337066563531,469.876446574276,-50.4606199892548,-495.106756568903,285.398843276393,209.707913292511
0.876006441223833,523.883264695066,473.706604649193,-50.1766600458725,-498.79493467213,287.029962370469,211.76497230166
0.878153515834675,512.239681838955,473.473145617581,-38.7665362213733,-492.856413728268,275.503109030164,217.353304698104
0.880300590445518,516.468027255301,473.197390081742,-43.2706371735586,-494.832708668522,279.86933221443,214.963376454092
0.882447665056361,516.936550907568,473.02764294464,-43.9089079629284,-494.982096926104,280.422729435248,214.559367490856
0.884594739667203,517.227160915992,469.16083103645,-48.0663298795423,-493.193995976221,282.646745397767,210.547250578454
0.886741814278046,524.918805532178,465.458649874605,-59.4601556575737,-495.188727703391,292.189480594876,202.999247108515
0.888888888888889,516.767395410449,469.578129282602,-47.189266127847,-493.172762346525,281.978330769148,211.194431577377
0.891035963499732,520.207961173558,469.737683245075,-50.4702779284834,-494.972822209316,285.339119551021,209.633702658296
0.893183038110574,519.996623405351,477.501425035817,-42.4951983695341,-498.749024220584,281.245910887443,217.503113333141
0.895330112721417,524.023610774078,481.232631296893,-42.7909794771855,-502.628121035486,283.407295125632,219.220825909854
0.89747718733226,524.419912284196,477.149071785795,-47.2708404984012,-500.784492034996,285.845376391299,214.939115643697
0.899624261943103,513.169938250307,477.025720238331,-36.1442180119768,-495.097829244319,274.657078131142,220.440751113177
0.901771336553945,517.209510865827,473.164861209726,-44.0446496561007,-495.187186037776,280.627080260964,214.560105776813
0.903918411164788,517.026379103674,469.419118012875,-47.6072610907991,-493.222748558274,282.316820097236,210.905928461038
0.906065485775631,516.611390369507,469.571039656711,-47.040350712796,-493.091215013109,281.825870541151,211.265344471957
0.908212560386473,516.224623430026,469.635618804441,-46.5890046255846,-492.930121117234,281.406814027805,211.523307089428
0.910359634997316,516.111996202406,469.579083805312,-46.5329123970942,-492.845540003859,281.32245429975,211.523085704109
0.912506709608159,520.228684005938,469.45604178988,-50.7726422160586,-494.842362897909,285.500663110998,209.341699786911
0.914653784219002,520.66268468684,469.363121031869,-51.2995636549707,-495.012902859355,285.981124170905,209.031778688449
0.916800858829844,521.026429023114,469.365792615108,-51.6606364080055,-495.196110819111,286.34353271556,208.852578103551
0.918947933440687,521.095706208785,465.572327375174,-55.5233788336102,-493.334016791979,288.309542521197,205.024474270782
0.92109500805153,520.828209621846,461.793647611108,-59.0345620107381,-491.310928616477,289.931385816292,201.379542800185
0.923242082662373,520.389366031217,461.828778393721,-58.5605876374951,-491.109072212469,289.474976834356,201.634095378113
0.925389157273215,523.929720921386,461.759661523082,-62.1700593983047,-492.844691222234,293.049890159846,199.794801062389
0.927536231884058,516.131169349448,465.511902359247,-50.6192669902007,-490.821535854348,283.375218169824,207.446317684523
0.929683306494901,516.433634256776,465.418417377673,-51.0152168791022,-490.926025817225,283.724425567939,207.201600249286
0.931830381105743,524.646360642761,465.446741212071,-59.1996194306903,-495.046550927416,291.922990036726,203.12356089069
0.933977455716586,517.188523820371,469.479254949074,-47.7092688712967,-493.333889384723,282.448896345834,210.884993038889
0.936124530327429,521.049250850071,469.652279972285,-51.3969708777858,-495.350765411178,286.223110863928,209.12765454725
0.938271604938272,516.836552228071,465.839652006546,-50.9969002215245,-491.338102117308,283.916726224798,207.421375892511
0.940418679549114,516.408024290429,461.863036911977,-54.5449873784515,-489.135530601203,285.47650583444,203.659024766763
0.942565754159957,520.028212636719,461.651792297168,-58.3764203395509,-490.840002466944,289.202316488135,201.637685978809
0.9447128287708,512.324796707349,461.45220899485,-50.8725877124996,-486.888502851099,281.598692209924,205.289810641175
0.946859903381642,516.551833538195,469.158774244126,-47.3930592940683,-492.85530389116,281.972446416131,210.882857475029
0.949006977992485,520.839715403275,465.410705599107,-55.429009804169,-493.125210501191,288.134362603722,204.990847897469
0.951154052603328,513.28718120675,469.557233224885,-43.7299479818651,-491.422207215817,278.508564594308,212.91364262151
0.953301127214171,524.829302622925,469.795939242246,-55.0333633806787,-497.312620932586,289.931333001802,207.381287930784
0.955448201825013,516.71454547804,462.091833205284,-54.6227122727561,-489.403189341662,285.668628875398,203.734560466264
0.957595276435856,527.989604747697,465.804682781974,-62.1849219657233,-496.897143764836,295.08726335671,201.809880408125
0.959742351046699,520.062818845213,465.484091379664,-54.5787274655491,-492.773455112439,287.320773155381,205.452681957058
0.961889425657542,516.333003436712,461.314847239243,-55.0181561974694,-488.823925337977,285.675579817091,203.148345520887
0.964036500268384,520.585379489011,465.131169454364,-55.454210034647,-492.858274471688,288.019794761829,204.838479709859
0.966183574879227,524.804287766631,465.346377394081,-59.4579103725501,-495.075332580356,292.131099069591,202.944233510765
0.96833064949007,517.121276033365,473.490827487289,-43.6304485460761,-495.306051760327,280.37586228972,214.930189470606
0.970477724100912,513.028875321763,469.924996527781,-43.1038787939821,-491.476935924772,278.066377057873,213.410558866899
0.972624798711755,528.197796421422,466.10263541324,-62.0951610081815,-497.150215917331,295.146478714802,202.003737202529
0.974771873322598,520.144710253965,465.861079535891,-54.2836307180737,-493.002894894928,287.214170486019,205.788724408909
0.976918947933441,516.237432665332,465.445476840516,-50.791955824816,-490.841454752924,283.514694245074,207.32676050785
0.979066022544283,516.502270516049,465.093580012234,-51.4086905038146,-490.797925264142,283.955480509932,206.84244475421
0.981213097155126,520.760911306179,465.020836708478,-55.7400745977016,-492.890874007329,288.25049295194,204.640381055388
0.983360171765969,513.229856197357,469.168102527927,-44.0617536694299,-491.198979362642,278.645804933393,212.553174429249
0.985507246376812,513.168898938744,465.746879642628,-47.4220192961158,-489.457889290686,280.29545911743,209.162430173256
0.987654320987654,516.733439554665,470.020377733526,-46.7130618211393,-493.376908644095,281.723250687902,211.653657956193
0.989801395598497,520.240767466634,470.098643981735,-50.1421234848994,-495.169705724184,285.191445475767,209.978260248418
0.99194847020934,523.933755122028,469.797977110239,-54.1357780117887,-496.865866116133,289.034766566908,207.831099549225
0.994095544820182,516.30319851708,461.524044378834,-54.7791541382455,-488.913621447957,285.541176327663,203.372445120294
0.996242619431025,516.697287136534,461.115663771657,-55.5816233648762,-488.906475454096,286.139455250705,202.767020203391
0.998389694041868,520.981823855776,472.699622388079,-48.2822014676977,-496.840723121928,284.632012661737,212.208710460191
1.00053676865271,517.230672379925,465.254684142025,-51.9759882379001,-491.242678260975,284.603330308913,206.639347952063
1.00268384326355,516.985872117788,469.663476316578,-47.3223958012102,-493.324674217183,282.154133959499,211.170540257684
1.0048309178744,512.629812701619,473.972366891035,-38.6574458105839,-493.301089796327,275.643629256101,217.657460540226
1.00697799248524,516.115986393931,474.037333298681,-42.0786530952498,-495.076659846306,279.09731974459,215.979340101716
1.00912506709608,519.942705751113,469.814206319284,-50.1284994318289,-494.878456035198,285.035602591471,209.842853443728
1.01127214170692,516.397394292099,469.269247099623,-47.1281471924754,-492.833320695861,281.762770742287,211.070549953574
1.01341921631777,520.811516736925,468.842099032378,-51.9694177045469,-494.826807884652,286.390467220736,208.436340663916
1.01556629092861,521.198756022836,472.665504350264,-48.5332516725716,-496.93213018655,284.866003847704,212.066126338846
1.01771336553945,521.17972202645,473.009119797451,-48.1706022289986,-497.09442091195,284.675162127724,212.419258784226
1.0198604401503,520.748835627778,473.557560176642,-47.1912754511363,-497.15319790221,283.970055539457,213.183142362753
1.02200751476114,516.289126091656,477.87356955179,-38.4155565398652,-497.081347821723,277.35234131576,219.729006505963
1.02415458937198,512.058357227199,474.054080842002,-38.0042763851965,-493.056219034601,275.031316806198,218.024902228403
1.02630166398282,516.055826020071,473.709611471462,-42.3462145486092,-494.882718745766,279.20102028434,215.681698461426
1.02844873859367,516.56603063815,473.157997380266,-43.4080332578843,-494.862014009208,279.987031948017,214.874982061191
1.03059581320451,521.026854356521,468.838479197283,-52.1883751592377,-494.932666776902,286.607614757879,208.325052019023
1.03274288781535,521.2997188903,476.534367954604,-44.7653509356957,-498.917043422452,283.032534912998,215.884508509454
1.03488996242619,517.209922992779,472.988172741189,-44.2217502515896,-495.099047866984,280.715836622184,214.3832112448
1.03703703703704,516.659056450568,477.418242208764,-39.2408142418043,-497.038649329666,277.949935346186,219.08871398348
1.03918411164788,512.236835130539,477.861984395546,-34.3748507349933,-495.049409763042,273.305842932766,221.743566830276
1.04133118625872,515.932294701746,477.944852203206,-37.9874424985394,-496.938573452476,276.959868600143,219.978704852334
1.04347826086957,520.088684780103,473.739426101988,-46.3492586781143,-496.914055441045,283.218971729108,213.695083711937
1.04562533548041,516.759452486587,477.079538071027,-39.6799144155598,-496.919495278807,278.219683451073,218.699811827734
1.04777241009125,517.246577766261,472.745060893821,-44.50151687244,-494.995819330041,280.87404731935,214.12177201069
1.04991948470209,521.247740268193,476.524243714754,-44.7234965534387,-498.885991991473,282.985618410816,215.900373580658
1.05206655931294,513.164446122029,480.708460275422,-32.4559858466073,-496.936453198726,272.810215984318,224.126237214407
1.05421363392378,516.500285533517,481.240495775637,-35.2597897578799,-498.870390654577,275.880037645699,222.990353008879
1.05636070853462,523.827883142466,481.704396876711,-42.1234862657554,-502.766140009588,282.975684704111,219.790455305478
1.05850778314546,512.11930021067,477.961683687992,-34.157616522678,-495.040491949331,273.138458366674,221.902033582657
1.06065485775631,516.359669549571,473.820578806634,-42.5390907429373,-495.090124178103,279.449380146254,215.640744031848
1.06280193236715,520.791246170746,481.065470175697,-39.725775995049,-500.928358173222,280.258511082898,220.669847090324
1.06494900697799,521.176110036166,472.798055034344,-48.3780550018222,-496.987082535255,284.777082518994,212.210000016261
1.06709608158884,521.155409907994,476.477608947189,-44.677800960805,-498.816509427592,282.9166054344,215.899903993192
1.06924315619968,516.871762540448,468.937269986102,-47.9344925543452,-492.904516263275,282.403127547396,210.501388715879
1.07139023081052,512.476348367116,477.240197892031,-35.236150475085,-494.858273129574,273.856249421101,221.002023708473
1.07353730542136,523.820846956367,477.788066609892,-46.0327803464755,-500.804456783129,284.926813651421,215.877643131708
1.07568438003221,527.777230376388,474.148014731892,-53.6292156444967,-500.96262255414,290.703223010443,210.259399543697
1.07783145464305,528.163615567757,473.94396713768,-54.2196484300772,-501.053791352719,291.191631998917,209.862159353801
1.07997852925389,516.985276281888,473.399686796463,-43.5855894854245,-495.192481539175,280.285432883656,214.907048655519
1.08212560386473,517.270041299443,472.814965969874,-44.455075329569,-495.042503634659,280.862558314506,214.179945320153
1.08427267847558,517.202526791779,472.522688385718,-44.6798384060604,-494.862607588749,280.94118259892,213.921424989829
1.08641975308642,516.812293451795,472.700358719562,-44.1119347322336,-494.756326085678,280.462114092014,214.294211993664
1.08856682769726,520.203629961031,473.262130500552,-46.9414994604784,-496.732880230791,283.572564710754,213.160315520037
1.09071390230811,519.900984578391,477.777147716269,-42.1238368621214,-498.83906614733,281.012410720256,217.826655427074
1.09286097691895,512.217385520341,478.11301614984,-34.1043693705017,-495.165200835091,273.160877445422,222.004323389669
1.09500805152979,512.657247735676,474.06767320181,-38.5895745338651,-493.362460468743,275.62341113477,217.739049333973
1.09715512614063,517.078328689801,477.370970905697,-39.7073577841042,-497.224649797749,278.392843236953,218.831806560796
1.09930220075148,517.374371769606,476.696281317199,-40.6780904524067,-497.035326543403,279.026231111006,218.009095432396
1.10144927536232,524.990777776763,468.55338199874,-56.4373957780232,-496.772079887752,290.714086777393,206.057993110358
1.10359634997316,516.713230034534,472.590607349431,-44.1226226851025,-494.651918691982,280.417926359818,214.233992332164
1.105743424584,516.162390765106,473.200014346137,-42.9623764189699,-494.681202555621,279.562383592038,215.118818963583
1.10789049919485,512.049686539148,481.673164628091,-30.3765219110576,-496.86142558362,271.213104225103,225.648321358517
1.11003757380569,523.932307806394,478.179912205061,-45.7523956013329,-501.056110005728,284.842351703863,216.213758301864
1.11218464841653,520.59384720642,481.902098321742,-38.6917488846788,-501.247972764081,279.64279804555,221.605174718531
1.11433172302738,524.983936571768,477.402044557551,-47.5818920142172,-501.19299056466,286.282914292993,214.910076271667
1.11647879763822,517.380171838966,468.927481308271,-48.4526905306957,-493.153826573619,282.916431184831,210.237395388788
1.11862587224906,517.105713061884,472.426068593815,-44.6796444680682,-494.765890827849,280.892678764976,213.873212062874
1.1207729468599,512.690904941141,472.581905456695,-40.1089994844465,-492.636405198918,276.399952212794,216.236452986124
1.12292002147075,516.107174451349,473.175972241994,-42.9312022093553,-494.641573346671,279.519188330352,215.122385016319
1.12506709608159,515.980945545035,473.862996426244,-42.1179491187908,-494.92197098564,279.049447331913,215.872523653727
1.12721417069243,512.381181605887,474.25180492497,-38.1293766809175,-493.316493265428,275.255279143402,218.061214122026
1.12936124530327,512.901909732207,478.006548822372,-34.895360909835,-495.45422927729,273.898635321021,221.555593956269
1.13150831991412,517.226541222985,473.558149147229,-43.6683920757559,-495.392345185107,280.44746664937,214.944878535737
1.13365539452496,517.320742428996,472.884190703099,-44.4365517258968,-495.102466566047,280.878647077446,214.223819488601
1.1358024691358,513.1360807299,472.487923424456,-40.6481573054448,-492.812002077178,276.892119017673,215.919883059505
1.13794954374665,516.514248980479,472.588400707453,-43.9258482730262,-494.551324843966,280.220048626753,214.331276217213
1.14009661835749,516.113658960875,465.361453997439,-50.7522049634359,-490.737556479157,283.432931962155,207.304624517002
1.14224369296833,519.932063851653,477.674358043064,-42.2577058085886,-498.803210947358,281.094884830121,217.708326117238
1.14439076757917,524.112164288493,478.077464558608,-46.0346997298851,-501.09481442355,285.073432009189,216.021382414361
1.14653784219002,520.704235631116,474.108033091845,-46.5962025392708,-497.40613436148,283.650219085193,213.755915276287
1.14868491680086,521.080152898504,477.478064857661,-43.6020880408426,-499.279108878083,282.341120469673,216.937988408409
1.1508319914117,513.384749603098,476.838401991838,-36.5463476112606,-495.111575797468,274.96554860718,220.146027190289
1.15297906602254,524.758212008419,472.553740899052,-52.204471109367,-498.655976453736,288.481341558893,210.174634894843
1.15512614063339,516.52876138241,472.616159487171,-43.9126018952389,-494.57246043479,280.220681638824,214.351778795966
1.15727321524423,516.142992691823,469.219591616767,-46.9234010750555,-492.681292154295,281.533196883439,211.148095270856
1.15942028985507,516.063126847797,477.606800250714,-38.4563265970826,-496.834963549255,277.25972672244,219.575236826816
1.16156736446592,516.332295614982,474.121164429209,-42.2111311857734,-495.226730022096,279.271713400378,215.955016621718
1.16371443907676,512.91179068564,485.713302754112,-27.1984879315279,-499.312546719876,270.055139308584,229.257407411292
1.1658615136876,521.061535536306,481.362269823992,-39.6992657123142,-501.211902680149,280.38040062431,220.831502055839
1.16800858829844,513.379876945159,480.763875443952,-32.6160015012074,-497.071876194555,272.997939223183,224.073936971372
1.17015566290929,517.000872459197,480.391018951798,-36.609853507399,-498.695945705498,276.805362983298,221.8905827222
1.17230273752013,516.548992804985,472.692608487424,-43.8563843175609,-494.620800646205,280.202688561273,214.418112084932
1.17444981213097,516.16560683756,473.151429032383,-43.0141778051769,-494.658517934971,279.589892321368,215.068625613603
1.17659688674181,516.07131492818,473.71991051407,-42.3514044141095,-494.895612721125,279.211359671145,215.68425304998
1.17874396135266,512.439530843278,474.053938879241,-38.3855919640374,-493.24673486126,275.412561403658,217.834173457602
1.1808910359635,516.773436120508,477.840971189422,-38.932464931086,-497.307203654964,277.852950525797,219.454253129168
1.18303811057434,513.280767094642,481.263233756784,-32.0175333378585,-497.272000425713,272.64915021625,224.622850209463
1.18518518518519,513.384437927531,472.962655515501,-40.4217824120298,-493.173546721516,276.90311016978,216.270436551736
1.18733225979603,513.14262716676,472.686917553513,-40.4557096132478,-492.914772360136,276.799168390004,216.115603970132
1.18947933440687,516.571496508605,472.832127000886,-43.7393695077195,-494.701811754745,280.155433008162,214.546378746583
1.19162640901771,512.281826778218,473.288934025337,-38.9928927528808,-492.785380401778,275.637359765549,217.148020636228
1.19377348362856,516.04110020006,473.763178677517,-42.2779215225427,-494.902139438788,279.159510861301,215.742628577487
1.1959205582394,512.397360790914,477.845646447963,-34.5517143429515,-495.121503619439,273.474537566933,221.646966052506
1.19806763285024,516.748841385616,481.5418325271,-35.2070088585162,-499.145336956358,275.977925122066,223.167411834292
1.20021470746108,513.298339418471,477.222699525243,-36.0756398932279,-495.260519471857,274.68698965585,220.573529816008
1.20236178207193,517.323126502247,472.945842736134,-44.3772837661131,-495.134484619191,280.85020513418,214.28427948501
1.20450885668277,517.08381448325,472.840937832072,-44.2428766511786,-494.962376157661,280.663345567214,214.299030590447
1.20665593129361,516.591323779569,473.065490653918,-43.5258331256513,-494.828407216744,280.05857845261,214.769828764133
1.20880300590446,523.889020284937,473.445797929146,-50.4432223557915,-498.667409107042,287.166121320364,211.501287786677
1.2109500805153,515.957177791294,469.846837930338,-46.1103398609555,-492.902007860816,281.033758826125,211.868249034691
1.21309715512614,512.328917880584,473.749349343683,-38.5795685369015,-493.039133612134,275.454243208743,217.584890403391
1.21524422973698,516.758185209999,477.398925144844,-39.3592600651556,-497.078555177421,278.058722637577,219.019832539844
1.21739130434783,517.273055946496,477.083575401886,-40.18948054461,-497.178315674191,278.731268245553,218.447047428638
1.21953837895867,525.196831352904,480.78045567693,-44.4163756759743,-502.988643514917,284.806603514439,218.182040000478
1.22168545356951,513.24271193275,476.954315831356,-36.2883961013946,-495.098513882053,274.765554017072,220.332959864981
1.22383252818035,512.653992735368,477.198393480314,-35.4555992550534,-494.926193107841,274.054795995211,220.871397112631
1.2259796027912,516.017339471994,473.572024078116,-42.4453153938782,-494.794681775055,279.231327432936,215.563354342119
1.22812667740204,511.99199348582,477.544671530158,-34.4473219556621,-494.768332507989,273.219657720741,221.548674787248
1.23027375201288,512.31826935254,473.530093509208,-38.7881758433316,-492.924181430874,275.553222597936,217.370958832938
1.23242082662373,516.809992425143,477.159596912403,-39.6503955127406,-496.984794668773,278.230193968942,218.754600699831
1.23456790123457,517.340918820159,476.968341486894,-40.3725773332644,-497.154630153526,278.856748076712,218.297882076815
1.23671497584541,517.477608329857,476.973945693345,-40.5036626365119,-497.225777011601,278.990635483184,218.235141528416
1.23886205045625,521.016686342878,481.052353063775,-39.9643332791028,-501.034519703326,280.49050981099,220.544009892336
1.2410091250671,516.507929957765,477.414275715249,-39.0936542425157,-496.961102836507,277.80079210014,219.160310736367
1.24315619967794,519.849409449837,481.414943152356,-38.4344662974813,-500.632176301097,279.141937873659,221.490238427437
1.24530327428878,511.953605326927,473.5593882976,-38.3942170293276,-492.756496812263,275.173911178127,217.582585634136
1.24745034889962,508.441166455966,477.207641886168,-31.2335245697973,-492.824404171067,269.837345512881,222.987058658186
1.24959742351047,512.981985323871,476.991585978238,-35.9903993456328,-494.986785651055,274.486192334752,220.500593316303
1.25174449812131,513.527943605573,480.821950943625,-32.7059926619474,-497.174947274599,273.11696813376,224.057979140839
1.25389157273215,513.625022892879,480.970693054356,-32.6543298385226,-497.297857973618,273.139676365701,224.158181607917
1.256038647343,513.210047753881,481.223769753153,-31.9862780007275,-497.216908753517,272.598162877304,224.618745876213
1.25818572195384,516.410458083667,477.534112991765,-38.8763450919021,-496.972285537716,277.643401587785,219.328883949931
1.26033279656468,511.989788124105,473.65854846028,-38.3312396638248,-492.824168292192,275.160513893965,217.663654398228
1.26247987117552,511.929119345427,473.470769397933,-38.4583499474943,-492.69994437168,275.193734646461,217.506209725219
1.26462694578637,512.392815666764,473.200598305982,-39.1922173607817,-492.796706986373,275.792516513773,217.0041904726
1.26677402039721,524.744654288325,476.896413020965,-47.8482412673604,-500.820533654645,286.296447777843,214.524085876802
1.26892109500805,517.493194587795,480.793190174865,-36.7000044129298,-499.14319238133,277.096599500362,222.046592880968
1.27106816961889,529.151984539101,473.247334596008,-55.9046499430927,-501.199659567554,292.528317241097,208.671342326458
1.27321524422974,528.651617171911,473.554554236413,-55.0970629354976,-501.103085704162,291.874340053704,209.228745650458
1.27536231884058,516.302185731612,473.762852439845,-42.5393332917679,-495.032519085728,279.42075951169,215.611759574038
1.27750939345142,519.720598950723,469.845963711215,-49.8746352395076,-494.783281330969,284.797617095115,209.985664235854
1.27965646806227,515.889332535282,473.45171980302,-42.4376127322619,-494.670526169151,279.163472633772,215.507053535379
1.28180354267311,512.529247723283,469.20657392901,-43.3226737942731,-490.867910826146,277.925960758778,212.941950067368
1.28395061728395,517.076629665693,476.746172451717,-40.3304572139754,-496.911401058705,278.703543439834,218.207857618871
1.28609769189479,521.351361464226,480.689835867211,-40.661525597015,-501.020598665719,281.006443530621,220.014155135098
1.28824476650564,513.47455259263,477.13962336725,-36.3349292253801,-495.30708797994,274.904740909005,220.402347070935
1.29039184111648,512.952201235504,481.445120455226,-31.5070807802772,-497.198660845365,272.22964100789,224.969019837475
1.29253891572732,516.233589147164,477.821278696078,-38.4123104510854,-497.027433921621,277.322949799125,219.704484122496
1.29468599033816,515.909932767383,477.740659832176,-38.1692729352073,-496.825296299779,277.039602851295,219.785693448484
1.29683306494901,516.043262735693,481.222731222043,-34.8205315136492,-498.632996978868,275.431897124671,223.201099854197
1.29898013955985,512.659653845064,472.960967922101,-39.6986859229628,-492.810310883583,276.179169884014,216.631140999569
1.30112721417069,513.221885173258,476.557871285822,-36.6640138874363,-494.88987822954,274.942949530347,219.946928699193
1.30327428878154,509.633649264224,480.557129819931,-29.0765194442931,-495.095389542077,269.355084354258,225.740305187819
1.30542136339238,517.252952057469,481.024642790322,-36.2283092671475,-499.138797423896,276.740630662308,222.398166761587
1.30756843800322,520.633064100409,473.816765505187,-46.8162985952218,-497.224914802798,283.724681347815,213.500233454983
1.30971551261406,520.072483155732,478.014001831967,-42.058481323765,-499.04324249385,281.065482239749,217.977760254101
1.31186258722491,512.037481207815,477.871014167537,-34.1664670402781,-494.954247687676,273.101974124047,221.85227356363
1.31400966183575,512.235244756212,477.321110176785,-34.9141345794265,-494.778177466498,273.574689667819,221.203487798679
1.31615673644659,520.540861116817,476.678793766811,-43.8620673500059,-498.609827441814,282.201464233411,216.408363208403
1.31830381105743,517.196979146887,468.581244715878,-48.6157344310097,-492.889111931382,282.906356788949,209.982755142434
1.32045088566828,521.281484554157,476.555690954973,-44.7257935991842,-498.918587754565,283.003639076671,215.914948677894
1.32259796027912,517.147089100906,481.081879845218,-36.0652092556878,-499.114484473062,276.606149178297,222.508335294765
1.32474503488996,512.726496532279,477.892622908464,-34.833873623815,-495.309559720372,273.780185078047,221.529374642325
1.32689210950081,508.361452019,482.092639781217,-26.2688122377832,-495.227045900109,267.315132128392,227.911913771717
1.32903918411165,512.10576043358,481.821192936807,-30.2845674967729,-496.963476685194,271.195163965177,225.768312720017
1.33118625872249,512.373980366546,477.223183194698,-35.1507971718472,-494.798581780622,273.762388769196,221.036193011426
1.33333333333333,512.866956971208,476.494029376515,-36.3729275946934,-494.680493173862,274.619942282951,220.060550890911
1.33548040794418,513.285059734085,472.322199428833,-40.9628603052526,-492.803629581459,277.123960019669,215.67966956179
1.33762748255502,513.390502720849,472.666505096086,-40.7239976247633,-493.028503908467,277.057250172806,215.971253735661
1.33977455716586,517.021198895026,481.207901316314,-35.8132975787119,-499.11455010567,276.417248236869,222.697301868801
1.3419216317767,520.455270529481,481.937207374858,-38.5180631546235,-501.196238952169,279.486666842052,221.709572110117
1.34406870638755,516.197431644156,486.048615657044,-30.1488159871117,-501.1230236506,273.173123815634,227.949899834966
1.34621578099839,523.875697330975,477.872458651908,-46.0032386790671,-500.874077991441,284.939468005021,215.93460998642
1.34836285560923,512.470818660377,477.078711602638,-35.3921070577382,-494.774765131507,273.931462859057,220.84330227245
1.35050993022008,516.776200479675,476.388384201438,-40.387816278237,-496.582292340557,278.582008378956,218.000283961601
1.35265700483092,513.244282271044,472.335517347116,-40.9087649239278,-492.78989980908,277.076523597486,215.713376211594
1.35480407944176,521.074990371109,472.785805552797,-48.2891848183124,-496.930397961953,284.682087594711,212.248310367242
1.3569511540526,513.056508775067,481.338169464925,-31.7183393101414,-497.197339119996,272.387424042604,224.809915077392
1.35909822866345,512.648834414745,478.093391666729,-34.5554427480156,-495.371113040737,273.60213858138,221.768974459357
1.36124530327429,516.218638764222,478.202246883161,-38.016391881061,-497.210442823692,277.117515322642,220.09292750105
1.36339237788513,512.29616160663,481.612158368212,-30.6840032384184,-496.954159987421,271.490082422524,225.464077564897
1.36553945249597,512.5436762565,476.970612663523,-35.5730635929768,-494.757144460012,274.058369924739,220.698774535273
1.36768652710682,509.044449471792,476.389964632388,-32.6544848394041,-492.71720705209,270.849467155598,221.867739896492
1.36983360171766,524.855766801944,476.334572761899,-48.5211940400448,-500.595169781921,286.688480420994,213.906689360927
1.3719806763285,517.099459597881,476.823764095198,-40.2756955026831,-496.96161184654,278.687577550282,218.274034296257
1.37412775093935,512.970325099725,481.429127659854,-31.5411974398706,-497.199726379789,272.255761269798,224.943965109992
1.37627482555019,512.643939666831,478.06208141334,-34.5818582534913,-495.353010540085,273.612898960161,221.740111579924
1.37842190016103,524.073208219168,478.071162480484,-46.0020457386839,-501.072185349826,285.037626978926,216.0345583709
1.38056897477187,516.300940415647,477.585696391845,-38.715244023802,-496.943318403746,277.508092219725,219.435226184022
1.38271604938272,524.252491928065,473.027246013576,-51.2252459144896,-498.63986897082,287.738868921277,210.901000049543
1.38486312399356,516.754313906555,476.449070136386,-40.3052437701687,-496.60169202147,278.529778838362,218.071913183109
1.3870101986044,509.200399245461,476.464595109866,-32.7358041355945,-492.832497177663,270.968101690528,221.864395487136
1.38915727321524,509.260982048637,476.929863735078,-32.3311183135592,-493.095422891857,270.796050181098,222.299372710759
1.39130434782609,516.900187957142,477.560771813853,-39.339416143289,-497.230479885498,278.119802050216,219.110677835282
1.39345142243693,512.756551588207,477.986246916,-34.770304672207,-495.371399252104,273.763428130207,221.607971121896
1.39559849704777,512.494691728659,481.845471000316,-30.6492207283431,-497.170081364487,271.571956228501,225.598125135986
1.39774557165862,512.37970745304,477.516135565251,-34.8635718877898,-494.947921509145,273.621639670415,221.32628183873
1.39989264626946,512.484305635792,476.920754919382,-35.5635507164102,-494.702530277587,274.023928176101,220.678602101486
1.4020397208803,508.883494501044,476.52905016851,-32.354444332534,-492.706272334777,270.618969416789,222.087302917988
1.40418679549114,516.957819779598,476.560077611193,-40.3977421684052,-496.758948695396,278.677780974002,218.081167721394
1.40633387010199,517.113095339706,476.981476866903,-40.131618472803,-497.047286103304,278.622356906254,218.42492919705
1.40848094471283,524.774629090756,477.537723231968,-47.2369058587887,-501.156176161362,286.005767474773,215.15040868659
1.41062801932367,524.458245832284,477.904736284542,-46.5535095477418,-501.181491058413,285.505877690013,215.6756133684
1.41277509393451,516.350133371927,477.877494003083,-38.4726393688437,-497.113813687505,277.411386370385,219.70242731712
1.41492216854536,516.196658156117,473.60280444351,-42.5938537126073,-494.899731299813,279.395255934362,215.504475365451
1.4170692431562,512.449793951826,480.84297651169,-31.606817440136,-496.646385231758,272.028305695981,224.618079535777
1.41921631776704,512.792333078648,472.720502688786,-40.0718303898618,-492.756417883717,276.432081734255,216.324336149462
1.42136339237789,509.249832126847,476.615113717847,-32.6347184090003,-492.932472922347,270.942275267924,221.990197654423
1.42351046698873,521.018832875706,473.103927619665,-47.9149052560404,-497.061380247686,284.466869065873,212.594511181813
1.42565754159957,513.07617586383,477.49763506855,-35.5785407952804,-495.28690546619,274.327358329555,220.959547136635
1.42780461621041,516.597359770886,481.731235515278,-34.8661242556081,-499.164297643082,275.731742013247,223.432555629835
1.42995169082126,512.403831943418,481.718138145463,-30.6856937979547,-497.06098504444,271.544762870686,225.516222173754
1.4320987654321,508.458623743481,481.357304648928,-27.1013190945528,-494.907964196204,267.779971419017,227.127992777188
1.43424584004294,516.441219218328,480.868194426705,-35.5730247916225,-498.654706822517,276.007122004975,222.647584817541
1.43639291465378,512.904267189281,476.657597373096,-36.2466698161855,-494.780932281189,274.575468502733,220.205463778455
1.43853998926463,513.157465495157,476.678995924223,-36.4784695709341,-494.91823070969,274.817967533046,220.100263176645
1.44068706387547,517.050743095778,473.146324537705,-43.9044185580724,-495.098533816742,280.477580826925,214.620952989816
1.44283413848631,516.823157209941,477.49116045315,-39.3319967567902,-497.157158831546,278.077576983365,219.07958184818
1.44498121309716,516.511809473644,477.787064423238,-38.7247450504061,-497.149436948441,277.618277262025,219.531159686416
1.447128287708,512.436577943502,477.745869662583,-34.6907082809194,-495.091223803042,273.563643112211,221.527580690832
1.44927536231884,516.357369204168,477.405530650307,-38.9518385538619,-496.881449927237,277.654603879015,219.226846048222
1.45142243692968,516.580088734667,473.098797739259,-43.4812909954081,-494.839443236963,280.030689865038,214.808753371925
1.45356951154053,516.829322043377,472.847007234964,-43.982314808413,-494.83816463917,280.405818425895,214.432346213275
1.45571658615137,509.190419937315,476.786774446651,-32.4036454906643,-492.988597191983,270.79703271399,222.191564477993
1.45786366076221,513.019632934345,473.217768468813,-39.801864465532,-493.118700701579,276.410748699938,216.70795200164
1.46001073537305,516.717824018056,469.714872735041,-47.0029512830149,-493.216348376549,281.860387650536,211.355960726013
1.4621578099839,512.638516882113,473.824092202549,-38.8144246795643,-493.231304542331,275.726470780839,217.504833761492
1.46430488459474,508.669128212966,477.648680853571,-31.020447359395,-493.158904533268,269.84478778618,223.314116747088
1.46645195920558,512.614593111712,477.343984379573,-35.2706087321391,-494.979288745642,273.942600921925,221.036687823717
1.46859903381643,512.762150357328,476.982160696777,-35.7799896605509,-494.872155527052,274.271070008939,220.601085518113
1.47074610842727,509.007812083579,472.904868642641,-36.1029434409381,-490.95634036311,272.555377762259,218.400962600851
1.47289318303811,509.050290990954,472.994503601535,-36.0557873894188,-491.022397296245,272.553039190186,218.469358106058
1.47504025764895,505.126145024528,473.304834373539,-31.8213106509892,-489.215489699034,268.473727837759,220.741761861275
1.4771873322598,512.810742658423,469.755153879775,-43.055588778648,-491.282948269099,277.933165718535,213.349782550563
1.47933440687064,520.49855112922,473.785997114411,-46.7125540148085,-497.142274121815,283.605552572014,213.536721549801
1.48148148148148,504.928611283072,473.658711599743,-31.2698996833283,-489.293661441407,268.0992554832,221.194405958207
1.48362855609232,501.067940198685,469.459731853695,-31.6082083449904,-485.26383602619,266.338074271838,218.925761754352
1.48577563070317,497.250779122071,465.282310922189,-31.9684681998825,-481.26654502213,264.609623660977,216.656921361153
1.48792270531401,501.183132179908,465.197758332792,-35.9853738471163,-483.19044525635,268.584253013512,214.606192242838
1.49006977992485,501.173538911113,469.245702573946,-31.9278363371666,-485.20962074253,266.55068762414,218.65893311839
1.4922168545357,501.118280786303,465.657686148077,-35.4605946382259,-483.38798346719,268.289437712265,215.098545754926
1.49436392914654,501.078254342621,469.772109872275,-31.3061444703464,-485.425182107448,266.192199406484,219.232982700964
1.49651100375738,501.103282932502,465.920018868464,-35.1832640640379,-483.511650900483,268.14327349827,215.368377402213
1.49865807836822,497.303787713322,465.746071748854,-31.5577159644682,-481.524929731088,264.430751838895,217.094177892193
1.50080515297907,493.498251434132,465.491506292999,-28.0067451411325,-479.494878863565,260.752498287632,218.742380575933
1.50295222758991,481.851321706915,461.437251555344,-20.4140701515711,-471.64428663113,251.132695929243,220.511590701887
1.50509930220075,485.632248079048,461.449027344917,-24.1832207341304,-473.540637711982,254.907734406589,218.632903305393
1.50724637681159,489.351378132624,461.619778647632,-27.7315994849923,-475.485578390128,258.541488808808,216.94408958132
1.50939345142244,485.348567038431,457.945314887793,-27.403252150638,-471.646940963112,256.375909594535,215.271031368578
1.51154052603328,489.264748361151,458.059008836623,-31.2057395245276,-473.661878598887,260.235243942839,213.426634656048
1.51368760064412,493.350917511607,454.135665749179,-39.2152517624281,-473.743291630393,266.283084637018,207.460206993375
1.51583467525497,489.732445962488,457.861341339234,-31.8711046232536,-473.796893650861,260.801775292871,212.99511835799
1.51798174986581,489.884543185945,457.692458404623,-32.1920847813221,-473.788500795284,261.038313983633,212.75018681165
1.52012882447665,482.036000652055,457.615972081764,-24.4200285702909,-469.825986366909,253.228014611173,216.597971755737
1.52227589908749,473.974416746795,453.795408714182,-20.179008032613,-463.884912730489,247.076712389704,216.808200340785
1.52442297369834,477.513310155459,453.953047752555,-23.5602624029044,-465.733178954007,250.536786279182,215.196392674825
1.52657004830918,477.332923231534,457.980142045936,-19.352781185598,-467.656532638735,248.342852208566,219.313680430169
1.52871712292002,477.449466987797,458.011045818144,-19.4384211696523,-467.73025640297,248.443944078724,219.286312324246
1.53086419753086,485.587471214666,454.031205522497,-31.5562656921687,-469.809338368581,258.571868453417,211.237469915164
1.53301127214171,486.004077599496,457.763153930448,-28.2409236690475,-471.883615764972,257.122500634272,214.7611151307
1.53515834675255,478.44652848818,453.782215555214,-24.6643129329662,-466.114372021697,251.555420710573,214.558951311124
1.53730542136339,474.425778920951,449.922083843531,-24.5036950774203,-462.173931382241,249.464736999186,212.709194383055
1.53945249597424,477.879231955314,450.048590695619,-27.8306412596945,-463.963911325467,252.854936607504,211.108974717962
1.54159957058508,469.628194243683,454.062473402783,-15.5657208408991,-461.845333823233,242.596957542291,219.248376280942
1.54374664519592,477.14172798644,446.333766734961,-30.8079612514788,-461.737747360701,253.974844618959,207.762902741741
1.54589371980676,477.294674002671,450.133366650171,-27.1613073525008,-463.714020326421,252.227990677586,211.486029648835
1.54804079441761,485.549430522642,446.111566028091,-39.4378644945502,-465.830498275367,262.493647508596,203.336850766771
1.55018786902845,474.460721602385,446.019810391266,-28.4409112111189,-460.240265996825,251.450816406752,208.789449590074
1.55233494363929,470.885267492961,449.926714283667,-20.9585532092932,-460.405990888314,245.921910351127,214.484080537187
1.55448201825013,474.618484860847,453.928347224972,-20.6901376358752,-464.27341604291,247.654311248361,216.619104794549
1.55662909286098,462.411792747112,450.174900975057,-12.236891772055,-456.293346861084,237.324342259583,218.969004601501
1.55877616747182,461.751479628957,450.229124357371,-11.5223552715854,-455.990301993164,236.636917450271,219.353384542893
1.56092324208266,461.384889821721,450.173192620889,-11.2116972008317,-455.779041221305,236.298293511276,219.480747710029
1.56307031669351,457.672918783124,446.161242943174,-11.5116758399495,-451.917080863149,234.592297311537,217.324783551612
1.56521739130435,469.9571887966,446.045008996511,-23.9121798000886,-458.001098896556,246.934684298344,211.066414598211
1.56736446591519,462.932901216338,442.136964597916,-20.7959366184217,-452.534932907127,241.86441891738,210.670513989747
1.56951154052603,471.098430871299,438.338059725327,-32.7603711459714,-454.718245298313,251.929401008635,202.788844289678
1.57165861513688,455.37567497383,434.595100957242,-20.7805740165882,-444.985387965536,238.078124495209,206.907263470327
1.57380568974772,458.567058106042,434.694625241227,-23.8724328648156,-446.630841673635,241.219745485429,205.411096188206
1.57595276435856,457.768478111517,430.798705188168,-26.9697729233492,-444.283591649842,242.369125517433,201.914466132409
1.5780998389694,461.208416580704,430.676288065874,-30.5321285148301,-445.942352323289,245.870272547767,200.072079775522
1.58024691358025,465.2804763935,430.52447739986,-34.7559989936394,-447.90247689668,250.01823769357,197.88423920311
1.58239398819109,462.139234288212,430.446564928067,-31.6926693601448,-446.292899608139,246.915951824178,199.376947783961
1.58454106280193,474.664806184358,426.622304856974,-48.0425013273836,-450.643555520666,261.353653755871,189.289901764795
1.58668813741278,471.27436892818,426.790184116207,-44.4841848119725,-449.032276522194,257.879276870076,191.152999652118
1.58883521202362,467.189735755896,434.718748868457,-32.4709868874394,-450.954242312177,249.830361321668,201.123880990509
1.59098228663446,462.513379448971,430.873615735219,-31.6397637137519,-446.693497592095,247.076571581361,199.616926010733
1.5931293612453,461.580519442564,438.513387907652,-23.0671315349116,-450.046953675108,242.323825488738,207.72312818637
1.59527643585615,461.053950306212,430.543127644373,-30.5108226618386,-445.798538975293,245.782386484025,200.016152491267
1.59742351046699,461.255538029933,434.287258117105,-26.9682799128279,-447.771398073519,244.111908971381,203.659489102139
1.59957058507783,462.088325053507,430.439598284154,-31.6487267693526,-446.26396166883,246.86852591143,199.395435757401
1.60171765968867,466.958151682484,438.392617003174,-28.5655346793103,-452.675384342829,247.761843180897,204.913541161932
1.60386473429952,467.514567599145,434.720826696017,-32.7937409031281,-451.117697147581,250.154154251137,200.963542896444
1.60601180891036,467.296781568612,438.687315447448,-28.6094661211637,-452.99204850803,247.953123844888,205.038924663142
1.6081588835212,462.536911488621,434.699976645719,-27.8369348429022,-448.61844406717,245.186923165761,203.431520901408
1.61030595813205,453.752132162708,434.474526497223,-19.2776056654853,-444.113329329965,236.514868914097,207.598460415869
1.61245303274289,457.081130650231,430.401819821744,-26.6793108284878,-443.741475235987,241.88022073936,201.861254496628
1.61460010735373,457.322780673697,430.380783982533,-26.9419966911648,-443.851782328115,242.132388682431,201.719393645684
1.61674718196457,458.218338185477,430.546580955062,-27.6717572304153,-444.382459570269,242.945047707946,201.437411862323
1.61889425657542,455.363184036929,434.66628427722,-20.6968997597087,-445.014734157075,238.030041898319,206.984692258756
1.62104133118626,463.679372721585,430.92829953553,-32.751073186055,-447.303836128557,248.21522295382,199.088613174737
1.6231884057971,459.536778709527,430.882919089415,-28.6538596201117,-445.209848899471,244.095319164819,201.114529734652
1.62533548040794,450.854834538849,430.678529910875,-20.1763046279739,-440.766682224862,235.515569583412,205.251112641451
1.62748255501879,449.832662249562,426.570521413453,-23.262140836109,-438.201591831508,236.547401542836,201.654190288672
1.62962962962963,453.189260528502,430.358853168545,-22.8304073599567,-441.774056848523,238.009833944229,203.764222904294
1.63177670424047,457.339722892732,426.577404709366,-30.7623181833661,-441.958563801049,244.051020538049,197.907543263
1.63392377885132,450.477030970494,430.689287009932,-19.7877439605621,-440.583158990213,235.132387465528,205.450771524685
1.63607085346216,455.374935075514,430.892455701995,-24.4824793735193,-443.133695388755,239.928707224517,203.204988164238
1.638217928073,455.910132557127,427.051362462736,-28.8587700943912,-441.480747509932,242.384451325759,199.096296184172
1.64036500268384,455.646274257976,426.906566874589,-28.7397073833868,-441.276420566282,242.192990820681,199.083429745601
1.64251207729469,446.974532433123,426.670063522095,-20.3044689110281,-436.822297977609,233.639500672076,203.182797305534
1.64465915190553,453.721007618881,426.493655655917,-27.2273519629646,-440.107331637399,240.474179790923,199.633151846476
1.64680622651637,445.419413635641,426.49206542625,-18.9273482093914,-435.955739530946,232.173380922516,203.782358608429
1.64895330112721,453.442504339666,426.668808105795,-26.7736962338714,-440.05565622273,240.108100286769,199.947555935962
1.65110037573806,454.343609230771,430.792444001449,-23.5511652293218,-442.56802661611,238.947387230046,203.620639386063
1.6532474503489,451.482523265172,423.179948360803,-28.3025749043692,-437.331235812988,239.892549084771,197.438686728217
1.65539452495974,452.037723522856,427.031537706991,-25.0061858158653,-439.534630614923,238.521954669361,201.012675945563
1.65754159957059,455.682337188953,426.832028204996,-28.8503089839566,-441.257182696975,242.266323086455,198.99085961052
1.65968867418143,447.016295775955,418.822605010014,-28.1936907659406,-432.919450392984,237.604993270948,195.314457122037
1.66183574879227,445.974950716726,426.454110038713,-19.5208406780134,-436.21453037772,232.74789569737,203.46663468035
1.66398282340311,441.519266540789,426.510976250302,-15.0082902904875,-434.015121395546,228.263778415638,205.751342979907
1.66612989801396,441.750156596785,418.961519461107,-22.788637135677,-430.355838028946,232.269396866231,198.086441162715
1.6682769726248,442.653046424278,419.21521162919,-23.4378347950879,-430.934129026734,233.045440609683,197.888688417051
1.67042404723564,447.582527332939,419.350807711535,-28.2317196214038,-433.466667522237,237.907123477171,195.559544045066
1.67257112184648,448.160451653698,423.151283162496,-25.0091684912026,-435.655867408097,236.584810072451,199.071057335647
1.67471819645733,455.693011928522,419.005239244566,-36.6877726839561,-437.349125586544,246.190392306239,191.158733280305
1.67686527106817,447.023023138384,422.602469703235,-24.420553435149,-434.81274642081,235.721788286767,199.090958134043
1.67901234567901,438.225473940024,422.47936549795,-15.7461084420743,-430.352419718987,226.985791191049,203.366628527938
1.68115942028985,441.561354749612,418.729660846748,-22.8316939028642,-430.14550779818,232.196524326238,197.948983471942
1.6833064949007,441.805290436006,422.935731539109,-18.8695588968973,-432.370510987557,230.337424666452,202.033086321106
1.68545356951154,442.67620763292,419.369466373972,-23.3067412589479,-431.022837003446,232.991474445934,198.031362557512
1.68760064412238,439.776998466918,423.351277923784,-16.4257205431341,-431.564138195351,228.101359505026,203.462778690325
1.68974771873323,444.187695302949,419.269689369957,-24.9180059329925,-431.728692336453,234.552850617971,197.175841718482
1.69189479334407,451.72258352994,415.002236824504,-36.720346705436,-433.362410177222,244.221465117688,189.140945059534
1.69404186795491,450.872386410732,414.673648586081,-36.1987378246508,-432.773017498407,243.535562117692,189.237455380715
1.69618894256575,442.149428674692,414.614542961159,-27.534885713533,-428.381985817925,234.842157194112,193.539828623813
1.6983360171766,437.778935358119,414.873495916885,-22.9054394412335,-426.326215637502,230.342187399676,195.984028237826
1.70048309178744,438.042469129129,419.179630481609,-18.8628386475202,-428.611049805369,228.452653888325,200.158395917044
1.70263016639828,438.876818357847,415.623336378324,-23.2534819795227,-427.250077368086,231.065150168685,196.184927199401
1.70477724100913,439.766725389786,419.52654390603,-20.240181483756,-429.646634647908,230.003453436771,199.643181211137
1.70692431561997,444.063315443042,419.216691226823,-24.8466242162192,-431.640003334933,234.454969829631,197.185033505302
1.70907139023081,443.771236640317,414.878424080223,-28.8928125600942,-429.32483036027,236.332024600206,192.992805760064
1.71121846484165,442.973771541515,410.684067244199,-32.2897042973163,-426.828919392857,237.631737919416,189.197181473441
1.7133655394525,438.286075471572,414.600562834526,-23.6855126370459,-426.443319153049,230.985794054309,195.45752509874
1.71551261406334,430.193942333434,414.960277362283,-15.2336649711511,-422.577109847858,222.713803652292,199.863306195566
1.71765968867418,434.401201124076,415.421493149438,-18.979707974638,-424.911347136757,226.690454549357,198.2208925874
1.71980676328502,439.022281378066,415.698160812957,-23.3241205651092,-427.360221095512,231.173200971588,196.187020123924
1.72195383789587,435.821672497178,411.73678049578,-24.0848920013979,-423.779226496479,229.953282249288,193.825944247191
1.72410091250671,436.052719934198,415.23136324552,-20.8213566886777,-425.642041589859,228.437038311438,197.205003278421
1.72624798711755,439.615532851762,410.887490241413,-28.7280426103488,-425.251511546587,234.171787731055,191.079723815532
1.72839506172839,438.971575419329,410.637924698002,-28.3336507213268,-424.804750058665,233.652613070328,191.152136988338
1.73054213633924,442.284230820333,406.878053483938,-35.4061773363945,-424.581142152136,238.845204078364,185.735938073772
1.73268921095008,430.472813149251,411.182415964597,-19.2903971846538,-420.827614556924,224.881605166952,195.946009389972
1.73483628556092,430.788126763845,411.639276658373,-19.1488501054726,-421.213701711109,224.968488434659,196.24521327645
1.73698336017177,435.238397052749,407.964314424365,-27.2740826283836,-421.601355738557,231.256239840566,190.345115897991
1.73913043478261,427.929010222487,411.677115574683,-16.2518946478039,-419.803062898585,222.090452435145,197.71261046344
1.74127750939345,431.894875215922,415.111207656303,-16.7836675596186,-423.503041436112,224.33927138777,199.163770048342
1.74342458400429,431.590373679796,403.016245755944,-28.5741279238524,-417.30330971787,230.082250801824,187.221058916046
1.74557165861514,434.994364853777,410.622236226613,-24.3721286271634,-422.808300540195,229.68324674047,193.125053799725
1.74771873322598,430.762171281434,410.849555457196,-19.9126158242378,-420.805863369315,225.337393552836,195.468469816479
1.74986580783682,434.622342449362,407.435699825699,-27.1866426236633,-421.02902113753,230.904492536513,190.124528601018
1.75201288244767,431.026819421317,411.737914101225,-19.2889053200917,-421.382366761271,225.157862370704,196.224504390567
1.75415995705851,423.660715938935,411.844004710512,-11.8167112284232,-417.752360324723,217.738713583679,200.013646741044
1.75630703166935,427.807989392988,411.567525462334,-16.2404639306533,-419.687757427661,222.02422666182,197.66353076584
1.75845410628019,431.665495807688,403.322755395521,-28.3427404121676,-417.494125601604,230.004118109928,187.490007491676
1.76060118089104,431.382608803851,410.708081202137,-20.6745276017135,-421.045345002994,226.028568202782,195.016776800212
1.76274825550188,434.920090689539,406.777259559764,-28.1428311297751,-420.848675124652,231.531460909657,189.317214214995
1.76489533011272,430.856210157957,407.085697746609,-23.7705124113481,-418.970953952283,227.313361284652,191.65759266763
1.76704240472356,430.947726350772,407.559303744015,-23.3884226067573,-419.253515047394,227.168074478765,192.085440568629
1.76918947933441,423.475701808221,411.782963390521,-11.6927384176999,-417.629332599371,217.58422011296,200.04511248641
1.77133655394525,427.648376203995,407.897644775819,-19.7507314281752,-417.773010489907,223.699553816085,194.073456673822
1.77348362855609,423.854819665167,403.679990533615,-20.1748291315517,-413.767405099391,222.014824398359,191.752580701032
1.77563070316693,427.567570183854,407.109938253242,-20.4576319306124,-417.338754218548,224.012601057233,193.326153161315
1.77777777777778,431.141189086638,402.934130588594,-28.2070584980438,-417.037659837616,229.674123792341,187.363536045275
1.77992485238862,427.027610570831,402.975210125606,-24.052400445225,-415.001410348219,225.540005508028,189.461404840191
1.78207192699946,430.924226968437,407.198856166037,-23.7253708023997,-419.061541567237,227.324798885418,191.736742681819
1.78421900161031,431.176670055569,403.740526592055,-27.4361434635138,-417.458598323812,229.306406759541,188.152191564271
1.78636607622115,423.73080376485,403.991961729935,-19.7388420349146,-413.861382747392,221.734822899882,192.12655984751
1.78851315083199,420.018747637782,407.80656872353,-12.2121789142522,-413.912658180656,216.115463276017,197.797194904639
1.79066022544283,423.795475368212,403.584508789256,-20.2109665789562,-413.689992078734,222.003220973584,191.68677110515
1.79280730005368,423.462212549661,403.18832748026,-20.2738850694002,-413.32527001496,221.86804880953,191.45722120543
1.79495437466452,419.234922679829,399.098210685265,-20.1367119945638,-409.166566682547,219.685817337196,189.480749345351
1.79710144927536,426.883946579523,399.199440287617,-27.6845062919058,-413.04169343357,227.284226435714,185.757466997856
1.79924852388621,423.20965890072,399.533960273983,-23.6756986267369,-411.371809587352,223.442678763729,187.929130823623
1.80139559849705,427.505851744654,396.004696271307,-31.5011554733464,-411.75527400798,229.503503609,182.25177039898
1.80354267310789,416.21935370067,400.042646603399,-16.1767070972707,-408.131000152034,216.19803039897,191.932969753064
1.80568974771873,420.169252865903,399.911000707329,-20.2582521585745,-410.040126786616,220.213752512239,189.826374274377
1.80783682232958,415.991106448953,399.584824000367,-16.4062824485869,-407.78796522466,216.19869444877,191.58927077589
1.80998389694042,423.254742583842,395.39724918904,-27.8574933948024,-409.325995886441,225.556117989322,183.769877897119
1.81213097155126,418.974579754404,403.067010864576,-15.9075688898275,-411.02079530949,217.441074322116,193.579720987374
1.8142780461621,415.07528133136,399.343294451134,-15.7319868802258,-407.209287891247,215.403634105793,191.805653785454
1.81642512077295,423.251783164021,395.764695359932,-27.4870878040887,-409.508239261976,225.369435484055,184.138803777922
1.81857219538379,419.968206655875,396.024620208644,-23.9435864472306,-407.996413432259,221.955896551553,186.040516880707
1.82071926999463,420.375972456087,396.079712252513,-24.2962602035744,-408.2278423543,222.336116329831,185.891726024469
1.82286634460548,424.195411913055,399.779210291849,-24.4162016212059,-411.987311102452,224.30580676713,187.681504335321
1.82501341921632,419.786320845098,395.595502855351,-24.1908179897475,-407.690911850225,221.988569417423,185.702342432802
1.82716049382716,415.231822948369,395.374342883686,-19.8574800646833,-405.303082916027,217.544651506526,187.758431409501
1.829307568438,414.846905004042,395.375892793444,-19.4710122105978,-405.111398898743,217.15895860732,187.952440291423
1.83145464304885,418.89043944663,395.592146895398,-23.2982925512325,-407.241293171014,221.094365998931,186.146927172083
1.83360171765969,423.391690083412,395.876119567411,-27.5155705160004,-409.633904825412,225.453630299706,184.180274525705
1.83574879227053,424.087216195159,396.041128220996,-28.0460879741631,-410.064172208078,226.066652084661,183.997520123416
1.83789586688137,420.545218802476,395.983475020773,-24.5617437817025,-408.264346911625,222.553481292089,185.710865619535
1.84004294149222,416.434195376034,391.867933180417,-24.5662621956172,-404.151064278225,220.500228785826,183.6508354924
1.84219001610306,415.768392764818,391.620989280943,-24.1474034838749,-403.694691022881,219.957898124347,183.736792898534
1.8443370907139,415.062815682594,395.400934199404,-19.6618814831896,-405.231874940999,217.362348582892,187.869526358107
1.84648416532475,414.745383187449,391.616039788924,-23.1293433985252,-403.180711488186,218.937363292987,184.243348195199
1.84863123993559,415.016919477409,391.843029188505,-23.1738902889036,-403.429974332957,219.095404883156,184.334569449801
1.85077831454643,415.72377527572,392.048594705792,-23.6751805699282,-403.886184990756,219.699477922824,184.186707067932
1.85292538915727,428.084114006524,392.099046476925,-35.9850675295992,-410.091580241724,232.034590768062,178.056989473663
1.85507246376812,416.72025239718,391.967575056051,-24.7526773411284,-404.343913726615,220.736464869154,183.607448857461
1.85721953837896,412.530736507416,387.86851140454,-24.6622251028762,-400.199623955978,218.596480805146,181.603143150832
1.8593666129898,407.945502335691,391.597446442265,-16.3480558934265,-399.771474388978,212.146779114559,187.624695274419
1.86151368760064,415.021381303612,395.481846201125,-19.5395351024872,-405.251613752368,217.28045820305,187.971155549319
1.86366076221149,410.855373534506,391.743847806505,-19.1115257280007,-401.299610670505,214.983449631253,186.316161039252
1.86580783682233,407.260078914766,388.054045343235,-19.206033571531,-397.657062129,213.233056243148,184.424005885852
1.86795491143317,415.719105661918,392.054014376965,-23.665091284953,-403.886560019441,219.692098473435,184.194461546006
1.87010198604402,416.411603836755,388.13671611538,-28.2748877213745,-402.274159976068,222.343245779065,179.930914197003
1.87224906065486,416.700147021178,391.85573868658,-24.844408334598,-404.277942853879,220.772277677888,183.505665175991
1.8743961352657,416.424949076351,391.671613409432,-24.753335666919,-404.048281242892,220.589142371635,183.459138871257
1.87654320987654,411.871238672259,391.589263598469,-20.2819750737899,-401.730251135364,216.076606873024,185.653644262339
1.87869028448739,407.31619564612,387.78679992222,-19.5293957239003,-397.55149778417,213.42279568501,184.12870209916
1.88083735909823,410.90738090107,391.860951687266,-19.0464292138033,-401.384166294168,214.976905057436,186.407261236731
1.88298443370907,411.147264430561,388.150205043019,-22.9970593875416,-399.64873473679,217.072161909051,182.576572827739
1.88513150831991,407.887807294746,388.182569117093,-19.7052381776528,-398.035188205919,213.796522736199,184.23866546972
1.88727858293076,416.302408170337,384.169667384639,-32.1327407856978,-400.236037777488,224.217574478017,176.018463299471
1.8894256575416,408.85117727403,387.843201202549,-21.0079760714819,-398.34718923829,214.929576672756,183.417612565533
1.89157273215244,420.30804083644,387.692377221741,-32.6156636146987,-404.00020902909,226.461852225569,177.538356803521
1.89371980676328,411.962983086594,391.583147208928,-20.379835877666,-401.773065147761,216.17140948213,185.601655665631
1.89586688137413,407.447522188809,391.751143178428,-15.6963790103812,-399.599332683618,211.571950599595,188.027382084023
1.89801395598497,411.002227362548,391.976070232771,-19.0261571297773,-401.489148797659,215.014192246163,186.474956551497
1.90016103059581,403.386081251274,388.234686253832,-15.1513949974419,-395.810383752553,209.268738124358,186.541645628195
1.90230810520666,411.677879911483,388.198759171972,-23.4791207395104,-399.938319541728,217.578500325497,182.359819216231
1.9044551798175,400.635336167197,387.998097058324,-12.6372391088724,-394.31671661276,206.636287638034,187.680428974726
1.90660225442834,412.631355194421,383.869349426941,-28.7620057674798,-398.250352310681,220.69668048095,177.553671829731
1.90874932903918,412.53172442525,383.735195931066,-28.7965284941836,-398.133460178158,220.664126459717,177.469333718441
1.91089640365003,412.044414906579,391.564110607562,-20.480304299017,-401.804262757071,216.262359602798,185.541903154273
1.91304347826087,411.453094074855,384.024958539761,-27.4281355350946,-397.739026307308,219.440614804975,178.298411502333
1.91519055287171,403.331730448779,388.163837894349,-15.1678925544299,-395.747784171564,209.249811501604,186.497972669959
1.91733762748256,403.410381135744,384.413169636886,-18.9972114988573,-393.911775386315,211.2037963173,182.707979069014
1.9194847020934,399.98650727556,384.333697823454,-15.6528094521055,-392.160102549507,207.819658363833,184.340444185674
1.92163177670424,408.312871126093,384.083456003978,-24.2294151221153,-396.198163565036,216.271143124104,179.927020440931
1.92377885131508,408.64776169141,383.808253436625,-24.8395082547858,-396.228007564017,216.743634973098,179.484372590919
1.92592592592593,412.455409214119,383.677133778027,-28.7782754360916,-398.066271496073,220.616842325105,177.449429170968
1.92807300053677,408.155089757095,379.898065759656,-28.2570239974384,-394.026577758375,218.206056877267,175.820520881109
1.93022007514761,403.774573318344,384.065045857203,-19.7095274611409,-393.919809587773,211.742050389742,182.177759198031
1.93236714975845,407.3648615132,388.235538746599,-19.1293227666006,-397.8002001299,213.2470921399,184.553107989999
1.9345142243693,403.537712178856,384.460270691314,-19.077441487542,-393.998991435085,211.307576833199,182.691414601886
1.93666129898014,403.88109870509,380.440525586122,-23.4405731189675,-392.160812145606,213.660835912029,178.499976233577
1.93880837359098,404.304342654544,376.267582887811,-28.0367597667334,-390.285962771178,216.170551210639,174.115411560539
1.94095544820182,400.694862551073,383.76292854809,-16.9319340029831,-392.228895549581,208.813398277028,183.415497272553
1.94310252281267,412.330566489946,383.665447038284,-28.6651194516619,-397.998006764115,220.497842970804,177.500163793311
1.94524959742351,404.293139857758,387.674507483953,-16.6186323738053,-395.983823670856,210.455886115782,185.527937555074
1.94739667203435,403.927156782278,384.073678661152,-19.8534781211257,-394.000417721715,211.890317451702,182.110100270013
1.9495437466452,403.669737682384,384.355869684321,-19.313867998063,-394.012803683352,211.491802840223,182.521000843129
1.95169082125604,399.759713434324,380.598245644781,-19.1614677895433,-390.178979539552,209.460590611934,180.718388927619
1.95383789586688,399.956577169228,384.369208951224,-15.5873682180045,-392.162893060226,207.771972693616,184.39092036661
1.95598497047772,396.380200683797,380.190371298778,-16.1898293850191,-388.285285991288,206.285015034408,182.00027095688
1.95813204508857,392.758071792581,379.873885009152,-12.8841867834287,-386.315978400866,202.821129288005,183.494849112862
1.96027911969941,404.490425493667,379.72332267074,-24.7671028229262,-392.106874082204,214.628764158296,177.478109923907
1.96242619431025,404.351844827788,379.833698407392,-24.5181464203957,-392.09277161759,214.434995624092,177.657775993498
1.9645732689211,400.183317688393,376.271011974868,-23.9123057135245,-388.22716483163,212.047811700959,176.179353130672
1.96672034353194,399.911121609006,380.503135599644,-19.4079860093617,-390.207128604325,209.659553809184,180.547574795141
1.96886741814278,395.917860570735,380.671230756738,-15.246629813997,-388.294545663736,205.582245192366,182.71230047137
1.97101449275362,396.024321823347,376.66648032453,-19.3578414988165,-386.345401073939,207.691081661082,178.654319412857
1.97316156736447,396.285243370756,376.320755861087,-19.9644875096691,-386.302999615922,208.124865440213,178.178134175709
1.97530864197531,392.676684750494,379.831740408446,-12.8449443420474,-386.25421257947,202.760814546271,183.493398033199
1.97745571658615,404.460565546461,371.890385476074,-32.5701800703868,-388.175475511267,218.515372808424,169.660102702844
1.97960279119699,396.617097304262,375.907547821601,-20.7095494826616,-386.262322562932,208.663323393462,177.59899916947
1.98174986580784,400.252685716392,372.400558471095,-27.8521272452975,-386.326622093744,214.052406480845,172.274215612899
1.98389694041868,399.975272037265,372.79629759002,-27.1789744472446,-386.385784813643,213.577123242255,172.808661571388
1.98604401502952,392.05669103968,376.85203626526,-15.2046547744204,-384.45436365247,203.63067290705,180.82369074542
1.98819108964036,392.118657866727,376.684653573143,-15.4340042935845,-384.401655719935,203.776331080156,180.625324639779
1.99033816425121,396.241403324662,376.269724034941,-19.9716792897207,-386.255563679802,208.106541307191,178.14902237261
1.99248523886205,392.636368011324,375.860795735525,-16.775572275799,-384.248581873425,204.705970143562,179.542611729863
1.99463231347289,400.557055673029,371.834235012483,-28.7228206605469,-386.195645342756,214.639938166788,171.555707175968
1.99677938808374,400.500540539959,372.054741924933,-28.4457986150263,-386.277641232446,214.473169577493,171.804471654953
1.99892646269458,392.506093397051,376.3879619839,-16.1181314131508,-384.447027690476,204.312112405101,180.134915285375
2.00107353730542,396.127570017283,372.902401420776,-23.2251685965077,-384.51498571903,209.676369306896,174.838616412134
2.00322061191626,388.219048814007,372.997160550241,-15.2218882637661,-380.608104682124,201.720468538887,178.887636143238
2.00536768652711,392.148876163993,372.728937686439,-19.419938477554,-382.438906925216,205.784407320774,176.654499604443
2.00751476113795,384.587758021112,372.260649345674,-12.3271086754378,-378.424203683393,198.457433348275,179.966770335118
2.00966183574879,392.591069036538,368.002350300788,-24.5887187357508,-380.296709668663,208.589893886145,171.706815782518
2.01180891035964,392.724592439198,371.837869067604,-20.8867233715938,-382.281230753401,206.805657905396,175.475572848005
2.01395598497048,396.561723199493,372.147435226995,-24.4142879724981,-384.354579213244,210.488005585996,173.866573627249
2.01610305958132,392.494109365165,372.619985945643,-19.8741234195223,-382.557047655404,206.184116392344,176.37293126306
2.01825013419216,388.408752478008,372.96472956028,-15.4440229177275,-380.686741019144,201.926387697868,178.760353321276
2.02039720880301,388.309286998714,372.970287227396,-15.3389997713173,-380.639787113055,201.824143385016,178.81564372804
2.02254428341385,388.35534553692,376.514406447809,-11.8409390891105,-382.434875992365,200.098142313015,182.336733679349
2.02469135802469,388.499096559173,372.158066835784,-16.3410297233888,-380.328581697478,202.420063141281,177.908518556198
2.02683843263553,388.647192434982,371.845509969342,-16.8016824656398,-380.246351202162,202.724437450311,177.521913751851
2.02898550724638,392.600850376778,368.009613181911,-24.5912371948674,-380.305231779345,208.596043785823,171.709187993522
2.03113258185722,392.569203662771,372.265820826541,-20.3033828362301,-382.417512244656,206.436293249501,175.981218995156
2.03327965646806,392.472211697374,372.725410900701,-19.7468007966726,-382.598811299038,206.109506247023,176.489305052014
2.03542673107891,388.496468278567,369.099728370658,-19.3967399079091,-378.798098324612,203.946604093238,174.851494231374
2.03757380568975,388.456795744393,372.881583255184,-15.5752124892096,-380.669189499789,202.016004116801,178.653185382987
2.03972088030059,384.592039774779,368.609729824824,-15.9823099499554,-376.600884799802,200.287174862367,176.313709937434
2.04186795491143,388.515468979818,368.18039668316,-20.3350722966579,-378.347932831489,204.425270638238,173.922662193251
2.04401502952228,392.422032890193,367.979706256582,-24.4423266336106,-380.200869573387,208.432179761902,171.768689811486
2.04616210413312,388.541010614727,368.125101983952,-20.4159086307751,-378.333056299339,204.478459622751,173.854596676588
2.04830917874396,388.552228649648,368.516856400512,-20.0353722491361,-378.53454252508,204.293800449392,174.240742075688
2.0504562533548,388.596185666471,372.786005712649,-15.8101799538217,-380.69109568956,202.203182810146,178.487912879414
2.05260332796565,388.65056942692,369.046155139769,-19.6044142871512,-378.848362283344,204.127491857036,174.720870426309
2.05475040257649,388.661198310606,368.8698192726,-19.7913790380063,-378.765508791603,204.226288674306,174.539220117297
2.05689747718733,380.828752230822,372.377918443676,-8.45083378714622,-376.603335337249,194.639793008984,181.963542328265
2.05904455179817,384.586942734996,368.157448333787,-16.4294944012088,-376.372195534392,200.508218568103,175.863976966289
2.06119162640902,384.474737177539,368.063035764594,-16.4117014129457,-376.268886471066,200.443219295242,175.825667175824
2.06333870101986,388.336789359651,360.501247146208,-27.835542213443,-374.419018252929,208.086165786547,166.332852466382
2.0654857756307,388.448246757814,368.62871568458,-19.8195310732344,-378.538481221197,204.133888915524,174.404592305673
2.06763285024155,384.771437266045,365.028493966499,-19.7429432995465,-374.899965616272,202.257190282796,172.642775333476
2.06977992485239,384.959415372562,368.934701451661,-16.0247139209015,-376.947058412111,200.492064646732,176.45499376538
2.07192699946323,377.236563354318,364.817435524622,-12.4191278296961,-371.02699943947,194.827845592007,176.199153847463
2.07407407407407,377.074134554904,368.371723511807,-8.70241104309639,-372.722929033356,192.888272799,179.834656234356
2.07622114868492,380.64916266077,364.284662999684,-16.3644996610859,-372.466912830227,198.506831160928,173.960081669299
2.07836822329576,384.243057920485,368.210422629838,-16.032635290647,-376.226740275162,200.137846605566,176.088893669596
2.0805152979066,384.166205364741,364.576565712473,-19.5896396522688,-374.371385538607,201.877922508505,172.493463030102
2.08266237251744,384.399163902938,364.8583806327,-19.5407832702381,-374.628772267819,201.969973586588,172.658798681231
2.08480944712829,388.7307721766,364.98843384739,-23.7423383292096,-376.859603011995,206.236555252905,170.62304775909
2.08695652173913,385.254692382883,361.007373952203,-24.2473184306803,-373.131033167543,204.751005406782,168.380027760761
2.08910359634997,385.345951500939,364.638898267881,-20.7070532330582,-374.99242488441,203.026502366999,171.965922517411
2.09125067096082,385.013825431424,368.284414032118,-16.7294113993052,-376.649119731771,200.871618415364,175.777501316407
2.09339774557166,372.770778577196,368.211946330124,-4.55883224707151,-370.49136245366,188.664805412134,181.826557041526
2.0955448201825,376.151110992688,364.469763634704,-11.6813473579842,-370.310437313696,193.916229175336,176.39420813836
2.09769189479334,368.311275135331,364.734338619913,-3.5769365154182,-366.522806877622,185.944105825375,180.578701052247
2.09983896940419,376.516041512771,364.947317354047,-11.568724158724,-370.731679433409,194.042382835748,176.689296597662
2.10198604401503,384.991869785001,361.081724566343,-23.9101452186578,-373.036797175672,204.451007501829,168.585789673843
2.10413311862587,389.417253146533,364.769063268897,-24.6481898776356,-377.093158207715,207.032721512084,170.060436695631
2.10628019323672,385.562386321547,364.484061452548,-21.0783248689988,-375.023223887048,203.320355595273,171.702868291775
2.10842726784756,377.280316208845,360.416556247784,-16.8637599610611,-368.848436228314,197.072038084953,171.776398143361
2.1105743424584,368.763758894588,364.345354633652,-4.41840426093586,-366.55455676412,186.591081577762,179.963475186358
2.11272141706924,375.990768318999,364.597688362029,-11.3930799569705,-370.294228340514,193.691924137985,176.602304202529
2.11486849168009,368.220723682278,361.01133327358,-7.20939040869808,-364.616028477929,187.715057045488,176.900971432441
2.11701556629093,376.521819436492,361.158944666009,-15.3628747704825,-368.840382051251,195.942347103487,172.898034947763
2.11916264090177,377.285921838386,361.053997262409,-16.2319245759768,-369.169959550397,196.758923207181,172.411036343216
2.12130971551261,381.707149954628,364.632856254414,-17.0742937002142,-373.170003104521,199.390721827421,173.7792812771
2.12345679012346,385.580691316835,360.438707923525,-25.1419833933097,-373.00969962018,205.361337355072,167.648362265108
2.1256038647343,377.264570318725,360.330248730679,-16.9343215880464,-368.797409524702,197.099445953386,171.697963571316
2.12775093934514,372.625373721804,356.630649419931,-15.9947243018726,-364.628011570868,194.310049011838,170.317962559029
2.12989801395599,368.235660632424,364.758931180455,-3.47672945196911,-366.49729590644,185.856195042197,180.641100864243
