t,leadI,leadII,leadIII,aVR,aVL,aVF
0,-6.4851348788024,-105.216064966395,-98.7309300875923,55.8505999225985,46.122897604395,-101.973497526993
0.00213926623168253,4.6220355973598,-76.4087418057297,-81.0307774030895,35.893353104185,42.8264065002247,-78.7197596044096
0.00427853246336507,11.9206994700678,-79.2414169670392,-91.162116437107,33.6603587484857,51.5414079535874,-85.2017667020731
0.0064177986950476,14.5068563777635,-105.992357173237,-120.499213551,45.7427503977368,67.503034964382,-113.245785362119
0.00855706492673013,12.505356359693,-146.343308974735,-158.848665334428,66.918976307521,85.6770108470605,-152.595987154582
0.0106963311584127,6.90742409564285,-190.822280343486,-197.729704439129,91.9574281239218,102.318564267386,-194.275992391308
0.0128355973900952,-0.800741399953495,-232.668023700378,-231.867282300425,116.734382550166,115.533270450236,-232.267653000402
0.0149748636217777,-9.09701367239501,-268.407126968737,-259.310113296342,138.752070320566,125.106549811973,-263.858620132539
0.0171141298534603,-16.7539216758982,-297.406417502843,-280.652495826945,157.080169589371,131.949287075524,-289.029456664894
0.0192533960851428,-22.9415102382147,-320.835291365779,-297.893781127564,171.888400801997,137.476135444675,-309.364536246672
0.0213926623168253,-27.3361378387356,-340.525341283884,-313.189203445148,183.93073956131,142.926532803206,-326.857272364516
0.0235319285485079,-30.2214282717979,-357.984058282974,-327.762630011176,194.102743277386,148.770600869689,-342.873344147075
0.0256711947801904,-32.2583577292039,-373.752781446219,-341.494423717015,203.005569587712,154.618032993906,-357.623602581617
0.0278104610118729,-34.0725458471838,-387.519745234644,-353.44719938746,210.796145540914,159.687326770138,-370.483472311052
0.0299497272435555,-36.1299255539719,-398.907972851402,-362.77804729743,217.518949202687,163.324060871729,-380.843010074416
0.032088993475238,-38.9067005002852,-408.069307474129,-369.162606973844,223.488003987207,165.127953236779,-388.615957223987
0.0342282597069205,-42.9312724823818,-415.684392344054,-372.753119861672,229.307832413218,164.910923689645,-394.218756102863
0.0363675259386031,-48.5480022754942,-422.780390708226,-374.232388432732,235.66419649186,162.842193078619,-398.506389570479
0.0385067921702856,-55.6893108046578,-430.477194641179,-374.787883836521,243.083252722919,159.549286515932,-402.63253923885
0.0406460584019681,-63.8784729588,-439.454687143839,-375.576214185039,251.666580051319,155.848870613119,-407.515450664439
0.0427853246336507,-72.4156978735763,-449.473033045099,-377.057335171523,260.944365459338,152.320818648973,-413.265184108311
0.0449245908653332,-80.5656588120447,-459.445996911164,-378.880338099119,270.005827861604,149.157339643537,-419.163167505142
0.0470638570970157,-87.6636532988599,-468.004215400932,-380.340562102073,277.833934349896,146.338454401606,-424.172388751503
0.0492031233286983,-93.2247768822142,-474.211756633456,-380.986979751242,283.718266757835,143.881101434514,-427.599368192349
0.0513423895603808,-97.0013595936674,-478.061896031903,-381.060536438236,287.531627812785,142.029588422284,-429.56121623507
0.0534816557920633,-98.9744011204234,-480.406287449221,-381.431886328798,289.690344284822,141.228742604187,-430.919086889009
0.0556209220237459,-99.4604333093333,-482.455056194575,-382.994622885242,290.957744751954,141.767094787954,-432.724839539909
0.0577601882554284,-99.1964323840226,-485.280912697899,-386.084480313876,292.238672540961,143.444023964927,-435.682696505888
0.0598994544871109,-99.1312278083073,-489.383640233073,-390.252412424765,294.25743402069,145.560592308229,-439.818026328919
0.0620387207187935,-100.030777947749,-494.326631844681,-394.295853896933,297.178704896215,147.132537974592,-444.311242870807
0.064177986950476,-102.183012941116,-498.927822700591,-396.744809759475,300.555417820854,147.280898409179,-447.836316230033
0.0663172531821585,-105.36525510488,-502.085039283691,-396.719784178811,303.725147194285,145.677264536966,-449.402411731251
0.0684565194138411,-109.024490208325,-503.414063573361,-394.389573365036,306.219276890843,142.682541578355,-448.901818469198
0.0705957856455236,-112.520005080505,-503.280092364544,-390.760087284039,307.900048722525,139.120041101767,-447.020089824291
0.0727350518772061,-115.303028650371,-502.652645405223,-387.349616754852,308.977837027797,136.02329405224,-445.001131080037
0.0748743181088887,-116.972437370678,-502.760588102835,-385.788150732157,309.866512736757,134.407856680739,-444.274369417496
0.0770135843405712,-117.304170707907,-504.217344878125,-386.913174170218,310.760757793016,134.804501731155,-445.565259524172
0.0791528505722537,-116.367244169775,-506.357136134376,-389.9898919646,311.362190152076,136.811323897412,-448.173514049488
0.0812921168039362,-114.553172809493,-507.670606394937,-393.117433585444,311.111889602215,139.282130387976,-450.39401999019
0.0834313830356188,-112.298586809045,-506.788072859385,-394.48948605034,309.543329834215,141.095449620648,-450.638779454863
0.0855706492673013,-109.775292634131,-503.154864667195,-393.379572033064,306.465078650663,141.802139699467,-448.26721835013
0.0877099154989839,-107.00593822071,-497.398983053141,-390.393044832432,302.202460636926,141.693553305861,-443.896013942786
0.0898491817306664,-104.30391091713,-491.258595500457,-386.954684583327,297.781253208794,141.325386833098,-439.106640041892
0.0919884479623489,-102.505211516352,-486.779870357231,-384.274658840879,294.642540936792,140.884723662263,-435.527264599055
0.0941277141940314,-102.712473104883,-485.291494245518,-382.579021140636,294.0019836752,139.933274017876,-433.935257693077
0.096266980425714,-105.758884028299,-486.88746514626,-381.128581117961,296.323174587279,137.684848544831,-434.00802313211
0.0984062466573965,-111.725679795372,-490.57168558092,-378.846005785548,301.148682688146,133.560162995088,-434.708845683234
0.100545512889079,-119.734390244776,-494.782142664516,-375.04775241974,307.258266454646,127.656681087482,-434.914947542128
0.102684779120762,-128.151673346992,-498.032123985045,-369.880450638053,313.091898666019,120.86438864553,-433.956287311549
0.104824045352444,-135.058773564601,-499.501486880484,-364.442713315883,317.280130222543,114.691969875641,-431.972100098184
0.106963311584127,-138.622319419874,-499.141727062372,-360.519407642498,318.882023241123,110.948544111312,-429.830567352435
0.109102577815809,-137.113445068044,-497.09449572462,-359.981050656576,317.103970396332,111.433802794266,-428.537773190598
0.111241844047492,-128.494629942161,-492.966318367449,-364.471688425289,310.730474154805,117.988529241564,-428.719003396369
0.113381110279174,-109.93471101734,-485.36127470563,-375.42656368829,297.647992861485,132.745926335475,-430.39391919696
0.115520376510857,-77.9091916872248,-471.73308861459,-393.823896927365,274.821140150907,157.95735262007,-432.778492770977
0.117659642742539,-28.9936135180829,-448.872675388143,-419.87906187006,238.933144453113,195.442724175989,-434.375868629102
0.119798908974222,39.1066020535704,-414.011899929913,-453.118501983484,187.452648938172,246.112552018527,-433.565200956699
0.121938175205904,126.609526260883,-365.882067837128,-492.491594098012,119.636270788123,309.550560179447,-429.18683096757
0.124077441437587,230.914301943862,-305.322115409838,-536.2364173537,37.2039067329882,383.575359648781,-420.779266381769
0.126216707669269,346.299640200131,-235.405290108435,-581.704930308566,-55.447175045848,464.002285254349,-408.555110208501
0.128355973900952,464.174320655468,-160.977383930173,-625.151704585641,-151.598468362648,544.663012620555,-393.064544257907
0.130495240132634,573.672434053656,-87.7112370725768,-661.383671126233,-242.98059849054,617.528052589945,-374.547454099405
0.132634506364317,662.668954520433,-21.2139169168131,-683.882871437246,-320.72751880181,673.275912978839,-352.548394177029
0.134773772596,719.62412227252,33.4051953981534,-686.218926874367,-376.514658835337,702.921524573444,-326.406865738107
0.136913038827682,736.062414525759,71.8354623226542,-664.226952203105,-403.948938424207,700.144683364432,-296.195744940225
0.139052305059365,708.766518587306,91.162354576913,-617.604164010393,-399.96443658211,663.18534129885,-263.22090471674
0.141191571291047,640.915049155307,90.38434004703,-550.530709108277,-365.649694601169,595.722879131792,-230.073184530624
0.14333083752273,541.793446131333,70.5416250491435,-471.251821082189,-306.167535590238,506.522633606761,-200.355098016523
0.145470103754412,424.951039236556,34.7754782089582,-390.175561027598,-229.863258722757,407.563300132077,-177.70004140932
0.147609369986095,305.35180544478,-11.8024187950946,-317.154224239874,-146.774693324843,311.253014842327,-164.478321517485
0.149748636217777,196.577235390026,-62.8292085861613,-259.406443976187,-66.8740134019322,227.991839683106,-161.117826281174
0.15188790244946,108.721383398238,-111.817354417431,-220.538737815669,1.54798550959646,164.630060606954,-166.17804611655
0.154027168681142,47.1138476483629,-153.379761998491,-200.493609646854,53.1329571750641,123.803728647609,-176.936685822673
0.156166434912825,11.9961526299646,-184.356254209154,-196.352406839119,86.1800507895949,104.174279734542,-190.354330524137
0.158305701144507,-0.788799501962785,-204.474401477979,-203.685601976017,102.631600489971,101.448401237027,-204.080001726998
0.16044496737619,1.60559642858311,-216.143799719684,-217.749396148268,107.269101645551,109.677496288425,-216.946597933976
0.162584233607872,10.7875656531617,-223.313228552227,-234.100794205389,106.262831449533,122.444179929275,-228.707011378808
0.164723499839555,19.0170187695123,-229.911537195142,-248.928555964654,105.447259212815,133.972787367083,-239.420046579898
0.166862766071238,20.8122259484102,-238.602116331629,-259.414342280039,108.894945191609,140.113284114225,-249.008229305834
0.16900203230292,13.8173310329706,-250.218988966074,-264.036319999044,118.200828966551,138.926825516007,-257.127654482559
0.171141298534603,-1.28017065923643,-263.977715685765,-262.697545026528,132.628943172501,130.708687183646,-263.337630356147
0.173280564766285,-21.7049566821642,-278.323128648717,-256.618171966552,150.01404266544,117.456607642194,-267.470650307635
0.175419830997968,-43.9750723387887,-291.901588972229,-247.92651663344,167.938330655509,101.975722147326,-269.914052802835
0.17755909722965,-65.126221073557,-304.231858873882,-239.105637800325,184.679039973719,86.9897083633839,-271.668748337103
0.179698363461333,-83.3734578611749,-315.83461562291,-232.461157761735,199.604036742042,74.5438499502801,-274.147886692323
0.181837629693015,-98.1110272900717,-327.562770860267,-229.451743570195,212.836899075169,65.6703581400618,-278.507257215231
0.183976895924698,-109.48539508135,-339.604375740035,-230.118980658685,224.544885410693,60.3167927886674,-284.86167819936
0.18611616215638,-117.93778995356,-351.177840842129,-233.240050888569,234.557815397844,57.6511304675045,-292.208945865349
0.188255428388063,-123.995752320693,-361.027092408547,-237.031340087854,242.51142236462,56.5177938835802,-299.0292162482
0.190394694619745,-128.207729285333,-368.065254994587,-239.857525709254,248.13649213996,55.8248982119604,-303.96139035192
0.192533960851428,-130.992669351513,-371.919978393941,-240.927309042429,251.456323872727,54.967319845458,-306.423643718185
0.19467322708311,-132.525009213583,-373.283898956867,-240.758889743284,252.904454085225,54.1169402648508,-307.021394350075
0.196812493314793,-132.811219179969,-373.630689881669,-240.8194707017,253.220954530819,54.0041257608653,-307.225080291684
0.198951759546476,-131.885145833427,-374.385756188717,-242.50061035529,253.135451011072,55.3077322609317,-308.443183272003
0.201091025778158,-130.030534056886,-376.348136920783,-246.317602863896,253.189335488834,58.1435344035052,-311.332869892339
0.203230292009841,-127.855459065352,-379.591948347258,-251.736489281906,253.723703706305,61.9405151082772,-315.664218814582
0.205369558241523,-126.083392073418,-383.491375603789,-257.407983530371,254.787383838604,65.6622957284765,-320.44967956708
0.207508824473206,-125.232634559045,-386.887873652287,-261.655239093242,256.060254105666,68.2113022670981,-324.271556372764
0.209648090704888,-125.378871343572,-388.603693772851,-263.224822429279,256.991282558212,68.9229755428532,-325.914258101065
0.211787356936571,-126.049238168828,-388.080502753714,-262.031264584886,257.064870461271,67.9910132080291,-325.0558836693
0.213926623168253,-126.380294294501,-385.624066921614,-259.243772627113,256.002180608058,66.4317391663058,-322.433919774363
0.216065889399936,-125.545301534293,-382.129985730804,-256.584684196512,253.837643632549,65.5196913311095,-319.357334963658
0.218205155631618,-123.102659062555,-378.59857607216,-255.495917009605,250.850617567357,66.1966289735252,-317.047246540883
0.220344421863301,-119.051549399412,-375.575130203832,-256.523580804419,247.313339801622,68.7360157025035,-316.049355504125
0.222483688094983,-113.736243123799,-372.806373562606,-259.070130438807,243.271308343202,72.6669436575041,-315.938252000707
0.224622954326666,-107.737515771668,-369.563782598394,-261.826266826726,238.650649185031,77.0443755275291,-315.69502471256
0.226762220558348,-101.727533356127,-365.291683646889,-263.564150290762,233.509608501508,80.9183084673178,-314.427916968825
0.228901486790031,-96.2461045980397,-359.968330255992,-263.722225657952,228.107217427016,83.7380605299563,-311.845277956972
0.231040753021714,-91.5121944079287,-354.180751240213,-262.668556832284,222.846472824071,85.5781812121778,-308.424654036249
0.233180019253396,-87.4737482622381,-348.937472879023,-261.463724616785,218.205610570631,86.9949881772735,-305.200598747904
0.235319285485079,-84.0473092395252,-345.125800497451,-261.078491257926,214.586554868488,88.5155910092005,-303.102145877689
0.237458551716761,-81.2192661510004,-342.95590529053,-261.736639139529,212.087585720765,90.2586864942644,-302.34627221503
0.239597817948444,-78.9569808633936,-341.824967855344,-262.86798699195,210.390974359369,91.9555030642782,-302.346477423647
0.241737084180126,-77.1752144707076,-340.590995853266,-263.415781382558,208.883105161987,93.1202834559252,-302.003388617912
0.243876350411809,-75.7626479339721,-338.106914455892,-262.34426652192,206.934781194932,93.290809293974,-300.225590488906
0.246015616643491,-74.5946863669303,-333.897308915799,-259.302622548868,204.245997641365,92.353968090969,-296.599965732334
0.248154882875174,-73.594616292389,-328.507027725606,-254.912411433217,201.050822008997,90.658897570414,-291.709719579411
0.250294149106856,-72.7441521318995,-323.091179649828,-250.347027517928,197.917665890864,88.8014376930143,-286.719103583878
0.252433415338539,-71.9963108660965,-318.701090391694,-246.704779525597,195.348700628895,87.3542343297505,-282.702934958646
0.254572681570221,-71.3097766792204,-315.95098797558,-244.64121129636,193.6303823274,86.6657173085696,-280.29609963597
0.256711947801904,-70.753720689991,-314.860502154209,-244.106781464218,192.8071114221,86.6765303871134,-279.483641809213
0.258851214033586,-70.3883856194866,-314.642749861544,-244.254364242058,192.515567740515,86.9329893112855,-279.448557051801
0.260990480265269,-70.02861463745,-314.006444491547,-243.977829854097,192.017529564499,86.9746076083236,-278.992137172822
0.263129746496952,-69.2441546048926,-311.943250363414,-242.699095758521,190.593702484153,86.7274705768142,-277.321173060967
0.265269012728634,-67.559707040383,-308.16383080374,-240.604123763357,187.861768922062,86.5222083614871,-274.383977283549
0.267408278960317,-64.6414710487266,-303.085603532609,-238.444132483883,183.863537290668,86.901330717578,-270.764868008246
0.269547545191999,-60.5272534283365,-297.69028797619,-237.163034547853,179.108770702263,88.3178905597583,-267.426661262021
0.271686811423682,-55.7829959549387,-293.090394836806,-237.307398881868,174.436695395873,90.7622014634645,-265.198896859337
0.273826077655364,-51.2545719174505,-289.82413129438,-238.569559376929,170.539351605915,93.6574937297394,-264.196845335654
0.275965343887047,-47.5128519273004,-287.460427466584,-239.947575539284,167.486639696942,96.2173618059917,-263.704001502934
0.278104610118729,-44.4288367443678,-284.888665389713,-240.459828645346,164.658751067041,98.0154959504889,-262.67424701753
0.280243876350412,-41.199208628133,-280.995021843205,-239.795813215072,161.097115235669,99.2983022934696,-260.395417529139
0.282383142582094,-36.8054804643329,-275.251482957234,-238.446002492901,156.028481710783,100.820261014284,-256.848742725068
0.284522408813777,-30.5515046806859,-267.961448989482,-237.409944308797,149.256476835084,103.429219814055,-252.685696649139
0.286661675045459,-22.4445210509717,-260.087345419821,-237.642824368849,141.265933235396,107.599151658939,-248.865084894335
0.288800941277142,-13.3784721458762,-252.77668069143,-239.398208545554,133.077576418653,113.009868199839,-246.087444618492
0.290940207508824,-4.86922785896211,-246.822555585582,-241.95332772662,125.845891722272,118.542049933829,-244.387941656101
0.293079473740507,1.69411351752827,-242.282334950596,-243.976448468124,120.294110716534,122.835280992826,-243.12939170936
0.29521873997219,5.73271244568083,-238.446709527958,-244.179421973639,116.356998541139,124.95606720966,-241.313065750798
0.297358006203872,7.61957697003264,-234.262207864794,-241.881784834827,113.321315447381,124.75068090243,-238.071996349811
0.299497272435555,8.32139196220689,-229.031808702938,-237.353200665145,110.355208370365,122.837296313676,-233.192504684041
0.301636538667237,8.87427789186648,-222.913325424781,-231.787603316647,107.019523766457,120.330940604257,-227.350464370714
0.30377580489892,9.95859930407711,-216.795666045803,-226.75426534988,103.418533370863,118.356432326979,-221.774965697842
0.305915071130602,11.6667612139177,-211.705811234543,-223.372572448461,100.019525010313,117.519666831189,-217.539191841502
0.308054337362285,13.6042267602497,-208.234905143004,-221.839131903254,97.3153391913774,117.721679331752,-215.037018523129
0.310193603593967,15.3895215606831,-206.139975104285,-221.529496664968,95.3752267718008,118.459509112825,-213.834735884626
0.31233286982565,17.1600289225098,-204.278946414849,-221.438975337359,93.5594587461698,119.299502129935,-212.858960876104
0.314472136057332,19.5826564177424,-201.196069984489,-220.778726402231,90.806706783373,120.180691409987,-210.98739819336
0.316611402289015,23.4099199778038,-196.051223270367,-219.461143248171,86.3206516462814,121.435531612987,-207.756183259269
0.318750668520697,28.9742323475947,-189.115710440661,-218.089942788255,80.0707390465329,123.532087567925,-203.602826614458
0.32088993475238,35.9562029487477,-181.53351981473,-217.489722763477,72.788658432991,126.722962856113,-199.511621289103
0.323029200984062,43.5974369959119,-174.630507639207,-218.227944635119,65.5165353216474,130.912690815515,-196.429226137163
0.325168467215745,51.1341853598111,-169.163705488104,-220.297890847915,59.0147600641466,135.716038103863,-194.73079816801
0.327307733447428,58.0410538311943,-164.917166497231,-222.958220328425,53.4380563330182,140.49963707981,-193.937693412828
0.32944699967911,63.9776866566039,-160.947294807031,-224.924981463635,48.4848040752136,144.45133406012,-192.936138135333
0.331586265910793,68.6200658837052,-156.243116518491,-224.863182402196,43.811525317393,146.741624142951,-190.553149460344
0.333725532142475,71.6283651980939,-150.260822922267,-221.889188120361,39.3162288620867,146.758776659228,-186.075005521314
0.335864798374158,72.8345537416242,-143.176971710834,-216.011525452459,35.1712089846051,144.423039597041,-179.594248581647
0.33800406460584,72.4824712894993,-135.946068684744,-208.428539974244,31.7317986976226,140.455505631872,-172.187304329494
0.340143330837523,71.2819655755377,-129.931314555204,-201.213280130742,29.3246744898331,136.24762285314,-165.572297342973
0.342282597069205,70.173030444469,-126.020368667019,-196.193399111488,27.9236691112748,133.183214777978,-161.106883889253
0.344421863300888,70.0175122868193,-123.95581491446,-193.973327201279,26.9691513138203,131.995419744049,-158.964571057869
0.34656112953257,71.4998237439434,-122.479535028159,-193.979358772102,25.4898556421076,132.739591258023,-158.22944690013
0.348700395764253,75.1143056998978,-119.986244269876,-195.100549969774,22.4359692849892,135.107427834836,-157.543397119825
0.350839661995935,80.9944669181949,-115.306098611215,-196.30056552941,17.15581584651,138.647516223802,-155.803332070312
0.352978928227618,88.6838245777567,-108.312111912023,-196.995936489779,9.81414366713302,142.839880533768,-152.654024200901
0.3551181944593,97.0625598878287,-99.9141681916887,-196.976728079517,1.42580415192998,147.019643983673,-148.445448135603
0.357257460690983,104.473986130822,-91.5572810191164,-196.031267149938,-6.45835255585281,150.25262664038,-143.794274084527
0.359396726922666,109.087807451392,-84.7850436461653,-193.872851097557,-12.1513819026133,151.480329274475,-139.328947371861
0.361535993154348,109.516968603739,-80.8741581969647,-190.391126800704,-14.3214052033872,149.954047702221,-135.632642498834
0.363675259386031,105.439624283021,-80.1879042146035,-185.627528497625,-12.625860034209,145.533576390323,-132.907716356114
0.365814525617713,97.9388811977965,-81.6797400547303,-179.618621252527,-8.12957057153314,138.778751225162,-130.649180653629
0.367953791849396,89.3560537046476,-83.3411806223525,-172.697234327,-3.00743654114757,131.026644015824,-128.019207474676
0.370093058081078,82.4123289147507,-83.3667881096472,-165.779117024398,0.477229597448243,124.095722969574,-124.572952567023
0.372232324312761,78.8711765521115,-81.1073554644688,-159.97853201658,1.11808945617862,119.424854284346,-120.542943740525
0.374371590544443,78.6715634261625,-77.3020147433834,-155.973578169546,-0.684774341389577,117.322570797854,-116.637796456465
0.376510856776126,80.1195532696536,-73.6322676914628,-153.751820961116,-3.24364278909541,116.935687115385,-113.69204432629
0.378650123007808,80.8668296982762,-71.8517480212556,-152.718577719532,-4.50754083851029,116.792703708904,-112.285162870394
0.380789389239491,79.0228823826896,-72.8741321569599,-151.897014539649,-3.07437511286487,115.45994846117,-112.385573348305
0.382928655471173,73.8498973162667,-76.3305847394377,-150.180482055704,1.24034371158553,112.015189685986,-113.255533397571
0.385067921702856,65.8457050551007,-80.8882826167312,-146.733987671832,7.52128878081527,106.289846363466,-113.811135144282
0.387207187934538,56.3538633815023,-85.0513962009936,-141.405259582496,14.3487664097457,98.879561481999,-113.228327891745
0.389346454166221,46.8927362035805,-87.9295451038721,-134.822281307453,20.5184044501458,90.8575087555165,-111.375913205662
0.391485720397904,38.4975496894596,-89.6607620240506,-128.15831171351,25.5816061672955,83.3279307014849,-108.90953686878
0.393624986629586,31.4065620475507,-91.3027834082691,-122.70934545582,29.9481106803592,77.0579537516853,-107.006064432044
0.395764252861269,25.0991965638157,-94.2135414916575,-119.312738055473,34.5571724639209,72.2059673096444,-106.763139773565
0.397903519092951,18.6100577155231,-99.2632849266354,-117.873342642159,40.3266136055562,68.2417001788408,-108.568313784397
0.400042785324634,11.0396161726838,-106.284112976931,-117.323729149615,47.6222484021239,64.1816726611495,-111.803921063273
0.402182051556316,1.89086946032143,-114.11165053382,-116.002519994142,56.1103905367495,58.9466947272317,-115.057085263981
0.404321317787999,-8.92182085685897,-121.337300967595,-112.415480110736,65.1295609122267,51.7468296269383,-116.876390539165
0.406460584019681,-21.1364722767852,-127.244267545172,-106.107795268387,74.1903699109785,42.4856614958008,-116.676031406779
0.408599850251364,-34.2155155726244,-132.118908980847,-97.9033934082228,83.1672122767358,31.8439389177992,-115.011151194535
0.410739116483046,-47.5244158862461,-136.875445997559,-89.351030111313,92.1999309419026,20.9133071125335,-113.113238054436
0.412878382714729,-60.4938975966815,-142.548745414997,-82.0548478183155,101.521321505839,10.780475110817,-112.301796616656
0.415017648946411,-72.6256209874654,-149.791065009656,-77.1654440221907,111.208342998561,2.26991151736269,-113.478254515923
0.417156915178094,-83.4967757976084,-158.365099181379,-74.8683233837707,120.930937489494,-4.31422620691885,-116.616711282575
0.419296181409776,-92.8598209834832,-167.163867451456,-74.3040464679726,130.01184421747,-9.27788725775532,-120.733956959714
0.421435447641459,-100.655865063672,-174.936315653059,-74.2804505893875,137.796090358365,-13.1877072371421,-124.608383121223
0.423574713873141,-106.962451958443,-180.975876255811,-74.0134242973673,143.969164107127,-16.474513830538,-127.494650276589
0.425713980104824,-112.043289977585,-185.282991254194,-73.2397012766084,148.66314061589,-19.4017943504885,-129.261346265401
0.427853246336507,-116.330905366424,-188.466134317336,-72.1352289509127,152.39851984188,-22.0978382077556,-130.300681634125
0.429992512568189,-120.214027354676,-191.466739713205,-71.2527123585285,155.840383533941,-24.480657498074,-131.359726035867
0.432131778799872,-123.843493806798,-194.991398252476,-71.1479044456783,159.417446029637,-26.3477946805599,-133.069651349077
0.434271045031554,-127.04038872406,-199.053985175393,-72.0135964513333,163.047186949726,-27.5133961363632,-135.533790813363
0.436410311263237,-129.325191417415,-202.991302446655,-73.6661110292405,166.158246932035,-27.8295401940872,-138.328706737948
0.438549577494919,-130.214625137032,-205.790741982478,-75.5761168454458,168.002683559755,-27.3192541457933,-140.683429413962
0.440688843726602,-129.545041325904,-206.635810410468,-77.0907690845642,168.090425868186,-26.2271361206699,-141.863289747516
0.442828109958284,-127.447146377551,-205.486839091553,-78.0396927140015,166.466992734552,-24.7037268317749,-141.763265902777
0.444967376189967,-124.200284748092,-203.14977510043,-78.949490352338,163.675029924261,-22.625397197877,-141.049632726384
0.447106642421649,-120.202444668655,-200.752814592366,-80.5503699237105,160.477629630511,-19.8260373724724,-140.651592258038
0.449245908653332,-115.82092034066,-199.175562458777,-83.3546421181174,157.498241399718,-16.2331391112711,-141.265102288447
0.451385174885014,-111.17737027107,-198.684493516279,-87.5071232452088,154.930931893675,-11.8351235129307,-143.095808380744
0.453524441116697,-106.325937202804,-198.772496895733,-92.4465596929287,152.549217049269,-6.93968875493772,-145.609528294331
0.45566370734838,-101.803476379234,-198.454272374729,-96.6507959954953,150.128874376982,-2.57634019186941,-147.552534185112
0.457802973580062,-98.8245372380656,-197.01796207589,-98.1934248378249,147.921249656978,-0.315556200120355,-147.605693456858
0.459942239811745,-98.691152911794,-194.610971706136,-95.9198187943421,146.651062308965,-1.38566705872594,-145.265395250239
0.462081506043427,-101.957012035753,-192.156597653184,-90.1995856174313,147.056804844469,-5.87871320916094,-141.178091635308
0.46422077227511,-108.078203575716,-190.859105983557,-82.7809024078405,149.468654779636,-12.6486505839378,-136.820004195699
0.466360038506792,-115.655481100486,-191.697266019982,-76.041784919496,153.676373560234,-19.8068480904952,-133.869525469739
0.468499304738475,-122.929413557523,-194.85755970771,-71.9281461501875,158.893486632617,-25.5006337036678,-133.392852928949
0.470638570970157,-128.249517473818,-199.3204865317,-71.0709690578817,163.785002002759,-28.5892742079683,-135.195727794791
0.47277783720184,-130.430703063622,-203.192180710369,-72.7614776467476,166.811441886995,-28.834612708437,-137.976829178558
0.474917103433522,-128.987129451181,-204.664837201645,-75.6777077504635,166.825983326413,-26.654710850359,-140.171272476054
0.477056369665205,-124.253317474901,-202.864889967775,-78.6115724928738,163.559103721338,-22.8208724910136,-140.738231230324
0.479195635896887,-117.294945291986,-198.192239404726,-80.8972941127402,157.743592348356,-18.1988255896229,-139.544766758733
0.48133490212857,-109.505715732073,-192.127130888857,-82.6214151567844,150.816423310465,-13.4421502876444,-137.374273022821
0.483474168360252,-102.139753220908,-186.534241504355,-84.3944882834474,144.336997362632,-8.87263246873027,-135.464364893901
0.485613434591935,-96.1104400046531,-182.69438766149,-86.5839476568365,139.402413833071,-4.7632461739083,-134.639167659163
0.487752700823617,-91.9316832099637,-180.648532152271,-88.7168489423071,136.290107681117,-1.60741713382832,-134.682690547289
0.4898919670553,-89.5395977788812,-179.312037232982,-89.7724394541007,134.425817505932,0.116420837609752,-134.542238343541
0.492031233286983,-88.1993169183178,-177.216136924071,-89.0168200057536,132.707726921195,0.408751543717941,-133.116478464913
0.494170499518665,-86.8532259176388,-173.396631869824,-86.5434059521848,130.124928893731,-0.154909982727006,-129.970018911004
0.496309765750348,-84.6886900898711,-167.894988106583,-83.2062980167123,126.291839098227,-0.74119603657941,-125.550643061648
0.49844903198203,-81.4530403906701,-161.60784854148,-80.1548081508096,121.530444466075,-0.649116119930255,-120.881328346145
0.500588298213713,-77.4354028694277,-155.782291919405,-78.3468890499769,116.608847394416,0.455743090274595,-117.064590484691
0.502727564445395,-73.2181084312291,-151.480046017226,-78.2619375859971,112.349077224228,2.521914577384,-114.870991801612
0.504866830677078,-69.3729227714331,-149.039543764657,-79.6666209932237,109.206233268045,5.14684911089532,-114.35308237894
0.50700609690876,-66.3612778918788,-147.820030475834,-81.4587525839553,107.090654183857,7.54873734603825,-114.639391529895
0.509145363140443,-64.5945475713457,-146.664718595216,-82.0701710238704,105.629633083281,8.73781172626235,-114.367444809543
0.511284629372125,-64.3716364851092,-144.766492931504,-80.394856446395,104.569064708307,8.01160998064292,-112.58067468895
0.513423895603808,-65.7679606529829,-142.136470078046,-76.3685094250633,103.952215365515,5.3002743860402,-109.252489751555
0.51556316183549,-68.7750137187835,-139.53245410115,-70.7574403823667,104.153733909967,0.991213331791627,-105.144947241758
0.517702428067173,-73.5164583284632,-138.169232378607,-64.6527740501442,105.842845353535,-4.4318421391595,-101.411003214376
0.519841694298856,-80.077345784821,-139.16161346774,-59.0842676829187,109.61947962628,-10.4965390509512,-99.1229405753292
0.521980960530538,-87.945638681546,-142.706575150905,-54.7609364693594,115.326106916226,-16.5923511060933,-98.7337558101324
0.524120226762221,-95.6223821208249,-147.672273067917,-52.0498909470921,121.647327594371,-21.7862455868664,-99.8610820075045
0.526259492993903,-100.919335339321,-152.052242856443,-51.132907517122,126.485789097882,-24.8932139110995,-101.592575186783
0.528398759225586,-101.871267799826,-153.85218651676,-51.9809187169332,127.861727158293,-24.9451745414466,-102.916552616846
0.530538025457268,-97.6299727909025,-151.894870609541,-54.264897818638,124.762421700222,-21.6825374861322,-103.079884214089
0.532677291688951,-88.7418308289477,-146.32455723043,-57.5827264014819,117.533194029689,-15.5795522137329,-101.953641815956
0.534816557920633,-76.8134694551516,-138.485635839116,-61.6721663839644,107.649552647134,-7.57065153559361,-100.07890111154
0.536955824152316,-63.9889832450087,-130.169961560257,-66.1809783152481,97.0794724026327,1.09599753511969,-98.1754699377524
0.539095090383998,-52.4480529141014,-122.876875338736,-70.4288224246343,87.6624641264185,8.99038475526646,-96.652848881685
0.541234356615681,-43.9003706100659,-117.424573712111,-73.524203102045,80.6624721610884,14.8119162459896,-95.474388407078
0.543373622847363,-39.234833268522,-113.751822428667,-74.5169891601453,76.4933278485947,17.6410779458116,-94.1344057944063
0.545512889079046,-38.5138649479786,-111.115964166984,-72.6020992190049,74.8149145574811,17.0441171355131,-91.8590316929942
0.547652155310728,-41.1561462295613,-108.787275640915,-67.6311294113541,74.9717109352383,13.2374915908964,-88.2092025261347
0.549791421542411,-46.1323094988771,-106.599842071409,-60.4675325725315,76.3660757851428,7.16761153682722,-83.5336873219701
0.551930687774093,-52.2659320659197,-104.938840466657,-52.6729084007378,78.6023862662886,0.203488167409034,-78.8058744336976
0.554069954005776,-58.5259652474985,-104.445035074684,-45.9190698271857,81.4855001610914,-6.30344771015641,-75.182052450935
0.556209220237459,-64.0772224892758,-105.579530579767,-41.5023080904909,84.8283765345213,-11.2874571993925,-73.5409193351288
0.558348486469141,-68.2288503168828,-108.044903363271,-39.8160530463882,88.1368768400769,-14.2063986352473,-73.9304782048296
0.560487752700824,-70.4892829421921,-110.614074403368,-40.1247914611759,90.5516786727801,-15.1822457405081,-75.3694329322719
0.562627018932506,-70.6783605810117,-111.748078504561,-41.0697179235494,91.2132195427864,-14.8043213287311,-76.4088982140553
0.564766285164189,-68.8938077412924,-110.409515866494,-41.5157081252019,89.6516618038933,-13.6890498080452,-75.9626119958481
0.566905551395871,-65.3497018397363,-106.441104730161,-41.0914028904243,85.8954032849484,-12.129149474656,-73.7662538102924
0.569044817627554,-60.3534506617034,-100.577594211683,-40.2241435499795,80.4655224366932,-10.0646535558619,-70.4008688808312
0.571184083859236,-54.3774233897274,-94.2368435039916,-39.8594201142643,74.3071334468595,-7.25900163773156,-67.0481318091279
0.573323350090919,-48.0614990238285,-88.9320247090402,-40.8705256852117,68.4967618664344,-3.5954866693084,-64.901275197126
0.575462616322601,-42.2115207396961,-85.4813742900483,-43.2698535503522,63.8464475148722,0.529166405328056,-64.3756139202002
0.577601882554284,-37.7380540335722,-83.7000902909592,-45.9620362573871,60.7190721622657,4.11199111190746,-64.8310632741731
0.579741148785966,-35.4954381092646,-82.8132746282138,-47.3178365189492,59.1543563687392,5.91119920484226,-65.0655555735815
0.581880415017649,-36.1371822221204,-82.0772859827612,-45.9401037606407,59.1072341024408,4.90146076926015,-64.008694871701
0.584019681249331,-39.9217639925778,-81.2157870137792,-41.2940230212013,60.5687755031785,0.686129514311745,-61.2549050174902
0.586158947481014,-46.4232521506467,-80.6035819656697,-34.180329815023,63.5134170581582,-6.12146116781184,-57.3919558903464
0.588298213712697,-54.4067207321993,-80.9990960240075,-26.5923752918081,67.7029083781034,-13.9071727201956,-53.7957356579078
0.590437479944379,-62.0987122128712,-82.9146908559746,-20.8159786431034,72.5067015344229,-20.6413667848839,-51.865334749539
0.592576746176062,-67.6788672568533,-86.1798216208606,-18.5009543640073,76.929344438857,-24.588956446423,-52.3403879924339
0.594716012407744,-69.6669024456384,-89.8903605911403,-20.2234581455019,79.7786315183893,-24.7217221500682,-55.0569093683211
0.596855278639427,-67.208038903729,-92.5759404397322,-25.3679015360032,79.8919896717306,-20.9200686838629,-58.9719209878677
0.598994544871109,-60.3691079749981,-92.6808299821787,-32.3117220071805,76.5249689785884,-14.0286929839088,-62.4962759946796
0.601133811102792,-50.2368735692291,-89.3255177991671,-39.0886442299379,69.7811956841981,-5.57411466964561,-64.2070810145525
0.603273077334474,-38.6210954028402,-82.8025871631185,-44.1814917602783,60.7118412829793,2.78019817871905,-63.4920394616984
0.605412343566157,-27.6037752773777,-74.5092601480219,-46.9054848706442,51.0565177126998,9.65085479663321,-60.707372509333
0.607551609797839,-19.1486161107177,-66.4810063337682,-47.3323902230504,42.814811222243,14.0918870561663,-56.9066982784093
0.609690876029522,-14.6387755795233,-60.6176846017552,-45.9789090222319,37.6282300906392,15.6700667213543,-53.2982968119935
0.611830142261204,-14.437964720166,-57.8419662399047,-43.4040015197387,36.1399654800353,14.4830183997864,-50.6229838798217
0.613969408492887,-17.8050482689242,-57.7642805594476,-39.9592322905233,37.7846644141859,11.0770920107996,-48.8617564249855
0.61610867472457,-23.2417104227688,-59.0856610064025,-35.8439505836337,41.1636857145856,6.30112008043244,-47.4648057950181
0.618247940956252,-29.1049591574651,-60.3239540537352,-31.2189948962701,44.7144566056001,1.0570178694025,-45.7714744750026
0.620387207187935,-34.1807944243862,-60.4826224660226,-26.3018280416363,47.3317084452044,-3.93948319137496,-43.3922252538295
0.622526473419617,-37.95677973877,-59.5131582967244,-21.5563785579545,48.7349690177472,-8.20020059040775,-40.5347684273395
0.6246657396513,-40.4973780913035,-58.259053572232,-17.7616754809285,49.3782158317677,-11.3678513051875,-38.0103645265803
0.626805005882982,-42.1067180954845,-57.7825590023515,-15.675840906867,49.944638548918,-13.2154385943088,-36.7291999546092
0.628944272114665,-43.1646776815058,-58.6243667381582,-15.4596890566524,50.894522209832,-13.8524943124267,-37.0420278974053
0.631083538346347,-44.0927906211094,-60.5577792157169,-16.4649885946075,52.3252849184132,-13.813901013251,-38.5113839051622
0.63322280457803,-45.1267090738044,-62.7514831202936,-17.6247740464893,53.939096097049,-13.7509675136575,-40.1881285833915
0.635362070809712,-46.0045861931966,-64.0855597080122,-18.0809735148155,55.0450729506044,-13.9618063391906,-41.0832666114138
0.637501337041395,-45.9674386118315,-63.6481301961551,-17.6806915843235,54.8077844039933,-14.143373513754,-40.6644108902393
0.639640603273077,-44.2005066478923,-61.2421425237135,-17.0416358758212,52.7213245858029,-13.5794353860355,-39.1418891997673
0.64177986950476,-40.3309865483553,-57.4740469183228,-17.1430603699674,48.902516733339,-11.5939630891939,-37.3085536441451
0.643919135736442,-34.5725208060516,-53.3566606264123,-18.7841398203608,43.964590716232,-7.89419049284538,-36.0704002233866
0.646058401968125,-27.5404849393757,-49.7418593598036,-22.2013744204278,38.6411721495897,-2.66955525947395,-35.9716168901157
0.648197668199808,-19.9161624906866,-46.8732678746296,-26.957105383943,33.3947151826581,3.52047144662822,-36.9151866292863
0.65033693443149,-12.1914162669254,-44.2764592523642,-32.0850429854388,28.2339377596448,9.94681335925668,-38.1807511189015
0.652476200663173,-4.68848075220444,-41.1046587121416,-36.4161779599372,22.896569732173,15.8638486038664,-38.7604183360394
0.654615466894855,2.3218974893968,-36.695499610204,-39.0173970996008,17.1868010604036,20.6696472944988,-37.8564483549024
0.656754733126538,8.65139142440182,-30.9285677946234,-39.5799592190252,11.1385881851108,24.1156753217135,-35.2542635068243
0.65889399935822,14.2896115159991,-24.2877626552217,-38.5773741712209,4.99907556961131,26.43349284361,-31.4325684132213
0.661033265589903,19.3625426627599,-17.715011573591,-37.077554236351,-0.823765544584461,28.2200484495555,-27.396282904971
0.663172531821585,23.9306602772033,-12.2217325005483,-36.1523927777517,-5.8544638883275,30.0415265274775,-24.18706263915
0.665311798053268,27.8134455987758,-8.35804695340039,-36.1714925521762,-9.7276993226877,31.992469075476,-22.2647697527883
0.66745106428495,30.5249361550922,-5.96072484559863,-36.4856610006908,-12.2821056547468,33.5052985778915,-21.2231929231447
0.669590330516633,31.3132112156847,-4.38570918392634,-35.698920399611,-13.4637510158792,33.5060658076479,-20.0423147917687
0.671729596748315,29.5297477573499,-2.96026950646342,-32.4900172638133,-13.2847391254432,31.0098825105816,-17.7251433851384
0.673868862979998,25.2397846908981,-1.39233825064071,-26.6321229415388,-11.9237232201287,25.9359538162184,-14.0122305960898
0.67600812921168,19.4571225002647,0.0673036840698842,-19.3898188161948,-9.76221309216729,19.4234706582297,-9.66125756606246
0.678147395443363,13.7715176055632,0.906511979527522,-12.8650056260357,-7.33901479254538,13.3182616157995,-5.9792468232541
0.680286661675045,9.75368067973449,0.869883507624309,-8.88379717211018,-5.3117820936794,9.31873892592233,-4.00695683224293
0.682425927906728,8.56538902846802,0.302908043343223,-8.2624809851248,-4.43414853590562,8.41393500679641,-3.97978647089079
0.684565194138411,10.8466325894869,0.191558832048713,-10.6550737574382,-5.5190957107678,10.7508531734625,-5.23175746269473
0.686704460370093,16.7321209467071,1.86495058361879,-14.8671703630883,-9.29853576516297,15.7996456548977,-6.50110988973478
0.688843726601776,25.8608020291826,6.37224342881882,-19.4885586003638,-16.1165227290007,22.6746803147732,-6.55815758577248
0.690982992833458,37.2333021040396,13.8262495498645,-23.407052554175,-25.5297758269521,30.3201773291073,-4.79040150215525
0.693122259065141,49.1163822034297,23.1653149445731,-25.9510672588567,-36.1408485740014,37.5337247311432,-1.39287615714179
0.695261525296823,59.4057010807306,32.5500161953871,-26.8556848853435,-45.9778586380589,43.1306929830371,2.8471656550218
0.697400791528506,66.2844402430944,40.0655537475466,-26.2188864955478,-53.1749969953205,46.2516633693211,6.92333362599939
0.699540057760188,68.6319917333064,44.2912523761781,-24.3407393571283,-56.4616220547423,46.4863655452173,9.97525650952494
0.701679323991871,66.0514286728836,44.7378724888017,-21.3135561840818,-55.3946505808426,43.6824924284827,11.7121581523599
0.703818590223553,58.8241923151893,42.0649974479838,-16.7591948672055,-50.4445948815866,37.7916935911974,12.6529012903892
0.705957856455236,47.8823047964229,37.6834307404588,-10.1988740559641,-42.7828677684408,29.0405894261935,13.7422783422473
0.708097122686918,34.6424181523028,32.8942735207638,-1.74814463153893,-33.7683458365333,18.1952813919208,15.5730644446124
0.710236388918601,20.7630515891943,28.2623065800612,7.49925499086697,-24.5126790846278,6.63189829916365,17.8807807854641
0.712375655150283,7.87522180822526,23.598464693124,15.7232428848988,-15.7368432506746,-3.92401053833674,19.6608537890114
0.714514921381966,-2.76251847503443,18.4501455830657,21.2126640581001,-7.84381355401564,-11.9875912665673,19.8314048205829
0.716654187613649,-10.5143263535805,12.6888425667303,23.2031689203108,-1.08725810657486,-16.8587476369457,17.9460057435205
0.718793453845331,-15.3785105780275,6.72217619634853,22.1006867743761,4.32816719083951,-18.7395986762018,14.4114314853623
0.720932720077014,-17.841404681046,1.32917407965033,19.1705787606963,8.25611530069784,-18.5059917208712,10.2498764201733
0.723071986308696,-18.6885699815664,-2.6149024968654,16.073667484701,10.6517362392159,-17.3811187331337,6.7293824939178
0.725211252540379,-18.8747973557352,-4.52284632292344,14.3519510328117,11.6988218393293,-16.6133741942734,4.91455235494414
0.727350518772061,-19.4186619149592,-4.56303113686408,14.8556307780951,11.9908465259116,-17.1371463465272,5.14629982061552
0.729489785003744,-21.2181022060171,-3.8356382494319,17.3824639565852,12.5268702277245,-19.3002830813012,6.77341285357667
0.731629051235426,-24.8950395183617,-3.91392054753214,20.9811189708296,14.4044800329469,-22.9380792445957,8.53359921164872
0.733768317467109,-30.7327377351205,-6.02675322398341,24.705984511137,18.3797454795519,-27.7193611231287,9.33961564357682
0.735907583698791,-38.6022934251999,-10.5634205369395,28.0388728882604,24.5828569810697,-33.3205831567302,8.73772617566047
0.738046849930474,-47.9641281189508,-17.0615600101135,30.9025681088374,32.5128440645321,-39.4333481138941,6.92050404936197
0.740186116162156,-58.0618630431304,-24.4060188625069,33.6558441806235,41.2339409528187,-45.858853611877,4.62491265905828
0.742325382393839,-68.0786301587518,-31.2938513056995,36.7847788530523,49.6862407322257,-52.4317045059021,2.74546377367642
0.744464648625521,-77.0734910216834,-36.9026387360293,40.1708522856541,56.9880648788564,-58.6221716536688,1.63410677481241
0.746603914857204,-83.9852575073187,-41.1725785920921,42.8126789152266,62.5789180497054,-63.3989682112727,0.820050161567252
0.748743181088886,-87.9181973369981,-44.4918776375766,43.4263196994215,66.2050374872874,-65.6722585182098,-0.532778969077583
0.750882447320569,-88.4666080335232,-47.2605207186803,41.2060873148429,67.8635643761017,-64.8363476741831,-3.02721670191866
0.753021713552252,-85.8185806836714,-49.6427590821731,36.1758216014982,67.7306698829223,-60.9972011425848,-6.73346874033746
0.755160979783934,-80.6150994159277,-51.4082184427332,29.2068809731945,66.0116589293305,-54.9109901945611,-11.1006687347693
0.757300246015617,-73.7688040888393,-51.9628241714754,21.8059799173639,62.8658141301574,-47.7873920031016,-15.0784221270557
0.759439512247299,-66.4627983882871,-50.7471661682193,15.7156322200677,58.6049822782532,-41.0892153041774,-17.5157669740758
0.761578778478982,-60.0642030841633,-47.7120743299624,12.3521287542009,53.8881387070629,-36.2081659191821,-17.6799727878808
0.763718044710664,-55.6154509206993,-43.5205405292686,12.0949103914307,49.5679957249839,-33.855180656065,-15.712815068919
0.765857310942347,-53.2920624411872,-39.3622635314737,13.9297989097136,46.3271629863304,-33.6109306754504,-12.7162323108801
0.767996577174029,-52.4052267241879,-36.3870277614342,16.0181989627537,44.396127242811,-34.2117128434708,-10.1844143993403
0.770135843405712,-51.9337602013348,-35.1113404479463,16.8224197533885,43.5225503246405,-34.3780899773616,-9.14446034727891
0.772275109637394,-51.2160008310272,-35.2640315890126,15.9519692420146,43.2400162100199,-33.5839850365209,-9.65603117349897
0.774414375869077,-50.4252531789064,-36.0614074240455,14.3638457548609,43.2433303014759,-32.3945494668836,-10.8487808345923
0.77655364210076,-50.4868296153383,-36.6273571935906,13.8594724217477,43.5570934044644,-32.173151018543,-11.3839423859214
0.778692908332442,-52.5061181646969,-36.469359794932,16.036758369765,44.4877389798145,-34.271438267231,-10.2163007125835
0.780832174564125,-57.218235140276,-35.8995649030032,21.3186702372728,46.5589000216396,-39.2684526887744,-7.29044733286523
0.782971440795807,-64.6607046054256,-35.9677466847666,28.692957920659,50.3142256450961,-46.6768312630423,-3.63739438205377
0.78511070702749,-73.9711051957664,-37.7500486143433,36.2210565814231,55.8605769050549,-55.0960808885948,-0.7644960164601
0.787249973259172,-83.3978797771921,-41.6076005130267,41.7902792641654,62.5027401451094,-62.5940795206787,0.0913393755693619
0.789389239490855,-90.5190512235675,-46.8691724886885,43.6498787348791,68.694111856128,-67.0844649792233,-1.60964687690472
0.791528505722537,-92.4366885572827,-51.712399887241,40.7242886700417,72.0745442222618,-66.5804886136622,-5.49405560859964
0.79366777195422,-85.8278546785104,-53.2823468339384,32.5455078445721,69.5551007562244,-59.1866812615413,-10.3684194946832
0.795807038185902,-67.0216066030341,-48.3584911958187,18.6631154072154,57.6900488994264,-42.8423610051248,-14.8476878943017
0.797946304417585,-32.3336574521682,-34.1954216876286,-1.86176423546044,33.2645395698984,-15.2359466083539,-18.0285929615445
0.800085570649267,21.3334562365261,-8.94518674572032,-30.2786429822464,-6.19413474540289,25.8060496093863,-19.6119148639834
0.80222483688095,95.6045832737802,28.1774596289251,-67.4271236448551,-61.8910214513527,81.5158534593177,-19.624832007965
0.804364103112632,189.561242764883,76.7028804823899,-112.858362282493,-133.132061623636,151.209802523688,-18.0777409000515
0.806503369344315,299.097488277104,135.002157558198,-164.095330718906,-217.049822917651,231.596409498005,-14.5465865803542
0.808642635575997,417.058826247639,200.679216919097,-216.379609328542,-308.869021583368,316.719217788091,-7.85019620472258
0.81078190180768,533.743142969813,270.554991849815,-263.188151119998,-402.149067409814,398.465647044905,3.68342036490833
0.812921168039363,637.560296236164,340.214019738181,-297.346276497984,-488.887157987173,467.453286367074,21.4338716200985
0.815060434271045,716.417338967379,404.000916467445,-312.416422499935,-560.209127717412,514.416880733657,45.792246983755
0.817199700502728,760.120004697121,455.771541037009,-304.348463660111,-607.945772867065,532.234234178616,75.7115386884491
0.81933896673441,762.923523568534,490.023914034444,-272.89960953409,-626.473718801489,517.911566551312,108.562152250177
0.821478232966093,724.899711037384,503.187206467113,-221.712504570271,-614.043458752248,473.306107803827,140.737350948421
0.823617499197775,651.611081956844,494.675777682721,-156.935304274124,-573.143429819783,404.273193115484,168.870236704299
0.825756765429458,552.635952830931,467.107712391063,-85.5282404398672,-509.871832610997,319.082096635399,190.789735975598
0.82789603166114,439.741540207036,425.619861088812,-14.1216791182242,-432.680700647924,226.93160966263,205.749090985294
0.830035297892823,325.199596631281,376.622629277301,51.4230326460204,-350.911112954291,136.88828199263,214.022830961661
0.832174564124505,220.301259774775,326.363643757005,106.06238398223,-273.33245176589,57.1194378962726,216.213013869617
0.834313830356188,133.912912182751,279.782203206767,145.869291024016,-206.847557694759,-5.97818942063259,212.825747115392
0.83645309658787,71.2368737112851,239.974292482092,168.737418770807,-155.605583096689,-48.7502725297611,204.35585562645
0.838592362819553,33.2195556290469,208.161594344366,174.942038715319,-120.690574986707,-70.8612415431363,191.551816529843
0.840731629051235,16.8528055136177,183.976537183718,167.1237316701,-100.414671348668,-75.1354630782411,175.550134426909
0.842870895282918,16.2685460468268,166.046718954587,149.778172907761,-91.157632500707,-66.7548134304669,157.912445931174
0.845010161514601,24.2935822905215,152.743884740804,128.450302450282,-88.5187335156626,-52.0783600798803,140.597093595543
0.847149427746283,34.087961305529,142.642078026715,108.554116721186,-88.365019666122,-37.2330777078285,125.59809737395
0.849288693977966,40.4661830780492,134.454714723051,93.9885316450019,-87.4604489005501,-26.7611742834764,114.221623184026
0.851427960209648,40.4900124367447,126.84398077607,86.3539683393254,-83.6669966064074,-22.9319779512904,106.598974557698
0.853567226441331,33.271594374115,118.438128396891,85.1665340227759,-75.8548613855029,-25.9474698243305,101.802331209833
0.855706492673013,19.3868745064208,107.98616931313,88.5992948067096,-63.6865219097756,-34.6062101501444,98.29273205992
0.857845758904696,0.356047811058971,94.6806705620595,94.3246227510005,-47.5183591865592,-46.9842874699708,94.50264665653
0.859985025136378,-21.6429190102031,78.605940340321,100.248859350524,-28.481510665059,-60.9458891803636,89.4273998454225
0.862124291368061,-43.9698921619332,60.9308025709064,104.90069473284,-8.48045520448657,-74.4352934473864,82.915748651873
0.864263557599743,-63.8320404685487,43.6149086176254,107.446949086174,10.1085659254617,-85.6394947773614,75.5309288518997
0.866402823831426,-78.7861320611972,28.7564514701079,107.542583531305,25.0148402955446,-93.1643577962511,68.1495175007065
0.868542090063108,-87.3818763113638,17.8471229745155,105.228999285879,34.7673766684241,-96.3054377986215,61.5380611301974
0.870681356294791,-89.6433943234998,11.1669320562648,100.810326379765,39.2382311336175,-95.2268603516322,55.9886292180147
0.872820622526473,-86.9823380033235,7.64927461940033,94.6316126227239,39.6665316919616,-90.8069753130237,51.1404436210621
0.874959888758156,-81.6253002632741,5.43880204033269,87.0641023036068,38.0932491114707,-84.3447012834404,46.2514521719697
0.877099154989838,-76.0237841550149,2.75089793935717,78.7746820943721,36.6364431078289,-77.3992331246935,40.7627900168646
0.879238421221521,-72.4060233482576,-1.4667050165931,70.9393183316645,36.9363641824253,-71.672670839961,34.7363066575357
0.881377687453204,-72.3099297764852,-7.19240460346396,65.1175251730213,39.7511671899746,-68.7137274747533,28.9625602847787
0.883516953684886,-76.0897872930737,-13.4766539052886,62.6131333877851,44.7832205991811,-69.3514603404294,24.5682397412483
0.885656219916569,-82.7165449779013,-19.1749668284018,63.5415781494994,50.9457559031515,-73.1290615637003,22.1833056605488
0.887795486148251,-90.1446834594352,-23.6970533565059,66.4476301029293,56.9208684079705,-78.2961567811822,21.3752883732117
0.889934752379934,-96.0748068697378,-27.0577871262599,69.0170197434779,61.5662969979988,-82.5459133066079,20.979616308609
0.892074018611616,-98.7143661279825,-29.4909126217893,69.2234535061932,64.1026393748859,-83.9689098170879,19.8662704422019
0.894213284843299,-97.2939364269885,-31.3107360166307,65.9832004103578,64.3023362218096,-81.6385684186731,17.3362321968635
0.896352551074981,-92.2790829828365,-32.8501275810116,59.4289554018249,62.5646052819241,-75.8540191923307,13.2894139104066
0.898491817306664,-85.1996409334665,-34.1588988526474,51.0407420808191,59.679269893057,-68.1201915071428,8.44092161408582
0.900631083538346,-78.0392614451221,-34.9558198961654,43.0834415489567,56.4975406706438,-60.5613514970394,4.06381082639566
0.902770349770029,-72.4594734211732,-35.0186686634208,37.4408047577523,53.739071042297,-54.9501390894628,1.21106804716575
0.904909616001711,-69.3417043325484,-34.4562778536164,34.885426478932,51.8989910930824,-52.1135654057402,0.214574312657824
0.907048882233394,-68.8214871933796,-33.7332748946845,35.088212298695,51.2773810440321,-51.9548497460373,0.677468702005243
0.909188148465076,-70.5502109768865,-33.6491006274163,36.9011103494702,52.0996558021514,-53.7256606631783,1.62600486102697
0.911327414696759,-73.8386371156813,-35.0195873313702,38.8190497843111,54.4291122235257,-56.3288434499962,1.89973122647044
0.913466680928442,-77.597922417633,-38.010044893059,39.587877524574,57.803983655346,-58.5928999711035,0.78891631575749
0.915605947160124,-80.3275061258061,-41.8048431820794,38.5226629437267,61.0661746539427,-59.4250845347664,-1.64109011917634
0.917745213391807,-80.4578338155977,-44.9370786374982,35.5207551780995,62.6974562265479,-57.9892944968486,-4.70816172969936
0.919884479623489,-76.9195140464888,-45.8785660541073,31.0409479923815,61.3990400502981,-53.9802310194352,-7.41880903086289
0.922023745855172,-69.5111448256952,-43.638180809893,25.8729640158022,56.5746628177941,-47.6920544207487,-8.8826083970454
0.924163012086854,-58.9781054744456,-38.2276743628196,20.7504311116261,48.6028899186326,-39.8642682930358,-8.73862162559676
0.926302278318537,-46.894945839431,-30.735367651644,16.159578187787,38.8151567455375,-31.527262013609,-7.28789473192848
0.928441544550219,-35.2667811794445,-22.8961600600446,12.3706211193999,29.0814706197446,-23.8187011494222,-5.26276947032238
0.930580810781902,-25.9217856321532,-16.3537775765953,9.5680080555579,21.1377816043743,-17.7448968438556,-3.39288476051872
0.932720077013584,-20.0337463640886,-12.0384428475414,7.99530351654712,16.036094605815,-14.0145249403178,-2.02156966549715
0.934859343245267,-18.0152220887437,-9.92499372020586,8.09022836853784,13.9701079044748,-13.0527252286408,-0.917382675834013
0.936998609476949,-19.6588008225123,-9.2639376020694,10.3948632204429,14.4613692122909,-15.0268320214776,0.565462809186752
0.939137875708632,-24.2698304231189,-9.19449722441971,15.0753331986992,16.7321638237693,-19.672581810909,2.94041798713974
0.941277141940315,-30.7478254754671,-9.21139229561913,21.536433179848,19.9796088855431,-26.1421293276575,6.16252044211441
0.943416408171997,-37.61914779691,-9.16123592520898,28.457911871701,23.3901918610595,-33.0385298343055,9.64833797324601
0.94555567440368,-43.1148400093838,-9.07835583708959,34.0364841722942,26.0965979232367,-38.575662090839,12.4790641676023
0.947694940635362,-45.5235911028779,-9.04231790922256,36.4812731936553,27.2829545060502,-41.0024321482666,13.7194776422164
0.949834206867045,-43.7141934184734,-8.87651712650711,34.8376762919663,26.2953552724902,-39.2759348552198,12.9805795827296
0.951973473098727,-37.4679079763023,-7.8843867395027,29.5835212367996,22.6761473579025,-33.5257146065509,10.8495672486484
0.95411273933041,-27.5139146926939,-5.15863244954949,22.3552822431444,16.3362735711217,-24.9345984679192,8.59832489679748
0.956252005562092,-15.417635061205,-0.267058765455204,15.1505762957498,7.84234691333012,-15.2841056784774,7.44175876514731
0.958391271793775,-3.29152477566612,6.44283102554596,9.73435580121208,-1.57565312493992,-6.5129402884391,8.08859341337902
0.960530538025457,6.84420476174071,13.9536969037964,7.1094921420557,-10.3989508327686,-0.132643690157494,10.5315945229261
0.96266980425714,13.7725924090917,20.7812273979173,7.00863498882556,-17.2769099035045,3.38197871013308,13.8949311933714
0.964809070488822,17.3330524640104,25.4795603486943,8.14650788468391,-21.4063064063524,4.59327228966326,16.8130341166891
0.966948336720505,18.1484317953586,27.3896607455293,9.24122895017069,-22.769046270444,4.45360142259398,18.31544484785
0.969087602952187,17.1480451641593,26.9691985793844,9.82115341522506,-22.0586218717719,3.66344587446714,18.3951759973047
0.97122686918387,15.2321089078841,25.5030283079743,10.2709194000902,-20.3675686079292,2.48059475389697,17.8869738540323
0.973366135415553,13.2021541378883,24.5165975848007,11.3144434469124,-18.8593758613445,0.943855345487918,17.9155205158566
0.975505401647235,11.776868123914,25.0802191286559,13.3033510047419,-18.428543626285,-0.763241440413985,19.1917850666989
0.977644667878918,11.5961176516513,27.3900500959334,15.7939324442821,-19.4930838737923,-2.0989073963154,21.5919912701077
0.9797839341106,13.1769311900153,30.9820085405371,17.8050773505217,-22.0794698652762,-2.3140730802532,24.3935429455294
0.981923200342283,16.6620605115612,35.1241079914037,18.4620474798425,-25.8930842514824,-0.899993484140637,26.7930777356231
0.984062466573965,21.5432535739135,39.0063349474003,17.4630813734868,-30.2747942606569,2.04008610021334,28.2347081604436
0.986201732805648,26.7879168788399,42.0463539106108,15.2584370317709,-34.4171353947254,5.76473992353448,28.6523954711909
0.98834099903733,31.4060319639371,44.3106259526278,12.9045939886907,-37.8583289582824,9.25071898762322,28.6076099706592
0.990480265269013,35.0626452030709,46.5193080177064,11.4566628146355,-40.7909766103887,11.8029911942177,28.9879854161709
0.992619531500695,38.2552050077838,49.5226146731025,11.2674096653186,-43.8889098404431,13.4938976712326,30.3950121692105
0.994758797732378,41.8886415711421,53.7476854662156,11.8590438950735,-47.8181635186788,15.0147988380343,32.8033646806445
0.99689806396406,46.6014947471883,58.9460232169142,12.3445284697259,-52.7737589820513,17.1284831387312,35.6452758433201
0.999037330195743,52.36135483303,64.2455879693381,11.8842331363081,-58.3034714011841,20.238560848361,38.0649105528231
1.00117659642743,58.536644715604,68.579268887464,10.0426241718599,-63.557956801534,24.2470102718721,39.3109465296619
1.00331586265911,64.3105738164531,71.354761786283,7.04418796982993,-67.832667801368,28.6331929233116,39.1994748780565
1.00545512889079,69.2025184480044,72.8619355964269,3.65941714842246,-71.0322270222156,32.771550649791,38.2606763724247
1.00759439512247,73.3922644142282,74.1267845417137,0.73452012748551,-73.759524477971,36.3288721433714,37.4306523345996
1.00973366135416,77.5513239598025,76.4077366005708,-1.14358735923163,-76.9795302801867,39.3474556595171,37.6320746206696
1.01187292758584,82.3348693272884,80.593082316694,-1.74178701059438,-81.4639758219912,42.0383281689414,39.4256476530498
1.01401219381752,87.983526863437,86.6641249510586,-1.31940191237842,-87.3238259072478,44.6514643879077,42.6723615193401
1.0161514600492,94.1871177538587,93.6029804439958,-0.584137309862911,-93.8950490989272,47.3856275318608,46.5094215670664
1.01829072628089,100.170768414531,99.9645201684632,-0.206248246067815,-100.067644291497,50.1885083302994,49.8791359611977
1.02042999251257,105.051937403239,104.609954369499,-0.44198303373939,-104.830945886369,52.746960218489,52.0839856678799
1.02256925874425,108.355647867091,107.127333060671,-1.22831480642037,-107.741490463881,54.7919813367558,52.9495091271252
1.02470852497593,110.309754521692,108.040171889696,-2.26958263199589,-109.174963205694,56.289668576844,52.8852946288501
1.02684779120762,111.705339360902,108.695104940764,-3.01023442013826,-110.200222150833,57.3577868905201,52.8424352603127
1.0289870574393,113.443340126054,110.550476793939,-2.89286333211433,-111.996908459996,58.168101729084,53.8288067309125
1.03112632367098,116.096816181315,114.268193233104,-1.82862294821084,-115.182504707209,58.9627195647628,56.2197851424466
1.03326558990266,119.807785055175,119.358188093399,-0.449596961776592,-119.582986574287,60.1286910084759,59.454295565811
1.03540485613435,124.448193331999,124.57764958473,0.129456252731345,-124.512921458365,62.1593685396338,62.3535529187308
1.03754412236603,129.677981208634,128.705990784811,-0.971990423823001,-129.191985996722,65.3249858162283,63.8670001804938
1.03968338859771,134.828318708705,131.227386232188,-3.60093247651673,-133.027852470447,69.214625592611,63.8132268778359
1.04182265482939,138.96515416653,132.562391056194,-6.40276311033585,-135.763772611362,72.683958638433,63.0798139729292
1.04396192106108,141.267275264708,133.69412254948,-7.57315271522805,-137.480698907094,74.4202139899678,63.0604849171257
1.04610118729276,141.353177609662,135.439780114286,-5.91339749537553,-138.396478861974,73.6332875525188,64.7631913094555
1.04824045352444,139.26388131329,137.882142697771,-1.38173861551903,-138.57301200553,70.3228099644043,68.2502020411258
1.05037971975612,135.215586827791,140.268314397479,5.05272756968853,-137.741950612635,65.0814296290512,72.660520983584
1.05251898598781,129.425180384477,141.347844429368,11.9226640448903,-135.386512406923,58.7512581697935,76.635254237129
1.05465825221949,122.185863520921,140.010137466568,17.8242739456468,-131.098000493744,52.180794787637,78.9172057061072
1.05679751845117,114.010254273875,135.89445899709,21.8842047232147,-124.952356635483,46.0630247753303,78.8893318601524
1.05893678468285,105.541489493688,129.58213807329,24.0406485796017,-117.561813783489,40.7504204570433,76.8113933264458
1.06107605091454,97.3522608216512,122.417742925399,25.0654821037481,-109.885001873525,36.1433893589515,73.7416125145737
1.06321531714622,89.9593782804808,116.104978265269,26.1455999847884,-103.032178272875,31.9068891478462,71.1252891250288
1.0653545833779,83.9234828535436,111.983797167801,28.0603143142575,-97.9536400106724,27.9315842696431,70.0220557410294
1.06749384960958,79.7175008467541,110.307513247792,30.5900124010375,-95.0125070472728,24.5637442228583,70.4487628244145
1.06963311584127,77.4289498576458,110.135982490606,32.70703263296,-93.7824661741258,22.3609586123429,71.4215075617829
1.07177238207295,76.4581966205553,109.882150211144,33.4239535905887,-93.1701734158497,21.5171215149833,71.6530519008664
1.07391164830463,75.3288595262202,108.030736163616,32.7018766373956,-91.679797844918,21.3134914444123,70.3663064005057
1.07605091453631,71.9126411476467,103.700367297927,31.7877261502804,-87.8065042227869,20.0624574986832,67.7440467241037
1.078190180768,64.2105675039999,96.9623931075001,32.7518256035002,-80.58648030575,15.7293709502498,64.8571093555001
1.08032944699968,51.2991599821213,88.6823561107257,37.3831961286044,-69.9907580464235,6.95798192675846,63.032776119665
1.08246871323136,33.8432751347414,79.8605724934353,46.017297358694,-56.8519238140883,-6.0870111119763,62.9389349260646
1.08460797946304,13.8277082192348,71.0723647840214,57.2446565647866,-42.4500365016281,-21.7084741727759,64.158510674404
1.08674724569473,-6.32218545665614,62.3784598321055,68.7006452887617,-28.0281371877247,-37.5114153727089,65.5395525604336
1.08888651192641,-24.6086742724736,53.4481957372345,78.0568700097081,-14.4197607323804,-51.3327721410909,65.7525328734713
1.09102577815809,-39.8948322883896,43.8299599084568,83.7247921968464,-1.96756381003357,-61.809812242618,63.7773760526516
1.09316504438977,-51.9451325604048,33.48815180752,85.4332843679248,9.22849037644238,-68.6892084641648,59.4607180877224
1.09530431062146,-61.17004037713,23.1897321014681,84.3597724785981,18.990154137831,-72.764906427864,53.7747522900331
1.09744357685314,-68.2162166521653,14.2162780194255,82.4324946715908,26.9999693163699,-75.3243556618781,48.3243863455081
1.09958284308482,-73.6295144090859,7.64373797415072,81.2732523832366,32.9928882174676,-77.4513833961613,44.4584951786937
1.1017221093165,-77.6603458928298,3.7843199923787,81.4446658852085,36.9380129502255,-79.5525058890191,42.6144929387936
1.10386137554819,-80.2814868877397,1.99497363656377,82.2764605243035,39.143256625588,-81.2789737060216,42.1357170804336
1.10600064177987,-81.4751739222456,0.916126780156446,82.391300702402,40.2795235710446,-81.9332373123238,41.6537137412792
1.10813990801155,-81.5360940829141,-0.87037070210863,80.6657233808054,41.2032323925114,-81.1009087318598,39.8976763393484
1.11027917424323,-81.0819942790759,-4.21530076656597,76.8666935125099,42.6486475228209,-78.9743438957929,36.325696372972
1.11241844047492,-80.851894062576,-9.1461229188717,71.7057711437043,44.9990084907238,-76.2788326031401,31.2798241124163
1.1145577067066,-81.5420658289461,-14.815607423148,66.7264584057982,48.1788366260471,-74.1342621173721,25.9554254913251
1.11669697293828,-83.5984442298775,-19.7619036167681,63.8365406131094,51.6801739233228,-73.7174924214935,22.0373184981706
1.11883623916996,-86.890382752736,-22.777708409987,64.112674342749,54.8340455813615,-75.5015285477425,20.667482966381
1.12097550540165,-90.6178051098521,-23.8011250551706,66.8166800546815,57.2094650825113,-78.7172425822668,21.5077774997555
1.12311477163333,-93.7075877018872,-23.8720737508402,69.8355139510469,58.7898307263637,-81.7715508264671,22.9817201001034
1.12525403786501,-95.4269920030596,-24.3481136547609,71.0788783482987,59.8875528289102,-83.2529351756791,23.3653823467689
1.12739330409669,-95.7405999605214,-26.2379224175628,69.5026775429586,60.9892611890421,-82.62163875174,21.6323775626979
1.12953257032838,-95.2146933332768,-29.7855632812116,65.4291300520651,62.5001283072442,-80.321911692671,17.8217833854268
1.13167183656006,-94.5839741075694,-34.2153785835656,60.3685955240038,64.3996763455675,-77.4762848157866,13.0766084702191
1.13381110279174,-94.2487407932482,-38.0561109377898,56.1926298554584,66.152425865519,-75.2206853243533,9.06825945883428
1.13595036902342,-94.0928361283852,-40.0928986534026,53.9999374749826,67.0928673908939,-74.0463868016839,6.95351941079
1.13808963525511,-93.7840577405472,-40.169797318775,53.6142604217722,66.9769275296611,-73.6991590811597,6.72223155149863
1.14022890148679,-93.1777856487022,-39.2377994762775,53.9399861724247,66.2077925624899,-73.5588859105634,7.35109334807357
1.14236816771847,-92.4308150456312,-38.7653791868171,53.6654358588141,65.5980971162241,-73.0481254522226,7.45002833599851
1.14450743395016,-91.8579198203107,-39.8880921158794,51.9698277044314,65.8730059680951,-71.9138737623711,6.040867794276
1.14664670018184,-91.7383471024917,-42.7501577259209,48.9881893765708,67.2442524142063,-70.3632682395313,3.11901582532497
1.14878596641352,-92.2686070148867,-46.5087535784243,45.7598534364624,69.3886802966555,-69.0142302256745,-0.374450070980934
1.1509252326452,-93.640000786396,-49.9350936035718,43.7049071828242,71.7875471949839,-68.6724539846101,-3.11509321037379
1.15306449887689,-95.9802103943075,-52.0928542491591,43.8873561451484,74.0365323217333,-69.933783269728,-4.10274905200533
1.15520376510857,-99.1456989255701,-52.8161031906297,46.3295957349404,75.9809010580999,-72.7376473302552,-3.24325372784469
1.15734303134025,-102.604951797583,-52.774785776933,49.8301660206499,77.6898687872579,-76.2175589091164,-1.47230987814153
1.15948229757193,-105.4584087831,-52.9258996911298,52.5325090919701,79.1921542371148,-78.995458937535,-0.196695299579822
1.16162156380362,-106.587062725211,-53.7755475340461,52.8115151911649,80.1813051296286,-79.699288958188,-0.482016171440577
1.1637608300353,-104.999371137868,-55.0490161901226,49.9503549477451,80.0241936639952,-77.4748630428064,-2.54933062118877
1.16590009626698,-100.188061723416,-55.7705950438097,44.4174666796067,77.9793283836131,-72.3027642015116,-5.67656418210149
1.16803936249866,-92.2967433156712,-54.6395848584376,37.6571584572335,73.4681640870544,-64.9769508864524,-8.49121320060203
1.17017862873035,-82.2370275179247,-50.7920988915346,31.4449286263901,66.5145632047297,-56.8409780721574,-9.67358513257228
1.17231789496203,-71.7368469446833,-44.5659687894799,27.1708781552035,58.1514078670816,-49.4538625499434,-8.69754531713821
1.17445716119371,-62.9987546276654,-37.5291198327286,25.4696347949368,50.263937230197,-44.2341947113011,-6.02974251889591
1.17659642742539,-57.9705111704058,-31.7669228254247,26.2035883449812,44.8687169979153,-42.0870497576935,-2.78166724022175
1.17873569365708,-57.636518919305,-29.0772770906852,28.5592418286198,43.3568980049951,-43.0978803739624,-0.259017631032734
1.18087495988876,-61.7065002252319,-30.3372007467382,31.3692994784938,46.0218504859851,-46.5378998518628,0.516049365877791
1.18301422612044,-68.7932340454727,-35.0009946467503,33.7922393987224,51.8971143461115,-51.2927367220975,-0.604377624013971
1.18515349235212,-76.8552104193555,-41.1344128368876,35.7207975824679,58.9948116281215,-56.2880040009117,-2.70680762720982
1.18729275858381,-83.6273063281572,-46.2959696539137,37.3313366742435,64.9616379910355,-60.4793215012004,-4.48231648983513
1.18943202481549,-87.0592916889173,-48.6121330147929,38.4471586741244,67.8357123518551,-62.7532251815209,-5.08248717033423
1.19157129104717,-85.9072305082929,-47.3463308968318,38.5608996114611,66.6267807025623,-62.234065059877,-4.39271564268534
1.19371055727885,-80.3030545030764,-43.0917208534275,37.2113336496489,61.697387678252,-58.7571940763627,-2.94019360188933
1.19584982351054,-71.8196186749515,-37.6140489426094,34.2055697323421,54.7168338087805,-53.0125942036468,-1.70423960513367
1.19798908974222,-62.776908400559,-32.9833668668452,29.7935415337138,47.8801376337021,-46.2852249671364,-1.59491266656574
1.2001283559739,-55.27725234667,-30.3695767431452,24.9076756035248,42.8234145449076,-40.0924639750974,-2.73095056981022
1.20226762220558,-50.6206385603859,-29.5339117572612,21.0867268031247,40.0772751588235,-35.8536826817553,-4.22359247706826
1.20440688843727,-49.1371192384348,-29.3425584011492,19.7945608372856,39.239838819792,-34.4658400378602,-4.77399878193179
1.20654615466895,-50.3063501319864,-28.6823749703412,21.6239751616451,39.4943625511638,-35.9651626468158,-3.52919990434805
1.20868542090063,-53.1020197425944,-27.1069123907927,25.9951073518017,40.1044660666935,-39.548563547198,-0.555902519495483
1.21082468713231,-56.373913742101,-24.9267132143981,31.4472005277029,40.6503134782496,-43.910557134902,3.26024365665243
1.212963953364,-59.1222068808989,-22.8571774558649,36.2650294250341,40.9896921683819,-47.6936181529665,6.70392598458459
1.21510321959568,-60.6418799375564,-21.6158949828786,39.0259849546778,41.1288874602175,-49.8339324461171,8.70504498589963
1.21724248582736,-60.6424400823589,-21.5899859757432,39.0524541066157,41.116213029051,-49.8474470944873,8.73123406543629
1.21938175205904,-59.2910893867495,-22.3975395566403,36.8935498301092,40.8443144716949,-48.0923196084293,7.24800513673448
1.22152101829073,-56.9630504262956,-22.7599772778188,34.2030731484767,39.8615138520572,-45.5830617873861,5.72154793532894
1.22366028452241,-53.8584005697097,-21.28381927789,32.5745812918197,37.5711099237998,-43.2164909307647,5.64538100696489
1.22579955075409,-49.9531791040306,-17.5004540606466,32.452725043384,33.7268165823386,-41.2029520737073,7.47613549136872
1.22793881698577,-45.4030108718877,-12.109062559891,33.2939483119967,28.7560367158893,-39.3484795919422,10.5924428760529
1.23007808321746,-40.9262819954038,-6.58215696980324,34.3441250256006,23.7542194826035,-37.6352035105022,13.8809840278987
1.23221734944914,-37.7325877488601,-2.68020896195355,35.0523787869065,20.2063983554068,-36.3924832678833,16.1860849124765
1.23435661568082,-37.097466024387,-1.77545157447605,35.3220144499109,19.4364587994315,-36.2097402371489,16.7732814377174
1.2364958819125,-39.8216358620803,-4.08348073716297,35.7381551249174,21.9525582996217,-37.7798954934989,15.8273371938772
1.23863514814419,-45.7342548698337,-8.52481188684123,37.2094429829925,27.1295333783375,-41.4718489264131,14.3423155480756
1.24077441437587,-53.5712857707004,-13.4181822186018,40.1531035520986,33.4947339946511,-46.8621946613995,13.3674606667484
1.24291368060755,-61.4102938043077,-17.2888941505585,44.1213996537493,39.3495939774331,-52.7658467290285,13.4162527515954
1.24505294683923,-67.3745135973545,-19.3336762544296,48.0408373429249,43.3540949258921,-57.7076754701397,14.3535805442476
1.24719221307092,-70.2278458875118,-19.6699215399807,50.5579243475311,44.9488837137462,-60.3928851175214,15.4440014037752
1.2493314793026,-69.5645042369831,-19.1856487256804,50.3788555113027,44.3750764813317,-59.9716798741429,15.5966033928111
1.25147074553428,-65.5570471589157,-18.8027621490243,46.7542850098914,42.17990465397,-56.1556660844035,13.9757614304336
1.25361001176596,-58.6846502506221,-18.7566922809228,39.9279579696993,38.7206712657725,-49.3063041101607,10.5856328443882
1.25574927799765,-49.7345992290805,-18.5181588299122,31.2164403991683,34.1263790294963,-40.4755198141244,6.34914078462808
1.25788854422933,-39.8758371667457,-17.2614301462971,22.6144070204486,28.5686336565214,-31.2451220935972,2.67648843707573
1.26002781046101,-30.5192649115423,-14.4994575375308,16.0198073740115,22.5093612245366,-23.2695361427769,0.760174918240338
1.26216707669269,-22.9774350655148,-10.5489162480047,12.4285188175101,16.7631756567598,-17.7029769415124,0.939801284752662
1.26430634292438,-18.2190819698511,-6.54829324707021,11.6707887227809,12.3836876084606,-14.944935346316,2.56124773785534
1.26644560915606,-16.8044715102739,-4.00040634097661,12.8040651692973,10.4024389256252,-14.8042683397856,4.40182941416033
1.26858487538774,-18.8147693516727,-4.1387616944794,14.6760076571933,11.476765523076,-16.745388504433,5.26862298135694
1.27072414161942,-23.837024748382,-7.44882346966233,16.3882012787196,15.6429241090221,-20.1126130135508,4.46968890452865
1.27286340785111,-31.1048289878971,-13.3975070857595,17.7073219021376,22.2511680368283,-24.4060754450174,2.15490740818909
1.27500267408279,-39.583341907785,-20.4771962689036,19.1061456388813,30.0302690883443,-29.3447437733331,-0.685525315011162
1.27714194031447,-47.9276302475573,-26.7940552104506,21.1335750371067,37.3608427290039,-34.530602642332,-2.83024008667191
1.27928120654615,-54.619308617629,-30.8991775425874,23.7201310750416,42.7592430801082,-39.1697198463353,-3.58952323377287
1.28142047277784,-58.4702744836678,-32.3415349590873,26.1287395245805,45.4059047213775,-42.2995070041241,-3.10639771725343
1.28355973900952,-59.1448135696397,-31.850714579882,27.2940989897576,45.4977640747609,-43.2194562796986,-2.2783077950622
1.2856990052412,-57.1621621654374,-31.0452523596126,26.1169098058248,44.103707262525,-41.6395359856311,-2.46417127689391
1.28783827147288,-53.435157776395,-31.4872220364331,21.9479357399619,42.461189906414,-37.6915467581784,-4.76964314823559
1.28997753770457,-48.8578819474269,-33.6081613972567,15.2497205501702,41.2330216723418,-32.0538012487985,-9.17922042354326
1.29211680393625,-44.0993417965081,-36.468818298723,7.63052349778508,40.2840800476156,-25.8649326471466,-14.419147400469
1.29425607016793,-39.5639420973663,-38.4619494968329,1.10199260053344,39.0129457970996,-20.3329673489499,-18.6799784481497
1.29639533639962,-35.5956327996339,-38.2818346743715,-2.68620187473755,36.9387337370027,-16.4547154624482,-20.4840182745545
1.2985346026313,-32.6927170591616,-35.7392851822159,-3.04656812305427,34.2160011206888,-14.8230744680537,-19.3929266526351
1.30067386886298,-31.3455716479918,-32.0368000670755,-0.6912284190837,31.6911858575337,-15.3271716144541,-16.3640142430796
1.30281313509466,-31.622727970717,-29.0527605025748,2.56996746814224,30.3377442366459,-17.0963477194296,-13.2413965172163
1.30495240132635,-33.017969769865,-28.1029058472857,4.91506392257935,30.5604378085754,-18.9665168462222,-11.5939209623532
1.30709166755803,-34.7207552840632,-29.2298639973823,5.49089128668089,31.9753096407227,-20.105823285372,-11.8694863553507
1.30923093378971,-35.9929736608401,-31.3460006695591,4.64697299128102,33.6694871651996,-20.3199733260606,-13.349513839139
1.31137020002139,-36.3553444153154,-32.8722517291608,3.48309268615458,34.6137980722381,-19.919218550735,-14.6945795215031
1.31350946625308,-35.5571666730976,-32.5054249522412,3.05174172085634,34.0312958126694,-19.304454196977,-14.7268416156925
1.31564873248476,-33.4791423771782,-29.7817533494525,3.69738902772571,31.6304478633154,-18.588265702452,-13.0421821608634
1.31778799871644,-30.1295602837479,-25.1720159079675,4.9575443757804,27.6507880958577,-17.5435523297642,-10.1072357660936
1.31992726494812,-25.8241329418753,-19.7430535891859,6.08107935268936,22.7835932655306,-15.9526061472823,-6.83098711824829
1.32206653117981,-21.3523624028026,-14.6300274368936,6.722334965909,17.9911949198481,-14.0373486843558,-3.95384623549228
1.32420579741149,-17.7479630291488,-10.4963384729101,7.25162455623865,14.1221507510294,-12.4997937926937,-1.62235695833573
1.32634506364317,-15.767361142012,-7.15290091144539,8.61446023056658,11.4601310267287,-12.1909106862893,0.730779659560596
1.32848432987485,-15.5744608582106,-3.69962133043032,11.8748395277802,9.63704109432044,-13.7246501929954,4.08760909867496
1.33062359610654,-16.849809039353,0.802692749939069,17.652501789292,8.02355814470695,-17.2511554143225,9.22759726961556
1.33276286233822,-19.1176036496794,6.72825477998128,25.8458584296607,6.19467443484905,-22.48173103967,16.287056604821
1.3349021285699,-21.9540070945648,13.6753367747818,35.6293438693466,4.13933515989146,-28.7916754819557,24.6523403220642
1.33704139480158,-24.9201159119773,20.5750049938395,45.4951209058168,2.17255545906895,-35.2076184088971,33.0350629498281
1.33918066103327,-27.3666255991293,26.2013156623173,53.5679412614466,0.582654968406047,-40.467283430288,39.8846284618819
1.34131992726495,-28.4253818187377,29.960378699329,58.3857605180667,-0.76749844029564,-43.4055711684022,44.1730696086979
1.34345919349663,-27.2448215823394,32.3284481334929,59.5732697158323,-2.54181327557674,-43.4090456490858,45.9508589246626
1.34559845972831,-23.318663329999,34.5136733283467,57.8323366583457,-5.59750499917388,-40.5754999941723,46.1730049933462
1.34773772596,-16.8300216400164,37.6916185529615,54.5216401929779,-10.4307984564725,-35.6758309164971,46.1066293729697
1.34987699219168,-8.71623609517258,42.4179485824334,51.134184677606,-16.8508562436304,-29.9252103863893,46.7760666300197
1.35201625842336,-0.222204690023545,48.3360802753034,48.5582849653269,-24.0569377926399,-24.3902448276752,48.4471826203152
1.35415552465504,7.66180507238596,54.2015758840597,46.5397708116737,-30.9316904782228,-19.4389828696439,50.3706733478667
1.35629479088673,14.3956901341733,58.4653938922579,44.0697037580846,-36.4305420132156,-14.8370068119557,51.2675488251713
1.35843405711841,19.7135126979816,60.0653674729165,40.3518547749349,-39.889440085449,-10.3191710384767,50.2086111239257
1.36057332335009,23.398842192515,58.7709253079695,35.3720831154545,-41.0848837502423,-5.98662046146973,47.071504211712
1.36271258958177,25.3664071157116,55.2065659394582,29.8401588237465,-40.2864865275849,-2.23687585401746,42.5233623816024
1.36485185581346,25.9844546399136,50.785287899238,24.8008332593244,-38.3848712695758,0.591810690294608,37.7930605792812
1.36699112204514,26.1749185520741,47.2093103878804,21.0343918358063,-36.6921144699772,2.5702633581339,34.1218511118433
1.36913038827682,27.1738282676736,45.6300968552337,18.4562685875601,-36.4019625614536,4.35877984005674,32.0431827213969
1.3712696545085,30.2309722246403,46.218408855282,15.9874366306416,-38.2246905399611,7.12176779699934,31.1029227429618
1.37340892074019,36.2915270418683,48.3879428103128,12.0964157684444,-42.3397349260906,12.0975556367119,30.2421792893786
1.37554818697187,45.595965950888,51.2728001137481,5.67683416286008,-48.434383032318,19.959565894014,28.4748171383041
1.37768745320355,57.4314519075308,54.2164105052143,-3.2150414023165,-55.8239312063725,30.3232466549237,25.5006845514489
1.37982671943523,70.2141896188054,57.1063215874595,-13.1078680313458,-63.6602556031325,41.6610288250756,21.9992267780569
1.38196598566692,81.8271733787614,60.2472058126043,-21.5799675661571,-71.0371895956828,51.7035704724592,19.3336191232236
1.3841052518986,90.1987092737508,63.8689506066956,-26.3297586670552,-77.0338299402232,58.264233970403,18.7695959698202
1.38624451813028,93.9535498930051,67.7235026878104,-26.2300472051947,-80.8385262904078,60.0917985490999,20.7467277413079
1.38838378436196,92.6946861892384,70.959857280488,-21.7348289087504,-81.8272717348632,57.2147575489944,24.6125141858688
1.39052305059365,86.8597184157165,72.3060573220365,-14.55366109368,-79.5828878688765,50.7066897546983,28.8761981141782
1.39266231682533,77.4603429637576,70.6216798173619,-6.83866314639567,-74.0410113905597,42.1495030550766,31.8915083354831
1.39480158305701,65.788279120274,65.6071774493955,-0.181101670878576,-65.6977282848348,32.9846903955763,32.7130378892584
1.39694084928869,53.1229464445756,58.1436807522031,5.02073430762744,-55.6333135983893,24.0511060684741,31.5822075299153
1.39908011552038,40.6111046239222,49.9508097098807,9.33970508595851,-45.2809571669015,15.6356997689819,29.6452573979196
1.40121938175206,29.2141069696446,42.8244692630801,13.6103622934355,-36.0192881163624,7.80187233810454,28.2174157782578
1.40335864798374,19.4932182239862,37.907129430101,18.4139112061148,-28.7001738270436,0.539653508935743,28.1605203181079
1.40549791421542,11.4274446708608,35.2751863284539,23.8477416575931,-23.3513154996574,-6.21014849336612,29.5614639930235
1.40763718044711,4.57094178011994,34.0336079873389,29.462666207219,-19.3022748837294,-12.4458622135495,31.748137097279
1.40977644667879,-1.51045626021272,32.8791472869339,34.3896035471466,-15.6843455133606,-17.9500299036797,33.6343754170403
1.41191571291047,-6.90861874350634,30.8053735125716,37.7139922560779,-11.9483773845326,-22.3113054997921,34.2596828843247
1.41405497914215,-11.5282991222193,27.5969252538237,39.125224376043,-8.03431306580217,-25.3267617491312,33.3610748149333
1.41619424537384,-15.5251487480813,23.8530695847326,39.3782183328139,-4.16396041832566,-27.4516835404476,31.6156439587733
1.41833351160552,-19.4249883420032,20.4782548772765,39.9032432192798,-0.52663326763664,-29.6641157806415,30.1907490482781
1.4204727778372,-23.7975977291002,17.9890222422447,41.786619971345,2.90428774342774,-32.7921088502226,29.8878211067949
1.42261204406888,-28.8035525018163,16.1832652894776,44.986817791294,6.31014360616936,-36.8951851465551,30.5850415403858
1.42475131030057,-33.8830735110131,14.3586289185624,48.2417024295754,9.76222229622535,-41.0623879702943,31.3001656740689
1.42689057653225,-37.8300812985886,11.8193051377353,49.6493864363239,13.0053880804266,-43.7397338674562,30.7343457870296
1.42902984276393,-39.3489903840091,8.33099051216789,47.6799808961769,15.5089999359206,-43.514485640093,28.0054857041724
1.43116910899561,-37.8480627474982,4.26590403349394,42.1139667809921,16.7910793570021,-39.9810147642451,23.189935407243
1.4333083752273,-34.0312267140203,0.317008274933471,34.3482349889538,16.8571092195434,-34.189730851487,17.3326216319436
1.43544764145898,-29.8538608229478,-2.94214345865913,26.9117173642887,16.3980021408035,-28.3827890936182,11.9847869528148
1.43758690769066,-27.7572858642662,-5.23506912559071,22.5222167386755,16.4961774949285,-25.1397513014709,8.64357380654241
1.43972617392234,-29.5344489625681,-6.61679552280486,22.9176534397632,18.0756222426865,-26.2260512011657,8.15042895847918
1.44186544015403,-35.370951338774,-7.65275397175822,27.7181973670158,21.5118526552661,-31.5445743528949,10.0327216976288
1.44400470638571,-43.7314861169339,-9.38162098738087,34.3498651295531,26.5565535521574,-39.0406756232435,12.4841220710861
1.44614397261739,-52.3212018532581,-12.722865488651,39.5983363646071,32.5220336709545,-45.9597691089326,13.437735437978
1.44828323884907,-59.3231107229772,-17.8574501254409,41.4656605975363,38.590280424209,-50.3943856602567,11.8041052360477
1.45042250508076,-63.897079039346,-24.0689470266835,39.8281320126624,43.9830130330147,-51.8626055260042,7.87959249298945
1.45256177131244,-65.8570035603288,-29.9323127048925,35.9246908554363,47.8946581326107,-50.8908472078826,2.9961890752719
1.45470103754412,-65.255578881032,-33.8485647685948,31.4070141124371,49.5520718248134,-48.3312964967346,-1.22077532807884
1.4568403037758,-62.342015638739,-34.8588986049611,27.4831170337779,48.6004571218501,-44.9125663362585,-3.68789078559158
1.45897957000749,-57.6249586293708,-33.1925355320368,24.432423097334,45.4087470807038,-41.0286908633524,-4.38005621735138
1.46111883623917,-51.8027530592233,-30.121745698915,21.6810073603083,40.9622493790691,-36.7418802097658,-4.22036916930335
1.46325810247085,-45.6802210356987,-27.2719055319544,18.4083155037442,36.4760632838265,-32.0442682697214,-4.43179501410509
1.46539736870254,-40.1222601096798,-25.9003801324758,14.221879977204,33.0113201210778,-27.1720700434419,-5.83925007763591
1.46753663493422,-36.0566032245226,-26.5228527665398,9.53375045798282,31.2897279955312,-22.7951768412527,-8.4945511542785
1.4696759011659,-34.5299897501368,-28.879097728291,5.65089202184583,31.7045437392139,-20.0904408859913,-11.6141028532226
1.47181516739758,-36.5743581118331,-32.1953045251936,4.37905358663954,34.3848313185134,-20.4767058492363,-13.908125469277
1.47395443362927,-42.6934930650276,-35.7503352948704,6.9431577701572,39.221914179949,-24.8183254175924,-14.4035887623566
1.47609369986095,-52.3617470708542,-39.4084361278952,12.9533109429589,45.8850915993747,-32.6575290069065,-13.2275625924682
1.47823296609263,-64.0514077111747,-43.6720408840677,20.379366827107,53.8617242976212,-42.2153872691409,-11.6463370284803
1.48037223232431,-75.6203677078957,-49.1571586965523,26.4632090113434,62.388763202224,-51.0417883596195,-11.3469748426045
1.482511498556,-84.5861276186194,-55.7437677166165,28.8423599020029,70.164947667618,-56.7142437603111,-13.4507039073068
1.48465076478768,-88.2706868447923,-62.0345394289607,26.2361474158316,75.1526131368765,-57.253417130312,-17.8991960065645
1.48679003101936,-83.9442685286462,-65.58883627432,18.3554322543262,74.7665524014831,-51.1498503914862,-23.6167020099969
1.48892929725104,-68.8207213758253,-63.5087326546064,5.31198872121882,66.1647270152158,-37.066355048522,-29.0983719666938
1.49106856348273,-39.9830800235051,-52.8913170242519,-12.9082370007468,46.4371985238785,-13.5374215113791,-32.8997770124993
1.49320782971441,5.35451268254246,-31.3731764023668,-36.7276890849092,13.0093318599122,21.0411008837258,-34.050432743638
1.49534709594609,69.1692542160799,2.19790183409282,-66.9713523819871,-35.6835780250864,68.0703032990335,-32.3867252739471
1.49748636217777,151.838142108024,47.4880198157318,-104.350122292292,-99.6630809618779,128.094132200158,-28.4310512382802
1.49962562840946,251.451723940054,102.980385748154,-148.4713381919,-177.216054844104,199.961531065977,-22.7454762218734
1.50176489464114,363.346499375732,166.416505758439,-196.929993617294,-264.881502567085,280.138246496513,-15.2567439294276
1.50390416087282,479.969675091382,234.976997697703,-244.992677393679,-357.473336394543,362.48117624253,-5.00783984798764
1.5060434271045,591.118144401743,305.175566086738,-285.942578315005,-448.146855244241,438.530361358374,9.61649388586682
1.50818269333619,684.823256356124,372.584873492681,-312.238382863442,-528.704064924402,498.530819609783,30.1732453146195
1.51032195956787,749.266342502048,431.687120877117,-317.579221624931,-590.476731689582,533.422782063489,57.0539496260927
1.51246122579955,775.327091756465,476.376171023383,-298.950920733082,-625.851631389924,537.139006244773,88.7126251451506
1.51460049203123,758.732611069912,501.296606295635,-257.436004774277,-630.014608682774,508.084307922095,121.930300760679
1.51673975826292,701.094646709454,503.384179512785,-197.710467196669,-602.239413111119,449.402556953061,152.836856158058
1.5188790244946,609.588685842331,482.868496991492,-126.720188850838,-546.228591416911,368.154437346584,178.074154070327
1.52101829072628,495.445522629981,443.521280084503,-51.9242425454781,-469.483401357242,273.68488258773,195.798518769513
1.52315755695796,371.887302274507,391.903274184103,20.0159719095961,-381.895288229305,175.935665182456,205.95962304685
1.52529682318965,252.05849445745,335.590983464185,83.5324890067354,-293.824738960817,84.2630027253572,209.56173623546
1.52743608942133,147.090165287511,281.243533133748,134.153367846238,-214.166849210629,6.46839872063649,207.698450489993
1.52957535565301,64.4880467379079,233.343984067801,168.855937329893,-148.916015402854,-52.1839452959925,201.099960698847
1.53171462188469,7.35067212262589,193.799397847961,186.448725725335,-100.575034985294,-89.5490268013547,190.124061786648
1.53385388811638,-25.3136129382283,162.37805969667,187.691672634899,-68.532223379221,-106.502642786563,175.034866165784
1.53599315434806,-37.5120067725683,137.739316001066,175.251322773634,-50.1136546142488,-106.381664773101,156.49531938735
1.53813242057974,-34.8893172913449,118.511584133534,153.400901424879,-41.8111334210946,-94.145109358112,135.956242779207
1.54027168681142,-23.3890842214328,103.967805255988,127.356889477421,-40.2893605172777,-75.3729868494269,115.662347366705
1.54241095304311,-8.3106792019334,94.0065404876699,102.317219689603,-42.8479306428682,-55.3139494457683,98.1618800886366
1.54455021927479,6.06254882080873,88.3437205028504,82.2811716820417,-47.2031346618296,-38.1093114306165,85.3124460924461
1.54668948550647,16.3849289554275,85.5552901998186,69.170361244391,-50.970109577623,-26.3927161444817,77.3628257221048
1.54882875173815,20.1769747630763,83.00743578222,62.8304610191437,-51.5922052726481,-21.3267431280337,72.9189484006818
1.55096801796984,16.1357812707587,77.8555253118807,61.719744041122,-46.9956532913197,-22.7919813851816,69.7876346765013
1.55310728420152,4.49380337460724,68.2469326108515,63.7531292362443,-36.3703679927294,-29.6296629308185,66.0000309235479
1.5552465504332,-13.0924005650933,53.9490853394025,67.0414859044958,-20.4283423871546,-40.0669432347945,60.4952856219492
1.55738581666488,-34.0575298962828,36.3946224156621,70.4521523119449,-1.16854625968965,-52.2548411041139,53.4233873638035
1.55952508289657,-55.5096339119885,18.1878393169862,73.6974732289747,18.6608972975011,-64.6035535704816,45.9426562729805
1.56166434912825,-74.7495825821593,2.00301736381608,76.7525999459754,36.3732826091716,-75.7510912640673,39.3778086548957
1.56380361535993,-89.6837621154989,-10.5441680331948,79.1395940823041,50.1139650743468,-84.4116780989015,34.2977130245547
1.56594288159161,-99.0221481592911,-19.3161151625781,79.706032996713,59.1691316609346,-89.364090578002,30.1949589170674
1.5680821478233,-102.32619735359,-25.320473641966,77.0057237116239,63.8233354977779,-89.6659605326069,25.842625034829
1.57022141405498,-100.095734115392,-30.0282485559795,70.0674855594126,65.0619913356858,-85.0816098374024,20.0196185017165
1.57236068028666,-93.7685696413129,-34.6932469020849,59.075322739228,64.2309082716989,-76.4219461902705,12.1910379185716
1.57449994651834,-85.4299977399926,-39.8235012537047,45.6064964862878,62.6267494968487,-65.5182471131402,2.89149761629155
1.57663921275003,-77.2567447043869,-45.0184903927935,32.2382543115934,61.1376175485902,-54.7474995079901,-6.39011804060002
1.57877847898171,-70.8118623748758,-49.3764735999167,21.4353887749591,60.0941679873963,-46.1236255749175,-13.9705424124788
1.58091774521339,-66.626519475064,-52.1909059496904,14.4356135253736,59.4087127123772,-40.5310665002188,-18.8776462121584
1.58305701144507,-64.4351123889221,-53.4957661096277,10.9393462792943,58.9654392492749,-37.6872293341082,-21.2782099151667
1.58519627767676,-63.6850346689051,-54.2239311490908,9.46110351981429,58.954482908998,-36.5730690943597,-22.3814138146383
1.58733554390844,-63.8098714404269,-55.7273620128966,8.08250942753033,59.7686167266617,-35.9461904339786,-23.8224262926831
1.58947481014012,-64.324780198413,-58.8980149215856,5.42676527682737,61.6113975599993,-34.8757727376202,-26.7356248223791
1.5916140763718,-64.9471810945282,-63.6729653311216,1.27421576340663,64.3100732128249,-33.1106984289674,-31.1993747838575
1.59375334260349,-65.5919954830142,-69.0608480866948,-3.46885260368066,67.3264217848545,-31.0615714396668,-36.2648503451878
1.59589260883517,-66.186617604611,-73.4279270124136,-7.24130940780266,69.8072723085123,-29.4726540984042,-40.3346182101081
1.59803187506685,-66.5894166638765,-75.2462420280099,-8.6568253641334,70.9178293459432,-28.9662956498715,-41.9515336960716
1.60017114129853,-66.6228317216896,-74.08373939996,-7.46090767827042,70.3532855608248,-29.5809620217096,-40.7723235391152
1.60231040753022,-66.0720861940166,-70.928941679789,-4.85685548577247,68.5005139369028,-30.6076153541221,-37.8928985827808
1.6044496737619,-64.7978634248754,-67.5766804058992,-2.77881698102375,66.1872719153873,-31.0095232219258,-35.1777486934615
1.60658893999358,-62.9219550026303,-65.6886625020633,-2.76670749943298,64.3053087523468,-30.0776237515986,-34.2276850007481
1.60872820622526,-60.795017351359,-66.0648242606949,-5.26980690933588,63.4299208060269,-27.7626052210116,-35.6673155850154
1.61086747245695,-58.843962985232,-68.3154351376393,-9.47147215240732,63.5796990614356,-24.6862454164123,-38.8934536450233
1.61300673868863,-57.4898477603818,-71.0959095835888,-13.606061823207,64.2928786719853,-21.9418929685874,-42.3509857033979
1.61514600492031,-56.9976268319076,-72.8714576881257,-15.8738308562181,64.9345422600167,-20.5618979878448,-44.3726442721719
1.61728527115199,-57.2564387645266,-72.6731670704714,-15.4167283059447,64.964802917499,-20.919855229291,-44.044947688208
1.61942453738368,-57.6926434619886,-70.3507241229023,-12.6580806609137,64.0216837924455,-22.5172814005374,-41.504402391908
1.62156380361536,-57.4100113374341,-66.4976472552013,-9.08763591776717,61.9538292963177,-24.1611877098335,-37.7926415864842
1.62370306984704,-55.5457082824476,-62.2524028781138,-6.70669459566626,58.8990555802807,-24.4195068433906,-34.47954873689
1.62584233607873,-51.6603026740742,-58.7759464006645,-7.11564372659033,55.2181245373694,-22.2723294737419,-32.9457950636274
1.62798160231041,-45.9220093961624,-56.5229425924884,-10.6009331963261,51.2224759943254,-17.6605380999181,-33.5619378944073
1.63012086854209,-39.0330085851849,-54.9120928941508,-15.879084308966,46.9725507396678,-11.5769621381094,-35.3955886015584
1.63226013477377,-31.9937368859701,-52.7204947926266,-20.7267579066565,42.3571158392984,-5.63348948965679,-36.7236263496416
1.63439940100546,-25.7905666446446,-48.9109286772384,-23.1203620325938,37.3507476609415,-1.33510230602538,-36.0156453549161
1.63653866723714,-21.0707879927492,-43.4191165343423,-22.3483285415931,32.2449522635457,0.638770274421965,-32.8837225379677
1.63867793346882,-18.0035839270456,-37.414165232087,-19.4105813050414,27.7088745795663,0.703498688997868,-28.4123732685642
1.6408171997005,-16.4646895863891,-32.7038837984556,-16.2391942120665,24.5842866924224,-0.112747687161331,-24.471539005261
1.64295646593219,-16.2536412123002,-30.6693897754481,-14.4157485631479,23.4615154938741,-0.918946324576154,-22.542569169298
1.64509573216387,-16.9699143343581,-31.43053424113,-14.4606199067719,24.2002242877441,-1.25464721379308,-22.945577073951
1.64723499839555,-17.7319820473156,-33.5423811614377,-15.8103991141222,25.6371816043766,-0.960791466596696,-24.6763901377799
1.64937426462723,-17.2420645314254,-34.4955976154582,-17.2535330840329,25.8688310734418,0.00573427630376244,-25.8745653497456
1.65151353085892,-14.296089071789,-32.1173960790429,-17.821307007254,23.2067425754159,1.76260896773251,-24.9693515431485
1.6536527970906,-8.45026338978461,-25.9208435646797,-17.4705801748951,17.1855534772322,4.51015839255524,-21.6957118697874
1.65579206332228,-0.432145532762902,-17.2646912289278,-16.8325456961649,8.84841838084534,8.20020008170098,-17.0486184625463
1.65793132955396,8.0875215973337,-8.48961631360115,-16.5771379109349,0.201047358133721,12.3323297541343,-12.533377112268
1.66007059578565,15.2794434673144,-1.86600578534444,-17.1454492526588,-6.70671884098495,16.2124463599866,-9.50572751900162
1.66220986201733,19.9591283189896,1.33764552550898,-18.6214827934807,-10.6483869222493,19.2903055562351,-8.64191863398584
1.66434912824901,21.8839263649326,1.43723814362343,-20.4466882213091,-11.660582254278,21.1653072931209,-9.50472503884286
1.66648839448069,21.4170603593212,0.0054794922779422,-21.4115808670433,-10.7112699257996,21.4143206131822,-10.7030506873827
1.66862766071238,19.0508789027975,-1.24141516852578,-20.2922940713233,-8.90473186713588,19.6715864870604,-10.7668546199245
1.67076692694406,15.3698361326974,-1.32576665361239,-16.6956027863098,-7.02203473954249,16.0327194595036,-9.01068471996108
1.67290619317574,11.3062502003345,-0.199451405830445,-11.5057016061649,-5.55339939725201,11.4059759032497,-5.85257650599767
1.67504545940742,8.11840203494624,1.443064828084,-6.67533720686224,-4.78073343151512,7.39686962090424,-2.61613618938912
1.67718472563911,7.03766630410617,2.66148552521796,-4.37618077888821,-4.84957591466206,5.70692354149719,-0.857347626835129
1.67932399187079,8.97381793949651,3.02808156186123,-5.94573637763528,-6.00094975067887,7.4597771585659,-1.45882740788703
1.68146325810247,14.374427050214,3.15418518037526,-11.2202418698388,-8.76430611529465,12.7973344600264,-4.03302834473175
1.68360252433415,23.0610916158757,4.48668216239165,-18.574409453484,-13.7738868891337,20.8177505346798,-7.04386364554619
1.68574179056584,34.0396454403364,8.38626232369867,-25.6533831166377,-21.2129538820175,29.8465142784871,-8.63356039646953
1.68788105679752,45.4968495721198,15.1323239144006,-30.3645256577193,-30.3145867432602,37.9306876149196,-7.61610087165935
1.6900203230292,55.2030985737442,23.5908851335465,-31.6122134401977,-39.3969918536453,43.407656006971,-4.01066415332563
1.69215958926088,61.2430219780839,31.726447436245,-29.5165745418388,-46.4847347071644,45.3797982599614,1.10493644720308
1.69429885549257,62.6942691159647,37.5751579172613,-25.1191111987034,-50.134713516613,43.9066901573341,6.22802335927896
1.69643812172425,60.0363684027312,40.1091751467944,-19.9271932559369,-50.0727717747628,39.9817808293341,10.0909909454287
1.69857738795593,55.1867694287727,39.6878628031427,-15.49890662563,-47.4373161159577,35.3428380272013,12.0944780887564
1.70071665418761,50.9342964606479,38.0793250784732,-12.8549713821747,-44.5068107695606,31.8946339214113,12.6121768481492
1.7028559204193,49.9017204069205,37.8603780671928,-12.0413423397277,-43.8810492370567,30.9715313733241,12.9095178637325
1.70499518665098,53.598842198568,41.1556742622071,-12.4431679363609,-47.3772582303875,33.0210050674644,14.3562531629231
1.70713445288266,61.9772912031547,48.5213283839886,-13.4559628191662,-55.2493097935717,37.7166270111605,17.5326827824112
1.70927371911434,73.6206014916883,58.7827754238284,-14.83782606786,-66.2016884577583,44.2292137797741,21.9724746779842
1.71141298534603,86.4033388192103,69.6550820509192,-16.7482567682911,-78.0292104350648,51.5757977937507,26.453412641314
1.71355225157771,98.2526410403971,78.7071546620164,-19.5454863783807,-88.4798978512067,58.8990637093889,29.5808341418179
1.71569151780939,107.754404911258,84.4938529331314,-23.2605519781267,-96.1241289221948,65.5074784446924,30.6166504775024
1.71783078404107,114.430504452186,87.3376560347418,-27.0928484174444,-100.884080243464,70.7616764348153,30.1224038086487
1.71997005027276,118.661171655137,89.0432975562741,-29.6178740988624,-103.852234605705,74.1395228769995,29.7127117287058
1.72210931650444,121.404918430008,91.6667197850282,-29.7381986449794,-106.535819107518,75.5715585374935,30.9642605700244
1.72424858273612,123.805453031078,96.3419700246531,-27.463483006425,-110.073711527866,75.6344680187515,34.4392435091141
1.7263878489678,126.81097694522,102.878801363935,-23.9321755812842,-114.844889154577,75.3715762632519,39.4733128913256
1.72852711519949,131.020658870953,110.055691907343,-20.9649669636095,-120.538175389148,75.9928129172812,44.5453624718669
1.73066638143117,136.658128919891,116.368725815803,-20.2894031040884,-126.513427367847,78.4737660119897,48.0396613558572
1.73280564766285,143.382323208653,120.927196355007,-22.4551268536456,-132.15475978183,82.9187250311491,49.2360347506807
1.73494491389453,150.113158502196,123.884081934187,-26.2290765680092,-136.998620218192,88.1711175351027,48.8275026830888
1.73708418012622,155.283739106475,126.108554550578,-29.1751845558967,-140.696146828527,92.229461831186,48.4666849973409
1.7392234463579,157.439048854204,128.504699912813,-28.9343489413904,-142.971874383509,93.1866988977971,49.7851754857115
1.74136271258958,155.724851199988,131.392007643778,-24.3328435562107,-143.558429421883,90.0288473780996,53.5295820437835
1.74350197882126,150.019671904424,134.144057209366,-15.8756146950579,-142.081864556895,82.9476432997408,59.134221257154
1.74564124505295,140.90934424903,135.450492572061,-5.45885167696957,-138.179918410545,73.1840979629999,64.9958204475456
1.74778051128463,129.728669891952,134.161873280222,4.43320338826956,-131.945271586087,62.6477332518412,69.2975383342456
1.74991977751631,118.351158320691,130.011973230761,11.6608149100701,-124.181565775726,53.3451717053104,70.8363940704155
1.75205904374799,108.436968961499,123.823974148577,15.3870051870775,-116.130471555038,46.5249818872108,69.605489667827
1.75419830997968,100.683820874863,117.211725706723,16.5279048318601,-108.947773290793,42.0779580215012,66.8698152692914
1.75633757621136,94.6705939284341,111.774936329214,17.10434240078,-103.222765128824,38.7831257638271,64.439639364997
1.75847684244304,89.2154349991704,108.199354346493,18.983919347323,-98.7073946728319,35.1157578259237,63.5916368469082
1.76061610867472,82.9985583579715,105.945383391575,22.9468250336036,-94.4719708747733,30.025866662184,64.4461042125893
1.76275537490641,75.1976116275006,103.616381109981,28.4187694824807,-89.4069963687409,23.38942107251,66.0175752962309
1.76489464113809,65.8416276310849,99.6337364992565,33.7921088681716,-82.7376820651707,16.0247593814566,66.712922683714
1.76703390736977,55.6689145067441,92.9822492303427,37.3133347235986,-74.3255818685434,9.17778989157277,65.1477919769706
1.76917317360145,45.4946280482938,83.7745185135137,38.2798904652199,-64.6345732809038,3.60736879153696,61.0272044893668
1.77131243983314,35.6183829146757,73.2648577153464,37.6464748006707,-54.4416203150111,-1.01404594299751,55.4556662580086
1.77345170606482,25.8198032927154,63.2224384524899,37.4026351597745,-44.5211208726026,-5.79141593352955,50.3125368061322
1.7755909722965,15.7568211819148,55.0425360982979,39.2857149163831,-35.3996786401064,-11.7644468672342,47.1641255073405
1.77773023852818,5.33772617367941,49.1311157503482,43.7933895766688,-27.2344209620138,-19.2278317014947,46.4622526635085
1.77986950475987,-5.0842860140873,44.7958839331293,49.8801699472166,-19.855798959521,-27.4822279806519,47.3380269401729
1.78200877099155,-14.8567793811436,40.5882514135084,55.445030794652,-12.8657360161824,-35.1509050878978,48.0166411040802
1.78414803722323,-23.5362204749085,35.0037498227416,58.5399702976501,-5.73376467391657,-41.0380953862793,46.7718600601958
1.78628730345491,-31.3076874827165,27.2543475153629,58.5620349980794,2.02666998367681,-44.934861240398,42.9081912567212
1.7884265696866,-38.9053241563416,17.6408524161987,56.5461765725403,10.6322358700714,-47.7257503644409,37.0935144943695
1.79056583591828,-47.0486208456757,7.35981842758173,54.4084392732574,19.844401209047,-50.7285300594665,30.8841288504196
1.79270510214996,-55.7884294281044,-2.05748817666992,53.7309412514345,28.9229588023872,-54.7596853397694,25.8367265373823
1.79484436838165,-64.3490843641245,-9.45336835666646,54.895716007458,36.9012263603955,-59.6224001857913,22.7211738253958
1.79698363461333,-71.5776407132334,-14.6193976052912,56.9582431079422,43.0985191592623,-64.2679419105878,21.1694227513255
1.79912290084501,-76.5634721523183,-18.3818191329091,58.1816530194092,47.4726456426137,-67.3725625858637,19.89991694325
1.80126216707669,-79.0675197588926,-22.10354324075,56.9639765181426,50.5855314998213,-68.0157481385176,17.4302166386963
1.80340143330838,-79.6295313046726,-26.8785695298798,52.7509617747929,53.2540504172762,-66.1902465397328,12.9361961224566
1.80554069954006,-79.3412944719684,-32.8783382863363,46.4629561856321,56.1098163791523,-62.9021253288003,6.79230894964792
1.80767996577174,-79.4114579646985,-39.2975183871938,40.1139395775047,59.3544881759461,-59.7626987711016,0.408210595155424
1.80981923200342,-80.7709904718302,-44.9671518307796,35.8038386410506,62.8690711513049,-58.2874145564404,-4.58165659486448
1.81195849823511,-83.8495418049993,-49.1383165468453,34.711225258154,66.4939291759223,-59.2803835315766,-7.21354564434566
1.81409776446679,-88.4812560228181,-51.8815071626719,36.5997488601461,70.181381592745,-62.5405024414821,-7.64087915126288
1.81623703069847,-93.9612479701378,-54.0108622126249,39.950385757513,73.9860550913813,-66.9558168638254,-7.03023822755594
1.81837629693015,-99.2904546245701,-56.6908859384257,42.5995686861444,77.9906702814979,-70.9450116553573,-7.04565862614064
1.82051556316184,-103.523150381961,-60.7573791451615,42.7657712368,82.1402647635615,-73.1444608093808,-8.9958039541807
1.82265482939352,-106.018232721864,-66.0094926710103,40.0087400508539,86.0138626964373,-73.013486386359,-13.0003763100782
1.8247940956252,-106.529154651926,-71.1585429317057,35.3706117202199,88.8438487918156,-70.9498831860727,-17.8939656057429
1.82693336185688,-105.236194219802,-74.5602986863428,30.6758955334592,89.8982464530724,-67.9560448766306,-21.9422015764418
1.82907262808857,-102.660954632146,-75.0830995284262,27.5778551037197,88.8720270802861,-65.1194048679328,-23.7526222123532
1.83121189432025,-99.4523804964179,-72.7262691965856,26.7261112998323,86.0893248465017,-63.0892458981251,-23.0000789483766
1.83335116055193,-96.2504073072179,-68.78570591089,27.464701396328,82.5180566090539,-61.8575543517729,-20.660502257281
1.83549042678361,-93.6052609179015,-65.1851982991048,28.4200626187968,79.3952296085031,-61.0126617683492,-18.382567840154
1.8376296930153,-91.8217197005991,-63.2714657050521,28.5502539955471,77.5465927028256,-60.1859868480731,-17.3606058547525
1.83976895924698,-90.9285759768571,-63.1177917198761,27.810784256981,77.0231838483666,-59.3696801169191,-17.6535037314475
1.84190822547866,-90.828235471839,-63.7376873412043,27.0905481306348,77.2829614065217,-58.9593918012369,-18.3235696052847
1.84404749171034,-91.3761819037591,-63.7647730946541,27.611408809105,77.5704774992066,-59.493795356432,-18.0766821427746
1.84618675794203,-92.4207396105541,-62.2467384442797,30.1740011662744,77.3337390274169,-61.2973703884142,-16.0363686390027
1.84832602417371,-93.8399613407898,-59.2276621655511,34.6122991752387,76.5338117531705,-64.2261302580143,-12.3076814951562
1.85046529040539,-95.4538840906806,-55.6895675734956,39.764316517185,75.5717258320881,-67.6091003039328,-7.96262552815527
1.85260455663707,-96.9606855363267,-52.9324651731687,44.0282203631581,74.9465753547477,-70.4944529497424,-4.45212240500531
1.85474382286876,-98.0223696711776,-51.9013013778648,46.1210682933129,74.9618355245212,-72.0717189822453,-2.89011654227595
1.85688308910044,-98.388452673879,-52.7045836079503,45.6838690659287,75.5465181409147,-72.0361608699039,-3.51035727101079
1.85902235533212,-98.0267442820064,-54.4298261807855,43.5969181012209,76.2282852313959,-70.8118311916137,-5.41645403978227
1.8611616215638,-97.1691655021221,-55.5493001529047,41.6198653492173,76.3592328275134,-69.3945154256697,-6.96471740184369
1.86330088779549,-96.1133637844854,-54.8125192495288,41.3008445349566,75.4629415170071,-68.707104159721,-6.7558373572861
1.86544015402717,-94.9574225993692,-51.9361808234453,43.0212417759239,73.4468017114072,-68.9893321876465,-4.45746952376073
1.86757942025885,-93.5493851329815,-47.7086869608145,45.840698172167,70.629036046898,-69.6950416525742,-0.93399439432379
1.86971868649053,-91.6459933153069,-43.6340706979216,48.0119226173853,67.6400320066142,-69.8289579663461,2.18892595973186
1.87185795272222,-89.1252560743014,-41.1736799695271,47.9515761047743,65.1494680219143,-68.5384160895378,3.38894806762357
1.8739972189539,-86.1288370774651,-40.8175943010691,45.311242776396,63.4732156892671,-65.7200399269306,2.24682423766348
1.87613648518558,-83.0303442744914,-41.6829343349386,41.3474099395528,62.356639304715,-62.1888771070221,-0.16776219769288
1.87827575141726,-80.2190375249187,-42.0182229508682,38.2008145740505,61.1186302378935,-59.2099260494846,-1.90870418840888
1.88041501764895,-77.838399449702,-40.1831656524013,37.6552337973007,59.0107825510517,-57.7468166235013,-1.26396592755034
1.88255428388063,-75.6202791240931,-35.535213036959,40.0850660871342,55.577746080526,-57.8526726056136,2.27492652508761
1.88469355011231,-72.9445853903211,-28.9156404095524,44.0289449807687,50.9301128999368,-58.4867651855449,7.55665228560815
1.88683281634399,-69.1443954838362,-22.3643461940248,46.7800492898114,45.7543708389305,-57.9622223868238,12.2078515478933
1.88897208257568,-63.853632364362,-17.9536211841479,45.9000111802141,40.903626774255,-54.8768217722881,13.9731949980331
1.89111134880736,-57.3023126514489,-16.5077739324945,40.7945387189544,36.9050432919717,-49.0484256852016,12.1433823932299
1.89325061503904,-50.441233900502,-17.1918202759031,33.2494136245989,33.8165270882025,-41.8453237625504,8.02879667434791
1.89538988127072,-44.6032021522295,-18.1073664697391,26.4958356824904,31.3552843109843,-35.54951891736,4.19423460637568
1.89752914750241,-40.9299488832042,-17.4024341283661,23.5275147548381,29.1661915057852,-32.2287318190212,3.06254031323598
1.89966841373409,-40.0664603564171,-14.3583712822302,25.7080890741869,27.2124158193237,-32.887274715302,5.67485889597831
1.90180767996577,-42.0942619620645,-9.83460020823826,32.2596617538263,25.9644310851514,-37.1769618579454,11.212530772794
1.90394694619745,-46.5717163931747,-5.73599486563343,40.8357215275412,26.1538556294041,-43.703718960358,17.5498633309539
1.90608621242914,-52.7250199198062,-3.91064498250997,48.8143749372962,28.3178324511581,-50.7696974285512,22.4518649773931
1.90822547866082,-59.6578453136756,-5.0935449435967,54.5643003700789,32.3756951286361,-57.1110728418772,24.7353777132411
1.9103647448925,-66.4222800554304,-8.3546406918288,58.0676393636016,37.3884603736296,-62.244959709516,24.8564993358864
1.91250401112418,-72.0780683283488,-11.444383726237,60.6336846021118,41.7612260272929,-66.3558764652303,24.5946504379374
1.91464327735587,-75.8723356022127,-11.9648187511699,63.9075168510429,43.9185771766913,-69.8899262266278,25.9713490499365
1.91678254358755,-77.3721100365601,-8.6969722589831,68.675137777577,43.0345411477716,-73.0236239070686,29.989082759297
1.91892180981923,-76.5012052687312,-2.31288045169693,74.1883248170342,39.4070428602141,-75.3447650428827,35.9377221826687
1.92106107605091,-73.6232514413967,4.94120893200699,78.5644603734037,34.3410212546949,-76.0938559074002,41.7528346527054
1.9232003422826,-69.4867361856576,10.4180162071322,79.9047523927899,29.5343599892627,-74.6957442892238,45.1613842999611
1.92533960851428,-64.8707929356122,12.5353980024088,77.4061909380209,26.1676974666017,-71.1384919368165,44.9707944702149
1.92747887474596,-60.2856413238547,11.7509032209651,72.0365445448198,24.2673690514448,-66.1610929343373,41.8937238828925
1.92961814097764,-56.022611995139,10.2757073564943,66.2983193516334,22.8734523193223,-61.1604656733862,38.2870133540639
1.93175740720933,-52.3470632887279,10.6641235734663,63.0111868621943,20.8414698576308,-57.6791250754611,36.8376552178303
1.93389667344101,-49.505420756758,14.3105061897436,63.8159269465016,17.5974572835072,-56.6606738516298,39.0632165681226
1.93603593967269,-47.5493972269958,20.6218244230906,68.1712216500864,13.4637864019526,-57.8603094385411,44.3965230365885
1.93817520590437,-46.3380495883858,27.1380106942897,73.4760602826754,9.60001944704806,-59.9070549355306,50.3070354884826
1.94031447213606,-45.7661770359003,30.7243815191975,76.4905585550978,7.52089775835139,-61.128367795499,53.6074700371476
1.94245373836774,-45.7930377565471,29.3433534407078,75.136391197255,8.22484215791966,-60.4647144769011,52.2398723189814
1.94459300459942,-46.2788693171195,23.2470572073779,69.5259265244974,11.5159060548708,-57.9023979208085,46.3864918659377
1.94673227083111,-47.0141464655091,14.8753534873809,61.8894999528899,16.0693964890641,-54.4518232091995,38.3824267201354
1.94887153706279,-47.925475548256,7.6026153454198,55.5280908936758,20.1614301014181,-51.7267832209659,31.5653531195478
1.95101080329447,-49.1721928726396,3.99072625012484,53.1629191227644,22.5907333112574,-51.167555997702,28.5768226864446
1.95315006952615,-50.9484961060546,4.52501618220128,55.4735122882559,23.2117399619267,-53.2110041971552,29.9992642352286
1.95528933575784,-53.0950050826086,7.56028288711497,60.6552879697236,22.7673610977468,-56.8751465261661,34.1077854284193
1.95742860198952,-54.9238910986143,10.384674030092,65.3085651287062,22.2696085342612,-60.1162281136603,37.8466195793991
1.9595678682212,-55.5472469670658,10.6858367351477,66.2330837022134,22.4307051159591,-60.8901653346396,38.4594602186805
1.96170713445288,-54.4838294825196,7.74660529133518,62.2304347738547,23.3686120955922,-58.3571321281872,34.988520032595
1.96384640068457,-51.948646180767,2.97065315967659,54.9192993404436,24.4889965105452,-53.4339727606053,28.9449762500601
1.96598566691625,-48.5847948849076,-0.655060669636015,47.9297342152716,24.6199277772718,-48.2572645500896,23.6373367728178
1.96812493314793,-45.0328846301789,-0.198813084925462,44.8340715452534,22.6158488575522,-44.9334780877161,22.317629230164
1.97026419937961,-41.7586842857372,5.37427216837926,47.1329564541165,18.192206058679,-44.4458203699268,26.2536143112479
1.9724034656113,-39.1463979397116,14.3376525571182,53.4840504968298,12.4043726912967,-46.3152242182707,33.910851526974
1.97454273184298,-37.6256635148123,22.8073244604866,60.4329879752989,7.40916952716288,-49.0293257450556,41.6201562178927
1.97668199807466,-37.6586324239514,26.6372470918481,64.2958795157995,5.51069266605163,-50.9772559698755,45.4665633038238
1.97882126430634,-39.5504883046434,23.7714784194664,63.3219667241098,7.88950494258847,-51.4362275143766,43.5467225717881
1.98096053053803,-43.2135823755151,15.497311752537,58.7108941280521,13.8581353114891,-50.9622382517836,37.1041029402945
1.98309979676971,-48.1379735431127,5.58980529165272,53.7277788347654,21.27408412573,-50.932876188939,29.658792063209
1.98523906300139,-53.6308405228295,-1.8645542056413,51.7662863171882,27.7476973642354,-52.6985634200089,24.9508660557735
1.98737832923307,-59.0895914719569,-4.49353396693966,54.5960575050172,31.7915627194483,-56.8428244884871,25.0512617690388
1.98951759546476,-64.1140149833542,-2.79572233253721,61.318292650817,33.4548686579457,-62.7161538170856,29.2612851591399
1.99165686169644,-68.4237045230723,0.0703554726793385,68.4940599957517,34.1766745251965,-68.458882259412,34.2822077342155
1.99379612792812,-71.5672685664855,0.214445227948076,71.7817137944336,35.6764116692687,-71.6744911804595,35.9980795111908
1.9959353941598,-72.6240278949267,-4.37252054223015,68.2515073526965,38.4982742185784,-70.4377676238116,31.9394934052332
1.99807466039149,-70.3001577306094,-12.4326972252394,57.86746050537,41.3664274779244,-64.0838091179897,22.7173816400653
2.00021392662317,-63.5203737366182,-20.0385718050015,43.4818019316167,41.7794727708099,-53.5010878341175,11.7216150633076
2.00235319285485,-52.168338954526,-22.5838355749032,29.5845033796227,37.3760872647146,-40.8764211670743,3.50033390235976
2.00449245908653,-37.5481687007729,-17.3313642150813,20.2168044856916,27.4397664579271,-28.8824865932323,1.44272013530517
2.00663172531822,-22.3643654751016,-5.31000611117361,17.0543593639279,13.8371857931376,-19.7093624195147,5.87217662637716
2.0087709915499,-10.0812855266523,8.85259710229338,18.9338826289457,0.614344212179471,-14.507584077799,13.8932398656195
2.01091025778158,-3.67652498044129,19.2409748092642,22.9174997897055,-7.78222491441144,-13.2970123850734,21.0792372994848
2.01304952401326,-4.46237272717275,21.5686148397695,26.0309875669422,-8.55312105629835,-15.2466801470575,23.7998012033558
2.01518879024495,-11.7675686294378,15.1331940960808,26.9007627255186,-1.6828127333215,-19.3341656774782,21.0169784107997
2.01732805647663,-23.4633585180347,3.06017512331162,26.5235336413463,10.2015916973615,-24.9934460796905,14.791854382329
2.01946732270831,-36.7772821520841,-9.33077985070798,27.4465023013761,23.054031001396,-32.1118922267301,9.05786122533405
2.02160658893999,-49.027926546985,-17.2572906514691,31.7706358955158,33.142608599227,-40.3992812212504,7.25667262202337
2.02374585517168,-58.2135633154775,-18.6951842410192,39.5183790744583,38.4543737782484,-48.8659711949679,10.4115974167195
2.02588512140336,-63.2819175270276,-15.0211705269754,48.2607470000521,39.1515440270015,-55.7713322635398,16.6197882365384
2.02802438763504,-63.9739648997548,-10.0035439159167,53.9704209838381,36.9887544078358,-58.9721929417964,21.9834385339607
2.03016365386672,-60.5283685390136,-7.53138435977434,52.9969841792393,34.029876449394,-56.7626763591265,22.7327999097325
2.03230292009841,-53.4456732974829,-9.24111377061399,44.2045595268689,31.3433935340485,-48.8251164121759,17.4817228781275
2.03444218633009,-43.3583324595714,-13.6728482491842,29.6854842103872,28.5155903543778,-36.5219083349793,8.0063179806015
2.03658145256177,-31.1299397376408,-17.3147761176967,13.8151636199441,24.2223579276687,-22.4725516787924,-1.74980624887629
2.03872071879345,-18.0165965069521,-16.5393495428744,1.47724696407775,17.2779730249132,-9.74692173551493,-7.53105128939831
2.04085998502514,-5.56679906493116,-9.56176983872129,-3.99497077379013,7.56428445182623,-0.785914145570516,-6.77837030625571
2.04299925125682,4.73740288819585,2.30716533163736,-2.43023755655848,-3.5222841099166,3.58382022237716,-0.0615361124605585
2.0451385174885,11.8665555272771,15.0673547156562,3.20079918837911,-13.4669551214667,4.332878169449,9.13407695201767
2.04727778372018,15.4184645911513,24.1055801557887,8.68711556463736,-19.76202237347,3.36567451325699,16.396347860213
2.04941704995187,15.5014327150755,26.5220442666221,11.0206115515467,-21.0117384908488,2.2404105817644,18.7713279090844
2.05155631618355,12.5006822051103,22.43275986086,9.93207765574979,-17.4667210329851,1.28430227468023,16.1824187583049
2.05369558241523,7.02431656512459,14.8931355071793,7.86881894205469,-10.9587260361519,-0.422251188465051,11.380977224617
2.05583484864691,0.0781249576679102,8.38398145892345,8.30585650125554,-4.23105320829568,-4.11386577179382,8.3449189800895
2.0579741148786,-6.9126183447687,6.39929798582646,13.3119163305952,0.256660179471119,-10.1122673376819,9.85560715821082
2.06011338111028,-12.45597894017,9.61279125664694,22.0687701968169,1.42159384176152,-17.2623745684935,15.8407807267319
2.06225264734196,-15.425891414812,15.7538344245779,31.1797258393899,-0.163971504882912,-23.302808627101,23.4667801319839
2.06439191357364,-15.2806357270343,21.0086436636962,36.2892793907305,-2.86400396833094,-25.7849575588824,28.6489615272134
2.06653117980533,-12.0463039014505,22.1596311031591,34.2059350046096,-5.05666360085432,-23.12611945303,28.1827830538843
2.06867044603701,-6.13992989219474,18.5547488831775,24.6946787753722,-6.20740949549136,-15.4173043337835,21.6247138292748
2.07080971226869,1.88000849645698,12.7707047849525,10.8906962884955,-7.32535664070475,-4.50534389601928,11.830700536724
2.07294897850037,11.5246808439229,9.35070670121845,-2.1739741427044,-10.4376937725707,6.84932749331363,3.58836627925702
2.07508824473206,22.3979742094637,12.2627994595279,-10.1351747499358,-17.3303868344958,16.2665744796997,1.06381235479608
2.07722751096374,33.9930571958447,22.5844038283389,-11.4086533675058,-28.2887305120918,22.7008552816753,5.58787523041653
2.07936677719542,45.4946888187351,37.7696262796664,-7.72506253906873,-41.6321575492008,26.6098756789019,15.0222818702988
2.0815060434271,55.8288249863191,52.8997644482139,-2.92906053810527,-54.3642947172665,29.3789427622122,24.9853519550543
2.08364530965879,63.9213398534524,63.2423826285014,-0.678957224951056,-63.5818612409769,32.3001485392017,31.2817127017752
2.08578457589047,69.005222959188,66.6450137415639,-2.36020921762415,-67.8251183503759,35.6827160884061,32.1424022619699
2.08792384212215,70.8393617443455,64.3360810718443,-6.50328067250112,-67.5877214080949,38.6713212084233,28.9164001996716
2.09006310835383,69.6538721808267,59.9815838627957,-9.67228831803099,-64.8177280218112,39.6630802494289,25.1546477723824
2.09220237458552,65.8461440453526,57.7158353051474,-8.13030874020512,-61.78098967525,36.9882263927788,24.7927632824712
2.0943416408172,59.7440103237642,59.7917775677252,0.0477672439610615,-59.7678939457447,29.8481215399016,29.9197724058431
2.09648090704888,51.5480486390157,65.0887131671908,13.5406645281751,-58.3183809031032,19.0036920554203,39.314688847683
2.09862017328056,41.4278402902233,69.8291415124984,28.4013012222751,-55.6284909013608,6.51326953397406,49.1152213673868
2.10075943951225,29.8022539836542,69.9761515397782,40.173897556124,-49.8892027617162,-5.1858217862349,55.0750245479511
