t,leadI,leadII,leadIII,aVR,aVL,aVF
0,-750.558381713019,-260.476424899794,490.081956813225,505.517403306407,-620.320169263122,114.802765956715
0.00213926623168253,-742.85761640717,-318.281880142649,424.575736264521,530.569748274909,-583.716676335845,53.1469280609359
0.00427853246336507,-731.548802220079,-364.888206936307,366.660595283772,548.218504578193,-549.104698751925,0.886194173732406
0.0064177986950476,-735.821342059194,-415.800695404846,320.020646654347,575.81101873202,-527.92099435677,-47.8900243752496
0.00855706492673013,-739.88683231381,-466.896676643061,272.990155670749,603.391754478436,-506.43849399228,-96.9532604861562
0.0106963311584127,-747.506907162201,-506.203785361878,241.303121800323,626.855346262039,-494.405014481262,-132.450331780778
0.0128355973900952,-762.662073306228,-537.369135074305,225.292938231923,650.015604190266,-493.977505769075,-156.038098421191
0.0149748636217777,-762.315496695448,-552.592437504323,209.723059191126,657.453967099885,-486.019277943287,-171.434689156598
0.0171141298534603,-770.014249613718,-567.565273680108,202.44897593361,668.789761646913,-486.231612773664,-182.558148873249
0.0192533960851428,-781.933672045131,-578.669520743196,203.264151301935,680.301596394163,-492.598911673533,-187.70268472063
0.0213926623168253,-782.361565462976,-590.034690529029,192.326874933948,686.198127996002,-487.344220198462,-198.85390779754
0.0235319285485079,-774.897817970654,-597.913603791509,176.984214179145,686.405710881081,-475.941016074899,-210.464694806182
0.0256711947801904,-778.750664518769,-637.195462511383,141.555202007385,707.973063515076,-460.152933263077,-247.820130251999
0.0278104610118729,-782.265962910257,-653.302665143356,128.963297766901,717.784314026807,-455.614630338579,-262.169683688227
0.0299497272435555,-789.534552923552,-661.502498696615,128.032054226937,725.518525810083,-458.783303575244,-266.735222234839
0.032088993475238,-781.46461817673,-665.489523609518,115.975094567212,723.477070893124,-448.719856371971,-274.757214521153
0.0342282597069205,-785.462803064029,-680.719919106236,104.742883957793,733.091361085133,-445.102843510911,-287.988517574222
0.0363675259386031,-789.841521881724,-676.223794252993,113.617727628731,733.032658067359,-451.729624755228,-281.303033312131
0.0385067921702856,-798.173838356614,-675.565950639472,122.607887717143,736.869894498043,-460.390863036878,-276.479031461164
0.0406460584019681,-810.0770092142,-686.852573583342,123.224435630858,748.464791398771,-466.650722422529,-281.814068976242
0.0427853246336507,-813.708352758209,-706.424638400213,107.283714357996,760.066495579211,-460.496033558102,-299.570462021109
0.0449245908653332,-820.856623379537,-718.729540639566,102.12708273997,769.793082009551,-461.491853059754,-308.301228949798
0.0470638570970157,-831.914140799463,-742.884457337297,89.0296834621664,787.39929906838,-460.471912130815,-326.927386937565
0.0492031233286983,-827.867116429168,-743.499239722838,84.3678767063302,785.683178076003,-456.117496567749,-329.565681508254
0.0513423895603808,-836.036113140731,-743.504259891051,92.5318532496797,789.770186515891,-464.283983195205,-325.486203320686
0.0534816557920633,-844.535873803142,-738.948076791344,105.587797011799,791.741975297243,-475.061835407471,-316.680139889772
0.0556209220237459,-837.363757199115,-745.65197387896,91.7117833201545,791.507865539038,-464.537770259635,-326.970095279403
0.0577601882554284,-837.421291909493,-736.991652785351,100.429639124142,787.206472347422,-468.925465516818,-318.281006830605
0.0598994544871109,-829.116610474197,-740.688071984691,88.4285384895057,784.902341229444,-458.772574481851,-326.129766747593
0.0620387207187935,-832.177008522477,-764.692131556441,67.4848769660359,798.434570039459,-449.830942744257,-348.603627295203
0.064177986950476,-835.458053423407,-781.4857937522,53.9722596712069,808.471923587803,-444.715156547307,-363.756767040496
0.0663172531821585,-839.344341390526,-778.735610089225,60.6087313013008,809.039975739875,-449.976536345913,-359.063439393962
0.0684565194138411,-847.743853505895,-779.083569343336,68.6602841625588,813.413711424616,-458.202068834227,-355.211642590389
0.0705957856455236,-848.645599651387,-790.023773905692,58.6218257456953,819.334686778539,-453.633712698541,-365.700974079998
0.0727350518772061,-853.155324345997,-773.046194274035,80.1091300719621,813.100759310016,-466.632227208979,-346.468532101036
0.0748743181088887,-853.112126976075,-756.135077987871,96.9770489882036,804.623602481973,-475.044587982139,-329.579014499834
0.0770135843405712,-860.157352811253,-771.180972978712,88.9763798325413,815.669162894982,-474.566866321897,-341.102296573085
0.0791528505722537,-851.409696171163,-795.207219232236,56.2024769389267,823.3084577017,-453.806086555045,-369.502371146655
0.0812921168039362,-843.005751353646,-796.777196362279,46.2285549913671,819.891473857963,-444.617153172507,-375.274320685456
0.0834313830356188,-843.127498021521,-802.213743466789,40.9137545547314,822.670620744155,-442.020626288126,-380.649994456029
0.0855706492673013,-851.712267642607,-814.506657437272,37.2056102053352,833.109462539939,-444.458938923971,-388.650523615968
0.0877099154989839,-852.723610318508,-790.531630940472,62.1919793780357,821.62762062949,-457.457794848272,-364.169825781218
0.0898491817306664,-849.422065069605,-777.224469547053,72.1975955225518,813.323267308329,-460.809830296078,-352.513437012251
0.0919884479623489,-837.578052764273,-767.74153721812,69.836515546153,802.659794991196,-453.707284155213,-348.952510835983
0.0941277141940314,-836.729021646647,-770.817015381191,65.9120062654556,803.773018513919,-451.320513956051,-352.452504557868
0.096266980425714,-831.852736765826,-783.043323006146,48.8094137596792,807.448029885986,-440.331075262752,-367.116954623234
0.0984062466573965,-839.062221781982,-792.481059374092,46.5811624078898,815.771640578037,-442.821692094936,-372.949948483101
0.100545512889079,-854.786202274625,-805.984996759968,48.8012055146569,830.385599517296,-451.793703894641,-378.591895622655
0.102684779120762,-863.365514468879,-822.508734775648,40.856779693231,842.937124622264,-452.111147081055,-390.825977541209
0.104824045352444,-872.09622986566,-806.527307258279,65.5689226073808,839.311768561969,-468.83257623652,-370.479192325449
0.106963311584127,-872.679151682951,-800.983726228238,71.6954254547129,836.831438955595,-472.187288568832,-364.644150386763
0.109102577815809,-857.050792777853,-799.02756404023,58.0232287376232,828.039178409041,-457.537010757738,-370.502167651303
0.111241844047492,-852.469560381939,-790.100560596525,62.3689997854132,821.285060489232,-457.419280083676,-363.865780405556
0.113381110279174,-847.667099311326,-786.527254924931,61.1398443863952,817.097177118129,-454.403471848861,-362.693705269268
0.115520376510857,-831.474729458701,-799.813330565498,31.6613988932025,815.6440300121,-431.568064175952,-384.075965836148
0.117659642742539,-800.370432563323,-794.112480310912,6.25795225241075,797.241456437117,-403.314192407867,-393.927264029251
0.119798908974222,-754.415232445609,-772.161036782441,-17.7458043368321,763.288134614025,-368.334714054389,-394.953420559637
0.121938175205904,-693.315264936881,-740.975297261263,-47.6600323243819,717.145281099072,-322.82761630625,-394.317664792822
0.124077441437587,-604.904039374353,-688.965246240703,-84.0612068663494,646.934642807528,-260.421416254002,-386.513226553526
0.126216707669269,-508.105096841881,-620.862126740433,-112.757029898552,564.483611791157,-197.674033471664,-366.809578319493
0.128355973900952,-414.352341210221,-553.369936272083,-139.017595061862,483.861138741152,-137.667373074179,-346.193765666973
0.130495240132634,-308.325948433064,-491.201123693969,-182.875175260904,399.763536063516,-62.7253865860801,-337.038149477436
0.132634506364317,-210.029720677377,-453.771544517643,-243.741823840266,331.90063259751,16.8560515814442,-348.756684178954
0.134773772596,-139.550854734562,-397.566514368573,-258.015659634011,268.558684551568,59.2324024497241,-327.791087001292
0.136913038827682,-120.530937645655,-364.149162109048,-243.618224463393,242.340049877352,61.543643408869,-303.883693286221
0.139052305059365,-141.108803040498,-356.533130419787,-215.42432737929,248.820966730142,37.157762169396,-285.978728899538
0.141191571291047,-212.264788813854,-359.065035302053,-146.800246488199,285.664912057953,-32.7322711628273,-252.932640895126
0.14333083752273,-329.372349738889,-360.839071259322,-31.4667215204335,345.105710499106,-148.952814109228,-196.152896389878
0.145470103754412,-441.600780751726,-409.646606959838,31.9541737918888,425.623693855782,-236.777477271808,-188.846216583974
0.147609369986095,-556.997843677633,-452.103451724769,104.894391952864,504.550647701201,-330.946117815249,-173.604529885953
0.149748636217777,-649.137195264696,-507.819269950164,141.317925314532,578.47823260743,-395.227560289614,-183.250672317816
0.15188790244946,-726.5060591084,-564.440149649065,162.065909459335,645.473104378732,-444.285984283867,-201.187120094865
0.154027168681142,-766.02912045221,-605.188274291454,160.840846160756,685.608697371832,-463.434983306483,-222.173714065349
0.156166434912825,-778.920998982928,-636.734534629344,142.186464353585,707.827766806136,-460.553731668256,-247.274035137879
0.158305701144507,-779.886452828636,-635.475772562329,144.410680266307,707.681112695483,-462.148566547471,-245.532546148011
0.16044496737619,-756.587651921637,-629.267404772862,127.320247148775,692.92752834725,-441.953949535206,-250.973578812044
0.162584233607872,-732.23760212191,-619.401014484173,112.836587637738,675.819308303041,-422.537094879824,-253.282213423217
0.164723499839555,-719.085581207083,-626.458300946834,92.627280260249,672.771941076958,-405.856430733666,-266.915510343293
0.166862766071238,-714.167172830098,-631.421590614895,82.7455822152031,672.794381722497,-398.456377522651,-274.338004199846
0.16900203230292,-733.673003899458,-660.863401029862,72.8096028695956,697.26820246466,-403.241303384527,-294.026899080133
0.171141298534603,-762.049305354795,-686.332931518464,75.7163738363309,724.191118436629,-418.882839595563,-305.308278841067
0.173280564766285,-790.829925977861,-702.729815684189,88.1001102936724,746.779870831025,-439.465018135767,-307.314852695258
0.175419830997968,-819.064755948454,-721.227116127784,97.8376398206707,770.145936038119,-458.451197884563,-311.694738153557
0.17755909722965,-830.602483120304,-726.818173050457,103.784310069846,778.71032808538,-467.193396595075,-311.516931490305
0.179698363461333,-841.053164666325,-709.098382881529,131.954781784796,775.075773773927,-486.503973225561,-288.571800548367
0.181837629693015,-843.372421402721,-723.669653226541,119.702768176179,783.521037314631,-481.53759478945,-301.983442525181
0.183976895924698,-850.12561305747,-743.863343079981,106.262269977489,796.994478068726,-478.19394151748,-318.800536551246
0.18611616215638,-861.880202769562,-765.303830240722,96.5763725288401,813.592016505142,-479.228287649201,-334.363728855941
0.188255428388063,-863.009776475384,-775.187017086415,87.8227593889695,819.0983967809,-475.416267932177,-343.682128848723
0.190394694619745,-864.490700581697,-795.642245749085,68.8484548326122,830.066473165391,-466.669577707154,-363.396895458236
0.192533960851428,-873.233306846987,-798.94583501976,74.2874718272273,836.089570933374,-473.760389337107,-362.329181596266
0.19467322708311,-873.155475806744,-781.58467181391,91.5708039928335,827.370073810327,-482.363139899789,-345.006933910538
0.196812493314793,-875.970618622359,-775.671470734303,100.299147888056,825.821044678331,-488.134883255208,-337.686161423123
0.198951759546476,-878.426520554162,-786.18861255654,92.2379079976216,832.307566555351,-485.332214275892,-346.975352279459
0.201091025778158,-869.701437062115,-782.635438491878,87.0659985702371,826.168437776997,-478.383717816176,-347.784719960821
0.203230292009841,-865.874844929328,-791.964322994457,73.9105219348718,828.919583961893,-469.8926834321,-359.026900529792
0.205369558241523,-863.0161418568,-801.665264743261,61.3508771135381,832.340703300031,-462.183509485169,-370.157193814862
0.207508824473206,-864.393474610942,-818.462367511846,45.9311070990958,841.427921061394,-455.162290855019,-386.265630206375
0.209648090704888,-861.434708718887,-826.161079672646,35.2736290462409,843.797894195766,-448.354168882564,-395.443725313202
0.211787356936571,-873.020382125017,-817.063574785078,55.9568073399389,845.041978455048,-464.488594732478,-380.55338372257
0.213926623168253,-875.90138303846,-811.330723977893,64.5706590605664,843.616053508177,-470.236021049513,-373.380032458663
0.216065889399936,-870.681622265705,-809.959478816138,60.7221434495669,840.320550540921,-465.701882857636,-374.618667683285
0.218205155631618,-869.811461628562,-790.377861972379,79.433599656183,830.09466180047,-474.622530642372,-355.472131158098
0.220344421863301,-862.155361650516,-803.132462514267,59.0228991362491,832.643912082392,-460.589130393383,-372.054781689009
0.222483688094983,-863.159609720956,-816.537190055531,46.6224196654247,839.848399888244,-454.89101469319,-384.957385195053
0.224622954326666,-852.797431848026,-814.099715895653,38.6977159523727,833.448573871839,-445.747573900199,-387.70099997164
0.226762220558348,-849.715214757306,-814.476966546153,35.2382482111528,832.096090651729,-442.476731484229,-389.6193591675
0.228901486790031,-841.803244909426,-813.609508799757,28.1937361096692,827.706376854591,-434.998490509547,-392.707886345044
0.231040753021714,-844.690811177275,-800.326123143838,44.3646880334362,822.508467160557,-444.527749605355,-377.980717555201
0.233180019253396,-843.439744645509,-787.155473941403,56.2842707041058,815.297609293456,-449.862007674807,-365.435601618649
0.235319285485079,-831.027894611611,-786.553819951956,44.4740746596541,808.790857281783,-437.750984635632,-371.039872646151
0.237458551716761,-835.08542871604,-791.058929353007,44.0264993630331,813.072179034523,-439.555964039536,-373.516214994987
0.239597817948444,-832.200263559676,-796.444532677589,35.7557308820873,814.322398118633,-433.977997220882,-380.344400897751
0.241737084180126,-833.4152394343,-805.796549271234,27.6186901630662,819.605894352767,-430.516964798683,-389.088929554084
0.243876350411809,-830.249040678851,-818.27377395898,11.9752667198709,824.261407318916,-421.112153699361,-403.149253619555
0.246015616643491,-837.819364581919,-806.260990740083,31.5583738418364,822.040177661001,-434.688869211878,-387.351308449123
0.248154882875174,-825.200901832818,-789.379574385807,35.8213274470116,807.290238109312,-430.511114639915,-376.779123469397
0.250294149106856,-827.92736105935,-783.881508806787,44.0458522525633,805.904434933069,-435.986606655957,-369.917828277112
0.252433415338539,-831.142332837845,-790.595730074203,40.5466027636418,810.869031456024,-435.844467800743,-375.024563655281
0.254572681570221,-827.443806324001,-775.120502581148,52.3233037428529,801.282154452574,-439.883555033427,-361.398599419148
0.256711947801904,-824.469122267418,-776.28225038982,48.1868718775986,800.375686328619,-436.327997072509,-364.047689256111
0.258851214033586,-821.68601527215,-805.138177195563,16.5478380765871,813.412096233856,-419.116926674369,-394.295169559488
0.260990480265269,-833.987862483597,-802.55358881853,31.4342736650676,818.270725651063,-432.711068074332,-385.559657576731
0.263129746496952,-826.065070257019,-798.892044151794,27.1730261052247,812.478557204407,-426.619048181122,-385.859509023285
0.265269012728634,-829.094608447124,-801.783600026887,27.3110084202366,815.439104237005,-428.20280843368,-387.236295803325
0.267408278960317,-831.936533614568,-792.307971287391,39.6285623271768,812.122252450979,-435.782547970872,-376.339704480107
0.269547545191999,-823.537082944735,-779.131967501255,44.4051154434802,801.334525222995,-433.971099194108,-367.363426028887
0.271686811423682,-812.017920890114,-766.98938449563,45.0285363944834,789.503652692872,-428.523228642299,-360.980424050574
0.273826077655364,-805.058998437989,-775.604234868237,29.454763569752,790.331616653113,-417.256881003871,-373.074735649243
0.275965343887047,-802.179100986606,-785.128063319934,17.0510376666723,793.65358215327,-409.615069326639,-384.038512826631
0.278104610118729,-806.66713256267,-790.721998796265,15.9451337664049,798.694565679468,-411.306133164537,-387.38843251493
0.280243876350412,-814.28594857055,-795.315915987245,18.9700325833051,804.800932278897,-416.627990576928,-388.17294170197
0.282383142582094,-805.728095722901,-786.841671604279,18.8864241186217,796.28488366359,-412.307259920761,-383.977623742829
0.284522408813777,-808.666018593355,-777.309048583631,31.3569700097238,792.987533588493,-420.01149430154,-372.976039286954
0.286661675045459,-800.372167206857,-763.799969310613,36.5721978962446,782.086068258735,-418.472182551551,-363.613885707184
0.288800941277142,-781.153171161205,-755.121797117807,26.0313740433977,768.137484139506,-403.592272602301,-364.545211537205
0.290940207508824,-766.413696517421,-751.812096007059,14.6016005103623,759.11289626224,-390.507648513892,-368.605247748348
0.293079473740507,-763.423483385766,-753.584200820579,9.83928256518743,758.503842103172,-386.631382975477,-371.872459127696
0.29521873997219,-763.853088298711,-767.223365955982,-3.37027765727044,765.538227127346,-380.24140532072,-385.296821806626
0.297358006203872,-771.312098316734,-768.301218958889,3.01087935784562,769.806658637811,-387.16148883729,-382.645169800522
0.299497272435555,-770.47147524737,-771.711814055713,-1.24033880834349,771.091644651542,-384.615568219513,-386.476076432028
0.301636538667237,-773.526287954285,-746.646251127619,26.8800368266653,760.086269540952,-400.203162390475,-359.883107150477
0.30377580489892,-773.247124173397,-744.578676501318,28.668447672079,758.912900337358,-400.957785922738,-357.95511441462
0.305915071130602,-765.931235518903,-735.621252530488,30.3099829884154,750.776244024696,-398.120609253659,-352.655634771036
0.308054337362285,-755.177775815304,-728.222816314521,26.954959500783,741.700296064912,-391.066367658043,-350.633928406869
0.310193603593967,-755.941137169486,-737.721276583816,18.2198605856702,746.831206876651,-387.080498877578,-359.750707999073
0.31233286982565,-763.82723724909,-755.363739337143,8.46349791194655,759.595488293117,-386.145367580518,-373.450120712598
0.314472136057332,-763.205575845045,-760.523820576759,2.68175526828566,761.864698210902,-382.943665556665,-378.921032654237
0.316611402289015,-766.1235921278,-752.481081376216,13.6425107515838,759.302336752008,-389.883051439692,-369.419285312316
0.318750668520697,-757.697040061344,-739.182105376034,18.51493468531,748.439572718689,-388.105987373327,-360.333585345362
0.32088993475238,-742.274376554305,-725.46278321502,16.8115933392855,733.868579884662,-379.542984946795,-354.325594937867
0.323029200984062,-739.222583186008,-712.49188408459,26.7306991014186,725.857233635299,-382.976641143713,-342.880592491586
0.325168467215745,-732.456686223763,-712.639231348429,19.8174548753343,722.547958786096,-376.137070549549,-346.410888236547
0.327307733447428,-732.930591989965,-725.78123894803,7.14935304193477,729.355915468997,-370.03997251595,-359.315942953048
0.32944699967911,-728.647844074975,-727.757850393343,0.889993681632177,728.202847234159,-364.768918878303,-363.433928355855
0.331586265910793,-719.862051072805,-729.127586968207,-9.26553589540185,724.494819020506,-355.298257588702,-369.196561431805
0.333725532142475,-715.034772990466,-725.288882050319,-10.2541090598527,720.161827520393,-352.390331965307,-367.771495555086
0.335864798374158,-710.941859955063,-724.014271104169,-13.0724111491064,717.478065529616,-348.934724402978,-368.543341126638
0.33800406460584,-715.506592550097,-702.724335836519,12.7822567135785,709.115464193308,-364.144424631838,-344.97103956147
0.340143330837523,-724.383786586911,-681.86730596363,42.5164806232814,703.125546275271,-383.450133605096,-319.675412670174
0.342282597069205,-725.16190784487,-693.269682152704,31.8922256921652,709.215794998787,-378.527066768517,-330.68872823027
0.344421863300888,-721.194661992897,-698.18587171018,23.0087902827165,709.690266851538,-372.101726137807,-337.588540713732
0.34656112953257,-724.191736670835,-703.789741681285,20.40199498955,713.99073917606,-372.296865830192,-341.693873345867
0.348700395764253,-723.107553026488,-720.811319277019,2.29623374946868,721.959436151753,-362.701893387978,-359.257542763775
0.350839661995935,-718.68261043059,-713.543920593974,5.13868983661587,716.113265512282,-361.910650133603,-354.202615378679
0.352978928227618,-711.298439799428,-701.183439091826,10.1150007076022,706.240939445627,-360.706720253515,-345.534219192112
0.3551181944593,-704.589423331565,-688.017263985132,16.5721593464327,696.303343658349,-360.580791338999,-335.72255231935
0.357257460690983,-693.952859945627,-686.46665269042,7.4862072552072,690.209756318024,-350.719533600417,-339.490222717606
0.359396726922666,-678.68691714988,-674.002180895068,4.68473625481238,676.344549022474,-341.685826702346,-334.658722320128
0.361535993154348,-681.876166096043,-654.927924681657,26.9482414143853,668.40204538885,-354.412203755214,-313.989841633636
0.363675259386031,-676.777681427374,-667.924698278323,8.8529831490506,672.351189852849,-342.815332288212,-329.535857564636
0.365814525617713,-691.377267287731,-689.005186051012,2.3720812367194,690.191226669371,-346.874674262225,-343.316552407146
0.367953791849396,-718.546431850892,-701.751121814476,16.7953100364158,710.148776832684,-367.670870943654,-342.47790588903
0.370093058081078,-735.025864827874,-705.570169612734,29.4556952151402,720.298017220304,-382.240780021507,-338.057237198797
0.372232324312761,-736.357028444639,-696.606399651397,39.7506287932424,716.481714048018,-388.053828618941,-328.427885429077
0.374371590544443,-721.719115581684,-687.140179972925,34.5789356087595,704.429647777304,-378.149025595222,-326.280622182083
0.376510856776126,-713.837358410826,-670.315569640705,43.5217887701218,692.076464025766,-378.679573590474,-313.396890435291
0.378650123007808,-697.21380785418,-666.247415318203,30.9663925359769,681.730611586192,-364.090100195078,-317.640511391113
0.380789389239491,-707.414772409025,-671.16228030179,36.2524921072348,689.288526355408,-371.83363225813,-317.454894097278
0.382928655471173,-706.472681261018,-692.26563270097,14.207048560048,699.369156980994,-360.339864910533,-339.029292070461
0.385067921702856,-726.031971488694,-701.459509082895,24.5724624057993,713.745740285795,-375.302216947247,-338.443523338548
0.387207187934538,-738.865709422498,-713.499200778737,25.3665086437617,726.182455100617,-382.11610903313,-344.066346067487
0.389346454166221,-755.943736313669,-716.524442125381,39.4192941882887,736.234089219525,-397.681515250979,-338.552573968546
0.391485720397904,-753.067237883103,-707.11965068721,45.9475871958938,730.093444285156,-399.507412539499,-330.586031745658
0.393624986629586,-768.454334059219,-701.71388975769,66.7404443015284,735.084111908455,-417.597389180374,-317.486722728081
0.395764252861269,-755.574441965677,-697.259676789364,58.3147651763131,726.41705937752,-406.944603570995,-319.472455806525
0.397903519092951,-757.847287192286,-701.834772522767,56.0125146695193,729.841029857526,-406.929900930903,-322.911128926624
0.400042785324634,-768.44896694934,-718.936580457271,49.5123864920696,743.692773703305,-408.980676720705,-334.7120969826
0.402182051556316,-772.460219394149,-743.803953829751,28.6562655643972,758.13208661195,-400.558242479273,-357.573844132677
0.404321317787999,-785.344837729346,-756.150164607639,29.1946731217071,770.747501168492,-407.269755425526,-363.477745742966
0.406460584019681,-794.740951052115,-747.847476528386,46.8934745237284,771.294213790251,-420.817212787922,-350.477001002329
0.408599850251364,-815.219862434995,-750.285979712734,64.9338827222604,782.752921073865,-440.076872578628,-342.676048495237
0.410739116483046,-818.972084876567,-752.615074320839,66.3570105557285,785.793579598703,-442.664547716148,-343.129031882555
0.412878382714729,-829.371578256698,-747.900444182518,81.4711340741795,788.636011219608,-455.421356165439,-333.214655054169
0.415017648946411,-839.393278879492,-748.231944503087,91.1613343764044,793.81261169129,-465.277306627948,-328.535305063342
0.417156915178094,-849.99434004742,-776.708118526126,73.2862215212946,813.351229286773,-461.640280784357,-351.710948502415
0.419296181409776,-850.149082044768,-793.775149742559,56.3739323022094,821.962115893664,-453.261507173489,-368.700608720175
0.421435447641459,-863.065075236586,-798.604707530254,64.4603677063322,830.83489138342,-463.762721471459,-367.072169911961
0.423574713873141,-872.452433210587,-802.367760279052,70.0846729315344,837.41009674482,-471.268553071061,-366.141543673759
0.425713980104824,-869.576647311487,-809.031641855218,60.5450054562684,839.304144583353,-465.060826383878,-374.243318199475
0.427853246336507,-873.258702018593,-803.65113208555,69.607569933043,838.454917052071,-471.433135975818,-367.021781076253
0.429992512568189,-875.857454274026,-790.905743828467,84.9517104455588,833.381599051246,-480.404582359792,-352.977016691454
0.432131778799872,-874.254306734704,-810.199981996064,64.0543247386396,842.227144365384,-469.154315736672,-373.072828628712
0.434271045031554,-877.168411814958,-807.232961348157,69.9354504668008,842.200686581557,-473.551931140879,-368.648755440678
0.436410311263237,-892.928178449273,-824.230446865296,68.6977315839769,858.579312657285,-480.812955016625,-377.76635764066
0.438549577494919,-886.442325030844,-833.24388254857,53.1984424822745,859.843103789707,-469.820383756559,-390.022720033148
0.440688843726602,-884.139835612212,-845.247330014743,38.8925055974687,864.693582813477,-461.51617060484,-403.177412208637
0.442828109958284,-888.980510054039,-825.101757022284,63.878753031755,857.041133538162,-476.429631542897,-380.611501995265
0.444967376189967,-884.865137216827,-823.667542959325,61.1975942575016,854.266340088076,-473.031365737164,-381.234974350912
0.447106642421649,-871.933790297219,-818.40271597677,53.5310743204487,845.168253136995,-462.732432308834,-382.435820828161
0.449245908653332,-870.363125214318,-813.919932625064,56.4431925892535,842.141528919691,-463.403158901786,-378.738370017905
0.451385174885014,-873.304105706172,-814.444338046352,58.8597676598201,843.874221876262,-466.081936682996,-377.792285193266
0.453524441116697,-881.28657721528,-831.370596253404,49.9159809618751,856.328586734342,-465.601279088577,-390.727307645765
0.45566370734838,-863.1209976488,-840.665141883195,22.4558557656047,851.893069765997,-442.788426707202,-409.104643058795
0.457802973580062,-853.050688356332,-841.500231099531,11.5504572568009,847.275459727932,-432.300572806567,-414.974886921365
0.459942239811745,-850.175333433879,-825.650281120298,24.5250523135808,837.912807277088,-437.35019287373,-400.562614403359
0.462081506043427,-857.764235870552,-828.20095179713,29.5632840734218,842.982593833841,-443.663759971987,-399.318833861854
0.46422077227511,-868.101957227821,-818.769942548925,49.3320146788966,843.435949888373,-458.716985953359,-384.718963935014
0.466360038506792,-874.153573065355,-809.896678066824,64.2568949985302,842.025125566089,-469.205234031942,-372.819891534147
0.468499304738475,-884.70022939672,-813.86973823275,70.8304911639697,849.284983814735,-477.765360280345,-371.51962353439
0.470638570970157,-888.796458184773,-842.330455209778,46.4660029749946,865.563456697276,-467.631230579884,-397.932226117392
0.47277783720184,-894.150076410433,-848.016007996126,46.1340684143066,871.08304220328,-470.14207241237,-400.94096979091
0.474917103433522,-896.051953690222,-861.012642657817,35.0393110324051,878.53229817402,-465.545632361314,-412.986665812706
0.477056369665205,-889.486417543285,-853.391631809073,36.0947857342119,871.439024676179,-462.790601638748,-408.648423037431
0.479195635896887,-873.696371158444,-848.328569144085,25.3678020143585,861.012470151264,-449.532086586401,-411.480383564863
0.48133490212857,-868.182144612112,-827.019562320551,41.162582291561,847.600853466332,-454.672363451836,-392.928490014495
0.483474168360252,-862.204739175606,-813.79008349645,48.4146556791558,837.997411336028,-455.309697427381,-382.687713908647
0.485613434591935,-853.113802722798,-813.410955599732,39.7028471230653,833.262379161265,-446.408324922932,-386.854054238334
0.487752700823617,-845.633136830886,-826.116416507599,19.5167203232867,835.874776669242,-432.574928577086,-403.299848092156
0.4898919670553,-847.437448276142,-831.938344933803,15.4991033423381,839.687896604973,-431.46827580924,-408.219620795733
0.492031233286983,-865.256961687653,-849.234319090599,16.0226425970535,857.245640389126,-440.639802142353,-416.605838246773
0.494170499518665,-858.888728527251,-834.320466386972,24.5682621402797,846.604597457112,-441.728495333766,-404.876102123346
0.496309765750348,-862.401138642819,-829.54776804045,32.8533706023687,845.974453341635,-447.627254622594,-398.347198719041
0.49844903198203,-852.675019075149,-815.963329861101,36.7116892140481,834.319174468125,-444.693354144599,-389.625820323527
0.500588298213713,-842.504761474833,-810.13241526772,32.3723462071134,826.318588371276,-437.438553840973,-388.880034530303
0.502727564445395,-837.220727058616,-793.722384282871,43.4983427757446,815.471555670743,-440.35953491718,-375.112020753563
0.504866830677078,-837.688799222797,-802.201148715409,35.4876505073881,819.944973969103,-436.588224865092,-383.35674910401
0.50700609690876,-839.77555595676,-819.677691764263,20.0978641924967,829.726623860512,-429.936710074628,-399.789913785883
0.509145363140443,-830.609293526055,-825.671904098666,4.93738942738867,828.140598812361,-417.773341476722,-410.367257335639
0.511284629372125,-839.765181813754,-819.015820887907,20.7493609258472,829.39050135083,-430.257271369801,-399.13322998103
0.513423895603808,-843.07667499075,-818.489685350677,24.5869896400727,830.783180170713,-433.831832315411,-396.951347855302
0.51556316183549,-844.718395629166,-812.6929234391,32.0254721900659,828.705659534133,-438.371933909616,-390.333725624517
0.517702428067173,-834.372871364096,-798.770122685432,35.6027486786634,816.571497024764,-434.98781002138,-381.583687003384
0.519841694298856,-833.031144873793,-785.763947946365,47.2671969274274,809.397546410079,-440.14917090061,-369.248375509469
0.521980960530538,-841.540260849968,-805.527459151096,36.0128016988721,823.533860000532,-438.77653127442,-384.757328726112
0.524120226762221,-863.349543641231,-819.066393280647,44.283150360584,841.207968460939,-453.816347000908,-387.391621460032
0.526259492993903,-881.472153285661,-833.107919435807,48.3642338498538,857.290036360734,-464.918193567757,-392.371842792977
0.528398759225586,-886.567573053202,-842.439662914742,44.1279101384597,864.503617983972,-465.347741595831,-399.155876388141
0.530538025457268,-874.036672096006,-846.167500378238,27.8691717177682,860.102086237122,-450.952921906887,-409.149164330235
0.532677291688951,-859.973376425849,-824.942191451198,35.0311849746513,842.457783938523,-447.50228070025,-394.955503238273
0.534816557920633,-845.847393787201,-806.949272181207,38.898121605994,826.398332984204,-442.372757696597,-384.025575287606
0.536955824152316,-829.251208145367,-805.210844439111,24.0403637062557,817.231026292239,-426.645785925811,-390.585240366428
0.539095090383998,-814.673933780547,-793.519936301308,21.1539974792388,804.096935040927,-417.913965629893,-386.182969411035
0.541234356615681,-813.149823700827,-787.451450133712,25.6983735671155,800.300636917269,-419.424098633971,-380.876538283298
0.543373622847363,-815.463749887916,-805.484244076862,9.97950581105431,810.473996982389,-412.721627849485,-397.752369132904
0.545512889079046,-816.341178196373,-811.258186143089,5.08299205328365,813.799682169731,-410.712085124828,-403.087597044903
0.547652155310728,-815.293632197265,-807.574933127263,7.71869907000109,811.434282662264,-411.506165633633,-399.928117028631
0.549791421542411,-832.407271059261,-798.201558817319,34.2057122419421,815.30441493829,-433.306491650602,-381.997923287688
0.551930687774093,-822.502793382057,-799.568834755908,22.933958626149,811.035814068982,-422.718376004103,-388.317438064879
0.554069954005776,-833.465025987566,-785.91533066593,47.5496953216367,809.690178326748,-440.507360654601,-369.182817672146
0.556209220237459,-834.625810209413,-777.805483516893,56.8203266925203,806.215646863153,-445.723068450967,-360.492578412186
0.558348486469141,-844.658140962815,-798.74475374224,45.9133872205755,821.701447352527,-445.285764091695,-376.415683260832
0.560487752700824,-850.518422257283,-812.913486266628,37.6049359906547,831.715954261956,-444.061679123969,-387.654275137987
0.562627018932506,-843.253639205519,-818.872214148017,24.3814250575016,831.062926676768,-433.81753213151,-397.245394545258
0.564766285164189,-842.012634548068,-815.456474481129,26.5561600669388,828.734554514599,-434.284397307504,-394.450157207095
0.566905551395871,-843.693359096049,-814.063064376381,29.6302947196676,828.878211736215,-436.661826907858,-392.216384828357
0.569044817627554,-830.222274803793,-803.833689214369,26.3885855894233,817.027982009081,-428.305430196608,-388.722551812473
0.571184083859236,-829.868878198607,-782.281143807071,47.5877343915366,806.075011002839,-438.728306295072,-367.346704707767
0.573323350090919,-827.286501371189,-773.91640477894,53.3700965922482,800.601453075064,-440.328298981718,-360.273154093346
0.575462616322601,-817.778958476851,-782.9465740571,34.8323844197508,800.362766266976,-426.305671448301,-374.057094818675
0.577601882554284,-819.458680959821,-793.093034272456,26.3656466873645,806.275857616139,-422.912163823593,-383.363693792546
0.579741148785966,-815.787885017523,-795.230592809515,20.5572922080081,805.509238913519,-418.172588612765,-387.336650300753
0.581880415017649,-810.54023378194,-799.817329773406,10.7229040085341,805.178781777673,-410.631568895237,-394.547212882436
0.584019681249331,-808.44494010931,-802.599532456162,5.84540765314796,805.522236282736,-407.145173881229,-398.377062401507
0.586158947481014,-814.652907493742,-780.931102968677,33.7218045250655,797.792005231209,-424.187356009404,-373.604649221806
0.588298213712697,-830.080626754168,-782.689598769715,47.3910279844525,806.385112761942,-438.73582736931,-367.649285392631
0.590437479944379,-839.232329572866,-781.872678107607,57.3596514652594,810.552503840237,-448.295990519063,-362.256513321174
0.592576746176062,-845.154432572809,-790.544025572499,54.6104070003096,817.849229072654,-449.882419786559,-367.966809286095
0.594716012407744,-854.409067435271,-792.64193603955,61.7671313957213,823.52550173741,-458.088099415496,-365.437402321914
0.596855278639427,-854.482062494509,-814.168456557826,40.3136059366827,834.325259526168,-447.397834215596,-386.927425310572
0.598994544871109,-845.353298076141,-822.89385553476,22.459442541381,834.123576805451,-433.906370308761,-400.21720649669
0.601133811102792,-823.973680768324,-810.550682255894,13.42299851243,817.262181512109,-418.698339640377,-398.563841871732
0.603273077334474,-818.686391046934,-808.626704352729,10.0596866942051,813.656547699831,-414.373038870569,-399.283508829262
0.605412343566157,-803.111485159815,-787.145605337314,15.9658798225007,795.128545248565,-409.538682491158,-385.589862757407
0.607551609797839,-788.883784272969,-774.418975525462,14.4648087475072,781.651379899216,-401.674296510238,-379.977083388978
0.609690876029522,-790.737057723269,-759.368209782666,31.3688479406024,775.052633752967,-411.052952831936,-363.999680921032
0.611830142261204,-792.032434945114,-772.74315447288,19.2892804722337,782.387794708997,-405.660857708674,-376.726937000323
0.613969408492887,-803.658875493279,-782.486572396563,21.1723030967156,793.072723944921,-412.415589294997,-380.657134649924
0.61610867472457,-814.006992946216,-787.503142305078,26.5038506411373,800.755067625647,-420.255421793676,-380.49964583197
0.618247940956252,-816.118582906348,-798.857065241111,17.2615176652369,807.48782407373,-416.690050285792,-390.797773787937
0.620387207187935,-822.72507439852,-797.350612699799,25.3744616987208,810.037843549159,-424.04976804862,-385.988075500539
0.622526473419617,-815.115878452355,-787.737702225467,27.3781762268875,801.426790338911,-421.247027339621,-380.17976299929
0.6246657396513,-816.481243144032,-771.052251685794,45.4289914582381,793.766747414913,-430.955117301135,-362.811630113778
0.626805005882982,-829.844953400506,-775.076803900284,54.7681495002224,802.460878650395,-442.306551450364,-360.154327200031
0.628944272114665,-819.194031375502,-780.250297207076,38.9437341684262,799.722164291289,-429.068882771964,-370.653281519325
0.631083538346347,-822.75160510668,-785.805882405007,36.945722701673,804.278743755844,-429.848663904177,-374.430079851667
0.63322280457803,-813.564708558064,-790.825771904694,22.7389366533694,802.195240231379,-418.151822605717,-384.043417625663
0.635362070809712,-823.578389489464,-806.376429001711,17.2019604877523,814.977409245588,-420.390174988608,-394.58723425698
0.637501337041395,-830.488952833032,-801.44259597606,29.0463568569711,815.965774404546,-429.767654845001,-386.198119559545
0.639640603273077,-827.03997643588,-796.059125018138,30.980851417742,811.549550727009,-429.010413926811,-382.539136800198
0.64177986950476,-824.618680596945,-783.294883313693,41.323797283252,803.956781955319,-432.971238940098,-370.98554301522
0.643919135736442,-818.463227940737,-779.255071571529,39.2081563692084,798.859149756133,-428.835692154973,-370.02345760116
0.646058401968125,-807.600945798808,-772.31983430336,35.2811114954484,789.960390051084,-421.441028647128,-368.519361403956
0.648197668199808,-803.195963573048,-777.520305060281,25.675658512767,790.358134316665,-414.435811042907,-375.922323273757
0.65033693443149,-801.65853608507,-786.360955752853,15.2975803322166,794.009745918961,-408.478058208643,-385.531687710318
0.652476200663173,-788.37242464006,-786.637838514147,1.73458612591276,787.505131577103,-395.053505382986,-392.451626194117
0.654615466894855,-783.750910796459,-782.142648324791,1.60826247166733,782.946779560625,-392.679586634063,-390.267192926562
0.656754733126538,-776.618050042894,-777.138172811431,-0.520122768536908,776.878111427163,-388.048963637179,-388.829147789984
0.65889399935822,-778.256818001472,-768.351944526605,9.9048734748668,773.304381264038,-394.080845738169,-379.223535525869
0.661033265589903,-779.909488939355,-756.300588833989,23.6089001053659,768.105038886672,-401.75919452236,-366.345844364312
0.663172531821585,-772.797720825995,-745.042746465935,27.7549743600609,758.920233645965,-400.276347593028,-358.643886052937
0.665311798053268,-772.043048299324,-753.748200725814,18.2948475735101,762.895624512569,-395.168947936417,-367.726676576152
0.66745106428495,-770.324481052365,-754.722573784292,15.601907268073,762.523527418329,-392.963194160219,-369.56033325811
0.669590330516633,-749.277058813537,-759.11341465851,-9.83635584497335,754.195236736023,-369.720351484282,-384.474885251742
0.671729596748315,-752.621278998991,-762.805696204418,-10.1844172054275,757.713487601705,-371.218430896782,-386.495056704923
0.673868862979998,-761.270632111197,-758.162661913755,3.10797019744155,759.716647012476,-382.189301154319,-377.527345858157
0.67600812921168,-774.661720633049,-745.597665880934,29.0640547521151,760.129693256991,-401.862887692582,-358.266805564409
0.678147395443363,-787.832205231581,-744.994176787588,42.8380284439926,766.413191009584,-415.335116837787,-351.078074171798
0.680286661675045,-784.338860652887,-744.988252423922,39.3506082289651,764.663556538404,-411.844734440926,-352.818822097478
0.682425927906728,-791.163303908976,-745.559263727152,45.6040401818236,768.361283818064,-418.3836720454,-349.977611772664
0.684565194138411,-781.739294950622,-758.058945781019,23.6803491696033,769.899120365821,-402.709822060113,-367.189298305708
0.686704460370093,-776.503537352091,-762.649977643019,13.8535597090714,769.576757497555,-395.178548530581,-374.398208966974
0.688843726601776,-780.135353480637,-766.751451375741,13.3839021048963,773.443402428189,-396.759627792767,-376.683774635422
0.690982992833458,-761.678208842181,-754.734243371466,6.94396547071517,758.206226106824,-384.311087156448,-373.895138950375
0.693122259065141,-747.703062632415,-734.556619092733,13.1464435396817,741.129840862574,-380.424753086048,-360.705087776526
0.695261525296823,-733.386633244122,-726.008026947313,7.37860629680847,729.697330095717,-370.382619770465,-359.314710325252
0.697400791528506,-733.531323045308,-717.80988701488,15.7214360304284,725.670605030094,-374.626379537868,-351.044225492226
0.699540057760188,-732.524074354788,-706.28980095399,26.2342734007974,719.406937654389,-379.379173877793,-340.027763776597
0.701679323991871,-727.102395498187,-710.818384356725,16.2840111414621,718.960389927456,-371.693203319825,-347.267186607632
0.703818590223553,-737.62195755752,-731.084847346262,6.53711021125787,734.353402451891,-372.079533884389,-362.273868567502
0.705957856455236,-749.230066625762,-739.472474708492,9.75759191726968,744.351270667127,-379.493829271516,-364.857441395611
0.708097122686918,-758.056155837394,-743.419263826453,14.6368920109412,750.737709831923,-386.346523924168,-364.391185907756
0.710236388918601,-778.980915654145,-742.883423081759,36.097492572386,760.932169367952,-407.539204113265,-353.392965254686
0.712375655150283,-791.675779526755,-734.250732124975,57.4250474017807,762.963255825865,-424.550413464268,-338.412842361597
0.714514921381966,-799.406299031729,-737.379176001459,62.0271230302698,768.392737516594,-430.716711030999,-337.676026485594
0.716654187613649,-802.226103756445,-748.774635444953,53.4514683114913,775.500369600699,-427.838786033968,-347.661583566731
0.718793453845331,-804.684233732251,-753.049757970998,51.6344757612533,778.866995851625,-428.159354746752,-350.707641104872
0.720932720077014,-799.876803380887,-761.681513925764,38.1952894551232,780.779158653325,-419.036046418005,-361.74311223532
0.723071986308696,-807.744279008741,-774.241527311721,33.5027516970193,790.992903160231,-420.62351535288,-370.369387807351
0.725211252540379,-801.002916280748,-778.59212005739,22.4107962233585,789.797518169069,-411.706856252053,-378.090661917016
0.727350518772061,-802.30334978373,-778.330524919729,23.9728248640008,790.316937351729,-413.138087323865,-377.178850027864
0.729489785003744,-806.979911371033,-758.033040525366,48.9468708456675,782.506475948199,-427.96339110835,-354.543084839849
0.731629051235426,-806.813456447636,-756.983772752079,49.8296836955565,781.898614599857,-428.321570071596,-353.577044528261
0.733768317467109,-809.709889274244,-760.212503614734,49.4973856595101,784.961196444489,-429.603637466877,-355.357558977612
0.735907583698791,-816.290689314972,-768.083366456152,48.2073228588199,792.187027885562,-432.249006086896,-359.938021798666
0.738046849930474,-831.140077982519,-768.933858680061,62.2062193024583,800.03696833129,-446.673148642489,-353.363819688801
0.740186116162156,-831.337976378137,-797.279969037427,34.05800734071,814.308972707782,-432.697991859424,-381.610980848359
0.742325382393839,-840.032028965588,-802.010205724043,38.0218232415443,821.021117344816,-439.026926103566,-381.99419124125
0.744464648625521,-852.766997917456,-802.05124357068,50.715754346776,827.409120744068,-451.741376132116,-375.667744611952
0.746603914857204,-865.009158475875,-797.35677141806,67.6523870578152,831.182964946967,-466.330772766845,-364.852192180122
0.748743181088886,-864.787356928483,-799.99110695708,64.7962499714029,832.389231942782,-464.791803449943,-367.597428492839
0.750882447320569,-867.815872926495,-802.857761357645,64.9581115688503,835.33681714207,-466.386992247673,-368.949824894397
0.753021713552252,-855.232787371219,-794.890123061123,60.342664310096,825.061455216171,-457.787725840657,-367.273729375513
0.755160979783934,-854.77153666715,-811.189995722873,43.5815409442769,832.980766195011,-449.176538805713,-383.804227389298
0.757300246015617,-855.001953162431,-816.420723015212,38.5812301472192,835.711338088821,-446.791591654825,-388.919746433996
0.759439512247299,-840.184855849155,-817.603987252359,22.580868596796,828.894421550757,-431.382862222975,-397.511559327781
0.761578778478982,-825.401098428486,-817.942922396509,7.45817603197725,821.672010412497,-416.429637230232,-405.242373182266
0.763718044710664,-825.759050004982,-805.56047354885,20.1985764561319,815.659761776916,-422.978813230557,-392.680948546359
0.765857310942347,-829.435770755478,-792.483771680643,36.9519990748346,810.95977121806,-433.193884915156,-377.765886302904
0.767996577174029,-836.587128703193,-787.269161617059,49.317967086134,811.928145160126,-442.952547894664,-368.975597265463
0.770135843405712,-839.832498515789,-794.552542897185,45.2799556186045,817.192520706487,-442.556227067197,-374.63629363929
0.772275109637394,-843.430258337777,-795.217235365714,48.2130229720626,819.323746851745,-445.82164065492,-373.502106196826
0.774414375869077,-828.12396761506,-804.458491108814,23.6654765062456,816.291229361937,-425.894722060653,-390.396507301284
0.77655364210076,-824.825002581113,-809.823350043739,15.0016525373742,817.324176312426,-419.913327559244,-397.410848753183
0.778692908332442,-829.276208384453,-818.229880644319,11.0463277401348,823.753044514386,-420.161268062294,-403.591776452092
0.780832174564125,-825.584698740444,-802.108454520613,23.4762442198307,813.846576630528,-424.530471480137,-389.316105150391
0.782971440795807,-833.053874077424,-788.949315205628,44.1045588717959,811.001594641526,-438.57921647461,-372.422378166916
0.78511070702749,-844.118404398241,-795.117155785487,49.0012486127538,819.617780091864,-446.559826505497,-373.057953586367
0.787249973259172,-851.387791252627,-794.319983384609,57.0678078680181,822.853887318618,-454.227799560322,-368.626087758295
0.789389239490855,-859.06187999396,-794.791085183312,64.2707948106481,826.926482588636,-461.666337402304,-365.260145186332
0.791528505722537,-855.555548267051,-807.954461260013,47.601087007038,831.755004763532,-451.578317637044,-380.176687126487
0.79366777195422,-856.164454949406,-829.091373500852,27.0730814485537,842.627914225129,-441.61876819898,-401.009146026149
0.795807038185902,-848.854799551198,-822.283170383224,26.5716291679743,835.568984967211,-437.713214359586,-397.855770607625
0.797946304417585,-821.699940759281,-810.284636235574,11.4153045237071,815.992288497428,-416.557622641494,-399.434665855934
0.800085570649267,-798.0027477139,-793.29002105964,4.71272665426,795.64638438677,-401.35773718408,-394.28864720269
0.80222483688095,-746.980541008421,-768.228664033538,-21.248123025117,757.60460252098,-362.866208991652,-394.738393529328
0.804364103112632,-665.130400196444,-712.811231922441,-47.680831725997,688.970816059442,-308.724784235223,-380.246031824219
0.806503369344315,-572.096973908482,-666.499065675299,-94.4020917668178,619.298019791891,-238.847441070832,-380.450578721059
0.808642635575997,-479.418439983951,-633.028435677847,-153.609995693896,556.223437830899,-162.904222145028,-393.319215685872
0.81078190180768,-382.818588132844,-580.475405628185,-197.65681749534,481.646996880515,-92.580885318752,-389.066111561763
0.812921168039363,-270.274791152467,-511.677192860312,-241.402401707845,390.97599200639,-14.4361947223113,-376.539797284079
0.815060434271045,-180.538189668887,-457.06706015454,-276.528870485653,318.802624911714,47.9953404083829,-366.797965320097
0.817199700502728,-125.515162226855,-401.239392117522,-275.724229890668,263.377277172189,75.1045338319065,-338.481811004095
0.81933896673441,-136.648359524824,-356.653419029437,-220.005059504614,246.65088927713,41.6783499898949,-288.329239267025
0.821478232966093,-179.260770647477,-343.765241596417,-164.50447094894,261.513006121947,-7.37814984926871,-254.134856272678
0.823617499197775,-257.26607197734,-363.248607476116,-105.982535498776,310.257339726728,-75.641768239282,-234.615571487446
0.825756765429458,-351.073560049664,-391.7555610265,-40.6820009768358,371.414560538082,-155.195779536414,-216.218781001668
0.82789603166114,-448.759736817707,-447.971034657891,0.788702159815614,448.365385737799,-224.774219488761,-223.591166249038
0.830035297892823,-553.96008012387,-495.955549498543,58.004530625327,524.957814811206,-305.982305374598,-218.975509436608
0.832174564124505,-651.008847051482,-542.752068069063,108.256778982419,596.880457560272,-379.632813016951,-217.247644543322
0.834313830356188,-724.402819733907,-572.766212053703,151.636607680204,648.584515893805,-438.019713707056,-210.56480218675
0.83645309658787,-770.44881849394,-606.005150758286,164.443667735654,688.226984626113,-467.446243114797,-220.780741511316
0.838592362819553,-789.417347545481,-620.093953141108,169.323394404373,704.755650343295,-479.370370974927,-225.385279368368
0.840731629051235,-785.411906139812,-635.205733179754,150.206172960058,710.308819659783,-467.809039549935,-242.499780109848
0.842870895282918,-774.014319119853,-636.023513048719,137.990806071134,705.018916084286,-456.002562595493,-249.016353488792
0.845010161514601,-751.191051877095,-660.914792689301,90.2762591877943,706.052922283198,-420.733655532445,-285.319266750753
0.847149427746283,-739.957717874449,-670.169100196342,69.7886176781072,705.063409035395,-404.873167776278,-300.190241259117
0.849288693977966,-740.050520604425,-678.497970944485,61.5525496599398,709.274245774455,-400.801535132182,-308.472710642273
0.851427960209648,-747.495272575148,-677.83918728884,69.6560852863074,712.667229931994,-408.575678930728,-304.091551001266
0.853567226441331,-758.572812528934,-691.848021097912,66.7247914310225,725.210416813423,-412.648801979978,-312.561614833445
0.855706492673013,-769.745374649406,-678.64591589803,91.0994587513758,724.195645273718,-430.422416700391,-293.773228573327
0.857845758904696,-785.21485815037,-697.321908738744,87.892949411626,741.268383444557,-436.553903780998,-304.714479663559
0.859985025136378,-805.05943515002,-705.570855622057,99.488579527963,755.315145386039,-452.274007338992,-303.041138047047
0.862124291368061,-829.042025806461,-734.182786004828,94.859239801633,781.612405905645,-461.950632804047,-319.661773101598
0.864263557599743,-848.981174023085,-755.195159184734,93.7860148383505,802.088166603909,-471.383594430718,-330.704572173192
0.866402823831426,-872.304203014045,-771.621767449898,100.682435564147,821.962985231972,-486.493319289096,-335.469665942875
0.868542090063108,-875.683831828935,-790.745177553321,84.9386542756135,833.214504691128,-480.311243052274,-352.903261638854
0.870681356294791,-867.20197001276,-781.670664506622,85.5313055061381,824.436317259691,-476.366637759449,-348.069679500242
0.872820622526473,-858.967996741279,-772.308104439595,86.6598923016837,815.638050590437,-472.813944521481,-342.824106068956
0.874959888758156,-855.151571038184,-771.300392668289,83.8511783698947,813.225981853236,-469.501374704039,-343.724607149197
0.877099154989838,-844.037661103031,-767.530227905482,76.5074331975495,805.783944504257,-460.27254715029,-345.511397353966
0.879238421221521,-840.795596276869,-772.558833834097,68.2367624427721,806.677215055483,-454.51617935982,-352.161035695662
0.881377687453204,-829.485586084615,-785.741409587777,43.7441764968382,807.613497836196,-436.614881290727,-370.998616545469
0.883516953684886,-844.840748867686,-810.10632266286,34.7344262048255,827.473535765273,-439.787587536256,-387.685948229017
0.885656219916569,-852.030716202744,-810.13392264993,41.8967935528144,831.082319426337,-446.963754877779,-384.118564548558
0.887795486148251,-870.833415492681,-801.385974601099,69.4474408915814,836.10969504689,-470.140428192131,-365.969266854759
0.889934752379934,-874.472275495821,-803.857499646902,70.6147758489192,839.164887571362,-472.54352567237,-366.621361898991
0.892074018611616,-882.538970894252,-814.425228322871,68.113742571381,848.482099608561,-475.326356732816,-373.155742875745
0.894213284843299,-879.337862569732,-802.577911681788,76.7599508879442,840.95788712576,-478.048906728838,-362.908980396922
0.896352551074981,-872.215948793592,-799.467079267439,72.7488695261533,835.841514030515,-472.482409159873,-363.359104870643
0.898491817306664,-853.00240097725,-820.194626173019,32.8077748042311,836.598513575134,-442.905087890741,-393.693425684394
0.900631083538346,-844.844903623832,-817.449021647292,27.3958819765402,831.146962635562,-436.120392800186,-395.026569835376
0.902770349770029,-840.17786790765,-817.808388218036,22.3694796896143,828.993128062843,-431.273673798632,-397.719454264211
0.904909616001711,-843.322905854156,-817.21951644352,26.1033894106369,830.271211148838,-434.713147632397,-395.558063516441
0.907048882233394,-843.073884757758,-819.881058058197,23.1928266995615,831.477471407978,-433.13335572866,-398.344115679318
0.909188148465076,-843.500920180939,-803.147960366814,40.352959814125,823.324440273876,-441.926939997532,-381.397500276344
0.911327414696759,-844.405273580746,-794.852231323759,49.5530422569875,819.628752452252,-446.979157918867,-372.649594533386
0.913466680928442,-849.164351879961,-814.68792727562,34.4764246043407,831.92613957779,-441.820388242151,-390.10575133564
0.915605947160124,-865.003076444575,-815.818715590031,49.1843608545431,840.410896017303,-457.093718649559,-383.317177367744
0.917745213391807,-864.507525426156,-828.694747067046,35.8127783591096,846.601136246601,-450.160151892633,-396.440984353968
0.919884479623489,-859.584150982462,-837.137359899017,22.446791083445,848.360755440739,-441.015471032953,-407.345284407786
0.922023745855172,-854.738108651289,-833.029027342231,21.7090813090576,843.88356799676,-438.223594980173,-405.659973016587
0.924163012086854,-842.810444588182,-828.148759105669,14.6616854825133,835.479601846925,-428.736065035348,-406.743536811578
0.926302278318537,-824.016352301885,-807.507273284589,16.5090790172964,815.761812793237,-420.262715659591,-395.499097133646
0.928441544550219,-813.548069766132,-795.05870170849,18.4893680576414,804.303385737311,-416.018718911887,-388.284666825424
0.930580810781902,-802.920282605614,-791.219058126572,11.7012244790417,797.069670366093,-407.310753542328,-389.758916823765
0.932720077013584,-806.990434981767,-784.298588335507,22.6918466462604,795.644511658637,-414.841140814014,-380.803370844623
0.934859343245267,-802.281729912726,-797.126229111992,5.15550080073365,799.703979512359,-403.71861535673,-395.985364155629
0.936998609476949,-800.911624901004,-805.765350343187,-4.85372544218274,803.338487622095,-398.028949729411,-405.309537892685
0.939137875708632,-811.496336008707,-798.112440338616,13.3838956700907,804.804388173661,-412.440115839399,-392.364272334263
0.941277141940315,-803.682401109201,-797.43503876037,6.24736234883107,800.558719934785,-404.964881729016,-395.593838205769
0.943416408171997,-824.156643527735,-796.346044578984,27.8105989487515,810.251344053359,-425.983621238243,-384.267722815116
0.94555567440368,-829.592249246436,-795.415029272959,34.177219973477,812.503639259697,-431.884734609956,-380.618904649741
0.947694940635362,-842.314855024186,-783.480305927501,58.8345490966856,812.897580475844,-450.574702060436,-362.322878415408
0.949834206867045,-834.449774033779,-787.872955067507,46.5768189662725,811.161364550643,-440.513296500026,-370.648068050617
0.951973473098727,-829.318833005917,-804.430144254821,24.8886887510968,816.874488630369,-427.103760878507,-389.770727751862
0.95411273933041,-819.906817453207,-805.415929885347,14.4908875678598,812.661373669277,-417.198852510533,-395.462521158744
0.956252005562092,-803.349975565032,-790.325116686249,13.0248588787834,796.83754612564,-408.187417221908,-388.650128903733
0.958391271793775,-780.315664637798,-793.891261085828,-13.5755964480297,787.103462861813,-383.370034094884,-403.733428766929
0.960530538025457,-773.97125431541,-781.331752206462,-7.36049789105198,777.651503260936,-383.305378212179,-394.346125048757
0.96266980425714,-775.666801258956,-760.876943530042,14.7898577289141,768.271872394499,-395.228329493935,-373.043542900564
0.964809070488822,-776.545915962991,-752.48427693564,24.0616390273514,764.515096449315,-400.303777495171,-364.211318954144
0.966948336720505,-783.785452087765,-760.35566818509,23.4297839026747,772.070560136428,-403.60761799522,-368.462942141208
0.969087602952187,-778.286222815734,-765.012960028266,13.2732627874685,771.649591422,-395.779742801601,-375.869848620399
0.97122686918387,-776.613194625525,-769.945912624875,6.66728200064972,773.2795536252,-391.640238313087,-381.639315312113
0.973366135415553,-783.735730913019,-790.152350282968,-6.41661936994899,786.944040597994,-388.659555771535,-398.284484826458
0.975505401647235,-776.794515535795,-774.756467135665,2.03804840012981,775.77549133573,-389.416281967962,-386.359209367768
0.977644667878918,-786.346719179432,-766.407939905448,19.9387792739839,776.37732954244,-403.142749226708,-373.234580315732
0.9797839341106,-791.837111672032,-769.277273251903,22.5598384201288,780.557192461967,-407.19847504608,-373.358717415887
0.981923200342283,-788.335187737863,-760.55303533161,27.7821524062532,774.444111534737,-408.058670072058,-366.385441462679
0.984062466573965,-775.584685530037,-748.48766802417,27.0970175058669,762.036176777104,-401.340851517952,-360.695325259152
0.986201732805648,-762.054249766388,-744.982346875542,17.0719028908459,753.518298320965,-389.563076328617,-363.955221992348
0.98834099903733,-752.830065624758,-753.765427569521,-0.935361944762576,753.29774659714,-375.947351839998,-377.350394757142
0.990480265269013,-756.598623979944,-762.670279327368,-6.07165534742353,759.634451653656,-375.26348431626,-384.370967337396
0.992619531500695,-765.646907886039,-755.556815700484,10.0900921855559,760.601861793261,-387.868500035798,-372.733361757464
0.994758797732378,-767.501002885496,-759.228068448239,8.27293443725625,763.364535666867,-387.886968661376,-375.477567005492
0.99689806396406,-764.885668066764,-746.576589835916,18.3090782308482,755.73112895134,-391.597373148806,-364.133755802534
0.999037330195743,-753.157057048937,-733.644414709688,19.5126423392485,743.400735879313,-386.334849694093,-357.06588618522
1.00117659642743,-744.049013683056,-721.134993824313,22.9140198587434,732.592003753685,-383.4815167709,-349.110486982785
1.00331586265911,-730.648674769469,-725.075209312704,5.57346545676523,727.861942041087,-368.111070113117,-359.75087192797
1.00545512889079,-725.675645247596,-729.933485797336,-4.25784054974054,727.804565522466,-360.708902348928,-367.095663173538
1.00759439512247,-737.518326602226,-735.198930381967,2.31939622025914,736.358628492096,-369.918861411242,-366.439767080854
1.00973366135416,-731.060955853637,-740.12047796651,-9.05952211287297,735.590716910073,-361.000716870382,-374.590000039691
1.01187292758584,-736.548978970252,-744.106573129178,-7.55759415892612,740.327776049715,-364.495692405663,-375.832083644052
1.01401219381752,-725.859889334011,-727.65800306102,-1.79811372700919,726.758946197515,-362.030887803501,-364.728058394015
1.0161514600492,-725.645031489954,-706.801752201523,18.8432792884309,716.223391845739,-372.244155389192,-343.979236456546
1.01829072628089,-705.0269093224,-705.629244859119,-0.602335536718442,705.32807709076,-352.212286892841,-353.115790197919
1.02042999251257,-699.692217796705,-697.60706349761,2.08515429909471,698.649640647157,-350.8886860479,-347.760954599258
1.02256925874425,-698.826752264458,-690.656806074206,8.16994619025263,694.741779169332,-353.498349227356,-341.243429941977
1.02470852497593,-698.988799360101,-703.762280498131,-4.77348113803032,701.375539929116,-347.107659111035,-354.267880818081
1.02684779120762,-711.664245186814,-716.701441991704,-5.03719680488996,714.182843589259,-353.313524190962,-360.869319398297
1.0289870574393,-705.175668367118,-720.976996811538,-15.8013284444191,713.076332589328,-344.68716996135,-368.389162627978
1.03112632367098,-706.009424754245,-708.605141023813,-2.59571626956779,707.307282889029,-351.706854242338,-355.60042864669
1.03326558990266,-694.355989282874,-695.533288648261,-1.1772993653866,694.944638965567,-346.589344958744,-348.355294006824
1.03540485613435,-701.330581200243,-682.562243702734,18.768337497509,691.946412451489,-360.049459348876,-331.896953102612
1.03754412236603,-692.430535964738,-674.301450245337,18.1290857194009,683.365993105037,-355.279810842069,-328.086182262968
1.03968338859771,-683.778671524787,-678.768375185069,5.01029633971802,681.273523354928,-344.394483932253,-336.879039422676
1.04182265482939,-671.945142133607,-687.848561343613,-15.903419210007,679.89685173861,-328.0208614618,-351.87599027681
1.04396192106108,-676.416545347209,-696.924047355216,-20.507502008007,686.670296351212,-327.954521669601,-358.715774681611
1.04610118729276,-677.448360598791,-693.648629824343,-16.2002692255526,685.548495211567,-330.624045686619,-354.924449524948
1.04824045352444,-686.139007123472,-689.377767280286,-3.23876015681446,687.758387201879,-341.450123483329,-346.30826371855
1.05037971975612,-686.486248060851,-680.467363664305,6.01888439654624,683.476805862578,-346.252566228699,-337.224239633879
1.05251898598781,-686.095479443441,-667.536238974779,18.5592404686619,676.81585920911,-352.327359956052,-324.488499253059
1.05465825221949,-692.944653250761,-666.779475957619,26.1651772931423,679.86206460419,-359.554915271952,-320.307149332238
1.05679751845117,-703.610299162844,-678.560449633118,25.0498495297264,691.085374397981,-364.330074346285,-326.755300051696
1.05893678468285,-710.818454368853,-679.492480056073,31.3259743127802,695.155467212463,-371.072214340816,-324.083252871646
1.06107605091454,-707.111390230316,-696.279303562701,10.8320866676141,701.695346896508,-358.971738448965,-342.723608447544
1.06321531714622,-723.500591514698,-716.637490553742,6.86310096095565,720.06904103422,-365.181846237827,-354.887194796393
1.0653545833779,-728.504838915414,-716.789079604643,11.7157593107712,722.646959260029,-370.110299113093,-352.536660146936
1.06749384960958,-737.059870442607,-712.19200562551,24.8678648170971,724.625938034058,-380.963867629852,-343.662070404206
1.06963311584127,-740.945852464436,-699.331795203998,41.6140572604381,720.138823834217,-391.279954862437,-328.85886897178
1.07177238207295,-743.985643269958,-698.229878005188,45.7557652647698,721.107760637573,-394.870704267364,-326.237056370209
1.07391164830463,-731.065750225128,-693.908330049052,37.157420176076,712.48704013709,-384.111585200602,-328.375454936488
1.07605091453631,-722.300595503188,-694.368766517235,27.9318289859525,708.334681010212,-375.11621224457,-333.218468765641
1.078190180768,-722.163861895688,-714.930001665604,7.23386023008413,718.546931780646,-364.698861062886,-353.84807071776
1.08032944699968,-734.652144644316,-731.714823861171,2.93732078314474,733.183484252744,-368.79473271373,-364.388751539013
1.08246871323136,-763.188390076575,-732.425787928013,30.7626021485618,747.807089002294,-396.975496112568,-350.831592889726
1.08460797946304,-791.459733835959,-739.975231665768,51.4845021701914,765.717482750864,-421.472118003075,-344.245364747788
1.08674724569473,-807.183032345495,-746.668046008188,60.5149863373071,776.925539176841,-433.849009341401,-343.07652983544
1.08888651192641,-821.899199349386,-745.256822069585,76.6423772798009,783.578010709486,-449.270788314594,-334.307222394892
1.09102577815809,-832.200690568116,-740.372224259166,91.8284663089493,786.286457413641,-462.014578438532,-324.271878975109
1.09316504438977,-831.104003654109,-755.890402000147,75.2136016539617,793.497202827128,-453.158802654035,-340.338400173093
1.09530431062146,-838.657560218962,-776.342126803625,62.3154334153369,807.499843511294,-450.48649681715,-357.013346694144
1.09744357685314,-843.328553751606,-789.559971728403,53.7685820232031,816.444262740004,-448.548567887405,-367.8956948526
1.09958284308482,-844.652114852504,-794.710167165618,49.941947686886,819.681141009061,-447.297031269695,-372.384109739366
1.1017221093165,-857.385292220719,-802.720627190635,54.6646650300834,830.052959705677,-456.024978625401,-374.027981080276
1.10386137554819,-861.477897388849,-790.095599446943,71.3822979419053,825.786748417896,-466.430097665377,-359.356650752519
1.10600064177987,-864.571800943451,-780.607297664878,83.9645032785728,822.589549304165,-474.268152111012,-348.321397193153
1.10813990801155,-855.491828252469,-782.944331075779,72.5474971766899,819.218079664123,-464.019662714579,-355.198416949544
1.11027917424323,-854.431340116977,-786.332194781832,68.0991453351457,820.381767449404,-461.265242726062,-359.116524723343
1.11241844047492,-858.122710887701,-783.354807406636,74.7679034810656,820.738759147168,-466.445307184383,-354.293451962785
1.1145577067066,-847.253671042163,-804.651364103687,42.6023069384761,825.952517572925,-444.92798899032,-381.024528582605
1.11669697293828,-852.425774830981,-825.892691213894,26.5330836170866,839.159233022437,-439.479429224034,-399.679803798404
1.11883623916996,-857.348107813933,-830.473967481314,26.8741403326193,843.911037647624,-442.111124073276,-401.799913574347
1.12097550540165,-873.04266676607,-806.299964363874,66.7427024021963,839.671315564972,-469.892684584133,-369.778630980839
1.12311477163333,-876.109452519929,-808.180372500552,67.9290800193772,842.144912510241,-472.019266269653,-370.125646240587
1.12525403786501,-874.808605919519,-802.272468903204,72.536137016315,838.540537411362,-473.672371467917,-364.868165943445
1.12739330409669,-869.940216666738,-797.495301301004,72.4449153657345,833.717758983871,-471.192566016236,-362.525192967635
1.12953257032838,-862.11346024077,-798.299553494428,63.8139067463417,830.206506867599,-462.963683493556,-367.242823374043
1.13167183656006,-859.132357700815,-823.697874949709,35.4344827511054,841.415116325262,-447.28342022596,-394.131696099302
1.13381110279174,-864.313972399361,-837.562168189339,26.7518042100214,850.93807029435,-445.532888304691,-405.405181989659
1.13595036902342,-876.83395548816,-838.608124212973,38.2258312751862,857.721039850566,-457.529893381673,-400.191146468894
1.13808963525511,-868.967700066811,-830.093453622633,38.8742464441776,849.530576844722,-453.920973255494,-395.609603589228
1.14022890148679,-871.857967814203,-820.181281276869,51.6766865373336,846.019624545536,-461.767327175768,-384.252297369768
1.14236816771847,-862.853405021501,-806.197534366363,56.655870655138,834.525469693932,-459.754637838319,-374.770831855612
1.14450743395016,-862.149267179679,-805.010011211151,57.1392559685279,833.579639195415,-459.644261574103,-373.935377621312
1.14664670018184,-866.286921795501,-821.191196355103,45.0957254403977,843.739059075302,-455.691323617949,-388.047735457353
1.14878596641352,-867.310289603795,-831.089284763226,36.2210048405688,849.19978718351,-451.765647222182,-397.434139961329
1.1509252326452,-864.564790232032,-837.395343688823,27.1694465432088,850.980066960427,-445.86711838762,-405.112948572807
1.15306449887689,-865.115722878078,-850.388949270924,14.7267736071543,857.752336074501,-439.921248242616,-417.831087831885
1.15520376510857,-872.518908970344,-838.232819374864,34.2860895954803,855.375864172604,-453.402499282912,-401.973364889692
1.15734303134025,-867.60275882977,-824.495704399025,43.1070544307451,846.049231614398,-455.354906630258,-390.69432498414
1.15948229757193,-878.195038732226,-821.993080983949,56.2019577482778,850.094059858087,-467.198498240252,-382.895561617835
1.16162156380362,-881.646801034253,-824.355784958753,57.2910160755,853.001292996503,-469.468908554876,-383.532384441626
1.1637608300353,-882.094944057711,-824.681068242946,57.4138758147657,853.388006150329,-469.754409936239,-383.63359621409
1.16590009626698,-875.38406213997,-834.466157565869,40.9179045741009,854.92510985292,-458.150983357036,-396.774126495884
1.16803936249866,-880.283756312243,-852.599691273835,27.6840650384077,866.441723793039,-453.983910675325,-412.457813117714
1.17017862873035,-865.113325684554,-850.441569341685,14.6717563428692,857.77744751312,-439.892541013712,-417.884906499408
1.17231789496203,-849.075937096192,-830.90131297734,18.1746241188523,839.988625036766,-433.625280607522,-406.363344429244
1.17445716119371,-832.49091295141,-817.332679621798,15.1582333296122,824.911796286604,-423.824573140511,-401.087223146093
1.17659642742539,-823.75195442254,-806.894454422768,16.857499999772,815.323204422654,-420.304727211156,-395.018477211498
1.17873569365708,-827.29374137014,-797.168645423297,30.1250959468433,812.231193396718,-428.709418658492,-383.521774738227
1.18087495988876,-835.512588382562,-789.261922884102,46.2506654984605,812.387255633332,-440.881626940511,-371.505628692821
1.18301422612044,-848.11750803296,-810.467030028757,37.6504780042027,829.292269030859,-442.883993018581,-386.408276012277
1.18515349235212,-852.917670507865,-836.506941808968,16.4107286988969,844.712306158416,-434.664199603381,-410.048106555036
1.18729275858381,-868.837621881838,-838.679352934514,30.1582689473232,853.758487408176,-449.49794541458,-404.260541993596
1.18943202481549,-876.281737733695,-842.958212837798,33.3235248958974,859.619975285747,-454.802631314796,-404.81734397095
1.19157129104717,-879.337796757312,-845.22478094032,34.1130158169924,862.281288848816,-456.725406287152,-405.555882561664
1.19371055727885,-866.834274297522,-830.818493578263,36.0157807192595,848.826383937893,-451.425027508391,-397.401356429502
1.19584982351054,-839.255250482285,-801.27834787175,37.9769026105358,820.266799177017,-438.616076546411,-381.650722630607
1.19798908974222,-835.629866599837,-792.895543629903,42.7343229699343,814.26270511487,-439.182094784886,-375.080610329984
1.2001283559739,-828.579928064588,-802.144052186614,26.4358758779738,815.361990125601,-427.507901971281,-387.85408815432
1.20226762220558,-821.538301471569,-816.525438451375,5.01286302019435,819.031869961472,-413.275582245882,-405.75628771559
1.20440688843727,-833.502950703494,-822.841393551365,10.6615571521291,828.17217212743,-422.082253927812,-406.089918199618
1.20654615466895,-829.385000101934,-827.493906073527,1.89109402840643,828.43945308773,-415.63804706517,-412.80140602256
1.20868542090063,-840.432967602801,-814.540911102953,25.8920564998477,827.486939352877,-433.162512051324,-394.324427301553
1.21082468713231,-839.851466158633,-808.029968427631,31.8214977310022,823.940717293132,-435.836481944818,-388.104235348314
1.212963953364,-839.623636185416,-801.670134035078,37.9535021503389,820.646885110247,-438.788569167878,-381.858315942369
1.21510321959568,-851.489981985395,-800.713701602395,50.7762803829997,826.101841793895,-451.133131184197,-374.968710609698
1.21724248582736,-840.33308869706,-782.399865825606,57.933222871455,811.366477261333,-449.133155784258,-362.233321477075
1.21938175205904,-840.797816350963,-804.35760343967,36.4402129112933,822.577709895317,-438.619014631128,-383.958695264188
1.22152101829073,-829.347165409718,-826.315419258447,3.03174615127045,827.831292334083,-416.189455780494,-411.641836553589
1.22366028452241,-840.841548994722,-823.531789784263,17.309759210459,832.186669389492,-429.07565410259,-403.111015286902
1.22579955075409,-840.437694118008,-807.06674629438,33.3709478236285,823.752220206194,-436.904320970818,-386.847899235376
1.22793881698577,-836.128094134386,-804.659433829041,31.4686603053452,820.393763981713,-433.798377219866,-386.595386761848
1.23007808321746,-824.273190588073,-790.484419112403,33.7887714756704,807.378804850238,-429.030981031872,-378.347823818366
1.23221734944914,-820.514132635116,-773.706910992888,46.8072216422281,797.110521814002,-433.660677138672,-363.44984467533
1.23435661568082,-813.118304134066,-766.659014207925,46.4592899261409,789.888659170995,-429.788797030103,-360.099862140892
1.2364958819125,-809.628418907135,-788.322898404886,21.3055205022483,798.975658656011,-415.466969704692,-383.508688951319
1.23863514814419,-825.338940428718,-802.461812972198,22.8771274565199,813.900376700458,-424.108033942619,-389.792342757839
1.24077441437587,-836.838974168558,-807.685238642686,29.1537355258716,822.262106405622,-432.996354847215,-389.265751558407
1.24291368060755,-848.101668943551,-811.054850882375,37.0468180611759,829.578259912963,-442.574243502364,-387.0040164106
1.24505294683923,-859.376191998197,-820.661659662901,38.7145323352958,840.018925830549,-449.045362166746,-390.973563663803
1.24719221307092,-851.504910327521,-798.838647984952,52.6662623425692,825.171779156237,-452.085586335045,-373.086192821191
1.2493314793026,-847.878740512048,-789.644040097898,58.23470041415,818.761390304973,-453.056720463099,-365.704669841874
1.25147074553428,-848.344159554511,-789.968692886423,58.3754666680879,819.156426220467,-453.359813111299,-365.796613109167
1.25361001176596,-844.817742017756,-799.577755309719,45.2399867080373,822.197748663737,-445.028864362897,-377.168884300841
1.25574927799765,-837.0423746568,-805.757997488039,31.2843771687607,821.40018607242,-434.16337591278,-387.236810159639
1.25788854422933,-825.008583612041,-814.999463282887,10.0091203291537,820.004023447464,-417.508851970597,-402.495171476867
1.26002781046101,-808.968308918124,-810.993488914664,-2.02517999653958,809.980898916394,-403.471564460792,-406.509334455602
1.26216707669269,-812.549034335857,-801.627585010101,10.9214493257563,807.088309672979,-411.735241830807,-395.353067842172
1.26430634292438,-800.999123642503,-787.820561259733,13.1785623827702,794.409842451118,-407.088843012637,-387.320999438481
1.26644560915606,-801.433405989753,-778.518129544262,22.9152764454911,789.975767767007,-412.174341217622,-377.801426549385
1.26858487538774,-805.808594022008,-782.280527653004,23.5280663690039,794.044560837506,-414.668330195506,-379.376230642
1.27072414161942,-813.803160523471,-775.829640422027,37.9735201014446,794.816400472749,-425.888340312458,-368.928060160291
1.27286340785111,-813.627860945611,-793.373198008693,20.2546629369183,803.500529477152,-416.941261941265,-386.559267535887
1.27500267408279,-820.941499085254,-814.405946146194,6.53555293905981,817.673722615724,-413.738526012157,-403.935196603567
1.27714194031447,-832.15855735506,-818.657646402326,13.5009109527336,825.408101878693,-422.829734153897,-402.578367724796
1.27928120654615,-847.541482653649,-825.379386593117,22.1620960605318,836.460434623383,-434.851789357091,-401.608645266293
1.28142047277784,-851.638632834364,-823.512084299407,28.1265485349566,837.575358566885,-439.88259068466,-397.692767882225
1.28355973900952,-840.441591511799,-814.065458096397,26.3761334154011,827.253524804098,-433.4088624636,-393.844662340498
1.2856990052412,-836.990562343897,-790.184144544315,46.8064177995821,813.587353444106,-441.898490071739,-371.688863372366
1.28783827147288,-837.143241695786,-791.007734516069,46.1355071797169,814.075488105928,-441.639374437752,-372.436113668176
1.28997753770457,-825.262501762278,-808.293567399726,16.968934362552,816.778034581002,-421.115718062415,-395.662316518587
1.29211680393625,-828.648217046926,-821.632519319178,7.01569772774803,825.140368183052,-417.831957387337,-407.308410795715
1.29425607016793,-828.165977080319,-826.215859602974,1.95011747734509,827.190918341646,-415.058047278832,-412.132871062814
1.29639533639962,-824.097826599153,-841.10054330275,-17.0027167035972,832.599184950952,-403.547554947778,-429.051630003174
1.2985346026313,-812.695892095345,-823.970447665147,-11.2745555698011,818.333169880246,-400.710668262772,-417.622501617474
1.30067386886298,-809.377283742303,-799.043086944616,10.3341967976874,804.21018534346,-409.855740269995,-394.354445073464
1.30281313509466,-817.694682702402,-790.525237903757,27.1694447986454,804.109960303079,-422.432063750524,-381.677896552556
1.30495240132635,-821.762164992304,-794.896032834625,26.8661321576793,808.329098913464,-424.314148574992,-384.014950338473
1.30709166755803,-825.323586086692,-804.039765276488,21.2838208102042,814.68167568159,-423.303703448448,-391.377972233142
1.30923093378971,-824.68270164437,-813.272177470086,11.410524174284,818.977439557228,-418.046612909327,-400.930826647901
1.31137020002139,-820.242428471067,-825.692431293048,-5.45000282198123,822.967429882058,-407.396212824543,-415.571217057515
1.31350946625308,-824.00882260902,-821.538088167713,2.47073444130729,822.773455388366,-413.239778525164,-409.533676863203
1.31564873248476,-816.650878732133,-816.567636738765,0.0832419933681194,816.609257735449,-408.367060362751,-408.242197372698
1.31778799871644,-828.972885618438,-803.643257949948,25.3296276684905,816.308071784193,-427.151256643464,-389.156815140729
1.31992726494812,-817.841168634412,-795.072200927969,22.7689677064437,806.456684781191,-420.305068170428,-386.151616610763
1.32206653117981,-806.240984405473,-787.33341497602,18.907569429453,796.787199690746,-412.574276917463,-384.212922773283
1.32420579741149,-801.926692019452,-776.470676123196,25.4560158962564,789.198684071324,-413.691353957854,-375.50733011347
1.32634506364317,-797.397313672551,-796.984134566186,0.413179106365419,797.190724119368,-398.905246389458,-398.28547772991
1.32848432987485,-808.55158361237,-793.949794459148,14.6017891532222,801.250689035759,-411.576686382796,-389.674002652963
1.33062359610654,-804.597765151848,-794.152779917879,10.4449852339691,799.375272534863,-407.521375192908,-391.853897341955
1.33276286233822,-812.745147161995,-785.898959807682,26.8461873543134,799.322053484839,-419.795667258154,-379.526386226684
1.3349021285699,-805.606042476285,-781.103492133298,24.5025503429871,793.354767304792,-415.054296409636,-378.300470895156
1.33704139480158,-810.019581933794,-756.919527106874,53.1000548269203,783.469554520334,-431.559818380357,-351.909736139977
1.33918066103327,-817.927453925221,-748.713196914362,69.2142570108587,783.320325419792,-443.57085546804,-339.749469951752
1.34131992726495,-817.59412573411,-748.916350082328,68.6777756517813,783.255237908219,-443.135950692945,-340.119287215273
1.34345919349663,-820.848146858718,-761.291807889835,59.5563389688831,791.069977374277,-440.202242913801,-350.867734460476
1.34559845972831,-824.153736982125,-766.072353088993,58.0813838931321,795.113045035559,-441.117560437628,-353.99548459793
1.34773772596,-808.428379324613,-758.965827796386,49.4625515282268,783.6971035605,-428.94546542642,-354.75163813408
1.34987699219168,-793.221693543763,-766.845934333618,26.3757592101441,780.03381393869,-409.798726376953,-370.235087561737
1.35201625842336,-790.014893543448,-750.809041233968,39.2058523094798,770.411967388708,-414.610372926464,-355.801594462244
1.35415552465504,-782.878066568042,-730.484146669675,52.3939198983672,756.681106618858,-417.635993233205,-339.045113385654
1.35629479088673,-786.947811742009,-725.713817902012,61.2339938399972,756.330814822011,-424.090902791003,-332.239912031008
1.35843405711841,-778.796153846247,-733.046021684801,45.7501321614453,755.921087765524,-412.273143003846,-343.647944761678
1.36057332335009,-770.298738134825,-721.670942337123,48.6277957977017,745.984840235974,-409.463266966263,-336.521573269711
1.36271258958177,-761.908489482127,-734.232005423506,27.6764840586212,748.070247452817,-394.792486770374,-353.277760682442
1.36485185581346,-773.413027912606,-750.89411361686,22.5189142957464,762.153570764733,-397.965971104176,-364.187599660557
1.36699112204514,-769.941308259553,-763.282961020661,6.6583472388927,766.612134640107,-388.299827749223,-378.312306890884
1.36913038827682,-774.53749260401,-751.543608724956,22.9938838790539,763.040550664483,-398.765688241532,-364.274862422951
1.3712696545085,-775.140145436693,-750.612883623335,24.527261813358,762.876514530014,-399.833703625026,-363.042810904989
1.37340892074019,-779.173049481401,-741.537797688703,37.6352517926979,760.355423585052,-408.40415063705,-351.951272948003
1.37554818697187,-763.278166732985,-732.792714465825,30.4854522671598,748.035440599405,-396.881809500072,-351.153631099333
1.37768745320355,-754.871445194419,-728.844377892587,26.0270673018318,741.857911543503,-390.449256248125,-351.408655295378
1.37982671943523,-738.79732974311,-741.433986926107,-2.63665718299728,740.115658334608,-368.080336280056,-372.035322054552
1.38196598566692,-719.22649916751,-739.016005982242,-19.7895068147311,729.121252574876,-349.71849617639,-379.402756398486
1.3841052518986,-707.857506612866,-740.192976026579,-32.3354694137138,724.025241319722,-337.761018599576,-386.264222720147
1.38624451813028,-716.128129904849,-736.508960846245,-20.3808309413952,726.318545375547,-347.873649481727,-378.44489589382
1.38838378436196,-712.663154231002,-727.794037125857,-15.1308828948546,720.22859567843,-348.766135668074,-371.462460010356
1.39052305059365,-724.429962160296,-714.540051122869,9.88991103742751,719.485006641582,-367.159936598862,-352.325070042721
1.39266231682533,-732.012402739297,-709.29714857705,22.7152541622471,720.654775658174,-377.363828450772,-343.290947207401
1.39480158305701,-747.215391066204,-716.743880953321,30.4715101128826,731.979636009763,-388.843450589543,-343.136185420219
1.39694084928869,-746.947517470887,-737.092865996328,9.85465147455966,742.020191733608,-378.401084472724,-363.619107260884
1.39908011552038,-766.268702234811,-746.547820142043,19.7208820927676,756.408261188427,-392.994792163789,-363.413469024638
1.40121938175206,-777.980896869216,-763.581111398439,14.3997854707771,770.781004133827,-396.190341169997,-374.590662963831
1.40335864798374,-781.997067296829,-764.041864516655,17.9552027801732,773.019465906742,-399.976135038501,-373.043330868241
1.40549791421542,-786.027282681295,-759.297379417338,26.7299032639572,772.662331049316,-406.378592972626,-366.28373807669
1.40763718044711,-782.299394297896,-749.815948347839,32.483445950057,766.057671322867,-407.391420123977,-358.666251198891
1.40977644667879,-790.211206451652,-744.318556125558,45.8926503260939,767.264881288605,-418.051928388873,-349.212952899732
1.41191571291047,-805.799723601635,-743.714249653202,62.0854739484336,774.756986627419,-433.942598775034,-340.814387852384
1.41405497914215,-809.550056948041,-752.232975519507,57.3170814285343,780.891516233774,-433.433569188288,-347.457947045486
1.41619424537384,-805.343762573777,-769.456481502845,35.8872810709316,787.400122038311,-420.615521822354,-366.784600215957
1.41833351160552,-804.980510674911,-775.026324301739,29.954186373172,790.003417488325,-417.467348524041,-372.536068964283
1.4204727778372,-804.807926387973,-775.773385642171,29.0345407458012,790.290656015072,-416.921233566887,-373.369422448185
1.42261204406888,-804.989575659514,-767.409159927831,37.5804157316836,786.199367793672,-421.284995695599,-364.914372098073
1.42475131030057,-821.011800796653,-765.79272734121,55.2190734554433,793.402264068932,-438.115437126048,-355.286826942883
1.42689057653225,-829.310105746959,-760.15533181232,69.1547739346387,794.732718779639,-449.232439840799,-345.500278938841
1.42902984276393,-841.188333670367,-766.98041749614,74.2079161742271,804.084375583254,-457.698124922297,-346.386250660957
1.43116910899561,-840.926612712405,-779.016909102492,61.9097036099134,809.971760907448,-451.418158161159,-358.553602746289
1.4333083752273,-824.763071880907,-784.421508592158,40.3415632887493,804.592290236533,-432.552317584828,-372.039972651704
1.43544764145898,-812.494598113071,-782.400284734929,30.0943133781411,797.447441424,-421.294455745606,-376.152985678394
1.43758690769066,-796.759561964341,-791.368914722775,5.39064724156606,794.064238343558,-401.075104602954,-392.989133740604
1.43972617392234,-793.240019827615,-798.986573852221,-5.7465540246061,796.113296839918,-393.746732901504,-402.366563938413
1.44186544015403,-813.356735664089,-785.861422456205,27.4953132078839,799.609079060147,-420.426024435986,-379.18305462416
1.44400470638571,-841.101531628233,-772.188389057558,68.9131425706749,806.644960342895,-455.007337099454,-351.637623243441
1.44614397261739,-848.913358284871,-782.378919730093,66.5344385547775,815.646139007482,-457.723898419824,-357.922240587658
1.44828323884907,-848.437813544478,-782.317810135771,66.1200034087067,815.377811840124,-457.278908476592,-358.098903363532
1.45042250508076,-840.040954259658,-791.503354310955,48.5375999487029,815.772154285306,-444.28927710418,-371.482877181126
1.45256177131244,-847.460228123667,-813.077478617875,34.382749505792,830.268853370771,-440.92148881473,-389.347364556042
1.45470103754412,-851.485367954485,-822.549203223117,28.9361647313681,837.017285588801,-440.210766342927,-396.806519245874
1.4568403037758,-840.331334124914,-822.823689260788,17.5076448641265,831.577511692851,-428.91948949452,-402.658022198331
1.45897957000749,-844.703687647728,-809.827615085231,34.8760725624973,827.265651366479,-439.789880105113,-387.475771261367
1.46111883623917,-833.210545519195,-795.929027863045,37.2815176561509,814.56978669112,-435.246031587673,-379.323755103447
1.46325810247085,-832.939009793455,-790.133297511784,42.8057122816703,811.53615365262,-437.872361037562,-373.663792615057
1.46539736870254,-824.678087195422,-789.631605317108,35.0464818783139,807.154846256265,-429.862284536868,-377.292561719397
1.46753663493422,-828.180223197034,-790.855291208269,37.3249319887644,809.517757202652,-432.752577592899,-376.765179609752
1.4696759011659,-816.524085178217,-800.930126696369,15.5939584818485,808.727105937293,-416.059021830033,-392.66808410726
1.47181516739758,-809.132997484881,-818.580288082544,-9.44729059766325,813.856642783712,-399.842853443609,-414.013789340104
1.47395443362927,-817.400124256153,-815.42197066912,1.97815358703224,816.411047462636,-409.689138921592,-406.721908541044
1.47609369986095,-833.19260900529,-818.189687328172,15.0029216771188,825.691148166731,-424.097765341205,-401.593382825526
1.47823296609263,-844.651811906598,-804.179025151014,40.4727867555838,824.415418528806,-442.562299331091,-381.853119197715
1.48037223232431,-848.019330101482,-797.999680420227,50.0196496812551,823.009505260854,-449.019489891368,-373.990015369486
1.482511498556,-863.082637315016,-804.837081906814,58.2455554082014,833.959859610915,-460.664096361609,-373.295763249306
1.48465076478768,-863.020009842822,-829.111744325407,33.9082655174142,846.065877084115,-448.464137680118,-397.601739403997
1.48679003101936,-855.687114255037,-823.719823516701,31.9672907383354,839.703468885869,-443.827202496686,-395.876266389183
1.48892929725104,-844.712171369072,-833.968417077256,10.7437542918162,839.340294223164,-427.727962830444,-411.61233139272
1.49106856348273,-833.517941111847,-835.179289264938,-1.66134815309056,834.348615188393,-415.928296479378,-418.420318709014
1.49320782971441,-802.343877457167,-822.745497824114,-20.4016203669468,812.544687640641,-390.97112854511,-421.57355909553
1.49534709594609,-758.989524007127,-785.411909595312,-26.4223855881849,772.200716801219,-366.283569209471,-405.917147591748
1.49748636217777,-696.114462915146,-740.039080189895,-43.9246172747488,718.076771552521,-326.094922820199,-391.981848732322
1.49962562840946,-622.018938420489,-695.915751715948,-73.8968132954587,658.967345068218,-274.061062562515,-384.906282505703
1.50176489464114,-525.33241039093,-646.117359161423,-120.784948770492,585.724884776176,-202.273730810219,-383.451153965957
1.50390416087282,-440.787837547053,-598.069459852491,-157.281622305437,519.428648699772,-141.753107620808,-377.675541078964
1.5060434271045,-328.974167277523,-550.411654275648,-221.437486998125,439.692910776585,-53.7683401396989,-385.924570636887
1.50818269333619,-228.146233204451,-497.632270472122,-269.486037267671,362.889251838286,20.6699020316103,-383.559153869897
1.51032195956787,-153.65831371974,-434.894830327241,-281.236516607501,294.276572023491,63.78910144388,-358.065673467371
1.51246122579955,-125.259517161764,-374.143961342797,-248.884444181033,249.70173925228,61.8124635096347,-311.514202761915
1.51460049203123,-135.864912078901,-347.826510756798,-211.961598677897,241.84571141785,38.0483432994981,-279.894054717348
1.51673975826292,-201.639923783333,-342.103668403183,-140.463744619849,271.871796093258,-30.5880895817422,-241.283706511516
1.5188790244946,-295.614231995817,-354.155813688311,-58.5415816924943,324.885022842064,-118.536325151661,-206.348697690403
1.52101829072628,-401.898971928406,-418.743062077143,-16.8440901487369,410.321017002775,-192.527440889835,-217.79357611294
1.52315755695796,-519.74477341721,-480.150010381564,39.5947630356458,499.947391899387,-279.669768226428,-220.277623672959
1.52529682318965,-628.990891668437,-536.615787805959,92.3751038624779,582.803339737198,-360.682997765458,-222.120341971741
1.52743608942133,-725.432754714152,-583.096440113181,142.336314600971,654.264597413666,-433.884534657561,-220.380062756105
1.52957535565301,-778.342195099435,-615.781618780941,162.560576318494,697.061906940188,-470.451385708965,-226.610521231223
1.53171462188469,-811.848088340282,-628.175998230696,183.672090109586,720.012043285489,-497.760089224934,-222.251954060555
1.53385388811638,-826.798817653234,-641.452294846744,185.346522806489,734.125556249989,-506.072670229862,-228.052886020127
1.53599315434806,-819.661724830537,-652.987459615146,166.67426521539,736.324592222841,-493.167995022963,-243.156597199878
1.53813242057974,-813.361742762909,-670.597657726522,142.764085036387,741.979700244716,-478.062913899648,-263.916786345067
1.54027168681142,-803.122679110474,-689.218560150786,113.904118959687,746.17061963063,-458.51339903508,-287.65722059555
1.54241095304311,-791.942750878259,-726.499635947917,65.4431149303425,759.221193413088,-428.692932904301,-330.528260508787
1.54455021927479,-791.140579733042,-722.872351933707,68.2682277993351,757.006465833374,-429.704403766188,-327.302062067186
1.54668948550647,-770.114243781983,-717.043339405883,53.0709043760992,743.578791593933,-411.592574079041,-331.986217514892
1.54882875173815,-760.917356075865,-690.747680252558,70.1696758233066,725.832518164211,-415.543515949586,-310.289002214626
1.55096801796984,-764.450806344225,-696.163900399445,68.28690594478,730.307353371835,-416.368856144502,-313.938497227333
1.55310728420152,-784.816228628852,-703.50948743905,81.3067411898018,744.162858033951,-433.061484909327,-311.101373124624
1.5552465504332,-802.008507464964,-712.956280403725,89.0522270612383,757.482393934344,-445.530367263101,-311.952026671243
1.55738581666488,-826.651817550067,-746.817757861233,79.8340596888337,786.73478770565,-453.24293861945,-333.4918490862
1.55952508289657,-846.281135422142,-780.221345178892,66.0597902432502,813.251240300517,-456.170462832696,-357.080777467821
1.56166434912825,-864.666870145561,-792.483534261414,72.1833358841474,828.575202203488,-468.425103014854,-360.150099188633
1.56380361535993,-870.821194647975,-798.872003982061,71.9491906659146,834.846599315018,-471.385192656945,-363.461406658073
1.56594288159161,-877.403229201377,-792.456949723014,84.9462794783634,834.930089462195,-481.17475433987,-353.755335122325
1.5680821478233,-889.014449637276,-790.184686580868,98.829763056408,839.599568109072,-493.922106346842,-345.67746176223
1.57022141405498,-874.590870984296,-789.377225331627,85.213645652669,831.984048157962,-479.902258318482,-352.081789839479
1.57236068028666,-876.137207191432,-786.521355389025,89.6158518024075,831.329281290228,-482.87652949692,-348.452751793308
1.57449994651834,-857.748026388853,-800.410068603953,57.3379577848997,829.079047496403,-457.542992086876,-371.536055409527
1.57663921275003,-842.094515923169,-818.148088215084,23.9464277080848,830.121302069126,-433.020471815627,-397.1008302535
1.57877847898171,-844.789283016957,-823.025992347095,21.7632906698614,833.907637682026,-433.276286843409,-400.631350838617
1.58091774521339,-847.134710636238,-830.092196230268,17.0425144059695,838.613453433253,-432.088612521104,-406.524840912149
1.58305701144507,-846.180276934272,-828.129661134634,18.0506157996379,837.154969034453,-432.115446366955,-405.039522667498
1.58519627767676,-842.525503210959,-806.579197908318,35.9463053026404,824.552350559639,-439.2359042568,-385.316446302839
1.58733554390844,-847.701837613403,-801.532674518818,46.1691630945851,824.61725606611,-446.935500353994,-377.681755712116
1.58947481014012,-853.159616372056,-817.443833430755,35.715782941301,835.301724901405,-444.437699656678,-390.864025244727
1.5916140763718,-846.283065489172,-811.337495676872,34.9455698123005,828.810280583022,-440.614317650736,-388.195962932286
1.59375334260349,-845.935651768486,-828.899931371566,17.0357203969201,837.417791570026,-431.485686082703,-405.932105487323
1.59589260883517,-852.313898474155,-849.648294670745,2.66560380340968,850.98109657245,-427.489751138782,-423.491345433668
1.59803187506685,-842.958225400989,-857.3649680869,-14.4067426859108,850.161596743944,-414.275741357539,-435.885855386405
1.60017114129853,-846.026580657446,-840.474117956426,5.55246270102009,843.250349306936,-425.789521679233,-417.460827627703
1.60231040753022,-850.381438993517,-826.91923430338,23.4622046901368,838.650336648449,-436.921821841827,-401.728514806622
1.6044496737619,-851.856838118323,-817.709050618625,34.1477874996974,834.782944368474,-443.00231280901,-391.780631559464
1.60658893999358,-841.796425522138,-809.679494492008,32.1169310301298,825.737960007073,-436.956678276134,-388.781281730939
1.60872820622526,-850.291765768831,-814.568025242399,35.7237405264326,832.429895505615,-443.007753147632,-389.422142357983
1.61086747245695,-841.939281886669,-824.056217137764,17.883064748905,832.997749512216,-429.911173317787,-403.086576194429
1.61300673868863,-836.499547667407,-845.009856236258,-8.51030856885041,840.754701951833,-413.994619549278,-426.760082402554
1.61514600492031,-834.92477643883,-841.712978767076,-6.78820232824557,838.318877602953,-414.068287055292,-424.250590547661
1.61728527115199,-834.295773054712,-837.199895741549,-2.90412268683758,835.747834398131,-415.695825183937,-420.052009214193
1.61942453738368,-838.879575019828,-839.574876027356,-0.695301007527291,839.227225523592,-419.09213700615,-420.135088517441
1.62156380361536,-848.242157729957,-826.293131734562,21.9490259953944,837.267644732259,-435.095591862676,-402.172052869584
1.62370306984704,-845.875862022926,-813.705983001562,32.1698790213635,829.790922512244,-439.022870522145,-390.768051990099
1.62584233607873,-846.397105464193,-802.312960731782,44.0841447324109,824.355033097987,-445.240625098302,-379.114407999686
1.62798160231041,-833.981388022897,-811.426106242594,22.5552817803032,822.703747132746,-428.2683349016,-394.435412231146
1.63012086854209,-828.529504656582,-820.951499362417,7.57800529416488,824.740502009499,-418.053754975373,-406.686747034126
1.63226013477377,-815.470619894548,-826.084571416565,-10.613951522017,820.777595655557,-402.428334186266,-418.349261469291
1.63439940100546,-807.292589254615,-833.905106173214,-26.6125169185985,820.598847713914,-390.340036168008,-430.258811545906
1.63653866723714,-808.090312799316,-817.164367021771,-9.07405422245563,812.627339910543,-399.50812928843,-413.119210622113
1.63867793346882,-813.448576908688,-795.896242601834,17.5523343068536,804.672409755261,-415.500455607771,-389.17195414749
1.6408171997005,-810.804596883195,-782.743872850904,28.0607240322905,796.774234867049,-419.432660457743,-377.341574409307
1.64295646593219,-803.326473096772,-782.411762649325,20.9147104474465,792.869117873048,-412.120591772109,-380.748526100939
1.64509573216387,-802.55777679876,-775.698274814086,26.8595019846738,789.128025806423,-414.708639391717,-374.419386414706
1.64723499839555,-812.891343290342,-804.772297103103,8.11904618723963,808.831820196723,-410.505194738791,-398.326625457932
1.64937426462723,-811.822655686469,-825.89262208183,-14.0699663953607,818.85763888415,-398.876344645554,-419.981294238595
1.65151353085892,-823.248674172968,-826.46335405133,-3.21467987836206,824.856014112149,-410.016997147303,-414.839016964846
1.6536527970906,-812.309976458279,-798.418071465578,13.8919049927011,805.364023961928,-413.10094072549,-392.263083236438
1.65579206332228,-797.975441520292,-788.831327101008,9.14411441928382,793.40338431065,-403.559777969788,-389.843606340862
1.65793132955396,-783.432696793283,-767.617236609622,15.8154601836605,775.524966701453,-399.624078488472,-375.900888212981
1.66007059578565,-772.005070349332,-755.140442025041,16.8646283242914,763.572756187186,-394.434849336812,-369.137906850375
1.66220986201733,-775.221138331155,-747.963243726665,27.2578946044905,761.59219102891,-401.239516467823,-360.352674561087
1.66434912824901,-781.811856508858,-776.82525344737,4.98660306148827,779.318554978114,-393.399229785173,-385.919325192941
1.66648839448069,-780.804544296098,-786.458390121575,-5.65384582547688,783.631467208837,-387.575349235311,-396.056117973526
1.66862766071238,-772.801375716171,-783.642422103637,-10.8410463874653,778.221898909904,-380.980164664353,-397.241734245551
1.67076692694406,-777.375396783986,-783.366146263702,-5.99074947971678,780.370771523844,-385.692323652134,-394.67844787171
1.67290619317574,-790.233608828891,-781.888678420285,8.34493040860571,786.061143624588,-399.289269618748,-386.77187400584
1.67504545940742,-795.111362935243,-760.559453552082,34.5519093831612,777.835408243663,-414.831636159202,-363.00377208446
1.67718472563911,-795.300181219407,-759.211153386733,36.0890278326749,777.25566730307,-415.694604526041,-361.561062777029
1.67932399187079,-794.592937725395,-751.394713021331,43.1982247040643,772.993825373363,-418.89558121473,-354.098244158633
1.68146325810247,-793.43492380103,-772.103725280636,21.3311985203932,782.769324540833,-407.383061160711,-375.386263380122
1.68360252433415,-784.761494293451,-781.844855947753,2.91663834569772,783.303175120602,-393.839066319574,-389.464108801028
1.68574179056584,-776.86902583991,-787.341229470033,-10.4722036301232,782.105127654971,-383.198411104893,-398.906716550078
1.68788105679752,-754.281447146073,-772.202152300038,-17.9207051539653,763.241799723056,-368.180370996054,-395.061428727002
1.6900203230292,-743.729290798332,-755.606303543672,-11.8770127453402,749.667797171002,-365.926139026496,-383.741658144506
1.69215958926088,-736.768163356206,-734.194084251587,2.57407910461973,735.481123803896,-369.671121230413,-365.810002573483
1.69429885549257,-732.904565846623,-728.401042685627,4.50352316099611,730.652804266125,-368.70404450381,-361.948759762315
1.69643812172425,-736.023211724538,-723.713149560973,12.310062163565,729.868180642756,-374.166636944052,-355.701543698704
1.69857738795593,-758.248686827559,-724.50137483382,33.7473119937388,741.37503083069,-395.997999410649,-345.377031420041
1.70071665418761,-765.295536075974,-745.956101287537,19.3394347884376,755.625818681756,-392.317485432206,-363.30833324955
1.7028559204193,-773.144805233204,-767.605370288977,5.53943494422674,770.37508776109,-389.342120088715,-381.032967672375
1.70499518665098,-770.11819693475,-761.04811860527,9.07007832947988,765.58315777001,-389.594137632115,-375.989020137895
1.70713445288266,-751.832170633036,-744.996053164558,6.83611746847782,748.414111898797,-379.334144050757,-369.07996784804
1.70927371911434,-740.903738079925,-731.311082536788,9.59265554313674,736.107410308356,-375.248196811531,-360.859213496826
1.71141298534603,-721.346756871556,-705.51379364756,15.8329632239966,713.430275259558,-368.589860047776,-344.840415211782
1.71355225157771,-708.743367459637,-684.504684488475,24.2386829711613,696.624025974056,-366.491025215399,-330.133000758657
1.71569151780939,-703.636529930792,-680.870455933916,22.7660739968759,692.253492932354,-363.201301963834,-329.05219096852
1.71783078404107,-698.980026673126,-702.305015195361,-3.3249885222358,700.642520934243,-347.827519075445,-352.815001858799
1.71997005027276,-699.131215213125,-716.661183248157,-17.5299680350325,707.896199230641,-340.800623589046,-367.095575641595
1.72210931650444,-704.026816481677,-718.554790071453,-14.5279735897763,711.290803276565,-344.74942144595,-366.541381830615
1.72424858273612,-705.324221908997,-706.913134199804,-1.58891229080666,706.1186780544,-351.867654809095,-354.251023245305
1.7263878489678,-698.392000990677,-701.097904147848,-2.70590315717072,699.744952569263,-347.843048916753,-351.901903652509
1.72852711519949,-698.275191152488,-671.080212873227,27.1949782792606,684.677702012857,-362.735084715874,-321.942617296983
1.73066638143117,-701.14172786274,-665.023780253169,36.1179476095703,683.082754057954,-368.629837736155,-314.4529163218
1.73280564766285,-688.152747064314,-660.872280617354,27.2804664469606,674.512513840834,-357.716606755637,-316.795907085197
1.73494491389453,-675.624165623252,-678.226254852663,-2.60208922941069,676.925210237957,-336.511038196921,-340.414172041037
1.73708418012622,-664.084247105946,-673.403460915939,-9.31921380999336,668.743854010943,-327.382516647976,-341.361337362966
1.7392234463579,-665.115166776626,-687.48952206219,-22.374355285564,676.302344419408,-321.370405745531,-354.931938673877
1.74136271258958,-670.326159345469,-684.152176907551,-13.8260175620818,677.23916812651,-328.250070891693,-348.989097234816
1.74350197882126,-675.037345705976,-663.033464596946,12.0038811090296,669.035405151461,-343.520613407503,-325.514791743958
1.74564124505295,-674.892334031075,-652.225403199148,22.6669308319264,663.558868615112,-348.779632431501,-314.779236183611
1.74778051128463,-697.179198356197,-653.407054437872,43.7721439183248,675.293126397035,-370.475671137261,-304.817455259774
1.74991977751631,-719.20012358209,-652.572898977604,66.6272246044858,685.886511279847,-392.913674093288,-292.972837186559
1.75205904374799,-718.409672293691,-669.658185771557,48.7514865221347,694.033929032624,-383.580579407913,-310.453349624711
1.75419830997968,-726.346701270274,-692.202565003957,34.144136266317,709.274633137116,-380.245418768296,-329.02921436882
1.75633757621136,-723.506562939584,-702.947684822443,20.5588781171405,713.227123881013,-372.032720528362,-341.194403352651
1.75847684244304,-720.920067582518,-696.333914663785,24.586152918733,708.626991123151,-372.753110250625,-335.873880872526
1.76061610867472,-725.574510615197,-694.964540160344,30.6099704548534,710.26952538777,-378.092240535025,-332.177284852745
1.76275537490641,-729.225587890748,-684.004627435341,45.2209604554065,706.615107663044,-387.223274173077,-319.391833489967
1.76489464113809,-743.634916073658,-676.844041674706,66.7908743989522,710.239478874182,-405.212895236305,-305.026583637877
1.76703390736977,-765.565245055605,-679.216114699117,86.3491303564883,722.390679877361,-425.957187706047,-296.433492171314
1.76917317360145,-764.774450458309,-695.912886245086,68.8615642132226,730.343668351698,-416.818007335766,-313.525661015932
1.77131243983314,-768.957574632599,-718.588101917569,50.3694727150296,743.772838275084,-409.663523673814,-334.10931460127
1.77345170606482,-774.102236151817,-737.688553488723,36.4136826630939,755.89539482027,-405.257959407455,-350.637435412815
1.7755909722965,-783.348029832768,-743.436498675054,39.9115311577142,763.392264253911,-411.629780495241,-351.76248375867
1.77773023852818,-788.018436284339,-746.37225251827,41.6461837660686,767.195344401305,-414.832310025204,-352.363034376101
1.77986950475987,-807.004572471654,-739.181057402241,67.823515069413,773.092814936947,-437.414043770533,-335.678771166414
1.78200877099155,-821.100392489923,-727.556834477407,93.5435580125164,774.328613483665,-457.32197525122,-317.006638232445
1.78414803722323,-819.513459790451,-725.337476496172,94.1759832942791,772.425468143312,-456.844721542365,-315.580746600946
1.78628730345491,-826.538980801117,-737.723730950627,88.8152498504897,782.131355875872,-457.677115325803,-324.454240550069
1.7884265696866,-815.5093350537,-752.729032148037,62.7803029056628,784.119183600868,-439.144818979681,-344.974364621187
1.79056583591828,-824.9143368917,-772.385839283684,52.5284976080153,798.650088087692,-438.721417249857,-359.928670837834
1.79270510214996,-842.088586641993,-790.460314605733,51.6282720362601,816.274450623863,-446.858429339127,-369.416021284736
1.79484436838165,-854.316576925317,-797.670835312798,56.6457416125188,825.993706119057,-455.481159268918,-370.51254685014
1.79698363461333,-865.075219749085,-790.367730744165,74.7074890049197,827.721475246625,-469.891354377002,-357.830120869623
1.79912290084501,-867.142207698122,-782.105100671484,85.0371070266374,824.623654184803,-476.08965736238,-348.533996822424
1.80126216707669,-865.559582907788,-771.521721728145,94.0378611796432,818.540652317967,-479.798722043716,-338.741930274251
1.80340143330838,-861.360106826171,-775.828657187812,85.5314496383594,818.594382006992,-473.445778232265,-345.148603774726
1.80554069954006,-854.773425420678,-790.972220112134,63.8012053085439,822.872822766406,-459.287315364611,-363.585507401795
1.80767996577174,-860.585049747623,-814.975147905016,45.6099018426065,837.78009882632,-453.097475795115,-384.682623031205
1.80981923200342,-858.132288909121,-821.885344214425,36.2469446946951,840.008816561773,-447.189616801908,-392.819199759865
1.81195849823511,-862.004218360074,-825.442210676778,36.5620076832952,843.723214518426,-449.283113021684,-394.440101496742
1.81409776446679,-868.301898034576,-818.012310076568,50.2895879580078,843.157104055572,-459.295742996292,-383.86136105928
1.81623703069847,-870.190600086559,-813.247785763627,56.9428143229317,841.719192925093,-463.566707204745,-378.152485720348
1.81837629693015,-884.485712168915,-798.374033790902,86.1116783780135,841.429872979908,-485.298695273464,-356.131177706444
1.82051556316184,-877.06352810948,-794.723748971025,82.339779138455,835.893638540252,-479.701653623968,-356.191984916285
1.82265482939352,-890.445531779085,-825.511908265434,64.9336235136508,857.978720022259,-477.689577646368,-380.289142375892
1.8247940956252,-888.594071003292,-834.311759792126,54.2823112111665,861.452915397709,-471.438191107229,-390.01472429048
1.82693336185688,-885.732945827051,-849.330448783831,36.4024970432204,867.531697305441,-461.067721435136,-406.463975870305
1.82907262808857,-881.191047739927,-853.058358176111,28.1326895638158,867.124702958019,-454.661868651871,-412.462834306148
1.83121189432025,-879.242988838993,-845.542722410026,33.7002664289668,862.39285562451,-456.47162763398,-405.92122799053
1.83335116055193,-873.34499592675,-813.344430375827,60.0005655509233,843.344713151288,-466.672780738837,-376.671932412452
1.83549042678361,-860.905095802687,-798.218727844016,62.6863679586706,829.561911823352,-461.795731880679,-367.766179942673
1.8376296930153,-877.384707318313,-809.95858258379,67.426124734523,843.671644951051,-472.405416026418,-371.266228924633
1.83976895924698,-867.833191556189,-813.561920741437,54.2712708147523,840.697556148813,-461.052231185471,-379.645324963342
1.84190822547866,-873.636613931578,-830.239342746364,43.3972711852139,851.937978338971,-458.516942558396,-393.421035780575
1.84404749171034,-878.04870112107,-841.557896018531,36.4908051025385,859.803298569801,-457.269753111804,-402.533545457996
1.84618675794203,-872.961542221048,-841.583860562856,31.3776816581915,857.272701391952,-452.16961193962,-405.103089452332
1.84832602417371,-870.786751995574,-822.545512293122,48.2412397024524,846.666132144348,-459.513995849013,-387.152136295335
1.85046529040539,-872.900928128774,-809.76651900629,63.1344091224838,841.333723567532,-468.017668625629,-373.316054941903
1.85260455663707,-876.531835544887,-802.240129399924,74.2917061449634,839.385982472405,-475.411770844925,-363.97421162748
1.85474382286876,-874.068248264485,-794.2817400747,79.7865081897849,834.174994169592,-476.927378227135,-357.247615942458
1.85688308910044,-887.904490154602,-801.53320375014,86.371286404462,844.718846952371,-487.137888279532,-357.580958672839
1.85902235533212,-877.836018563934,-822.065197858083,55.7708207058507,849.950608211009,-466.803419634892,-383.147188576116
1.8611616215638,-877.826950405837,-837.476901005595,40.3500494002423,857.651925705716,-459.08849990304,-398.563425802676
1.86330088779549,-872.372912318804,-830.089187860068,42.2837244587355,851.231050089436,-457.32831838877,-393.902731700666
1.86544015402717,-874.111857635605,-826.876026306725,47.23583132888,850.493941971165,-460.673844482243,-389.820097488923
1.86757942025885,-872.729633485843,-810.260094880482,62.4695386053612,841.494864183162,-467.599586045602,-373.89527813756
1.86971868649053,-872.956287980914,-790.837459056484,82.11882892443,831.896873518699,-477.537558452672,-354.359315066027
1.87185795272222,-874.634408886238,-778.599352217837,96.0350566684008,826.616880552037,-485.334732777319,-341.282147774718
1.8739972189539,-868.946680825412,-793.294372367027,75.6523084583847,831.12052659622,-472.299494641898,-358.821031954321
1.87613648518558,-866.256544121926,-809.876788587195,56.3797555347305,838.066666354561,-461.318149828328,-376.748516526232
1.87827575141726,-861.956333964821,-821.645791996647,40.3105419681739,841.801062980734,-451.133437966498,-390.667625014237
1.88041501764895,-856.320101972682,-826.33080161641,29.9893003562719,841.325451794546,-443.154701164477,-398.170750630069
1.88255428388063,-858.204759658214,-823.482636184524,34.7221234736902,840.843697921369,-446.463441565952,-394.380256355417
1.88469355011231,-861.069371881589,-795.3159206017,65.7534512798892,828.192646241645,-463.411411580739,-364.781234660905
1.88683281634399,-853.88127610198,-767.91086064464,85.9704154573398,810.89606837331,-469.92584577966,-340.97022259365
1.88897208257568,-863.451460381741,-759.13717322972,104.314287152021,811.294316805731,-483.882873766881,-327.41144303885
1.89111134880736,-853.720337547337,-773.420792142838,80.2995454044988,813.570564845088,-467.009941475918,-346.56062336917
1.89325061503904,-835.176742895153,-785.934291150891,49.2424517442612,810.555517023022,-442.209597319707,-368.345919703315
1.89538988127072,-834.492570863777,-805.623904715589,28.8686661481875,820.058237789683,-431.680618505982,-388.377619283701
1.89752914750241,-828.791491309325,-814.623291171427,14.1682001378979,821.707391240376,-421.479845723611,-400.227545516764
1.89966841373409,-823.049892912949,-800.624009678158,22.4258832347916,811.836951295554,-422.737888073871,-389.099063221683
1.90180767996577,-830.027681026097,-776.642684740881,53.3849962852153,803.335182883489,-441.706338655656,-361.628844227833
1.90394694619745,-834.652050929336,-764.675646859514,69.976404069822,799.663848894425,-452.314227499579,-347.349621394846
1.90608621242914,-844.229392690731,-747.645278416236,96.5841142744952,795.937335553484,-470.406753482613,-325.530582070871
1.90822547866082,-846.029824941334,-757.413526964823,88.6162979765113,801.721675953079,-467.323061458923,-334.398614494156
1.9103647448925,-858.403727996096,-777.294608226134,81.1091197699621,817.849168111115,-469.756423883029,-348.092744228086
1.91250401112418,-865.401829891921,-800.960101476379,64.4417284155422,833.18096568415,-464.921779153732,-368.259186530418
1.91464327735587,-859.735440150245,-810.5271447013,49.2082954489451,835.131292425773,-454.471867799595,-380.659424626177
1.91678254358755,-865.779057691044,-805.033327079641,60.745730611403,835.406192385343,-463.262394151224,-372.143798234119
1.91892180981923,-865.138020279804,-777.65032041683,87.4876998629748,821.394170348317,-476.31286007139,-345.081310276927
1.92106107605091,-858.172963264863,-757.837071110065,100.335892154798,808.005017187464,-479.25442770983,-328.750589477634
1.9232003422826,-848.277428292401,-732.416794491697,115.860633800703,790.347111392049,-482.069031046552,-308.278080345497
1.92533960851428,-853.8082391656,-733.5897550614,120.218484104199,793.6989971135,-487.0133616349,-306.6856354786
1.92747887474596,-850.475902201848,-764.547471862515,85.9284303393327,807.511687032181,-468.20216627059,-339.309520761591
1.92961814097764,-849.603812008848,-780.473325102508,69.1304869063396,815.038568555678,-459.367149457594,-355.671419098084
1.93175740720933,-840.090962200746,-794.568177930855,45.5227842698906,817.3295700658,-442.806873235318,-374.522696830482
1.93389667344101,-830.777460308512,-786.129723585533,44.6477367229786,808.453591947023,-437.712598515745,-370.740993431277
1.93603593967269,-842.002345942479,-774.971848368022,67.0304975744566,808.48709715525,-454.516421758468,-353.970675396783
1.93817520590437,-839.039948359131,-731.893284211229,107.146664147902,785.46661628518,-473.093306253516,-312.373310031663
1.94031447213606,-832.957914170282,-717.434330868704,115.523583301578,775.196122519493,-474.24074873593,-300.955373783563
1.94245373836774,-838.274737270531,-721.43946393193,116.835273338602,779.857100601231,-477.555005304567,-302.302095296664
1.94459300459942,-842.491538474576,-739.924324278489,102.567214196087,791.207931376533,-472.529376335332,-318.678555041201
1.94673227083111,-841.547226556576,-775.169026703605,66.378199852971,808.35812663009,-453.962713204773,-354.395413425317
1.94887153706279,-843.801725223187,-797.759022312751,46.0427029104368,820.780373767969,-444.922214066812,-375.858159701157
1.95101080329447,-830.841093626409,-802.13133603421,28.7097575921982,816.48621483031,-429.775425609303,-386.710789221006
1.95315006952615,-834.510825187161,-784.158693889023,50.3521312981385,809.334759538092,-442.43147824265,-366.903281295442
1.95528933575784,-835.488342584708,-760.669272630482,74.8190699542254,798.078807607595,-455.153706269466,-342.925101338128
1.95742860198952,-852.540353836447,-745.458107843145,107.082245993303,798.999230839796,-479.811299914875,-319.187930924921
1.9595678682212,-857.540652180242,-736.528091315507,121.012560864735,797.034371747874,-489.276606522488,-307.757765225386
1.96170713445288,-849.849888962931,-742.299007113184,107.550881849748,796.074448038058,-478.70038540634,-317.374062631718
1.96384640068457,-841.16069406179,-769.59014471769,71.5705493441004,805.37541938974,-456.365621702945,-349.009797686795
1.96598566691625,-835.98605059972,-804.648650751329,31.3373998483912,820.317350675524,-433.661725224056,-386.655625451469
1.96812493314793,-835.102798178199,-810.367079173012,24.7357190051872,822.734938675605,-429.919258591693,-392.815680083912
1.97026419937961,-835.082791375213,-801.228348554794,33.8544428204189,818.155569965003,-434.468617097816,-383.686952867187
1.9724034656113,-831.955931494871,-770.133998162969,61.8219333319018,801.04496482892,-446.888932413387,-354.156032415534
1.97454273184298,-832.974858900046,-730.804349735711,102.170509164335,781.889604317878,-467.572684032191,-314.316920285688
1.97668199807466,-825.901700885054,-701.170717900873,124.730982984181,763.536209392964,-475.316341934618,-288.219867458346
1.97882126430634,-829.81979018133,-721.455078370437,108.364711810893,775.637434275883,-469.092250996112,-306.545183279772
1.98096053053803,-833.150825107596,-764.053344403911,69.0974807036853,798.602084755753,-451.124152905641,-347.477931850113
1.98309979676971,-844.024998781734,-791.996033094971,52.0289656867633,818.010515938353,-448.026982234249,-369.983533704104
1.98523906300139,-843.459431328046,-810.530936580567,32.9284947474797,826.995183954306,-438.193963037763,-388.801220916543
1.98737832923307,-851.127610424136,-821.870652801568,29.2569576225685,836.499131612852,-440.192284023352,-396.3068475895
1.98951759546476,-851.482968163065,-791.172262758062,60.3107054050035,821.327615460563,-455.896836784034,-365.430778676529
1.99165686169644,-848.174172071629,-747.496896036852,100.677276034777,797.83553405424,-474.425724053203,-323.409810001038
1.99379612792812,-852.55051494275,-724.566194205353,127.984320737397,788.558354574051,-490.267417840073,-298.290936733978
1.9959353941598,-860.50548167724,-747.619222693966,112.886258983274,804.062352185603,-486.695870330257,-317.366481855346
1.99807466039149,-868.09636597881,-770.223250629209,97.8731153496013,819.15980830401,-482.984740664206,-336.175067639804
2.00021392662317,-867.675407007127,-810.086488903017,57.5889181041097,838.880947955072,-462.632162555618,-376.248785399454
2.00235319285485,-855.588442971281,-845.131476517212,10.4569664540686,850.359959744246,-433.022704712675,-417.337255031572
2.00449245908653,-843.700637752415,-842.10764316772,1.59299458469548,842.904140460067,-422.646816168555,-420.257324291512
2.00663172531822,-816.585226462313,-796.645286249344,19.9399402129694,806.615256355829,-418.262583337641,-388.352673018187
2.0087709915499,-785.846275187415,-745.178462985255,40.6678122021593,765.512369086335,-413.257043694787,-352.255325391548
2.01091025778158,-786.242529209062,-717.514434466686,68.7280947423769,751.878481837874,-427.48531197572,-324.393169862154
2.01304952401326,-790.348894265712,-708.22888854786,82.1200057178517,749.288891406786,-436.234449991782,-313.054441415004
2.01518879024495,-809.659205302939,-729.787912913837,79.8712923891021,769.723559108388,-444.765248846021,-324.958310262367
2.01732805647663,-820.94107441875,-784.929692030091,36.0113823886587,802.935383224421,-428.476228403704,-374.459154820716
2.01946732270831,-836.09278118697,-820.683955541044,15.4088256459261,828.388368364007,-425.750803416448,-402.637564947559
2.02160658893999,-855.382282417513,-834.550539718654,20.8317426988588,844.966411068083,-438.107012558186,-406.859398509898
2.02374585517168,-851.739279014557,-821.469089443396,30.2701895711617,836.604184228976,-441.00473429286,-395.599449936117
2.02588512140336,-856.096762751638,-797.715391969824,58.3813707818143,826.906077360731,-457.239066766726,-369.667010594005
2.02802438763504,-856.501786817098,-746.173530870878,110.32825594622,801.337658843988,-483.415021381659,-317.922637462329
2.03016365386672,-848.781894030244,-735.491574896159,113.290319134085,792.136734463201,-481.036106582164,-311.100627881037
2.03230292009841,-844.519004192873,-759.468496730192,85.0505074626809,801.993750461532,-464.784755827777,-337.208994633755
2.03444218633009,-843.924320653367,-782.816478839322,61.1078418140445,813.370399746345,-452.516081233706,-360.854318512639
2.03658145256177,-827.961182078194,-811.248644089544,16.7125379886504,819.604913083869,-422.336860033422,-397.268053050447
2.03872071879345,-816.353968697853,-830.405270824129,-14.0513021262758,823.379619760991,-401.151333285789,-422.228286475202
2.04085998502514,-801.359923900631,-830.545757967451,-29.1858340668206,815.952840934041,-386.087044916905,-429.865796017136
2.04299925125682,-790.426134705531,-780.461265595136,9.96486911039449,785.443700150334,-400.195501907963,-385.248198242371
2.0451385174885,-790.840052992667,-740.204445150488,50.6356078421787,765.522249071578,-420.737830417423,-344.784418654155
2.04727778372018,-786.749268574618,-720.365143281313,66.3841252933048,753.557205927966,-426.566696933962,-326.990508994004
2.04941704995187,-793.760607854196,-715.517106750642,78.2435011035543,754.638857302419,-436.002054478875,-318.636802823544
2.05155631618355,-785.166135798318,-734.035338922645,51.1307968756728,759.600737360481,-418.148466336995,-341.452271023486
2.05369558241523,-788.716774320614,-778.289711444791,10.4270628758229,783.503242882702,-399.571918598218,-383.931324284484
2.05583484864691,-800.802956448826,-814.317339894757,-13.5143834459312,807.560148171792,-393.644286501447,-413.915861670344
2.0579741148786,-813.413139893648,-812.205593057141,1.20754683650637,812.809366475395,-407.310343365077,-405.499023110318
2.06011338111028,-818.169502581601,-790.31794027585,27.8515623057511,804.243721428726,-423.010532443676,-381.23318898505
2.06225264734196,-822.256828705447,-761.548212755281,60.7086159501661,791.902520730364,-441.482722327807,-350.419798402557
2.06439191357364,-817.747399756235,-724.942939725571,92.8044600306638,771.345169740903,-455.275929893449,-316.069239847454
2.06653117980533,-812.783811077333,-710.748680709907,102.035130367426,761.76624589362,-457.40947072238,-304.356775171241
2.06867044603701,-804.173195927545,-732.114498911051,72.0586970164942,768.143847419298,-438.11594647202,-330.027900947278
2.07080971226869,-796.357355729406,-772.53972422085,23.8176315085556,784.448539975128,-410.087493618981,-374.361046356147
2.07294897850037,-793.274328982238,-809.640260729314,-16.3659317470767,801.457294855776,-388.454198617581,-413.003096238196
2.07508824473206,-790.538692073658,-820.647607786835,-30.1089157131772,805.593149930247,-380.21488818024,-425.378261750006
2.07722751096374,-779.646441579483,-792.052241459568,-12.4057998800851,785.849341519526,-383.620320849699,-402.229020669827
2.07936677719542,-767.869338822337,-751.735468074508,16.1338707478288,759.802403448422,-392.001604785083,-367.80079866334
2.0815060434271,-755.27803452656,-694.859405999679,60.4186285268811,725.068720263119,-407.84833152672,-317.220388736399
2.08364530965879,-746.345931101647,-679.328379557212,67.0175515444349,712.83715532943,-406.681741323041,-306.155414006389
2.08578457589047,-737.931071717177,-695.67976779788,42.2513039192967,716.805419757528,-390.091187818237,-326.714231939292
