t,leadI,leadII,leadIII,aVR,aVL,aVF
0,520,639,617.147985884998,636.969657237462,-781.345818032479,144.376160795018
0.00213926623168253,522,624,534.059031828302,668.738963200316,-734.913755471385,66.1747922710687
0.00427853246336507,525,612,460.7452488371,690.733098097677,-690.925485676663,0.192387578986654
0.0064177986950476,524,599,402.094222444138,724.946196826904,-664.043765246556,-60.9024315803486
0.00855706492673013,523,586,343.443196051176,759.159295556132,-637.162044816448,-121.997250739684
0.0106963311584127,521,576,304.342511789202,788.484808752613,-622.499288218208,-165.985520534405
0.0128355973900952,517,568,284.792169658214,817.810321949094,-622.499288218208,-195.311033730887
0.0149748636217777,517,564,265.241827527227,827.585493014588,-612.724117152714,-214.861375861874
0.0171141298534603,515,560,255.466656461733,842.248249612828,-612.724117152714,-229.524132460114
0.0192533960851428,512,557,255.466656461733,856.911006211069,-620.055495451834,-236.855510759234
0.0213926623168253,512,554,240.803899863493,864.242384510189,-612.724117152714,-251.518267357475
0.0235319285485079,514,552,221.253557732505,864.242384510189,-598.061360554474,-266.181023955715
0.0256711947801904,513,542,177.265287937784,891.124104940297,-578.511018423486,-312.61308651681
0.0278104610118729,512,538,162.602531339544,903.343068772164,-573.62343289074,-329.719635881424
0.0299497272435555,510,536,162.602531339544,913.118239837657,-578.511018423486,-334.607221414171
0.032088993475238,512,535,147.939774741303,910.674447071284,-566.292054591619,-344.382392479665
0.0342282597069205,511,531,133.277018143063,922.893410903151,-561.404469058872,-361.488941844278
0.0363675259386031,510,532,143.052189208556,922.893410903151,-568.735847357993,-354.157563545158
0.0385067921702856,508,532,152.82736027405,927.780996435898,-578.511018423486,-349.269978012411
0.0406460584019681,505,529,152.82736027405,942.443753034138,-585.842396722607,-356.601356311532
0.0427853246336507,504,524,133.277018143063,957.106509632378,-578.511018423486,-378.595491208892
0.0449245908653332,502,521,128.389432610316,969.325473464246,-580.95481118986,-388.370662274386
0.0470638570970157,499,515,113.726676012075,991.319608361606,-580.95481118986,-410.364797171747
0.0492031233286983,500,515,108.839090479329,988.875815595233,-576.067225657113,-412.80858993812
0.0513423895603808,498,515,118.614261544822,993.76340112798,-585.842396722607,-407.921004405373
0.0534816557920633,496,516,133.277018143063,996.207193894353,-598.061360554473,-398.14583333988
0.0556209220237459,498,514,113.726676012075,996.207193894353,-583.398603956233,-412.80858993812
0.0577601882554284,498,516,123.501847077569,991.319608361606,-588.28618948898,-403.033418872626
0.0598994544871109,500,515,108.839090479329,988.875815595233,-576.067225657113,-412.80858993812
0.0620387207187935,499,509,84.4011628155946,1005.98236495985,-566.292054591619,-439.690310368227
0.064177986950476,498,505,69.7384062173539,1018.20132879171,-561.404469058872,-456.796859732841
0.0663172531821585,497,506,79.5135772828478,1018.20132879171,-568.735847357993,-449.465481433721
0.0684565194138411,495,506,89.2887483483414,1023.08891432446,-578.511018423486,-444.577895900974
0.0705957856455236,495,503,74.6259917501009,1030.42029262358,-571.179640124366,-459.240652499215
0.0727350518772061,494,507,99.0639194138349,1023.08891432446,-585.842396722607,-437.246517601854
0.0748743181088887,494,511,118.614261544822,1013.31374325897,-595.6175677881,-417.696175470867
0.0770135843405712,492,507,108.839090479329,1027.97649985721,-595.6175677881,-432.358932069107
0.0791528505722537,494,501,69.7384062173539,1037.7516709227,-571.179640124366,-466.572030798335
0.0812921168039362,496,501,59.9632351518603,1032.86408538995,-561.404469058872,-471.459616331082
0.0834313830356188,496,500,55.0756496191135,1035.30787815633,-558.960676292499,-476.347201863829
0.0855706492673013,494,497,50.1880640863667,1047.52684198819,-561.404469058872,-486.122372929322
0.0877099154989839,494,503,79.5135772828476,1032.86408538995,-576.067225657113,-456.796859732841
0.0898491817306664,495,506,89.2887483483414,1023.08891432446,-578.511018423486,-444.577895900974
0.0919884479623489,498,508,84.4011628155945,1010.86995049259,-568.735847357993,-442.134103134601
0.0941277141940314,498,507,79.5135772828477,1013.31374325897,-566.292054591619,-447.021688667348
0.096266980425714,499,504,59.9632351518604,1018.20132879171,-554.073090759752,-464.128238031962
0.0984062466573965,497,502,59.9632351518604,1027.97649985721,-558.960676292499,-469.015823564708
0.100545512889079,493,499,64.8508206846072,1045.08304922182,-571.179640124366,-473.903409097455
0.102684779120762,491,495,55.0756496191136,1059.74580582006,-571.179640124366,-488.566165695696
0.104824045352444,489,499,84.4011628155945,1054.85822028731,-590.729982255353,-464.128238031962
0.106963311584127,489,500,89.2887483483413,1052.41442752094,-593.173775021727,-459.240652499215
0.109102577815809,493,500,69.7384062173541,1042.63925645545,-573.623432890739,-469.015823564708
0.111241844047492,494,502,74.6259917501008,1035.30787815633,-573.623432890739,-461.684445265588
0.113381110279174,495,503,74.6259917501009,1030.42029262358,-571.179640124366,-459.240652499215
0.115520376510857,499,500,40.4128930208732,1027.97649985721,-544.297919694259,-483.678580162949
0.117659642742539,507,502,11.0873798243922,1003.53857219347,-510.084820965031,-493.453751228443
0.119798908974222,519,508,-18.2381333720887,959.550302398752,-466.096551170309,-493.453751228442
0.121938175205904,535,516,-57.3388176340633,900.89927600579,-407.445524777348,-493.453751228443
0.124077441437587,558,529,-106.214672961531,812.922736416347,-326.800363487025,-486.122372929322
0.126216707669269,583,546,-145.315357223506,710.283440228664,-246.155202196702,-464.128238031962
0.128355973900952,607,563,-179.528455952734,610.087936807354,-170.397626439126,-439.690310368228
0.130495240132634,634,579,-233.291896812949,505.004847853297,-77.5335013169371,-427.47134653636
0.132634506364317,659,589,-306.605679804151,419.472101030228,20.2182093379992,-439.690310368227
0.134773772596,677,604,-321.268436402391,338.826939739906,71.5378574318408,-410.364797171746
0.136913038827682,682,613,-301.718094271404,304.613841010678,73.9816501982143,-378.595491208892
0.139052305059365,677,615,-267.504995542176,311.945219309798,44.6561370017333,-356.601356311531
0.141191571291047,659,614,-184.416041485481,358.377281870893,-40.876609821336,-317.500672049557
0.14333083752273,629,613,-42.6760610358228,434.134857628468,-185.060383037367,-249.074474591101
0.145470103754412,600,600,35.5253074881263,536.774153816152,-295.031057524171,-241.743096291981
0.147609369986095,570,589,128.389432610316,636.969657237462,-414.776903076468,-222.192754160994
0.149748636217777,546,575,177.265287937784,729.833782359651,-497.865857133164,-231.967925226488
0.15188790244946,526,561,206.590801134265,812.922736416347,-561.404469058872,-251.518267357475
0.154027168681142,516,551,206.590801134265,861.798591743816,-585.842396722607,-275.956195021209
0.156166434912825,513,543,182.152873470531,888.680312173923,-580.95481118986,-307.725500984063
0.158305701144507,513,543,182.152873470531,888.680312173923,-580.95481118986,-307.725500984063
0.16044496737619,519,544,157.714945806797,871.573762809309,-554.073090759752,-317.500672049557
0.162584233607872,525,546,138.16460367581,852.023420678322,-529.635163096018,-322.388257582304
0.164723499839555,528,544,113.726676012075,849.579627911949,-510.084820965031,-339.494806946918
0.166862766071238,529,543,103.951504946582,849.579627911949,-502.753442665911,-346.826185246038
0.16900203230292,524,536,94.1763338810881,878.905141108429,-510.084820965031,-368.820320143399
0.171141298534603,517,530,99.0639194138349,910.674447071284,-529.635163096018,-381.039283975266
0.173280564766285,510,526,113.726676012075,937.556167501391,-554.073090759752,-383.483076741639
0.175419830997968,503,521,123.501847077569,966.881680697872,-576.067225657113,-390.814455040759
0.17755909722965,500,519,128.389432610316,979.100644529739,-585.842396722607,-393.258247807133
0.179698363461333,497,523,162.602531339544,976.656851763366,-610.280324386341,-366.376527377025
0.181837629693015,496,519,147.939774741303,988.875815595233,-605.392738853594,-383.483076741639
0.183976895924698,494,514,133.277018143063,1005.98236495985,-602.94894608722,-403.033418872626
0.18611616215638,491,509,123.501847077569,1025.53270709083,-605.392738853594,-420.13996823724
0.188255428388063,491,507,113.726676012075,1030.42029262358,-600.505153320847,-429.915139302734
0.190394694619745,491,502,89.2887483483413,1042.63925645545,-588.28618948898,-454.353066966468
0.192533960851428,489,501,94.1763338810881,1049.97063475457,-595.6175677881,-454.353066966468
0.19467322708311,489,505,113.726676012075,1040.19546368907,-605.392738853594,-434.802724835481
0.196812493314793,488,506,123.501847077569,1040.19546368907,-612.724117152714,-427.47134653636
0.198951759546476,487,503,113.726676012075,1049.97063475457,-610.280324386341,-439.690310368228
0.201091025778158,489,504,108.839090479329,1042.63925645545,-602.94894608722,-439.690310368228
0.203230292009841,490,502,94.1763338810882,1045.08304922182,-593.173775021727,-451.909274200095
0.205369558241523,491,500,79.5135772828477,1047.52684198819,-583.398603956233,-464.128238031962
0.207508824473206,491,496,59.9632351518603,1057.30201305369,-573.623432890739,-483.678580162949
0.209648090704888,492,494,45.3004785536198,1059.74580582006,-563.848261825246,-495.897543994816
0.211787356936571,489,496,69.7384062173539,1062.18959858644,-583.398603956233,-478.790994630202
0.213926623168253,488,497,79.5135772828478,1062.18959858644,-590.729982255353,-471.459616331082
0.216065889399936,489,497,74.6259917501009,1059.74580582006,-585.842396722607,-473.903409097455
0.218205155631618,489,502,99.0639194138349,1047.52684198819,-598.061360554474,-449.465481433721
0.220344421863301,491,499,74.6259917501009,1049.97063475457,-580.95481118986,-469.015823564708
0.222483688094983,491,496,59.9632351518603,1057.30201305369,-573.623432890739,-483.678580162949
0.224622954326666,494,497,50.1880640863667,1047.52684198819,-561.404469058872,-486.122372929322
0.226762220558348,495,497,45.30047855362,1045.08304922182,-556.516883526126,-488.566165695696
0.228901486790031,497,497,35.5253074881264,1040.19546368907,-546.741712460632,-493.453751228442
0.231040753021714,496,500,55.0756496191135,1035.30787815633,-558.960676292499,-476.347201863829
0.233180019253396,496,503,69.7384062173539,1027.97649985721,-566.292054591619,-461.684445265588
0.235319285485079,499,503,55.0756496191136,1020.64512155809,-551.629297993379,-469.015823564708
0.237458551716761,498,502,55.0756496191135,1025.53270709083,-554.073090759752,-471.459616331082
0.239597817948444,499,501,45.30047855362,1025.53270709083,-546.741712460632,-478.790994630202
0.241737084180126,499,499,35.5253074881264,1030.42029262358,-541.854126927885,-488.566165695696
0.243876350411809,500,496,15.9749653571389,1035.30787815633,-529.635163096018,-505.67271506031
0.246015616643491,498,499,40.4128930208731,1032.86408538995,-546.741712460632,-486.122372929322
0.248154882875174,501,503,45.30047855362,1015.75753602534,-541.854126927885,-473.903409097455
0.250294149106856,500,504,55.0756496191135,1015.75753602534,-549.185505227005,-466.572030798335
0.252433415338539,499,502,50.1880640863668,1023.08891432446,-549.185505227005,-473.903409097455
0.254572681570221,500,506,64.8508206846072,1010.86995049259,-554.073090759752,-456.796859732841
0.256711947801904,501,506,59.9632351518605,1008.42615772622,-549.185505227005,-459.240652499215
0.258851214033586,502,499,20.8625508898858,1023.08891432446,-527.191370329645,-495.897543994816
0.260990480265269,499,500,40.4128930208732,1027.97649985721,-544.297919694259,-483.678580162949
0.263129746496952,501,501,35.5253074881264,1020.64512155809,-536.966541395138,-483.678580162949
0.265269012728634,500,500,35.5253074881263,1025.53270709083,-539.410334161512,-486.122372929322
0.267408278960317,499,502,50.1880640863668,1023.08891432446,-549.185505227005,-473.903409097455
0.269547545191999,501,505,55.0756496191136,1010.86995049259,-546.741712460632,-464.128238031962
0.271686811423682,504,508,55.0756496191136,996.207193894353,-539.410334161512,-456.796859732841
0.273826077655364,506,506,35.5253074881264,996.207193894353,-524.747577563271,-471.459616331082
0.275965343887047,507,504,20.8625508898858,998.650986660727,-514.972406497778,-483.678580162949
0.278104610118729,506,503,20.8625508898858,1003.53857219347,-517.416199264151,-486.122372929322
0.280243876350412,504,502,25.7501364226326,1010.86995049259,-524.747577563271,-486.122372929322
0.282383142582094,506,504,25.7501364226326,1001.0947794271,-519.859992030524,-481.234787396575
0.284522408813777,505,506,40.4128930208732,998.650986660726,-529.635163096018,-469.015823564708
0.286661675045459,507,509,45.30047855362,986.432022828859,-527.191370329645,-459.240652499215
0.288800941277142,512,511,30.6377219553796,969.325473464246,-507.641028198657,-461.684445265588
0.290940207508824,516,512,15.974965357139,957.106509632378,-490.534478834044,-466.572030798335
0.293079473740507,517,512,11.0873798243922,954.662716866005,-485.646893301297,-469.015823564708
0.29521873997219,517,509,-3.57537677384823,961.994095165125,-478.315515002176,-483.678580162949
0.297358006203872,515,509,6.19979429164539,966.881680697872,-488.09068606767,-478.790994630202
0.299497272435555,515,508,1.31220875889858,969.325473464246,-485.646893301297,-483.678580162949
0.301636538667237,514,514,35.5253074881264,957.106509632379,-505.197235432284,-451.909274200095
0.30377580489892,514,514,35.5253074881264,957.106509632379,-505.197235432284,-451.909274200095
0.305915071130602,516,516,35.5253074881263,947.331338566885,-500.309649899537,-447.021688667348
0.308054337362285,519,518,30.6377219553794,935.112374735018,-490.534478834044,-444.577895900974
0.310193603593967,519,516,20.8625508898858,939.999960267765,-485.646893301297,-454.353066966468
0.31233286982565,517,512,11.0873798243922,954.662716866005,-485.646893301297,-469.015823564708
0.314472136057332,517,511,6.19979429164539,957.106509632378,-483.203100534923,-473.903409097455
0.316611402289015,516,513,20.8625508898858,954.662716866005,-492.978271600417,-461.684445265588
0.318750668520697,518,516,25.7501364226326,942.443753034138,-490.534478834044,-451.909274200095
0.32088993475238,522,519,20.8625508898858,925.337203669524,-478.315515002176,-447.021688667348
0.323029200984062,523,522,30.6377219553796,915.56203260403,-480.75930776855,-434.802724835481
0.325168467215745,525,522,20.8625508898859,910.674447071284,-470.984136703056,-439.690310368227
0.327307733447428,525,519,6.19979429164539,918.005825370404,-463.652758403936,-454.353066966468
0.32944699967911,526,519,1.31220875889858,915.562032604031,-458.765172871189,-456.796859732841
0.331586265910793,528,519,-8.46296230659505,910.674447071284,-448.990001805696,-461.684445265588
0.333725532142475,529,520,-8.46296230659505,905.786861538537,-446.546209039322,-459.240652499215
0.335864798374158,530,520,-13.3505478393419,903.343068772164,-441.658623506575,-461.684445265588
0.33800406460584,529,525,15.9749653571391,893.56789770667,-458.765172871189,-434.802724835481
0.340143330837523,527,530,50.1880640863668,886.23651940755,-480.75930776855,-405.477211639
0.342282597069205,527,527,35.5253074881264,893.56789770667,-473.42792946943,-420.13996823724
0.344421863300888,528,526,25.7501364226327,893.56789770667,-466.09655117031,-427.47134653636
0.34656112953257,527,525,25.7501364226327,898.455483239417,-468.540343936683,-429.915139302734
0.348700395764253,527,521,6.19979429164539,908.23065430491,-458.765172871189,-449.465481433721
0.350839661995935,528,523,11.0873798243923,900.89927600579,-458.765172871189,-442.134103134601
0.352978928227618,530,526,15.9749653571391,888.680312173923,-456.321380104816,-432.358932069107
0.3551181944593,532,529,20.8625508898858,876.461348342056,-453.877587338442,-422.583761003614
0.357257460690983,535,529,6.19979429164539,869.129970042936,-439.214830740202,-429.915139302734
0.359396726922666,539,532,1.31220875889858,852.023420678322,-426.995866908335,-425.027553769987
0.361535993154348,538,537,30.6377219553794,842.248249612828,-444.102416272949,-398.14583333988
0.363675259386031,539,534,11.0873798243922,847.135835145575,-431.883452441082,-415.252382704493
0.365814525617713,535,529,6.19979429164539,869.129970042936,-439.214830740202,-429.915139302734
0.367953791849396,528,526,25.7501364226327,893.56789770667,-466.09655117031,-427.47134653636
0.370093058081078,524,525,40.4128930208732,905.786861538537,-483.203100534923,-422.583761003614
0.372232324312761,524,527,50.1880640863668,900.89927600579,-488.09068606767,-412.80858993812
0.374371590544443,528,529,40.4128930208732,886.23651940755,-473.42792946943,-412.80858993812
0.376510856776126,530,533,50.1880640863668,871.573762809309,-473.42792946943,-398.14583333988
0.378650123007808,534,534,35.5253074881263,859.354798977442,-456.321380104816,-403.033418872626
0.380789389239491,531,533,45.3004785536199,869.129970042936,-468.540343936683,-400.589626106253
0.382928655471173,531,528,20.8625508898858,881.348933874803,-456.321380104816,-425.027553769987
0.385067921702856,526,526,35.5253074881264,898.455483239417,-475.871722235803,-422.583761003614
0.387207187934538,523,523,35.5253074881264,913.118239837657,-483.203100534923,-429.915139302734
0.389346454166221,519,522,50.1880640863668,925.337203669524,-500.309649899537,-425.027553769987
0.391485720397904,520,524,55.0756496191136,918.005825370404,-500.309649899537,-417.696175470867
0.393624986629586,516,525,79.5135772828477,925.337203669524,-522.303784796898,-403.033418872626
0.395764252861269,519,526,69.7384062173541,915.56203260403,-510.084820965031,-405.477211639
0.397903519092951,518,525,69.7384062173541,920.449618136777,-512.528613731404,-407.921004405373
0.400042785324634,515,521,64.8508206846071,937.556167501391,-517.416199264151,-420.13996823724
0.402182051556316,514,515,40.4128930208732,954.662716866005,-507.641028198657,-447.021688667348
0.404321317787999,511,512,40.4128930208732,969.325473464246,-514.972406497778,-454.353066966468
0.406460584019681,509,514,59.9632351518604,969.325473464246,-529.635163096018,-439.690310368227
0.408599850251364,504,513,79.5135772828477,983.988230062486,-551.629297993379,-432.358932069107
0.410739116483046,503,512,79.5135772828478,988.875815595233,-554.073090759752,-434.802724835481
0.412878382714729,500,513,99.0639194138349,993.76340112798,-571.179640124366,-422.583761003614
0.415017648946411,497,513,113.726676012075,1001.0947794271,-585.842396722607,-415.252382704493
0.417156915178094,494,506,94.1763338810881,1025.53270709083,-583.398603956233,-442.134103134601
0.419296181409776,494,502,74.6259917501008,1035.30787815633,-573.623432890739,-461.684445265588
0.421435447641459,491,501,84.4011628155945,1045.08304922182,-585.842396722607,-459.240652499215
0.423574713873141,489,500,89.2887483483413,1052.41442752094,-593.173775021727,-459.240652499215
0.425713980104824,490,498,74.625991750101,1054.85822028731,-583.398603956233,-471.459616331082
0.427853246336507,489,499,84.4011628155945,1054.85822028731,-590.729982255353,-464.128238031962
0.429992512568189,488,502,103.951504946582,1049.97063475457,-602.948946087221,-447.021688667348
0.432131778799872,488,497,79.5135772828478,1062.18959858644,-590.729982255353,-471.459616331082
0.434271045031554,487,498,89.2887483483413,1062.18959858644,-598.061360554474,-464.128238031962
0.436410311263237,483,494,89.2887483483412,1081.73994071742,-607.836531619967,-473.903409097455
0.438549577494919,485,492,69.7384062173539,1081.73994071742,-593.173775021727,-488.566165695696
0.440688843726602,486,489,50.1880640863669,1086.62752625017,-580.95481118986,-505.672715060309
0.442828109958284,485,494,79.5135772828476,1076.85235518468,-598.061360554473,-478.790994630202
0.444967376189967,486,494,74.6259917501009,1074.4085624183,-593.173775021727,-481.234787396575
0.447106642421649,489,495,64.8508206846072,1064.63339135281,-580.95481118986,-483.678580162949
0.449245908653332,489,496,69.7384062173539,1062.18959858644,-583.398603956233,-478.790994630202
0.451385174885014,488,496,74.6259917501009,1064.63339135281,-588.28618948898,-476.347201863829
0.453524441116697,486,492,64.8508206846072,1079.29614795105,-588.28618948898,-491.009958462069
0.45566370734838,491,490,30.6377219553794,1071.96476965193,-558.960676292499,-513.00409335943
0.457802973580062,494,490,15.9749653571389,1064.63339135281,-544.297919694258,-520.33547165855
0.459942239811745,495,494,30.6377219553794,1052.41442752094,-549.185505227005,-503.228922293936
0.462081506043427,493,493,35.5253074881264,1059.74580582006,-556.516883526126,-503.228922293936
0.46422077227511,490,495,59.9632351518605,1062.18959858644,-576.067225657113,-486.122372929322
0.466360038506792,488,497,79.5135772828478,1062.18959858644,-590.729982255353,-471.459616331082
0.468499304738475,485,496,89.2887483483412,1071.96476965193,-602.94894608722,-469.015823564709
0.470638570970157,484,489,59.9632351518605,1091.51511178292,-590.729982255353,-500.785129527563
0.47277783720184,483,488,59.9632351518603,1096.40269731566,-593.173775021727,-503.228922293936
0.474917103433522,483,485,45.30047855362,1103.73407561478,-585.842396722607,-517.891678892177
0.477056369665205,485,487,45.30047855362,1093.95890454929,-580.95481118986,-513.00409335943
0.479195635896887,489,488,30.6377219553794,1081.73994071742,-563.848261825246,-517.891678892177
0.48133490212857,490,493,50.1880640863669,1067.07718411918,-571.179640124366,-495.897543994816
0.483474168360252,491,496,59.9632351518603,1057.30201305369,-573.623432890739,-483.678580162949
0.485613434591935,493,496,50.1880640863667,1052.41442752094,-563.848261825246,-488.566165695696
0.487752700823617,495,493,25.7501364226327,1054.85822028731,-546.741712460632,-508.116507826683
0.4898919670553,495,492,20.8625508898858,1057.30201305369,-544.297919694259,-513.00409335943
0.492031233286983,491,488,20.8625508898858,1076.85235518468,-554.073090759752,-522.779264424923
0.494170499518665,493,492,30.6377219553794,1062.18959858644,-554.073090759752,-508.116507826683
0.496309765750348,492,493,40.4128930208731,1062.18959858644,-561.404469058872,-500.785129527563
0.49844903198203,494,496,45.3004785536198,1049.97063475457,-558.960676292499,-491.009958462069
0.500588298213713,496,497,40.4128930208731,1042.63925645545,-551.629297993379,-491.009958462069
0.502727564445395,497,501,55.0756496191136,1030.42029262358,-556.516883526126,-473.903409097455
0.504866830677078,497,499,45.30047855362,1035.30787815633,-551.629297993379,-483.678580162949
0.50700609690876,497,495,25.7501364226327,1045.08304922182,-541.854126927885,-503.228922293936
0.509145363140443,500,494,6.19979429164528,1040.19546368907,-524.747577563271,-515.447886125803
0.511284629372125,498,496,25.7501364226325,1040.19546368907,-539.410334161512,-500.785129527563
0.513423895603808,497,496,30.6377219553794,1042.63925645545,-544.297919694259,-498.341336761189
0.51556316183549,496,497,40.4128930208731,1042.63925645545,-551.629297993379,-491.009958462069
0.517702428067173,498,500,45.3004785536199,1030.42029262358,-549.185505227005,-481.234787396575
0.519841694298856,498,503,59.9632351518603,1023.08891432446,-556.516883526126,-466.572030798335
0.521980960530538,496,498,45.3004785536199,1040.19546368907,-554.073090759752,-486.122372929322
0.524120226762221,491,495,55.0756496191136,1059.74580582006,-571.179640124366,-488.566165695696
0.526259492993903,487,492,59.9632351518603,1076.85235518468,-583.398603956233,-493.453751228443
0.528398759225586,486,490,55.0756496191136,1084.1837334838,-583.398603956233,-500.785129527563
0.530538025457268,489,489,35.5253074881264,1079.29614795105,-566.292054591619,-513.00409335943
0.532677291688951,492,494,45.3004785536198,1059.74580582006,-563.848261825246,-495.897543994816
0.534816557920633,495,498,50.1880640863668,1042.63925645545,-558.960676292499,-483.678580162949
0.536955824152316,499,498,30.6377219553796,1032.86408538995,-539.410334161512,-493.453751228442
0.539095090383998,503,501,25.7501364226327,1015.75753602534,-527.191370329645,-488.566165695696
0.541234356615681,504,503,30.6377219553794,1008.42615772622,-527.191370329645,-481.234787396575
0.543373622847363,504,499,11.0873798243922,1018.20132879171,-517.416199264151,-500.785129527563
0.545512889079046,504,498,6.19979429164539,1020.64512155809,-514.972406497778,-505.67271506031
0.547652155310728,504,499,11.0873798243922,1018.20132879171,-517.416199264151,-500.785129527563
0.549791421542411,499,501,45.30047855362,1025.53270709083,-546.741712460632,-478.790994630202
0.551930687774093,501,500,30.6377219553796,1023.08891432446,-534.522748628765,-488.566165695696
0.554069954005776,498,503,59.9632351518603,1023.08891432446,-556.516883526126,-466.572030798335
0.556209220237459,498,505,69.7384062173539,1018.20132879171,-561.404469058872,-456.796859732841
0.558348486469141,496,500,55.0756496191135,1035.30787815633,-558.960676292499,-476.347201863829
0.560487752700824,495,497,45.30047855362,1045.08304922182,-556.516883526126,-488.566165695696
0.562627018932506,497,496,30.6377219553794,1042.63925645545,-544.297919694259,-498.341336761189
0.564766285164189,497,497,35.5253074881264,1040.19546368907,-546.741712460632,-493.453751228442
0.566905551395871,496,497,40.4128930208731,1042.63925645545,-551.629297993379,-491.009958462069
0.569044817627554,499,499,35.5253074881264,1030.42029262358,-541.854126927885,-488.566165695696
0.571184083859236,499,504,59.9632351518604,1018.20132879171,-554.073090759752,-464.128238031962
0.573323350090919,500,506,64.8508206846072,1010.86995049259,-554.073090759752,-456.796859732841
0.575462616322601,503,504,40.4128930208732,1008.42615772622,-534.522748628765,-473.903409097455
0.577601882554284,503,502,30.6377219553796,1013.31374325897,-529.635163096018,-483.678580162949
0.579741148785966,504,502,25.7501364226326,1010.86995049259,-524.747577563271,-486.122372929322
0.581880415017649,505,501,15.974965357139,1010.86995049259,-517.416199264151,-493.453751228443
0.584019681249331,505,500,11.0873798243922,1013.31374325897,-514.972406497778,-498.341336761189
0.586158947481014,503,505,45.30047855362,1005.98236495985,-536.966541395138,-469.015823564708
0.588298213712697,499,504,59.9632351518604,1018.20132879171,-554.073090759752,-464.128238031962
0.590437479944379,497,504,69.7384062173541,1023.08891432446,-563.848261825246,-459.240652499215
0.592576746176062,496,502,64.8508206846071,1030.42029262358,-563.848261825246,-466.572030798335
0.594716012407744,494,502,74.6259917501008,1035.30787815633,-573.623432890739,-461.684445265588
0.596855278639427,494,497,50.1880640863667,1047.52684198819,-561.404469058872,-486.122372929322
0.598994544871109,496,495,30.6377219553794,1047.52684198819,-546.741712460632,-500.785129527563
0.601133811102792,501,498,20.8625508898859,1027.97649985721,-529.635163096018,-498.341336761189
0.603273077334474,502,498,15.974965357139,1025.53270709083,-524.747577563271,-500.785129527563
0.605412343566157,506,503,20.8625508898858,1003.53857219347,-517.416199264151,-486.122372929322
0.607551609797839,510,506,15.9749653571391,986.432022828859,-505.197235432284,-481.234787396575
0.609690876029522,510,510,35.5253074881264,976.656851763366,-514.972406497778,-461.684445265588
0.611830142261204,510,507,20.8625508898859,983.988230062486,-507.641028198657,-476.347201863829
0.613969408492887,507,505,25.7501364226326,996.207193894353,-517.416199264151,-478.790994630202
0.61610867472457,504,504,35.5253074881263,1005.98236495985,-529.635163096018,-476.347201863829
0.618247940956252,503,501,25.7501364226327,1015.75753602534,-527.191370329645,-488.566165695696
0.620387207187935,501,501,35.5253074881264,1020.64512155809,-536.966541395138,-483.678580162949
0.622526473419617,503,503,35.5253074881264,1010.86995049259,-532.078955862392,-478.790994630202
0.6246657396513,503,507,55.0756496191137,1001.0947794271,-541.854126927885,-459.240652499215
0.626805005882982,500,506,64.8508206846072,1010.86995049259,-554.073090759752,-456.796859732841
0.628944272114665,503,505,45.30047855362,1005.98236495985,-536.966541395138,-469.015823564708
0.631083538346347,502,504,45.3004785536199,1010.86995049259,-539.410334161512,-471.459616331082
0.63322280457803,504,503,30.6377219553794,1008.42615772622,-527.191370329645,-481.234787396575
0.635362070809712,501,499,25.7501364226327,1025.53270709083,-532.078955862392,-493.453751228442
0.637501337041395,499,500,40.4128930208732,1027.97649985721,-544.297919694259,-483.678580162949
0.639640603273077,500,501,40.4128930208731,1023.08891432446,-541.854126927885,-481.234787396575
0.64177986950476,501,504,50.1880640863668,1013.31374325897,-544.297919694259,-469.015823564708
0.643919135736442,503,505,45.30047855362,1005.98236495985,-536.966541395138,-469.015823564708
0.646058401968125,506,507,40.4128930208732,993.76340112798,-527.191370329645,-466.572030798335
0.648197668199808,507,506,30.6377219553796,993.76340112798,-519.859992030524,-473.903409097455
0.65033693443149,507,504,20.8625508898858,998.650986660727,-514.972406497778,-483.678580162949
0.652476200663173,510,504,6.19979429164539,991.319608361606,-500.309649899537,-491.009958462069
0.654615466894855,511,505,6.19979429164539,986.43202282886,-497.865857133164,-488.566165695696
0.656754733126538,513,506,1.31220875889869,979.100644529739,-490.534478834044,-488.566165695696
0.65889399935822,513,508,11.0873798243923,974.213058996992,-495.42206436679,-478.790994630202
0.661033265589903,513,511,25.7501364226327,966.881680697872,-502.753442665911,-464.128238031962
0.663172531821585,515,514,30.6377219553794,954.662716866005,-500.309649899537,-454.353066966468
0.665311798053268,515,512,20.8625508898858,959.550302398752,-495.42206436679,-464.128238031962
0.66745106428495,515,512,20.8625508898858,959.550302398752,-495.42206436679,-464.128238031962
0.669590330516633,520,511,-8.46296230659505,949.775131333258,-468.540343936683,-481.234787396575
0.671729596748315,519,510,-8.46296230659505,954.662716866005,-470.984136703056,-483.678580162949
0.673868862979998,517,511,6.19979429164539,957.106509632378,-483.203100534923,-473.903409097455
0.67600812921168,514,514,35.5253074881264,957.106509632379,-505.197235432284,-451.909274200095
0.678147395443363,511,514,50.1880640863668,964.437887931499,-519.859992030524,-444.577895900974
0.680286661675045,512,514,45.30047855362,961.994095165125,-514.972406497778,-447.021688667348
0.682425927906728,510,514,55.0756496191136,966.881680697872,-524.747577563271,-442.134103134601
0.684565194138411,512,511,30.6377219553796,969.325473464246,-507.641028198657,-461.684445265588
0.686704460370093,513,510,20.8625508898859,969.325473464246,-500.309649899537,-469.015823564708
0.688843726601776,512,509,20.8625508898859,974.213058996992,-502.753442665911,-471.459616331082
0.690982992833458,517,512,11.0873798243922,954.662716866005,-485.646893301297,-469.015823564708
0.693122259065141,521,517,15.974965357139,932.668581968645,-478.315515002176,-454.353066966468
0.695261525296823,525,519,6.19979429164539,918.005825370404,-463.652758403936,-454.353066966468
0.697400791528506,525,521,15.974965357139,913.118239837657,-468.540343936683,-444.577895900974
0.699540057760188,525,524,30.6377219553796,905.786861538537,-475.871722235803,-429.915139302734
0.701679323991871,526,523,20.8625508898859,905.786861538537,-468.540343936683,-437.246517601854
0.703818590223553,523,518,11.0873798243922,925.337203669524,-470.984136703056,-454.353066966468
0.705957856455236,520,516,15.974965357139,937.556167501391,-480.75930776855,-456.796859732841
0.708097122686918,518,515,20.8625508898858,944.887545800511,-488.09068606767,-456.796859732841
0.710236388918601,513,515,45.30047855362,957.106509632379,-512.528613731404,-444.577895900974
0.712375655150283,510,517,69.7384062173541,959.550302398752,-532.078955862391,-427.47134653636
0.714514921381966,508,516,74.6259917501009,966.881680697872,-539.410334161512,-427.47134653636
0.716654187613649,507,513,64.8508206846072,976.656851763366,-536.966541395138,-439.690310368227
0.718793453845331,506,512,64.8508206846072,981.544437296113,-539.410334161512,-442.134103134601
0.720932720077014,507,510,50.1880640863668,983.988230062486,-529.635163096018,-454.353066966468
0.723071986308696,505,507,45.30047855362,996.207193894353,-532.078955862391,-464.128238031962
0.725211252540379,507,506,30.6377219553796,993.76340112798,-519.859992030524,-473.903409097455
0.727350518772061,507,506,30.6377219553796,993.76340112798,-519.859992030524,-473.903409097455
0.729489785003744,506,511,59.9632351518604,983.988230062486,-536.966541395138,-447.021688667348
0.731629051235426,506,511,59.9632351518604,983.988230062486,-536.966541395138,-447.021688667348
0.733768317467109,505,510,59.9632351518604,988.875815595233,-539.410334161512,-449.465481433721
0.735907583698791,503,508,59.9632351518605,998.650986660727,-544.297919694259,-454.353066966468
0.738046849930474,499,508,79.5135772828478,1008.42615772622,-563.848261825246,-444.577895900974
0.740186116162156,499,501,45.30047855362,1025.53270709083,-546.741712460632,-478.790994630202
0.742325382393839,497,500,50.1880640863668,1032.86408538995,-554.073090759752,-478.790994630202
0.744464648625521,494,500,64.8508206846071,1040.19546368907,-568.735847357992,-471.459616331082
0.746603914857204,491,501,84.4011628155945,1045.08304922182,-585.842396722607,-459.240652499215
0.748743181088886,491,500,79.5135772828477,1047.52684198819,-583.398603956233,-464.128238031962
0.750882447320569,490,499,79.5135772828478,1052.41442752094,-585.842396722607,-466.572030798335
0.753021713552252,493,501,74.6259917501009,1040.19546368907,-576.067225657113,-464.128238031962
0.755160979783934,493,497,55.0756496191136,1049.97063475457,-566.292054591619,-483.678580162949
0.757300246015617,493,496,50.1880640863667,1052.41442752094,-563.848261825246,-488.566165695696
0.759439512247299,497,496,30.6377219553794,1042.63925645545,-544.297919694259,-498.341336761189
0.761578778478982,501,496,11.0873798243922,1032.86408538995,-524.747577563271,-508.116507826683
0.763718044710664,501,499,25.7501364226327,1025.53270709083,-532.078955862392,-493.453751228442
0.765857310942347,500,502,45.3004785536199,1020.64512155809,-544.297919694259,-476.347201863829
0.767996577174029,498,503,59.9632351518603,1023.08891432446,-556.516883526126,-466.572030798335
0.770135843405712,497,501,55.0756496191136,1030.42029262358,-556.516883526126,-473.903409097455
0.772275109637394,496,501,59.9632351518603,1032.86408538995,-561.404469058872,-471.459616331082
0.774414375869077,500,499,30.6377219553794,1027.97649985721,-536.966541395138,-491.009958462069
0.77655364210076,501,498,20.8625508898859,1027.97649985721,-529.635163096018,-498.341336761189
0.778692908332442,500,496,15.9749653571389,1035.30787815633,-529.635163096018,-505.67271506031
0.780832174564125,501,500,30.6377219553796,1023.08891432446,-534.522748628765,-488.566165695696
0.782971440795807,499,503,55.0756496191136,1020.64512155809,-551.629297993379,-469.015823564708
0.78511070702749,496,501,59.9632351518603,1032.86408538995,-561.404469058872,-471.459616331082
0.787249973259172,494,501,69.7384062173539,1037.7516709227,-571.179640124366,-466.572030798335
0.789389239490855,492,501,79.5135772828476,1042.63925645545,-580.95481118986,-461.684445265588
0.791528505722537,493,498,59.9632351518604,1047.52684198819,-568.735847357993,-478.790994630202
0.79366777195422,493,493,35.5253074881264,1059.74580582006,-556.516883526126,-503.228922293936
0.795807038185902,495,495,35.5253074881264,1049.97063475457,-551.629297993379,-498.341336761189
0.797946304417585,502,498,15.974965357139,1025.53270709083,-524.747577563271,-500.785129527563
0.800085570649267,508,502,6.19979429164539,1001.0947794271,-505.197235432284,-495.897543994816
0.80222483688095,521,508,-28.0133044375823,954.662716866005,-456.321380104816,-498.341336761189
0.804364103112632,542,522,-62.22640316681,869.129970042936,-387.89518264636,-481.234787396575
0.806503369344315,566,534,-120.877429559772,781.153430453493,-299.918643056918,-481.234787396575
0.808642635575997,590,543,-194.191212550975,700.50826916317,-204.610725168354,-495.897543994816
0.81078190180768,615,557,-247.95465341119,605.200351274607,-116.634185578912,-488.566165695696
0.812921168039363,644,575,-301.718094271405,490.342091255057,-18.8824749239751,-471.459616331082
0.815060434271045,667,589,-345.706364066126,399.921758899241,59.3188935999738,-459.240652499214
0.817199700502728,681,603,-345.706364066126,331.495561440785,93.5319923292015,-425.027553769987
0.81933896673441,678,614,-277.28016660767,311.945219309798,51.9875153008535,-363.932734610652
0.821478232966093,667,617,-208.853969149215,331.495561440785,-9.10730385848169,-322.388257582304
0.823617499197775,647,612,-135.540186158012,392.590380600121,-94.640050681551,-297.95032991857
0.825756765429458,623,605,-52.4512321013164,468.347956357696,-194.835554102861,-273.512402254835
0.82789603166114,598,591,1.31220875889858,563.655874246259,-282.812093692304,-280.843780553956
0.830035297892823,571,579,74.6259917501013,658.963792134822,-385.451389879987,-273.512402254835
0.832174564124505,546,567,138.16460367581,749.384124490639,-478.315515002177,-271.068609488462
0.834313830356188,527,559,191.928044536025,815.366529182721,-551.629297993379,-263.737231189342
0.83645309658787,515,550,206.590801134265,866.686177276562,-588.28618948898,-278.399987787583
0.838592362819553,510,546,211.478386667012,888.680312173923,-602.94894608722,-285.731366086703
0.840731629051235,511,542,187.040459003278,896.011690473043,-588.28618948898,-307.725500984063
0.842870895282918,514,542,172.377702405037,888.680312173923,-573.62343289074,-315.056879283184
0.845010161514601,520,536,113.726676012075,888.680312173923,-529.635163096018,-359.045149077905
0.847149427746283,523,534,89.2887483483413,886.23651940755,-510.084820965031,-376.151698442519
0.849288693977966,523,532,79.5135772828477,891.124104940297,-505.197235432284,-385.926869508012
0.851427960209648,521,532,89.2887483483413,896.011690473043,-514.972406497778,-381.039283975266
0.853567226441331,518,528,84.4011628155945,913.118239837657,-519.859992030524,-393.258247807133
0.855706492673013,515,531,113.726676012075,913.118239837657,-541.854126927885,-371.264112909772
0.857845758904696,511,526,108.839090479329,935.112374735018,-549.185505227005,-385.926869508012
0.859985025136378,506,524,123.501847077569,952.218924099632,-568.735847357993,-383.483076741639
0.862124291368061,500,517,118.614261544822,983.988230062486,-580.95481118986,-403.033418872626
0.864263557599743,495,512,118.614261544822,1008.42615772622,-593.173775021727,-415.252382704493
0.866402823831426,489,508,128.389432610316,1032.86408538995,-612.724117152714,-420.13996823724
0.868542090063108,488,503,108.839090479329,1047.52684198819,-605.392738853594,-442.134103134601
0.870681356294791,490,505,108.839090479329,1037.7516709227,-600.505153320847,-437.246517601854
0.872820622526473,492,507,108.839090479329,1027.97649985721,-595.6175677881,-432.358932069107
0.874959888758156,493,507,103.951504946582,1025.53270709083,-590.729982255353,-434.802724835481
0.877099154989838,496,508,94.1763338810881,1015.75753602534,-578.511018423486,-437.246517601854
0.879238421221521,497,507,84.4011628155946,1015.75753602534,-571.179640124366,-444.577895900974
0.881377687453204,500,504,55.0756496191135,1015.75753602534,-549.185505227005,-466.572030798335
0.883516953684886,496,498,45.3004785536199,1040.19546368907,-554.073090759752,-486.122372929322
0.885656219916569,494,498,55.0756496191135,1045.08304922182,-563.848261825246,-481.234787396575
0.887795486148251,489,500,89.2887483483413,1052.41442752094,-593.173775021727,-459.240652499215
0.889934752379934,488,499,89.2887483483414,1057.30201305369,-595.6175677881,-461.684445265588
0.892074018611616,486,496,84.4011628155945,1069.52097688556,-598.061360554474,-471.459616331082
0.894213284843299,487,499,94.1763338810881,1059.74580582006,-600.505153320847,-459.240652499215
0.896352551074981,489,500,89.2887483483413,1052.41442752094,-593.173775021727,-459.240652499215
0.898491817306664,494,495,40.4128930208731,1052.41442752094,-556.516883526126,-495.897543994816
0.900631083538346,496,496,35.5253074881261,1045.08304922182,-549.185505227005,-495.897543994816
0.902770349770029,497,496,30.6377219553794,1042.63925645545,-544.297919694259,-498.341336761189
0.904909616001711,496,496,35.5253074881261,1045.08304922182,-549.185505227005,-495.897543994816
0.907048882233394,496,495,30.6377219553794,1047.52684198819,-546.741712460632,-500.785129527563
0.909188148465076,496,499,50.1880640863667,1037.7516709227,-556.516883526126,-481.234787396575
0.911327414696759,496,501,59.9632351518603,1032.86408538995,-561.404469058872,-471.459616331082
0.913466680928442,495,496,40.4128930208731,1047.52684198819,-554.073090759752,-493.453751228443
0.915605947160124,491,496,59.9632351518603,1057.30201305369,-573.623432890739,-483.678580162949
0.917745213391807,491,493,45.30047855362,1064.63339135281,-566.292054591619,-498.341336761189
0.919884479623489,492,491,30.6377219553794,1067.07718411918,-556.516883526126,-510.560300593056
0.922023745855172,493,492,30.6377219553794,1062.18959858644,-554.073090759752,-508.116507826683
0.924163012086854,496,493,20.8625508898858,1052.41442752094,-541.854126927885,-510.560300593056
0.926302278318537,501,498,20.8625508898859,1027.97649985721,-529.635163096018,-498.341336761189
0.928441544550219,504,501,20.8625508898858,1013.31374325897,-522.303784796898,-491.009958462069
0.930580810781902,507,502,11.0873798243922,1003.53857219347,-510.084820965031,-493.453751228443
0.932720077013584,506,504,25.7501364226326,1001.0947794271,-519.859992030524,-481.234787396575
0.934859343245267,507,501,6.19979429164539,1005.98236495985,-507.641028198657,-498.341336761189
0.936998609476949,507,499,-3.57537677384823,1010.86995049259,-502.753442665911,-508.116507826683
0.939137875708632,504,501,20.8625508898858,1013.31374325897,-522.303784796898,-491.009958462069
0.941277141940315,506,501,11.0873798243922,1008.42615772622,-512.528613731404,-495.897543994816
0.943416408171997,501,501,35.5253074881264,1020.64512155809,-536.966541395138,-483.678580162949
0.94555567440368,500,501,40.4128930208731,1023.08891432446,-541.854126927885,-481.234787396575
0.947694940635362,497,504,69.7384062173541,1023.08891432446,-563.848261825246,-459.240652499215
0.949834206867045,499,503,55.0756496191136,1020.64512155809,-551.629297993379,-469.015823564708
0.951973473098727,500,499,30.6377219553794,1027.97649985721,-536.966541395138,-491.009958462069
0.95411273933041,502,499,20.8625508898858,1023.08891432446,-527.191370329645,-495.897543994816
0.956252005562092,506,503,20.8625508898858,1003.53857219347,-517.416199264151,-486.122372929322
0.958391271793775,512,502,-13.3505478393419,991.319608361606,-485.646893301297,-505.67271506031
0.960530538025457,514,505,-8.46296230659505,979.100644529739,-483.203100534923,-495.897543994816
0.96266980425714,514,510,15.9749653571391,966.881680697872,-495.42206436679,-471.459616331082
0.964809070488822,514,512,25.7501364226327,961.994095165125,-500.309649899537,-461.684445265588
0.966948336720505,512,510,25.7501364226327,971.769266230619,-505.197235432284,-466.572030798335
0.969087602952187,513,509,15.9749653571391,971.769266230619,-497.865857133164,-473.903409097455
0.97122686918387,513,508,11.0873798243923,974.213058996992,-495.42206436679,-478.790994630202
0.973366135415553,511,503,-3.57537677384823,991.319608361606,-492.978271600417,-498.341336761189
0.975505401647235,513,507,6.1997942916455,976.656851763366,-492.978271600417,-483.678580162949
0.977644667878918,511,509,25.7501364226327,976.656851763366,-507.641028198657,-469.015823564708
0.9797839341106,510,508,25.7501364226327,981.544437296113,-510.084820965031,-471.459616331082
0.981923200342283,511,510,30.6377219553796,974.213058996992,-510.084820965031,-464.128238031962
0.984062466573965,514,513,30.6377219553796,959.550302398752,-502.753442665911,-456.796859732841
0.986201732805648,517,514,20.8625508898858,949.775131333258,-490.534478834044,-459.240652499215
0.98834099903733,519,512,1.31220875889858,949.775131333258,-475.871722235803,-473.903409097455
0.990480265269013,518,510,-3.57537677384823,957.106509632378,-475.871722235803,-481.234787396575
0.992619531500695,516,512,15.974965357139,957.106509632378,-490.534478834044,-466.572030798335
0.994758797732378,516,511,11.0873798243922,959.550302398752,-488.09068606767,-471.459616331082
0.99689806396406,517,514,20.8625508898858,949.775131333258,-490.534478834044,-459.240652499215
0.999037330195743,520,517,20.8625508898858,935.112374735018,-483.203100534923,-451.909274200095
1.00117659642743,522,520,25.7501364226326,922.893410903151,-480.75930776855,-442.134103134601
1.00331586265911,525,519,6.19979429164539,918.005825370404,-463.652758403936,-454.353066966468
1.00545512889079,526,518,-3.57537677384823,918.005825370404,-456.321380104816,-461.684445265588
1.00759439512247,523,517,6.19979429164539,927.780996435898,-468.540343936683,-459.240652499215
1.00973366135416,525,516,-8.46296230659505,925.337203669524,-456.321380104816,-469.015823564708
1.01187292758584,524,515,-8.46296230659505,930.224789202271,-458.765172871189,-471.459616331082
1.01401219381752,527,519,-3.57537677384823,913.118239837657,-453.877587338442,-459.240652499215
1.0161514600492,527,524,20.8625508898859,900.89927600579,-466.09655117031,-434.802724835481
1.01829072628089,532,524,-3.57537677384823,888.680312173923,-441.658623506575,-447.021688667348
1.02042999251257,533,526,1.31220875889858,881.348933874803,-441.658623506575,-439.690310368227
1.02256925874425,533,528,11.0873798243922,876.461348342056,-446.546209039322,-429.915139302734
1.02470852497593,533,525,-3.57537677384823,883.792726641176,-439.214830740202,-444.577895900974
1.02684779120762,530,522,-3.57537677384812,898.455483239417,-446.546209039322,-451.909274200094
1.0289870574393,532,521,-18.2381333720888,896.011690473043,-434.327245207455,-461.684445265588
1.03112632367098,532,524,-3.57537677384823,888.680312173923,-441.658623506575,-447.021688667348
1.03326558990266,535,527,-3.57537677384823,874.017555575683,-434.327245207455,-439.690310368227
1.03540485613435,533,530,20.8625508898858,871.573762809309,-451.433794572069,-420.13996823724
1.03754412236603,535,532,20.8625508898858,861.798591743816,-446.546209039322,-415.252382704493
1.03968338859771,537,531,6.19979429164539,859.354798977442,-434.327245207455,-425.027553769987
1.04182265482939,540,529,-18.2381333720887,856.911006211069,-414.776903076468,-442.134103134601
1.04396192106108,539,527,-23.1257189048355,864.242384510189,-414.776903076468,-449.465481433721
1.04610118729276,539,528,-18.2381333720887,861.798591743816,-417.220695842841,-444.577895900974
1.04824045352444,537,529,-3.57537677384823,864.242384510189,-429.439659674708,-434.802724835481
1.05037971975612,537,531,6.19979429164539,859.354798977442,-434.327245207455,-425.027553769987
1.05251898598781,537,534,20.8625508898858,852.023420678322,-441.658623506575,-410.364797171747
1.05465825221949,535,534,30.6377219553794,856.911006211069,-451.433794572069,-405.477211639
1.05679751845117,532,531,30.6377219553794,871.573762809309,-458.765172871189,-412.80858993812
1.05893678468285,530,531,40.4128930208732,876.461348342056,-468.540343936683,-407.921004405373
1.06107605091454,531,527,15.974965357139,883.792726641176,-453.877587338442,-429.915139302734
1.06321531714622,527,522,11.0873798243923,905.786861538537,-461.208965637563,-444.577895900974
1.0653545833779,526,522,15.9749653571391,908.23065430491,-466.09655117031,-442.134103134601
1.06749384960958,524,523,30.6377219553796,910.674447071284,-478.315515002177,-432.358932069107
1.06963311584127,523,526,50.1880640863668,905.786861538537,-490.534478834044,-415.252382704493
1.07177238207295,522,526,55.0756496191136,908.23065430491,-495.42206436679,-412.80858993812
1.07391164830463,525,527,45.30047855362,898.455483239417,-483.203100534923,-415.252382704493
1.07605091453631,527,527,35.5253074881264,893.56789770667,-473.42792946943,-420.13996823724
1.078190180768,527,522,11.0873798243923,905.786861538537,-461.208965637563,-444.577895900974
1.08032944699968,524,518,6.19979429164539,922.893410903151,-466.096551170309,-456.796859732841
1.08246871323136,517,518,40.4128930208731,939.999960267765,-500.309649899537,-439.690310368228
1.08460797946304,510,516,64.8508206846072,961.994095165125,-529.635163096018,-432.358932069107
1.08674724569473,506,514,74.6259917501009,976.656851763366,-544.297919694259,-432.358932069107
1.08888651192641,502,514,94.1763338810881,986.432022828859,-563.848261825246,-422.583761003614
1.09102577815809,499,515,113.726676012075,991.319608361606,-580.95481118986,-410.364797171747
1.09316504438977,499,511,94.1763338810882,1001.0947794271,-571.179640124366,-429.915139302734
1.09530431062146,497,506,79.5135772828478,1018.20132879171,-568.735847357993,-449.465481433721
1.09744357685314,496,503,69.7384062173539,1027.97649985721,-566.292054591619,-461.684445265588
1.09958284308482,496,502,64.8508206846071,1030.42029262358,-563.848261825246,-466.572030798335
1.1017221093165,493,500,69.7384062173541,1042.63925645545,-573.623432890739,-469.015823564708
1.10386137554819,492,503,89.2887483483412,1037.7516709227,-585.842396722606,-451.909274200095
1.10600064177987,491,505,103.951504946582,1035.30787815633,-595.6175677881,-439.690310368228
1.10813990801155,493,504,89.2887483483413,1032.86408538995,-583.398603956233,-449.465481433721
1.11027917424323,493,503,84.4011628155945,1035.30787815633,-580.95481118986,-454.353066966468
1.11241844047492,492,504,94.176333881088,1035.30787815633,-588.28618948898,-447.021688667348
1.1145577067066,495,499,55.0756496191136,1040.19546368907,-561.404469058872,-478.790994630202
1.11669697293828,494,494,35.5253074881261,1054.85822028731,-554.073090759752,-500.785129527563
1.11883623916996,493,493,35.5253074881264,1059.74580582006,-556.516883526126,-503.228922293936
1.12097550540165,489,499,84.4011628155945,1054.85822028731,-590.729982255353,-464.128238031962
1.12311477163333,488,498,84.4011628155946,1059.74580582006,-593.173775021727,-466.572030798335
1.12525403786501,488,499,89.2887483483414,1057.30201305369,-595.6175677881,-461.684445265588
1.12739330409669,489,500,89.2887483483413,1052.41442752094,-593.173775021727,-459.240652499215
1.12953257032838,491,500,79.5135772828477,1047.52684198819,-583.398603956233,-464.128238031962
1.13167183656006,492,494,45.3004785536198,1059.74580582006,-563.848261825246,-495.897543994816
1.13381110279174,491,491,35.5253074881264,1069.52097688556,-561.404469058872,-508.116507826683
1.13595036902342,488,491,50.1880640863669,1076.85235518468,-576.067225657113,-500.785129527563
1.13808963525511,490,493,50.1880640863669,1067.07718411918,-571.179640124366,-495.897543994816
1.14022890148679,489,495,64.8508206846072,1064.63339135281,-580.95481118986,-483.678580162949
1.14236816771847,491,498,69.7384062173541,1052.41442752094,-578.511018423486,-473.903409097455
1.14450743395016,491,498,69.7384062173541,1052.41442752094,-578.511018423486,-473.903409097455
1.14664670018184,490,494,55.0756496191136,1064.63339135281,-573.62343289074,-491.009958462069
1.14878596641352,490,492,45.30047855362,1069.52097688556,-568.735847357993,-500.785129527563
1.1509252326452,491,491,35.5253074881264,1069.52097688556,-561.404469058872,-508.116507826683
1.15306449887689,491,488,20.8625508898858,1076.85235518468,-554.073090759752,-522.779264424923
1.15520376510857,489,491,45.30047855362,1074.4085624183,-571.179640124366,-503.228922293936
1.15734303134025,490,494,55.0756496191136,1064.63339135281,-573.62343289074,-491.009958462069
1.15948229757193,487,494,69.7384062173539,1071.96476965193,-588.28618948898,-483.678580162949
1.16162156380362,486,493,69.7384062173542,1076.85235518468,-590.729982255353,-486.122372929322
1.1637608300353,486,493,69.7384062173542,1076.85235518468,-590.729982255353,-486.122372929322
1.16590009626698,488,491,50.1880640863669,1076.85235518468,-576.067225657113,-500.785129527563
1.16803936249866,487,487,35.5253074881264,1089.07131901654,-571.179640124366,-517.891678892177
1.17017862873035,491,488,20.8625508898858,1076.85235518468,-554.073090759752,-522.779264424923
1.17231789496203,495,493,25.7501364226327,1054.85822028731,-546.741712460632,-508.116507826683
1.17445716119371,499,496,20.8625508898858,1037.7516709227,-534.522748628765,-503.228922293936
1.17659642742539,501,498,20.8625508898859,1027.97649985721,-529.635163096018,-498.341336761189
1.17873569365708,500,500,35.5253074881263,1025.53270709083,-539.410334161512,-486.122372929322
1.18087495988876,498,502,55.0756496191135,1025.53270709083,-554.073090759752,-471.459616331082
1.18301422612044,495,497,45.30047855362,1045.08304922182,-556.516883526126,-488.566165695696
1.18515349235212,494,491,20.8625508898858,1062.18959858644,-546.741712460632,-515.447886125803
1.18729275858381,490,491,40.4128930208733,1071.96476965193,-566.292054591619,-505.672715060309
1.18943202481549,488,490,45.30047855362,1079.29614795105,-573.62343289074,-505.67271506031
1.19157129104717,487,489,45.30047855362,1084.1837334838,-576.067225657113,-508.116507826683
1.19371055727885,490,492,45.30047855362,1069.52097688556,-568.735847357993,-500.785129527563
1.19584982351054,497,499,45.30047855362,1035.30787815633,-551.629297993379,-483.678580162949
1.19798908974222,498,501,50.1880640863667,1027.97649985721,-551.629297993379,-476.347201863829
1.2001283559739,500,499,30.6377219553794,1027.97649985721,-536.966541395138,-491.009958462069
1.20226762220558,502,496,6.19979429164528,1030.42029262358,-519.859992030524,-510.560300593056
1.20440688843727,499,495,15.9749653571391,1040.19546368907,-532.078955862392,-508.116507826683
1.20654615466895,500,494,6.19979429164528,1040.19546368907,-524.747577563271,-515.447886125803
1.20868542090063,497,497,35.5253074881264,1040.19546368907,-546.741712460632,-493.453751228442
1.21082468713231,497,498,40.4128930208732,1037.7516709227,-549.185505227005,-488.566165695696
1.212963953364,497,499,45.30047855362,1035.30787815633,-551.629297993379,-483.678580162949
1.21510321959568,494,499,59.9632351518603,1042.63925645545,-566.292054591619,-476.347201863829
1.21724248582736,497,504,69.7384062173541,1023.08891432446,-563.848261825246,-459.240652499215
1.21938175205904,497,499,45.30047855362,1035.30787815633,-551.629297993379,-483.678580162949
1.22152101829073,500,494,6.19979429164528,1040.19546368907,-524.747577563271,-515.447886125803
1.22366028452241,497,495,25.7501364226327,1045.08304922182,-541.854126927885,-503.228922293936
1.22579955075409,497,499,45.30047855362,1035.30787815633,-551.629297993379,-483.678580162949
1.22793881698577,498,499,40.4128930208731,1032.86408538995,-546.741712460632,-486.122372929322
1.23007808321746,501,502,40.4128930208732,1018.20132879171,-539.410334161512,-478.790994630202
1.23221734944914,502,506,55.0756496191136,1005.98236495985,-544.297919694259,-461.684445265588
1.23435661568082,504,508,55.0756496191136,996.207193894353,-539.410334161512,-456.796859732841
1.2364958819125,505,503,25.7501364226326,1005.98236495985,-522.303784796898,-483.678580162949
1.23863514814419,501,500,30.6377219553796,1023.08891432446,-534.522748628765,-488.566165695696
1.24077441437587,498,499,40.4128930208731,1032.86408538995,-546.741712460632,-486.122372929322
1.24291368060755,495,498,50.1880640863668,1042.63925645545,-558.960676292499,-483.678580162949
1.24505294683923,492,495,50.1880640863667,1057.30201305369,-566.292054591619,-491.009958462069
1.24719221307092,494,500,64.8508206846071,1040.19546368907,-568.735847357992,-471.459616331082
1.2493314793026,495,502,69.7384062173541,1032.86408538995,-568.735847357993,-464.128238031962
1.25147074553428,495,502,69.7384062173541,1032.86408538995,-568.735847357993,-464.128238031962
1.25361001176596,496,500,55.0756496191135,1035.30787815633,-558.960676292499,-476.347201863829
1.25574927799765,498,499,40.4128930208731,1032.86408538995,-546.741712460632,-486.122372929322
1.25788854422933,501,497,15.9749653571391,1030.42029262358,-527.191370329645,-503.228922293936
1.26002781046101,505,498,1.31220875889858,1018.20132879171,-510.084820965031,-508.116507826683
1.26216707669269,504,500,15.974965357139,1015.75753602534,-519.859992030524,-495.897543994816
1.26430634292438,507,503,15.974965357139,1001.0947794271,-512.528613731404,-488.566165695696
1.26644560915606,507,505,25.7501364226326,996.207193894353,-517.416199264151,-478.790994630202
1.26858487538774,506,504,25.7501364226326,1001.0947794271,-519.859992030524,-481.234787396575
1.27072414161942,504,506,45.30047855362,1001.0947794271,-534.522748628765,-466.572030798335
1.27286340785111,504,502,25.7501364226326,1010.86995049259,-524.747577563271,-486.122372929322
1.27500267408279,502,497,11.0873798243922,1027.97649985721,-522.303784796898,-505.67271506031
1.27714194031447,499,496,20.8625508898858,1037.7516709227,-534.522748628765,-503.228922293936
1.27928120654615,495,494,30.6377219553794,1052.41442752094,-549.185505227005,-503.228922293936
1.28142047277784,494,494,35.5253074881261,1054.85822028731,-554.073090759752,-500.785129527563
1.28355973900952,497,496,30.6377219553794,1042.63925645545,-544.297919694259,-498.341336761189
1.2856990052412,498,502,55.0756496191135,1025.53270709083,-554.073090759752,-471.459616331082
1.28783827147288,498,502,55.0756496191135,1025.53270709083,-554.073090759752,-471.459616331082
1.28997753770457,501,498,20.8625508898859,1027.97649985721,-529.635163096018,-498.341336761189
1.29211680393625,500,495,11.0873798243922,1037.7516709227,-527.191370329645,-510.560300593056
1.29425607016793,500,494,6.19979429164528,1040.19546368907,-524.747577563271,-515.447886125803
1.29639533639962,501,490,-18.2381333720887,1047.52684198819,-510.084820965031,-537.442021023164
1.2985346026313,504,494,-13.350547839342,1030.42029262358,-505.197235432284,-525.223057191297
1.30067386886298,505,500,11.0873798243922,1013.31374325897,-514.972406497778,-498.341336761189
1.30281313509466,503,502,30.6377219553796,1013.31374325897,-529.635163096018,-483.678580162949
1.30495240132635,502,501,30.6377219553794,1018.20132879171,-532.078955862391,-486.122372929322
1.30709166755803,501,499,25.7501364226327,1025.53270709083,-532.078955862392,-493.453751228442
1.30923093378971,501,497,15.9749653571391,1030.42029262358,-527.191370329645,-503.228922293936
1.31137020002139,502,494,-3.57537677384835,1035.30787815633,-514.972406497778,-520.33547165855
1.31350946625308,501,495,6.1997942916455,1035.30787815633,-522.303784796898,-513.00409335943
1.31564873248476,503,496,1.31220875889858,1027.97649985721,-514.972406497778,-513.00409335943
1.31778799871644,500,499,30.6377219553794,1027.97649985721,-536.966541395138,-491.009958462069
1.31992726494812,503,501,25.7501364226327,1015.75753602534,-527.191370329645,-488.566165695696
1.32206653117981,506,503,20.8625508898858,1003.53857219347,-517.416199264151,-486.122372929322
1.32420579741149,507,506,30.6377219553796,993.76340112798,-519.859992030524,-473.903409097455
1.32634506364317,508,501,1.31220875889858,1003.53857219347,-502.753442665911,-500.785129527563
1.32848432987485,505,502,20.8625508898858,1008.42615772622,-519.859992030524,-488.566165695696
1.33062359610654,506,502,15.974965357139,1005.98236495985,-514.972406497778,-491.009958462069
1.33276286233822,504,504,35.5253074881263,1005.98236495985,-529.635163096018,-476.347201863829
1.3349021285699,506,505,30.6377219553794,998.650986660727,-522.303784796898,-476.347201863829
1.33704139480158,505,511,64.8508206846072,986.432022828859,-541.854126927885,-444.577895900974
1.33918066103327,503,513,84.4011628155946,986.43202282886,-556.516883526126,-429.915139302734
1.34131992726495,503,513,84.4011628155946,986.43202282886,-556.516883526126,-429.915139302734
1.34345919349663,502,510,74.6259917501009,996.207193894353,-554.073090759752,-442.134103134601
1.34559845972831,501,509,74.625991750101,1001.0947794271,-556.516883526126,-444.577895900974
1.34773772596,505,511,64.8508206846072,986.432022828859,-541.854126927885,-444.577895900974
1.34987699219168,509,509,35.5253074881264,981.544437296113,-517.416199264151,-464.128238031962
1.35201625842336,510,513,50.1880640863668,969.325473464246,-522.303784796898,-447.021688667348
1.35415552465504,512,518,64.8508206846072,952.218924099632,-524.747577563271,-427.47134653636
1.35629479088673,511,519,74.6259917501009,952.218924099632,-532.078955862391,-420.13996823724
1.35843405711841,513,517,55.0756496191136,952.218924099632,-517.416199264151,-434.802724835481
1.36057332335009,515,520,59.9632351518603,939.999960267765,-514.972406497778,-425.027553769987
1.36271258958177,517,517,35.5253074881263,942.443753034138,-497.865857133164,-444.577895900974
1.36485185581346,514,513,30.6377219553796,959.550302398752,-502.753442665911,-456.796859732841
1.36699112204514,515,510,11.0873798243922,964.437887931499,-490.534478834044,-473.903409097455
1.36913038827682,514,513,30.6377219553796,959.550302398752,-502.753442665911,-456.796859732841
1.3712696545085,514,513,30.6377219553796,959.550302398752,-502.753442665911,-456.796859732841
1.37340892074019,513,515,45.30047855362,957.106509632379,-512.528613731404,-444.577895900974
1.37554818697187,517,517,35.5253074881263,942.443753034138,-497.865857133164,-444.577895900974
1.37768745320355,519,518,30.6377219553794,935.112374735018,-490.534478834044,-444.577895900974
1.37982671943523,523,515,-3.57537677384823,932.668581968645,-463.652758403936,-469.015823564708
1.38196598566692,528,516,-23.1257189048355,918.005825370404,-441.658623506575,-476.347201863829
1.3841052518986,531,516,-37.788475503076,910.674447071284,-426.995866908335,-483.678580162949
1.38624451813028,529,517,-23.1257189048355,913.118239837657,-439.214830740202,-473.903409097455
1.38838378436196,530,519,-18.2381333720887,905.786861538537,-439.214830740202,-466.572030798335
1.39052305059365,527,522,11.0873798243923,905.786861538537,-461.208965637563,-444.577895900974
1.39266231682533,525,523,25.7501364226327,908.23065430491,-473.42792946943,-434.802724835481
1.39480158305701,521,521,35.5253074881263,922.893410903151,-488.09068606767,-434.802724835481
1.39694084928869,521,516,11.0873798243922,935.112374735018,-475.871722235803,-459.240652499215
1.39908011552038,516,514,25.7501364226326,952.218924099632,-495.42206436679,-456.796859732841
1.40121938175206,513,510,20.8625508898859,969.325473464246,-500.309649899537,-469.015823564708
1.40335864798374,512,510,25.7501364226327,971.769266230619,-505.197235432284,-466.572030798335
1.40549791421542,511,511,35.5253074881264,971.769266230619,-512.528613731404,-459.240652499215
1.40763718044711,512,513,40.4128930208732,964.437887931499,-512.528613731404,-451.909274200095
1.40977644667879,510,514,55.0756496191136,966.881680697872,-524.747577563271,-442.134103134601
1.41191571291047,506,514,74.6259917501009,976.656851763366,-544.297919694259,-432.358932069107
1.41405497914215,505,512,69.7384062173541,983.988230062486,-544.297919694259,-439.690310368227
1.41619424537384,506,508,45.30047855362,991.319608361606,-529.635163096018,-461.684445265588
1.41833351160552,506,507,40.4128930208732,993.76340112798,-527.191370329645,-466.572030798335
1.4204727778372,506,507,40.4128930208732,993.76340112798,-527.191370329645,-466.572030798335
1.42261204406888,506,509,50.1880640863668,988.875815595233,-532.078955862391,-456.796859732841
1.42475131030057,502,509,69.7384062173541,998.650986660726,-551.629297993379,-447.021688667348
1.42689057653225,500,510,84.4011628155945,1001.0947794271,-563.848261825246,-437.246517601854
1.42902984276393,497,508,89.2887483483414,1013.31374325897,-573.62343289074,-439.690310368227
1.43116910899561,497,505,74.6259917501009,1020.64512155809,-566.292054591619,-454.353066966468
1.4333083752273,501,504,50.1880640863668,1013.31374325897,-544.297919694259,-469.015823564708
1.43544764145898,504,505,40.4128930208731,1003.53857219347,-532.078955862391,-471.459616331082
1.43758690769066,508,503,11.0873798243922,998.650986660727,-507.641028198657,-491.009958462069
1.43972617392234,509,501,-3.57537677384823,1001.0947794271,-497.865857133164,-503.228922293936
1.44186544015403,504,504,35.5253074881263,1005.98236495985,-529.635163096018,-476.347201863829
1.44400470638571,497,507,84.4011628155946,1015.75753602534,-571.179640124366,-444.577895900974
1.44614397261739,495,504,79.5135772828477,1027.97649985721,-573.623432890739,-454.353066966468
1.44828323884907,495,504,79.5135772828477,1027.97649985721,-573.623432890739,-454.353066966468
1.45042250508076,497,502,59.9632351518604,1027.97649985721,-558.960676292499,-469.015823564708
1.45256177131244,495,497,45.30047855362,1045.08304922182,-556.516883526126,-488.566165695696
1.45470103754412,494,495,40.4128930208731,1052.41442752094,-556.516883526126,-495.897543994816
1.4568403037758,497,495,25.7501364226327,1045.08304922182,-541.854126927885,-503.228922293936
1.45897957000749,496,498,45.3004785536199,1040.19546368907,-554.073090759752,-486.122372929322
1.46111883623917,499,501,45.30047855362,1025.53270709083,-546.741712460632,-478.790994630202
1.46325810247085,499,502,50.1880640863668,1023.08891432446,-549.185505227005,-473.903409097455
1.46539736870254,501,502,40.4128930208732,1018.20132879171,-539.410334161512,-478.790994630202
1.46753663493422,500,502,45.3004785536199,1020.64512155809,-544.297919694259,-476.347201863829
1.4696759011659,503,500,20.8625508898859,1018.20132879171,-524.747577563271,-493.453751228442
1.47181516739758,505,496,-8.46296230659516,1023.08891432446,-505.197235432284,-517.891678892177
1.47395443362927,503,497,6.1997942916455,1025.53270709083,-517.416199264151,-508.116507826683
1.47609369986095,499,496,20.8625508898858,1037.7516709227,-534.522748628765,-503.228922293936
1.47823296609263,496,499,50.1880640863667,1037.7516709227,-556.516883526126,-481.234787396575
1.48037223232431,495,500,59.9632351518604,1037.7516709227,-563.848261825246,-473.903409097455
1.482511498556,491,498,69.7384062173541,1052.41442752094,-578.511018423486,-473.903409097455
1.48465076478768,491,492,40.4128930208731,1067.07718411918,-563.848261825246,-503.228922293936
1.48679003101936,493,494,40.4128930208731,1057.30201305369,-558.960676292499,-498.341336761189
1.48892929725104,496,492,15.9749653571389,1054.85822028731,-539.410334161512,-515.447886125803
1.49106856348273,499,492,1.31220875889858,1047.52684198819,-524.747577563271,-522.779264424923
1.49320782971441,507,495,-23.1257189048355,1020.64512155809,-492.978271600417,-527.66684995767
1.49534709594609,518,504,-32.9008899703292,971.769266230619,-461.208965637563,-510.560300593056
1.49748636217777,534,515,-57.3388176340633,905.786861538537,-409.889317543721,-495.897543994816
1.49962562840946,553,526,-96.4395018960378,832.473078547335,-343.906912851639,-488.566165695696
1.50176489464114,578,539,-155.090528289,739.608953425145,-253.486580495822,-486.122372929322
1.50390416087282,600,552,-199.078798083721,654.076206602076,-177.729004738247,-476.347201863829
1.5060434271045,629,565,-277.280166607671,551.436910414392,-67.7583302514433,-483.678580162949
1.50818269333619,655,579,-335.931193000632,453.685199759456,25.105794870746,-478.790994630202
1.51032195956787,674,595,-350.593949598872,368.152452936386,78.8692357309611,-447.021688667347
1.51246122579955,681,610,-311.493265336898,314.389012076171,76.4254429645876,-390.814455040759
1.51460049203123,678,616,-267.504995542176,307.057633777051,47.0999297681067,-354.157563545158
1.51673975826292,661,617,-179.528455952734,346.158318039026,-38.4328170549626,-307.725500984063
1.5188790244946,637,614,-76.8891597650505,412.140722731108,-148.403491541766,-263.737231189342
1.52101829072628,610,598,-23.1257189048355,517.223811685164,-241.267616663956,-275.956195021209
1.52315755695796,580,583,50.1880640863668,627.194486171968,-351.238291150759,-275.956195021209
1.52529682318965,552,569,118.614261544822,729.833782359651,-453.877587338442,-275.956195021209
1.52743608942133,527,557,182.152873470531,820.254114715468,-546.741712460632,-273.512402254836
1.52957535565301,513,548,206.590801134265,876.461348342056,-593.173775021727,-283.287573320329
1.53171462188469,504,544,231.028728797999,908.23065430491,-627.386873750954,-280.843780553956
1.53385388811638,500,540,231.028728797999,927.780996435898,-637.162044816448,-290.618951619449
1.53599315434806,502,537,206.590801134265,930.224789202271,-620.055495451834,-310.169293750437
1.53813242057974,504,533,177.265287937784,935.112374735018,-600.505153320847,-334.607221414171
1.54027168681142,507,529,143.052189208556,937.556167501391,-576.067225657113,-361.488941844278
1.54241095304311,510,520,84.4011628155945,952.218924099632,-539.410334161512,-412.80858993812
1.54455021927479,510,521,89.2887483483413,949.775131333258,-541.854126927885,-407.921004405373
1.54668948550647,515,522,69.7384062173541,935.112374735018,-519.859992030524,-415.252382704493
1.54882875173815,517,528,89.2887483483413,915.56203260403,-524.747577563271,-390.814455040759
1.55096801796984,516,526,84.4011628155945,922.893410903151,-524.747577563271,-398.14583333988
1.55310728420152,511,524,99.063919413835,939.999960267765,-544.297919694259,-395.702040573506
1.5552465504332,507,522,108.839090479329,954.662716866005,-558.960676292499,-395.702040573506
1.55738581666488,501,514,99.063919413835,988.875815595233,-568.735847357993,-420.13996823724
1.55952508289657,496,506,84.4011628155945,1020.64512155809,-573.623432890739,-447.021688667348
1.56166434912825,491,503,94.1763338810881,1040.19546368907,-590.729982255353,-449.465481433721
1.56380361535993,489,501,94.1763338810881,1049.97063475457,-595.6175677881,-454.353066966468
1.56594288159161,487,502,108.839090479329,1052.41442752094,-607.836531619967,-444.577895900974
1.5680821478233,484,502,123.501847077569,1059.74580582006,-622.499288218208,-437.246517601854
1.57022141405498,488,502,103.951504946582,1049.97063475457,-602.948946087221,-447.021688667348
1.57236068028666,488,503,108.839090479329,1047.52684198819,-605.392738853594,-442.134103134601
1.57449994651834,493,500,69.7384062173541,1042.63925645545,-573.623432890739,-469.015823564708
1.57663921275003,497,496,30.6377219553794,1042.63925645545,-544.297919694259,-498.341336761189
1.57877847898171,496,495,30.6377219553794,1047.52684198819,-546.741712460632,-500.785129527563
1.58091774521339,495,493,25.7501364226327,1054.85822028731,-546.741712460632,-508.116507826683
1.58305701144507,495,493,25.7501364226327,1054.85822028731,-546.741712460632,-508.116507826683
1.58519627767676,496,498,45.3004785536199,1040.19546368907,-554.073090759752,-486.122372929322
1.58733554390844,495,499,55.0756496191136,1040.19546368907,-561.404469058872,-478.790994630202
1.58947481014012,494,495,40.4128930208731,1052.41442752094,-556.516883526126,-495.897543994816
1.5916140763718,496,497,40.4128930208731,1042.63925645545,-551.629297993379,-491.009958462069
1.59375334260349,496,493,20.8625508898858,1052.41442752094,-541.854126927885,-510.560300593056
1.59589260883517,494,488,6.19979429164528,1069.52097688556,-539.410334161512,-530.110642724044
1.59803187506685,496,486,-13.350547839342,1069.52097688556,-524.747577563271,-544.773399322284
1.60017114129853,495,490,11.0873798243922,1062.18959858644,-539.410334161512,-522.779264424923
1.60231040753022,494,493,30.6377219553794,1057.30201305369,-551.629297993379,-505.67271506031
1.6044496737619,494,495,40.4128930208731,1052.41442752094,-556.516883526126,-495.897543994816
1.60658893999358,497,497,35.5253074881264,1040.19546368907,-546.741712460632,-493.453751228442
1.60872820622526,495,496,40.4128930208731,1047.52684198819,-554.073090759752,-493.453751228443
1.61086747245695,497,494,20.8625508898858,1047.52684198819,-539.410334161512,-508.116507826683
1.61300673868863,498,489,-8.46296230659505,1057.30201305369,-522.303784796898,-534.99822825679
1.61514600492031,498,490,-3.57537677384835,1054.85822028731,-524.747577563271,-530.110642724044
1.61728527115199,498,491,1.31220875889858,1052.41442752094,-527.191370329645,-525.223057191297
1.61942453738368,497,490,1.31220875889858,1057.30201305369,-529.635163096018,-527.66684995767
1.62156380361536,495,493,25.7501364226327,1054.85822028731,-546.741712460632,-508.116507826683
1.62370306984704,496,496,35.5253074881261,1045.08304922182,-549.185505227005,-495.897543994816
1.62584233607873,496,499,50.1880640863667,1037.7516709227,-556.516883526126,-481.234787396575
1.62798160231041,499,497,25.7501364226327,1035.30787815633,-536.966541395138,-498.341336761189
1.63012086854209,500,495,11.0873798243922,1037.7516709227,-527.191370329645,-510.560300593056
1.63226013477377,503,494,-8.46296230659505,1032.86408538995,-510.084820965031,-522.779264424923
1.63439940100546,505,492,-28.0133044375824,1032.86408538995,-495.42206436679,-537.442021023164
1.63653866723714,505,496,-8.46296230659516,1023.08891432446,-505.197235432284,-517.891678892177
1.63867793346882,504,501,20.8625508898858,1013.31374325897,-522.303784796898,-491.009958462069
1.6408171997005,505,504,30.6377219553794,1003.53857219347,-524.747577563271,-478.790994630202
1.64295646593219,507,504,20.8625508898858,998.650986660727,-514.972406497778,-483.678580162949
1.64509573216387,507,506,30.6377219553796,993.76340112798,-519.859992030524,-473.903409097455
1.64723499839555,504,499,11.0873798243922,1018.20132879171,-517.416199264151,-500.785129527563
1.64937426462723,504,494,-13.350547839342,1030.42029262358,-505.197235432284,-525.223057191297
1.65151353085892,501,494,1.31220875889858,1037.7516709227,-519.859992030524,-517.891678892177
1.6536527970906,504,501,20.8625508898858,1013.31374325897,-522.303784796898,-491.009958462069
1.65579206332228,508,503,11.0873798243922,998.650986660727,-507.641028198657,-491.009958462069
1.65793132955396,512,508,15.9749653571391,976.656851763366,-500.309649899537,-476.347201863829
1.66007059578565,515,511,15.974965357139,961.994095165125,-492.978271600417,-469.015823564708
1.66220986201733,514,513,30.6377219553796,959.550302398752,-502.753442665911,-456.796859732841
1.66434912824901,512,506,6.1997942916455,981.544437296113,-495.42206436679,-486.122372929322
1.66648839448069,512,504,-3.57537677384823,986.43202282886,-490.534478834044,-495.897543994816
1.66862766071238,514,505,-8.46296230659505,979.100644529739,-483.203100534923,-495.897543994816
1.67076692694406,513,505,-3.57537677384823,981.544437296113,-488.09068606767,-493.453751228443
1.67290619317574,510,505,11.0873798243922,988.875815595233,-502.753442665911,-486.122372929322
1.67504545940742,509,510,40.4128930208732,979.100644529739,-519.859992030524,-459.240652499215
1.67718472563911,509,510,40.4128930208732,979.100644529739,-519.859992030524,-459.240652499215
1.67932399187079,509,512,50.1880640863668,974.213058996992,-524.747577563271,-449.465481433721
1.68146325810247,509,507,25.7501364226327,986.432022828859,-512.528613731404,-473.903409097455
1.68360252433415,511,505,6.19979429164539,986.43202282886,-497.865857133164,-488.566165695696
1.68574179056584,513,504,-8.46296230659505,983.988230062486,-485.646893301297,-498.341336761189
1.68788105679752,519,508,-18.2381333720887,959.550302398752,-466.096551170309,-493.453751228442
1.6900203230292,522,512,-13.3505478393419,942.443753034138,-461.208965637563,-481.234787396575
1.69215958926088,524,517,1.31220875889858,925.337203669524,-463.652758403936,-461.684445265588
1.69429885549257,525,518,1.31220875889858,920.449618136777,-461.208965637563,-459.240652499215
1.69643812172425,524,519,11.0873798243922,920.449618136777,-468.540343936683,-451.909274200095
1.69857738795593,518,519,40.4128930208731,935.112374735018,-497.865857133164,-437.246517601854
1.70071665418761,516,514,25.7501364226326,952.218924099632,-495.42206436679,-456.796859732841
1.7028559204193,514,509,11.0873798243923,969.325473464246,-492.978271600417,-476.347201863829
1.70499518665098,515,511,15.974965357139,961.994095165125,-492.978271600417,-469.015823564708
1.70713445288266,520,515,11.0873798243922,939.999960267765,-478.315515002176,-461.684445265588
1.70927371911434,523,518,11.0873798243922,925.337203669524,-470.984136703056,-454.353066966468
1.71141298534603,528,524,15.9749653571391,898.455483239417,-461.208965637563,-437.246517601854
1.71355225157771,531,529,25.7501364226326,878.905141108429,-458.765172871189,-420.13996823724
1.71569151780939,532,530,25.7501364226326,874.017555575683,-456.321380104816,-417.696175470867
1.71783078404107,533,525,-3.57537677384823,883.792726641176,-439.214830740202,-444.577895900974
1.71997005027276,533,522,-18.2381333720887,891.124104940296,-431.883452441082,-459.240652499215
1.72210931650444,532,522,-13.3505478393419,893.56789770667,-436.771037973829,-456.796859732841
1.72424858273612,532,525,1.31220875889858,886.23651940755,-444.102416272949,-442.134103134601
1.7263878489678,534,526,-3.57537677384823,878.905141108429,-436.771037973829,-442.134103134601
1.72852711519949,534,533,30.6377219553794,861.798591743816,-453.877587338442,-407.921004405373
1.73066638143117,533,534,40.4128930208731,861.798591743816,-461.208965637563,-400.589626106253
1.73280564766285,536,535,30.6377219553794,852.023420678322,-448.990001805696,-403.033418872626
1.73494491389453,539,531,-3.57537677384823,854.467213444695,-424.552074141961,-429.915139302734
1.73708418012622,542,533,-8.46296230659505,842.248249612828,-414.776903076468,-427.47134653636
1.7392234463579,542,530,-23.1257189048355,849.579627911949,-407.445524777348,-442.134103134601
1.74136271258958,541,531,-13.3505478393419,849.579627911949,-414.776903076468,-434.802724835481
1.74350197882126,540,536,15.974965357139,839.804456846455,-431.883452441082,-407.921004405373
1.74564124505295,540,538,25.7501364226327,834.916871313708,-436.771037973829,-398.145833339879
1.74778051128463,534,537,50.1880640863667,852.023420678322,-463.652758403936,-388.370662274386
1.74991977751631,528,537,79.5135772828477,866.686177276562,-492.978271600417,-373.707905676145
1.75205904374799,528,533,59.9632351518604,876.461348342056,-483.203100534923,-393.258247807133
1.75419830997968,526,528,45.30047855362,893.56789770667,-480.75930776855,-412.80858993812
1.75633757621136,527,526,30.6377219553796,896.011690473043,-470.984136703056,-425.027553769987
1.75847684244304,528,528,35.5253074881264,888.680312173923,-470.984136703056,-417.696175470867
1.76061610867472,527,528,40.4128930208732,891.124104940297,-475.871722235803,-415.252382704493
1.76275537490641,526,530,55.0756496191136,888.680312173923,-485.646893301297,-403.033418872626
1.76489464113809,522,531,79.5135772828477,896.011690473043,-507.641028198657,-388.370662274386
1.76703390736977,516,530,103.951504946582,913.118239837657,-534.522748628765,-378.595491208892
1.76917317360145,516,526,84.4011628155945,922.893410903151,-524.747577563271,-398.14583333988
1.77131243983314,515,521,64.8508206846071,937.556167501391,-517.416199264151,-420.13996823724
1.77345170606482,514,517,50.1880640863668,949.775131333258,-512.528613731404,-437.246517601854
1.7755909722965,512,516,55.0756496191136,957.106509632379,-519.859992030524,-437.246517601854
1.77773023852818,511,515,55.0756496191136,961.994095165125,-522.303784796898,-439.690310368227
1.77986950475987,506,516,84.4011628155945,971.769266230619,-549.185505227005,-422.583761003614
1.78200877099155,502,518,113.726676012075,976.656851763366,-573.623432890739,-403.033418872626
1.78414803722323,502,518,113.726676012075,976.656851763366,-573.623432890739,-403.033418872626
1.78628730345491,500,515,108.839090479329,988.875815595233,-576.067225657113,-412.80858993812
1.7884265696866,503,512,79.5135772828478,988.875815595233,-554.073090759752,-434.802724835481
1.79056583591828,501,508,69.7384062173542,1003.53857219347,-554.073090759752,-449.465481433721
1.79270510214996,497,504,69.7384062173541,1023.08891432446,-563.848261825246,-459.240652499215
1.79484436838165,494,502,74.6259917501008,1035.30787815633,-573.623432890739,-461.684445265588
1.79698363461333,491,503,94.1763338810881,1040.19546368907,-590.729982255353,-449.465481433721
1.79912290084501,490,504,103.951504946582,1040.19546368907,-598.061360554474,-442.134103134601
1.80126216707669,490,506,113.726676012076,1035.30787815633,-602.948946087221,-432.358932069107
1.80340143330838,491,505,103.951504946582,1035.30787815633,-595.6175677881,-439.690310368228
1.80554069954006,493,502,79.5135772828477,1037.7516709227,-578.511018423486,-459.240652499215
1.80767996577174,492,497,59.9632351518603,1052.41442752094,-571.179640124366,-481.234787396575
1.80981923200342,493,496,50.1880640863667,1052.41442752094,-563.848261825246,-488.566165695696
1.81195849823511,492,495,50.1880640863667,1057.30201305369,-566.292054591619,-491.009958462069
1.81409776446679,490,496,64.8508206846072,1059.74580582006,-578.511018423486,-481.234787396575
1.81623703069847,489,496,69.7384062173539,1062.18959858644,-583.398603956233,-478.790994630202
1.81837629693015,485,499,103.951504946582,1064.63339135281,-610.280324386341,-454.353066966468
1.82051556316184,487,500,99.0639194138349,1057.30201305369,-602.94894608722,-454.353066966468
1.82265482939352,484,493,79.5135772828478,1081.73994071742,-600.505153320847,-481.234787396575
1.8247940956252,485,492,69.7384062173539,1081.73994071742,-593.173775021727,-488.566165695696
1.82693336185688,486,489,50.1880640863669,1086.62752625017,-580.95481118986,-505.672715060309
1.82907262808857,487,488,40.4128930208731,1086.62752625017,-573.623432890739,-513.00409335943
1.83121189432025,487,489,45.30047855362,1084.1837334838,-576.067225657113,-508.116507826683
1.83335116055193,488,496,74.6259917501009,1064.63339135281,-588.28618948898,-476.347201863829
1.83549042678361,491,499,74.6259917501009,1049.97063475457,-580.95481118986,-469.015823564708
1.8376296930153,487,496,79.5135772828476,1067.07718411918,-593.173775021727,-473.903409097455
1.83976895924698,490,496,64.8508206846072,1059.74580582006,-578.511018423486,-481.234787396575
1.84190822547866,489,493,55.0756496191136,1069.52097688556,-576.067225657113,-493.453751228442
1.84404749171034,488,491,50.1880640863669,1076.85235518468,-576.067225657113,-500.785129527563
1.84618675794203,489,491,45.30047855362,1074.4085624183,-571.179640124366,-503.228922293936
1.84832602417371,489,495,64.8508206846072,1064.63339135281,-580.95481118986,-483.678580162949
1.85046529040539,488,497,79.5135772828478,1062.18959858644,-590.729982255353,-471.459616331082
1.85260455663707,487,498,89.2887483483413,1062.18959858644,-598.061360554474,-464.128238031962
1.85474382286876,488,500,94.1763338810882,1054.85822028731,-598.061360554474,-456.796859732841
1.85688308910044,485,499,103.951504946582,1064.63339135281,-610.280324386341,-454.353066966468
1.85902235533212,488,495,69.7384062173542,1067.07718411918,-585.842396722607,-481.234787396575
1.8611616215638,488,492,55.0756496191136,1074.4085624183,-578.511018423486,-495.897543994816
1.86330088779549,489,494,59.9632351518603,1067.07718411918,-578.511018423486,-488.566165695696
1.86544015402717,488,494,64.8508206846072,1069.52097688556,-583.398603956233,-486.122372929322
1.86757942025885,488,497,79.5135772828478,1062.18959858644,-590.729982255353,-471.459616331082
1.86971868649053,488,501,99.063919413835,1052.41442752094,-600.505153320847,-451.909274200095
1.87185795272222,488,504,113.726676012075,1045.08304922182,-607.836531619967,-437.246517601854
1.8739972189539,490,501,89.2887483483414,1047.52684198819,-590.729982255353,-456.796859732841
1.87613648518558,491,498,69.7384062173541,1052.41442752094,-578.511018423486,-473.903409097455
1.87827575141726,492,496,55.0756496191134,1054.85822028731,-568.735847357992,-486.122372929322
1.88041501764895,493,495,45.30047855362,1054.85822028731,-561.404469058872,-493.453751228442
1.88255428388063,492,495,50.1880640863667,1057.30201305369,-566.292054591619,-491.009958462069
1.88469355011231,491,501,84.4011628155945,1045.08304922182,-585.842396722607,-459.240652499215
1.88683281634399,493,507,103.951504946582,1025.53270709083,-590.729982255353,-434.802724835481
1.88897208257568,491,509,123.501847077569,1025.53270709083,-605.392738853594,-420.13996823724
1.89111134880736,494,506,94.1763338810881,1025.53270709083,-583.398603956233,-442.134103134601
1.89325061503904,499,504,59.9632351518604,1018.20132879171,-554.073090759752,-464.128238031962
1.89538988127072,499,500,40.4128930208732,1027.97649985721,-544.297919694259,-483.678580162949
1.89752914750241,500,498,25.7501364226326,1030.42029262358,-534.522748628765,-495.897543994816
1.89966841373409,501,501,35.5253074881264,1020.64512155809,-536.966541395138,-483.678580162949
1.90180767996577,499,506,69.7384062173542,1013.31374325897,-558.960676292499,-454.353066966468
1.90394694619745,498,508,84.4011628155945,1010.86995049259,-568.735847357993,-442.134103134601
1.90608621242914,496,512,113.726676012075,1005.98236495985,-588.28618948898,-417.696175470867
1.90822547866082,496,510,103.951504946582,1010.86995049259,-583.398603956233,-427.47134653636
1.9103647448925,493,506,99.063919413835,1027.97649985721,-588.28618948898,-439.690310368227
1.91250401112418,491,501,84.4011628155945,1045.08304922182,-585.842396722607,-459.240652499215
1.91464327735587,492,499,69.7384062173539,1047.52684198819,-576.067225657113,-471.459616331082
1.91678254358755,490,500,84.4011628155946,1049.97063475457,-588.28618948898,-461.684445265588
1.91892180981923,490,506,113.726676012076,1035.30787815633,-602.948946087221,-432.358932069107
1.92106107605091,492,510,123.501847077569,1020.64512155809,-602.94894608722,-417.696175470867
1.9232003422826,495,516,138.16460367581,998.650986660727,-602.94894608722,-395.702040573506
1.92533960851428,494,516,143.052189208556,1001.0947794271,-607.836531619967,-393.258247807133
1.92747887474596,495,509,103.951504946582,1015.75753602534,-585.842396722607,-429.915139302734
1.92961814097764,495,506,89.2887483483414,1023.08891432446,-578.511018423486,-444.577895900974
1.93175740720933,497,503,64.8508206846072,1025.53270709083,-561.404469058872,-464.128238031962
1.93389667344101,499,505,64.8508206846072,1015.75753602534,-556.516883526126,-459.240652499215
1.93603593967269,496,507,89.2887483483413,1018.20132879171,-576.067225657113,-442.134103134601
1.93817520590437,497,517,133.277018143063,991.319608361606,-595.6175677881,-395.702040573506
1.94031447213606,499,520,138.16460367581,979.100644529739,-593.173775021727,-385.926869508012
1.94245373836774,498,519,138.164603675809,983.988230062486,-595.6175677881,-388.370662274386
1.94459300459942,497,515,123.501847077569,996.207193894353,-590.729982255353,-405.477211639
1.94673227083111,497,507,84.4011628155946,1015.75753602534,-571.179640124366,-444.577895900974
1.94887153706279,496,502,64.8508206846071,1030.42029262358,-563.848261825246,-466.572030798335
1.95101080329447,499,501,45.30047855362,1025.53270709083,-546.741712460632,-478.790994630202
1.95315006952615,498,505,69.7384062173539,1018.20132879171,-561.404469058872,-456.796859732841
1.95528933575784,498,510,94.1763338810881,1005.98236495985,-573.623432890739,-432.358932069107
1.95742860198952,494,513,128.389432610316,1008.42615772622,-600.505153320847,-407.921004405373
1.9595678682212,493,515,143.052189208556,1005.98236495985,-610.280324386341,-395.702040573506
1.96170713445288,495,514,128.389432610316,1003.53857219347,-598.061360554474,-405.477211639
1.96384640068457,497,508,89.2887483483414,1013.31374325897,-573.62343289074,-439.690310368227
1.96598566691625,498,500,45.3004785536199,1030.42029262358,-549.185505227005,-481.234787396575
1.96812493314793,498,499,40.4128930208731,1032.86408538995,-546.741712460632,-486.122372929322
1.97026419937961,498,501,50.1880640863667,1027.97649985721,-551.629297993379,-476.347201863829
1.9724034656113,499,508,79.5135772828478,1008.42615772622,-563.848261825246,-444.577895900974
1.97454273184298,499,517,123.501847077569,986.43202282886,-585.842396722607,-400.589626106253
1.97668199807466,501,524,147.939774741303,964.437887931499,-593.173775021727,-371.264112909772
1.97882126430634,500,519,128.389432610316,979.100644529739,-585.842396722607,-393.258247807133
1.98096053053803,499,509,84.4011628155946,1005.98236495985,-566.292054591619,-439.690310368227
1.98309979676971,496,503,69.7384062173539,1027.97649985721,-566.292054591619,-461.684445265588
1.98523906300139,496,499,50.1880640863667,1037.7516709227,-556.516883526126,-481.234787396575
1.98737832923307,494,496,45.3004785536198,1049.97063475457,-558.960676292499,-491.009958462069
1.98951759546476,494,503,79.5135772828476,1032.86408538995,-576.067225657113,-456.796859732841
1.99165686169644,495,513,123.501847077569,1005.98236495985,-595.6175677881,-410.364797171747
1.99379612792812,494,518,152.82736027405,996.207193894353,-612.724117152714,-383.483076741639
1.9959353941598,492,512,133.277018143063,1015.75753602534,-607.836531619967,-407.921004405373
1.99807466039149,490,507,118.614261544822,1032.86408538995,-605.392738853594,-427.47134653636
2.00021392662317,490,498,74.625991750101,1054.85822028731,-583.398603956233,-471.459616331082
2.00235319285485,493,490,20.8625508898858,1067.07718411918,-549.185505227005,-517.891678892177
2.00449245908653,496,491,11.0873798243922,1057.30201305369,-536.966541395138,-520.33547165855
2.00663172531822,503,502,30.6377219553796,1013.31374325897,-529.635163096018,-483.678580162949
2.0087709915499,511,514,50.1880640863668,964.437887931499,-519.859992030524,-444.577895900974
2.01091025778158,511,520,79.5135772828477,949.775131333258,-534.522748628765,-415.252382704493
2.01304952401326,510,522,94.1763338810882,947.331338566885,-544.297919694259,-403.033418872626
2.01518879024495,505,517,94.1763338810881,971.769266230619,-556.516883526126,-415.252382704493
2.01732805647663,502,504,45.3004785536199,1010.86995049259,-539.410334161512,-471.459616331082
2.01946732270831,498,496,25.7501364226325,1040.19546368907,-539.410334161512,-500.785129527563
2.02160658893999,493,493,35.5253074881264,1059.74580582006,-556.516883526126,-503.228922293936
2.02374585517168,494,496,45.3004785536198,1049.97063475457,-558.960676292499,-491.009958462069
2.02588512140336,493,501,74.6259917501009,1040.19546368907,-576.067225657113,-464.128238031962
2.02802438763504,493,513,133.277018143063,1010.86995049259,-605.392738853594,-405.477211639
2.03016365386672,495,515,133.277018143063,1001.0947794271,-600.505153320847,-400.589626106253
2.03230292009841,496,509,99.0639194138349,1013.31374325897,-580.95481118986,-432.358932069107
2.03444218633009,496,504,74.6259917501008,1025.53270709083,-568.735847357992,-456.796859732841
2.03658145256177,500,498,25.7501364226326,1030.42029262358,-534.522748628765,-495.897543994816
2.03872071879345,503,494,-8.46296230659505,1032.86408538995,-510.084820965031,-522.779264424923
2.04085998502514,507,494,-28.0133044375824,1023.08891432446,-490.534478834044,-532.554435490417
2.04299925125682,510,506,15.9749653571391,986.432022828859,-505.197235432284,-481.234787396575
2.0451385174885,510,515,59.9632351518604,964.437887931499,-527.191370329645,-437.246517601854
2.04727778372018,511,519,74.6259917501009,952.218924099632,-532.078955862391,-420.13996823724
2.04941704995187,509,520,89.2887483483413,954.662716866005,-544.297919694259,-410.364797171747
2.05155631618355,511,516,59.9632351518604,959.550302398752,-524.747577563271,-434.802724835481
2.05369558241523,510,506,15.9749653571391,986.432022828859,-505.197235432284,-481.234787396575
2.05583484864691,507,498,-8.46296230659505,1013.31374325897,-500.309649899537,-513.00409335943
2.0579741148786,504,499,11.0873798243922,1018.20132879171,-517.416199264151,-500.785129527563
2.06011338111028,503,504,40.4128930208732,1008.42615772622,-534.522748628765,-473.903409097455
2.06225264734196,502,510,74.6259917501009,996.207193894353,-554.073090759752,-442.134103134601
2.06439191357364,503,518,108.839090479329,974.213058996992,-568.735847357993,-405.477211639
2.06653117980533,504,521,118.614261544822,964.437887931499,-571.179640124366,-393.258247807133
2.06867044603701,506,516,84.4011628155945,971.769266230619,-549.185505227005,-422.583761003614
2.07080971226869,508,507,30.6377219553796,988.875815595233,-517.416199264151,-471.459616331082
2.07294897850037,509,499,-13.3505478393419,1005.98236495985,-492.978271600417,-513.00409335943
2.07508824473206,510,497,-28.0133044375823,1008.42615772622,-483.203100534923,-525.223057191297
2.07722751096374,513,504,-8.46296230659505,983.988230062486,-485.646893301297,-498.341336761189
2.07936677719542,516,513,20.8625508898858,954.662716866005,-492.978271600417,-461.684445265588
2.0815060434271,519,526,69.7384062173541,915.56203260403,-510.084820965031,-405.477211639
2.08364530965879,521,529,74.6259917501009,903.343068772164,-507.641028198657,-395.702040573506
2.08578457589047,523,525,45.30047855362,908.23065430491,-488.09068606767,-420.13996823724
2.08792384212215,521,521,35.5253074881263,922.893410903151,-488.09068606767,-434.802724835481
2.09006310835383,520,514,6.19979429164539,942.443753034138,-475.871722235803,-466.572030798335
2.09220237458552,521,505,-42.6760610358228,961.994095165125,-448.990001805696,-513.00409335943
2.0943416408172,517,509,-3.57537677384823,961.994095165125,-478.315515002176,-483.678580162949
2.09648090704888,519,520,40.4128930208731,930.224789202271,-495.42206436679,-434.802724835481
2.09862017328056,516,526,84.4011628155945,922.893410903151,-524.747577563271,-398.14583333988
2.10075943951225,515,528,99.0639194138349,920.449618136777,-534.522748628765,-385.926869508012
2.10289870574393,509,527,123.501847077569,937.556167501391,-561.404469058872,-376.151698442519
2.10503797197561,508,521,99.0639194138349,954.662716866005,-551.629297993379,-403.033418872626
2.10717723820729,504,508,55.0756496191136,996.207193894353,-539.410334161512,-456.796859732841
2.10931650443898,503,499,15.9749653571391,1020.64512155809,-522.303784796898,-498.341336761189
2.11145577067066,502,502,35.5253074881263,1015.75753602534,-534.522748628765,-481.234787396575
2.11359503690234,503,508,59.9632351518605,998.650986660727,-544.297919694259,-454.353066966468
2.11573430313403,503,513,84.4011628155946,986.43202282886,-556.516883526126,-429.915139302734
2.11787356936571,505,520,108.839090479329,964.437887931499,-563.848261825246,-400.589626106253
2.12001283559739,505,523,123.501847077569,957.106509632378,-571.179640124366,-385.926869508012
2.12215210182907,505,516,89.2887483483413,974.213058996992,-554.073090759752,-420.13996823724
2.12429136806076,502,506,55.0756496191136,1005.98236495985,-544.297919694259,-461.684445265588
2.12643063429244,501,499,25.7501364226327,1025.53270709083,-532.078955862392,-493.453751228442
2.12856990052412,501,496,11.0873798243922,1032.86408538995,-524.747577563271,-508.116507826683
2.1307091667558,500,498,25.7501364226326,1030.42029262358,-534.522748628765,-495.897543994816
2.13284843298749,498,505,69.7384062173539,1018.20132879171,-561.404469058872,-456.796859732841
2.13498769921917,495,512,118.614261544822,1008.42615772622,-593.173775021727,-415.252382704493
2.13712696545085,497,513,113.726676012075,1001.0947794271,-585.842396722607,-415.252382704493
2.13926623168253,497,510,99.063919413835,1008.42615772622,-578.511018423486,-429.915139302734
2.14140549791422,497,505,74.6259917501009,1020.64512155809,-566.292054591619,-454.353066966468
2.1435447641459,495,492,20.8625508898858,1057.30201305369,-544.297919694259,-513.00409335943
2.14568403037758,493,487,6.1997942916455,1074.4085624183,-541.854126927885,-532.554435490417
2.14782329660926,493,490,20.8625508898858,1067.07718411918,-549.185505227005,-517.891678892177
2.14996256284095,494,497,50.1880640863667,1047.52684198819,-561.404469058872,-486.122372929322
2.15210182907263,495,503,74.6259917501009,1030.42029262358,-571.179640124366,-459.240652499215
2.15424109530431,493,506,99.063919413835,1027.97649985721,-588.28618948898,-439.690310368227
2.15638036153599,491,508,118.614261544822,1027.97649985721,-602.94894608722,-425.027553769987
2.15851962776768,495,504,79.5135772828477,1027.97649985721,-573.623432890739,-454.353066966468
2.16065889399936,497,491,6.1997942916455,1054.85822028731,-532.078955862392,-522.779264424923
2.16279816023104,499,485,-32.900889970329,1064.63339135281,-507.641028198658,-556.992363154151
2.16493742646272,499,488,-18.2381333720887,1057.30201305369,-514.972406497778,-542.329606555911
2.16707669269441,498,493,11.0873798243922,1047.52684198819,-532.078955862391,-515.447886125803
2.16921595892609,501,502,40.4128930208732,1018.20132879171,-539.410334161512,-478.790994630202
2.17135522515777,499,510,89.2887483483414,1003.53857219347,-568.735847357993,-434.802724835481
2.17349449138945,497,509,94.1763338810882,1010.86995049259,-576.067225657113,-434.802724835481
2.17563375762114,495,504,79.5135772828477,1027.97649985721,-573.623432890739,-454.353066966468
2.17777302385282,491,494,50.1880640863667,1062.18959858644,-568.735847357993,-493.453751228443
2.1799122900845,489,485,15.9749653571391,1089.07131901654,-556.516883526126,-532.554435490417
2.18205155631618,485,477,-3.5753767738488,1118.39683221302,-556.516883526125,-561.879948686899
2.18419082254787,483,482,30.6377219553794,1111.0654539139,-578.511018423486,-532.554435490417
2.18633008877955,483,490,69.7384062173539,1091.51511178292,-598.061360554473,-493.453751228443
2.18846935501123,484,497,99.063919413835,1071.96476965193,-610.280324386341,-461.684445265588
2.19060862124291,484,497,99.063919413835,1071.96476965193,-610.280324386341,-461.684445265588
2.1927478874746,491,499,74.6259917501009,1049.97063475457,-580.95481118986,-469.015823564708
2.19488715370628,497,496,30.6377219553794,1042.63925645545,-544.297919694259,-498.341336761189
2.19702641993796,507,491,-42.6760610358227,1030.42029262358,-483.203100534923,-547.217192088657
2.19916568616964,518,492,-91.5519163632911,1001.0947794271,-431.883452441082,-569.211326986018
2.20130495240133,534,505,-106.214672961532,930.224789202271,-385.451389879987,-544.773399322284
2.20344421863301,553,522,-115.989844027025,842.248249612828,-334.131741786145,-508.116507826683
2.20558348486469,577,542,-135.540186158013,734.721367892398,-265.705544327689,-469.015823564709
2.20772275109637,602,563,-155.090528289,622.306900639221,-194.835554102861,-427.471346536361
2.20986201732806,628,582,-189.303627018227,512.336226152418,-114.190392812538,-398.145833339879
2.21200128355974,655,593,-267.504995542176,419.472101030228,-9.10730385848171,-410.364797171746
2.21414054979142,676,599,-340.818778533379,353.489696338146,78.8692357309611,-432.358932069107
2.2162798160231,683,606,-340.818778533379,319.276597608918,95.9757850955749,-415.252382704493
2.21841908225479,675,608,-291.942923205911,333.939354207159,51.9875153008535,-385.926869508012
2.22055834848647,657,607,-208.853969149215,380.371416768253,-33.5452315222158,-346.826185246038
2.22269761471815,627,607,-62.22640316681,453.685199759456,-180.17279750462,-273.512402254835
2.22483688094983,594,603,79.5135772828477,544.105532115272,-331.687949019772,-212.4175830955
2.22697614718152,563,587,152.82736027405,658.963792134822,-444.102416272949,-214.861375861873
2.2291154134132,538,569,187.040459003278,764.046881088879,-522.303784796898,-241.743096291981
2.23125467964488,520,550,182.152873470531,854.467213444695,-563.848261825246,-290.61895161945
2.23339394587656,508,531,147.939774741303,930.224789202271,-576.067225657113,-354.157563545158
2.23553321210825,500,520,133.277018143063,976.656851763366,-588.28618948898,-388.370662274386
2.23767247833993,497,518,138.16460367581,988.875815595233,-598.061360554474,-390.814455040759
2.23981174457161,501,523,143.052189208556,966.881680697872,-590.729982255353,-376.151698442519
2.24195101080329,503,529,162.602531339544,947.331338566885,-595.6175677881,-351.713770778785
2.24409027703498,506,530,152.82736027405,937.556167501391,-583.398603956233,-354.157563545158
2.24622954326666,507,528,138.16460367581,939.999960267765,-573.623432890739,-366.376527377025
2.24836880949834,508,521,99.0639194138349,954.662716866005,-551.629297993379,-403.033418872626
2.25050807573002,508,509,40.4128930208732,983.988230062486,-522.303784796898,-461.684445265588
2.25264734196171,506,500,6.19979429164539,1010.86995049259,-510.084820965031,-500.785129527563
2.25478660819339,501,501,35.5253074881264,1020.64512155809,-536.966541395138,-483.678580162949
2.25692587442507,499,504,59.9632351518604,1018.20132879171,-554.073090759752,-464.128238031962
2.25906514065675,495,508,99.063919413835,1018.20132879171,-583.398603956233,-434.802724835481
2.26120440688844,492,512,133.277018143063,1015.75753602534,-607.836531619967,-407.921004405373
2.26334367312012,490,511,138.16460367581,1023.08891432446,-615.167909919088,-407.921004405373
2.2654829393518,486,501,108.839090479329,1057.30201305369,-610.280324386341,-447.021688667348
2.26762220558348,485,490,59.9632351518603,1086.62752625017,-588.28618948898,-498.341336761189
2.26976147181517,485,484,30.6377219553794,1101.29028284841,-573.623432890739,-527.66684995767
2.27190073804685,485,480,11.0873798243922,1111.0654539139,-563.848261825246,-547.217192088657
2.27404000427853,486,482,15.9749653571391,1103.73407561478,-563.848261825246,-539.885813789537
2.27617927051022,488,493,59.9632351518605,1071.96476965193,-580.95481118986,-491.009958462069
2.2783185367419,489,499,84.4011628155945,1054.85822028731,-590.729982255353,-464.128238031962
2.28045780297358,489,500,89.2887483483413,1052.41442752094,-593.173775021727,-459.240652499215
2.28259706920526,487,496,79.5135772828476,1067.07718411918,-593.173775021727,-473.903409097455
2.28473633543694,488,489,40.4128930208733,1081.73994071742,-571.179640124366,-510.560300593056
2.28687560166863,489,477,-23.125718904836,1108.62166114753,-536.966541395138,-571.655119752392
2.28901486790031,487,473,-32.9008899703297,1123.28441774577,-536.966541395138,-586.317876350633
2.29115413413199,488,479,-8.4629623065955,1106.17786838116,-546.741712460632,-559.436155920525
2.29329340036368,491,487,15.9749653571391,1079.29614795105,-551.629297993379,-527.66684995767
2.29543266659536,491,491,35.5253074881264,1069.52097688556,-561.404469058872,-508.116507826683
2.29757193282704,490,497,69.7384062173542,1057.30201305369,-580.95481118986,-476.347201863829
2.29971119905872,490,495,59.9632351518605,1062.18959858644,-576.067225657113,-486.122372929322
2.30185046529041,490,490,35.5253074881264,1074.4085624183,-563.848261825246,-510.560300593056
2.30398973152209,490,479,-18.2381333720891,1101.29028284841,-536.966541395138,-564.323741453272
2.30612899775377,492,476,-42.6760610358233,1103.73407561478,-519.859992030524,-583.874083584259
2.30826826398545,492,477,-37.7884755030766,1101.29028284841,-522.303784796898,-578.986498051512
2.31040753021714,492,481,-18.2381333720889,1091.51511178292,-532.078955862391,-559.436155920525
2.31254679644882,492,490,25.7501364226325,1069.52097688556,-554.073090759752,-515.447886125803
2.3146860626805,494,499,59.9632351518603,1042.63925645545,-566.292054591619,-476.347201863829
2.31682532891218,494,499,59.9632351518603,1042.63925645545,-566.292054591619,-476.347201863829
2.31896459514387,496,490,6.19979429164528,1059.74580582006,-534.522748628765,-525.223057191297
2.32110386137555,498,484,-32.9008899703292,1069.52097688556,-510.084820965031,-559.436155920525
2.32324312760723,497,478,-57.3388176340636,1086.62752625017,-500.309649899537,-586.317876350632
2.32538239383891,500,474,-91.5519163632914,1089.07131901654,-475.871722235803,-613.19959678074
2.3275216600706,499,479,-62.2264031668105,1079.29614795105,-492.978271600417,-586.317876350633
2.32966092630228,498,490,-3.57537677384835,1054.85822028731,-524.747577563271,-530.110642724044
2.33180019253396,494,495,40.4128930208731,1052.41442752094,-556.516883526126,-495.897543994816
2.33393945876564,496,494,25.7501364226325,1049.97063475457,-544.297919694258,-505.67271506031
2.33607872499733,497,492,11.0873798243922,1052.41442752094,-534.522748628765,-517.891678892177
2.33821799122901,498,484,-32.9008899703292,1069.52097688556,-510.084820965031,-559.436155920525
2.34035725746069,500,475,-86.6643308305447,1086.62752625017,-478.315515002176,-608.312011247993
2.34249652369237,503,469,-130.652600625266,1093.95890454929,-448.990001805695,-644.968902743594
2.34463578992406,501,472,-106.214672961532,1091.51511178292,-466.096551170309,-625.418560612607
2.34677505615574,501,476,-86.6643308305445,1081.73994071742,-475.871722235803,-605.86821848162
2.34891432238742,504,481,-76.8891597650506,1062.18959858644,-473.42792946943,-588.761669117006
2.3510535886191,504,482,-72.0015742323037,1059.74580582006,-475.871722235803,-583.874083584259
2.35319285485079,503,474,-106.214672961532,1081.73994071742,-461.208965637563,-620.53097507986
2.35533212108247,503,463,-159.978113821747,1108.62166114753,-434.327245207455,-674.294415940075
2.35747138731415,502,451,-213.741554681962,1140.39096711038,-409.889317543721,-730.501649566664
2.35961065354583,499,446,-223.516725747455,1159.94130924137,-412.333110310094,-747.608198931277
2.36174991977752,500,447,-223.516725747456,1155.05372370863,-409.889317543721,-745.164406164904
2.3638891860092,501,454,-194.191212550975,1135.50338157764,-422.108281375588,-713.39510020205
2.36602845224088,502,470,-120.877429559772,1093.95890454929,-456.321380104816,-637.637524444474
2.36816771847256,508,481,-96.4395018960379,1052.41442752094,-453.877587338442,-598.536840182499
2.37030698470425,509,485,-81.7767452977972,1040.19546368907,-458.765172871189,-581.430290817885
2.37244625093593,516,486,-111.102258494278,1020.64512155809,-426.995866908335,-593.649254649752
2.37458551716761,518,485,-125.765015092519,1018.20132879171,-414.776903076468,-603.424425715246
2.37672478339929,518,477,-164.865699354494,1037.7516709227,-395.22656094548,-642.525109977221
2.37886404963098,515,478,-145.315357223506,1042.63925645545,-412.333110310094,-630.306146145354
2.38100331586266,511,484,-96.4395018960378,1037.7516709227,-446.546209039322,-591.205461883379
2.38314258209434,509,492,-47.5636465685697,1023.08891432446,-475.871722235803,-547.217192088658
2.38528184832602,509,500,-8.46296230659505,1003.53857219347,-495.42206436679,-508.116507826683
2.38742111455771,510,503,1.31220875889858,993.76340112798,-497.865857133164,-495.897543994816
2.38956038078939,512,504,-3.57537677384823,986.43202282886,-490.534478834044,-495.897543994816
2.39169964702107,515,500,-37.788475503076,988.875815595233,-466.096551170309,-522.779264424923
2.39383891325275,517,493,-81.7767452977973,1001.0947794271,-439.214830740202,-561.879948686898
2.39597817948444,520,492,-101.327087428785,996.207193894353,-422.108281375588,-574.098912518765
2.39811744571612,521,497,-81.7767452977973,981.544437296113,-429.439659674708,-552.104777621404
2.4002567119478,520,503,-47.5636465685697,969.325473464246,-448.990001805696,-520.33547165855
2.40239597817948,519,513,6.19979429164539,947.331338566885,-478.315515002176,-469.015823564708
2.40453524441117,520,518,25.7501364226326,932.668581968645,-485.646893301297,-447.021688667348
2.40667451064285,524,519,11.0873798243922,920.449618136777,-468.540343936683,-451.909274200095
2.40881377687453,525,513,-23.1257189048355,932.668581968645,-448.990001805696,-483.678580162949
2.41095304310621,526,507,-57.3388176340632,944.887545800511,-429.439659674708,-515.447886125803
2.4130923093379,525,503,-72.0015742323037,957.106509632379,-424.552074141961,-532.554435490417
2.41523157556958,528,503,-86.6643308305441,949.775131333258,-409.889317543721,-539.885813789537
2.41737084180126,529,510,-57.3388176340632,930.224789202271,-422.108281375588,-508.116507826683
2.41951010803294,531,519,-23.1257189048356,903.343068772164,-434.327245207455,-469.015823564708
2.42164937426463,527,526,30.6377219553796,896.011690473043,-470.984136703056,-425.027553769987
2.42378864049631,529,527,25.7501364226327,888.680312173923,-463.652758403936,-425.027553769987
2.42592790672799,530,527,20.8625508898859,886.23651940755,-458.765172871189,-427.47134653636
2.42806717295968,532,520,-23.1257189048356,898.455483239417,-431.883452441082,-466.572030798335
2.43020643919136,534,510,-81.7767452977973,918.005825370404,-397.670353711854,-520.33547165855
2.43234570542304,533,509,-81.7767452977973,922.893410903151,-400.114146478227,-522.779264424923
2.43448497165472,532,516,-42.6760610358228,908.23065430491,-422.108281375588,-486.122372929322
2.4366242378864,533,526,1.31220875889858,881.348933874803,-441.658623506575,-439.690310368227
2.43876350411809,533,529,15.974965357139,874.017555575683,-448.990001805696,-425.027553769987
2.44090277034977,530,534,55.0756496191136,869.129970042936,-475.871722235803,-393.258247807133
2.44304203658145,533,531,25.7501364226326,869.129970042936,-453.877587338442,-415.252382704493
2.44518130281314,533,525,-3.57537677384823,883.792726641176,-439.214830740202,-444.577895900974
2.44732056904482,533,516,-47.5636465685697,905.786861538537,-417.220695842841,-488.566165695696
2.4494598352765,533,515,-52.4512321013165,908.23065430491,-414.776903076468,-493.453751228443
2.45159910150818,536,517,-57.3388176340633,896.011690473043,-405.001732010974,-491.009958462069
2.45373836773987,535,524,-18.2381333720887,881.348933874803,-426.995866908335,-454.353066966468
2.45587763397155,535,530,11.0873798243922,866.686177276562,-441.658623506575,-425.027553769987
2.45801690020323,534,536,45.3004785536199,854.467213444695,-461.208965637563,-393.258247807133
2.46015616643491,531,534,50.1880640863667,866.686177276562,-470.984136703056,-395.702040573506
2.4622954326666,528,527,30.6377219553796,891.124104940297,-468.540343936683,-422.583761003614
2.46443469889828,526,518,-3.57537677384823,918.005825370404,-456.321380104816,-461.684445265588
2.46657396512996,522,510,-23.1257189048355,947.331338566885,-456.321380104816,-491.009958462069
2.46871323136164,520,507,-28.0133044375823,959.550302398752,-458.765172871189,-500.785129527563
2.47085249759333,520,514,6.19979429164539,942.443753034138,-475.871722235803,-466.572030798335
2.47299176382501,517,520,50.1880640863667,935.112374735018,-505.197235432284,-429.915139302734
2.47513103005669,512,524,94.1763338810882,937.556167501391,-539.410334161512,-398.145833339879
2.47727029628837,509,523,103.951504946582,947.331338566885,-551.629297993379,-395.702040573506
2.47940956252006,505,518,99.0639194138349,969.325473464246,-558.960676292499,-410.364797171747
2.48154882875174,505,508,50.1880640863668,993.76340112798,-534.522748628765,-459.240652499215
2.48368809498342,500,496,15.9749653571389,1035.30787815633,-529.635163096018,-505.67271506031
2.4858273612151,502,491,-18.2381333720887,1042.63925645545,-507.641028198657,-534.99822825679
2.48796662744679,499,496,20.8625508898858,1037.7516709227,-534.522748628765,-503.228922293936
2.49010589367847,498,501,50.1880640863667,1027.97649985721,-551.629297993379,-476.347201863829
2.49224515991015,497,507,84.4011628155946,1015.75753602534,-571.179640124366,-444.577895900974
2.49438442614183,496,511,108.839090479329,1008.42615772622,-585.842396722607,-422.583761003614
2.49652369237352,498,507,79.5135772828477,1013.31374325897,-566.292054591619,-447.021688667348
2.4986629586052,498,499,40.4128930208731,1032.86408538995,-546.741712460632,-486.122372929322
2.50080222483688,501,490,-18.2381333720887,1047.52684198819,-510.084820965031,-537.442021023164
2.50294149106856,498,486,-23.1257189048356,1064.63339135281,-514.972406497778,-549.660984855031
2.50508075730025,496,483,-28.0133044375823,1076.85235518468,-517.416199264151,-559.436155920524
2.50722002353193,492,491,30.6377219553794,1067.07718411918,-556.516883526126,-510.560300593056
2.50935928976361,486,498,94.1763338810882,1064.63339135281,-602.948946087221,-461.684445265588
2.51149855599529,483,500,118.614261544822,1067.07718411918,-622.499288218208,-444.577895900974
2.51363782222698,480,493,99.063919413835,1091.51511178292,-620.055495451834,-471.459616331082
2.51577708845866,480,491,89.2887483483414,1096.40269731566,-615.167909919087,-481.234787396575
2.51791635469034,481,481,35.5253074881261,1118.39683221302,-585.842396722606,-532.554435490417
2.52005562092202,484,472,-23.1257189048358,1133.05958881126,-549.185505227005,-583.874083584259
2.52219488715371,486,473,-28.0133044375827,1125.72821051214,-541.854126927885,-583.874083584259
2.52433415338539,487,483,15.9749653571391,1098.84649008204,-561.404469058872,-537.442021023164
2.52647341961707,484,487,50.1880640863669,1096.40269731566,-585.842396722607,-510.560300593056
2.52861268584875,482,491,79.5135772828478,1091.51511178292,-605.392738853594,-486.122372929322
2.53075195208044,482,492,84.4011628155945,1089.07131901654,-607.836531619967,-481.234787396575
2.53289121831212,484,490,64.8508206846072,1089.07131901654,-593.173775021727,-495.897543994816
2.5350304845438,484,478,6.19979429164505,1118.39683221302,-563.848261825246,-554.548570387778
2.53716975077548,485,470,-37.7884755030764,1135.50338157764,-539.410334161512,-596.093047416126
2.53930901700717,488,470,-52.4512321013167,1128.17200327852,-524.747577563271,-603.424425715246
2.54144828323885,490,478,-23.1257189048358,1103.73407561478,-534.522748628765,-569.211326986019
2.54358754947053,489,483,6.1997942916455,1093.95890454929,-551.629297993379,-542.329606555911
2.54572681570221,488,488,35.5253074881264,1084.1837334838,-568.735847357993,-515.447886125803
2.5478660819339,487,496,79.5135772828476,1067.07718411918,-593.173775021727,-473.903409097455
2.55000534816558,484,486,45.30047855362,1098.84649008204,-583.398603956233,-515.447886125803
2.55214461439726,487,481,6.19979429164528,1103.73407561478,-556.516883526126,-547.217192088658
2.55428388062894,486,475,-18.2381333720891,1120.8406249794,-546.741712460632,-574.098912518765
2.55642314686063,485,468,-47.56364656857,1140.39096711038,-534.522748628765,-605.86821848162
2.55856241309231,486,470,-42.6760610358231,1133.05958881126,-534.522748628765,-598.536840182499
2.56070167932399,484,477,1.31220875889812,1120.8406249794,-561.404469058872,-559.436155920525
2.56284094555567,482,486,55.0756496191136,1103.73407561478,-593.173775021727,-510.560300593056
2.56498021178736,483,489,64.8508206846072,1093.95890454929,-595.6175677881,-498.341336761189
2.56711947801904,484,489,59.9632351518605,1091.51511178292,-590.729982255353,-500.785129527563
2.56925874425072,485,485,35.5253074881264,1098.84649008204,-576.067225657113,-522.779264424923
2.5713980104824,488,476,-23.1257189048358,1113.50924668028,-539.410334161512,-574.098912518765
2.57353727671409,488,467,-67.1139886995572,1135.50338157764,-517.416199264151,-618.087182313487
2.57567654294577,492,471,-67.1139886995575,1115.95303944665,-507.641028198657,-608.312011247993
2.57781580917745,492,478,-32.9008899703297,1098.84649008204,-524.747577563271,-574.098912518765
2.57995507540913,493,487,6.1997942916455,1074.4085624183,-541.854126927885,-532.554435490417
2.58209434164082,492,493,40.4128930208731,1062.18959858644,-561.404469058872,-500.785129527563
2.5842336078725,492,497,59.9632351518603,1052.41442752094,-571.179640124366,-481.234787396575
2.58637287410418,492,492,35.5253074881261,1064.63339135281,-558.960676292499,-505.67271506031
2.58851214033586,491,480,-18.2381333720887,1096.40269731566,-534.522748628765,-561.879948686898
2.59065140656755,492,474,-52.4512321013169,1108.62166114753,-514.972406497777,-593.649254649753
2.59279067279923,493,474,-57.3388176340636,1106.17786838116,-510.084820965031,-596.093047416126
2.59492993903091,491,478,-28.0133044375827,1101.29028284841,-529.635163096018,-571.655119752392
2.5970692052626,490,484,6.1997942916455,1089.07131901654,-549.185505227005,-539.885813789537
2.59920847149428,489,493,55.0756496191136,1069.52097688556,-576.067225657113,-493.453751228442
2.60134773772596,488,497,79.5135772828478,1062.18959858644,-590.729982255353,-471.459616331082
2.60348700395764,489,492,50.1880640863667,1071.96476965193,-573.623432890739,-498.341336761189
2.60562627018933,490,485,11.0873798243924,1086.62752625017,-551.629297993379,-534.99822825679
2.60776553642101,493,478,-37.7884755030764,1096.40269731566,-519.859992030524,-576.542705285139
2.60990480265269,494,473,-67.1139886995575,1106.17786838116,-502.75344266591,-603.424425715246
2.61204406888437,494,475,-57.3388176340638,1101.29028284841,-507.641028198657,-593.649254649753
2.61418333511606,494,484,-13.350547839342,1079.29614795105,-529.635163096018,-549.660984855031
2.61632260134774,492,493,40.4128930208731,1062.18959858644,-561.404469058872,-500.785129527563
2.61846186757942,493,496,50.1880640863667,1052.41442752094,-563.848261825246,-488.566165695696
2.6206011338111,493,498,59.9632351518604,1047.52684198819,-568.735847357993,-478.790994630202
2.62274040004279,497,491,6.1997942916455,1054.85822028731,-532.078955862392,-522.779264424923
2.62487966627447,501,483,-52.4512321013162,1064.63339135281,-492.978271600417,-571.655119752391
2.62701893250615,500,475,-86.6643308305447,1086.62752625017,-478.315515002176,-608.312011247993
2.62915819873783,497,481,-42.6760610358228,1079.29614795105,-507.641028198657,-571.655119752392
2.63129746496952,496,484,-23.1257189048356,1074.4085624183,-519.859992030524,-554.548570387778
2.6334367312012,495,489,6.1997942916455,1064.63339135281,-536.966541395138,-527.66684995767
2.63557599743288,496,497,40.4128930208731,1042.63925645545,-551.629297993379,-491.009958462069
2.63771526366456,494,501,69.7384062173539,1037.7516709227,-571.179640124366,-466.572030798335
2.63985452989625,495,493,25.7501364226327,1054.85822028731,-546.741712460632,-508.116507826683
2.64199379612793,496,482,-32.9008899703292,1079.29614795105,-514.972406497778,-564.323741453271
2.64413306235961,495,478,-47.56364656857,1091.51511178292,-510.084820965031,-581.430290817886
2.64627232859129,496,478,-52.4512321013169,1089.07131901654,-505.197235432284,-583.874083584259
2.64841159482298,496,479,-47.5636465685702,1086.62752625017,-507.641028198657,-578.986498051512
2.65055086105466,496,491,11.0873798243922,1057.30201305369,-536.966541395138,-520.33547165855
2.65269012728634,498,499,40.4128930208731,1032.86408538995,-546.741712460632,-486.122372929322
2.65482939351802,500,503,50.1880640863667,1018.20132879171,-546.741712460632,-471.459616331082
2.65696865974971,498,498,35.5253074881263,1035.30787815633,-544.297919694259,-491.009958462069
2.65910792598139,500,491,-8.46296230659505,1047.52684198819,-517.416199264151,-530.110642724044
2.66124719221307,500,482,-52.4512321013165,1069.52097688556,-495.42206436679,-574.098912518765
2.66338645844475,497,477,-62.2264031668105,1089.07131901654,-497.865857133164,-591.205461883379
2.66552572467644,495,478,-47.56364656857,1091.51511178292,-510.084820965031,-581.430290817886
2.66766499090812,492,488,15.9749653571389,1074.4085624183,-549.185505227005,-525.223057191297
2.6698042571398,490,493,50.1880640863669,1067.07718411918,-571.179640124366,-495.897543994816
2.67194352337148,490,497,69.7384062173542,1057.30201305369,-580.95481118986,-476.347201863829
2.67408278960317,492,499,69.7384062173539,1047.52684198819,-576.067225657113,-471.459616331082
2.67622205583485,494,491,20.8625508898858,1062.18959858644,-546.741712460632,-515.447886125803
2.67836132206653,494,479,-37.7884755030766,1091.51511178292,-517.416199264151,-574.098912518766
2.68050058829821,493,474,-57.3388176340636,1106.17786838116,-510.084820965031,-596.093047416126
2.6826398545299,495,478,-47.56364656857,1091.51511178292,-510.084820965031,-581.430290817886
2.68477912076158,496,483,-28.0133044375823,1076.85235518468,-517.416199264151,-559.436155920524
2.68691838699326,496,492,15.9749653571389,1054.85822028731,-539.410334161512,-515.447886125803
2.68905765322494,497,502,59.9632351518604,1027.97649985721,-558.960676292499,-469.015823564708
2.69119691945663,498,503,59.9632351518603,1023.08891432446,-556.516883526126,-466.572030798335
2.69333618568831,499,494,11.0873798243922,1042.63925645545,-529.635163096018,-513.00409335943
2.69547545191999,496,486,-13.350547839342,1069.52097688556,-524.747577563271,-544.773399322284
2.69761471815167,497,481,-42.6760610358228,1079.29614795105,-507.641028198657,-571.655119752392
