t,leadI,leadII,leadIII,aVR,aVL,aVF
0,-6.37744329965327,-3.28465897887817,3.0927843207751,4.83105113926572,-4.73511381021418,-0.0959373290515364
0.00281610813855252,-16.24307239425,-1.80159028230177,14.4414821119482,9.02233133827588,-15.3422772530991,6.31994591482322
0.00563221627710504,-25.5928770996287,-1.02593226487196,24.5669448347567,13.3094046822503,-25.0799109671927,11.7705062849424
0.00844832441565756,-33.908367619335,-1.38959713513139,32.5187704842036,17.6489823772332,-33.2135690517693,15.5645866745361
0.0112644325542101,-40.7208606090068,-2.87084101437027,37.8500195946365,21.7958508116885,-39.2854401018216,17.4895892901331
0.0140805406927626,-45.7200222002862,-4.98699482469369,40.7330273755925,25.3535085124899,-43.2265247879394,17.8730162754494
0.0168966488313151,-48.8570265930484,-6.98168964894774,41.8753369441007,27.9193581209981,-45.3661817685746,17.4468236475765
0.0197127569698676,-50.3637188038544,-8.14596309771394,42.2177557061404,29.2548409507842,-46.2907372549974,17.0358963042133
0.0225288651084202,-50.6607117646273,-8.12841646349189,42.5322953011354,29.3945641140596,-46.5965035328813,17.2019394188217
0.0253449732469727,-50.2091252568485,-7.07358348304735,43.1355417738011,28.6413543699479,-46.6723335153248,18.0309791453769
0.0281610813855252,-49.4023916503068,-5.51872878380585,43.8836628665009,27.4605602170563,-46.6430272584039,19.1824670413475
0.0309771895240777,-48.5557900307521,-4.12407430548264,44.4317157252695,26.3399321681174,-46.4937528780108,20.1538207098934
0.0337932976626302,-47.9590051718407,-3.39866290523472,44.5603422666059,25.6788340385377,-46.2596737192233,20.5808396806856
0.0366094058011828,-47.8922547359651,-3.55201533197162,44.3402394039934,25.7221350339683,-46.1162470699792,20.3941120360109
0.0394255139397353,-48.5401388727504,-4.49669650066309,44.0434423720873,26.5184176867067,-46.2917906224188,19.7733729357121
0.0422416220782878,-49.8516924508101,-5.9441567979698,43.9075356528404,27.89792462439,-46.8796140518252,18.9816894274353
0.0450577302168403,-51.4821755866241,-7.52254797711984,43.9596276095043,29.502361781872,-47.7209015980642,18.2185398161922
0.0478738383553928,-52.915596151888,-8.87677188607455,44.0388242658135,30.8961840189813,-48.4772102088507,17.5810261898695
0.0506899464939454,-53.7239048913494,-9.74362513054769,43.9802797608017,31.7337650109485,-48.8520923260755,17.118327315127
0.0535060546324979,-53.7916187262722,-10.0059765653742,43.785642160898,31.8987976458232,-48.7886304435851,16.8898327977619
0.0563221627710504,-53.3423832253033,-9.72089724274896,43.6214859825543,31.5316402340261,-48.4819346039288,16.9502943699027
0.0591382709096029,-52.7510306060831,-9.10359637901866,43.6474342270645,30.9273134925509,-48.1992324165738,17.2719189240229
0.0619543790481554,-52.289074555161,-8.453776914863,43.835297640298,30.371425735012,-48.0621860977295,17.6907603627175
0.064770487186708,-51.9943247188071,-8.04190349759403,43.9524212212131,30.0181141082006,-47.9733729700101,17.9552588618095
0.0675865953252605,-51.7448300829916,-8.00833104137937,43.7364990416123,29.8765805621855,-47.7406645623019,17.8640840001164
0.070402703463813,-51.4490604224158,-8.33217174415786,43.1168886782579,29.8906160832868,-47.2829745503368,17.39235846705
0.0732188116023655,-51.1756277262426,-8.88481612394198,42.2908116023006,30.0302219250923,-46.7332196642716,16.7029977391793
0.076034919740918,-51.1074618442192,-9.52257380666458,41.5848880375546,30.3150178254419,-46.3461749408869,16.031157115445
0.0788510278794706,-51.362895451747,-10.1462248284191,41.216670623328,30.754560140083,-46.2897830375375,15.5352228974545
0.0816671360180231,-51.8438539503224,-10.6909984232911,41.1528555270313,31.2674261868067,-46.4983547386769,15.2309285518701
0.0844832441565756,-52.250012101692,-11.0772244275112,41.1727876741809,31.6636182646016,-46.7113998879365,15.0477816233349
0.0872993522951281,-52.2592173978674,-11.1869797616666,41.0722376362009,31.723098579767,-46.6657275170341,14.9426289372672
0.0901154604336806,-51.7382482630719,-10.907886838967,40.8303614241049,31.3230675510195,-46.2843048435884,14.9612372925689
0.0929315685722332,-50.8267990831846,-10.227258486742,40.5995405964426,30.5270287849633,-45.7131698398136,15.1861410548503
0.0957476767107857,-49.8419310977679,-9.30916647341229,40.5327646243556,29.5755487855901,-45.1873478610617,15.6117990754716
0.0985637848493382,-49.0858229240976,-8.47595648348627,40.6098664406113,28.7808897037919,-44.8478446823544,16.0669549785625
0.101379892987891,-48.6964035456902,-8.06437133939882,40.6320322062914,28.3803874425445,-44.6642178759908,16.2838304334463
0.104196001126443,-48.6234811879147,-8.22020008230912,40.4032811056055,28.4218406351119,-44.5133811467601,16.0915405116482
0.107012109264996,-48.7035039479864,-8.76818374676699,39.9353202012194,28.7358438473767,-44.3194120746029,15.5835682272262
0.109828217403548,-48.7455129010984,-9.27219215507845,39.4733207460199,29.0088525280884,-44.1094168235591,15.1005642954707
0.112644325542101,-48.5753973384177,-9.2783535599549,39.2970437784628,28.9268754491863,-43.9362205584402,15.0093451092539
0.115460433680653,-48.0591494764976,-8.59464042987624,39.4645090466214,28.3268949531869,-43.7618292615595,15.4349343083726
0.118276541819206,-47.1475239557194,-7.41623129077278,39.7312926649466,27.2818776232461,-43.439408310333,16.1575306870869
0.121092649957758,-45.9343147331118,-6.20225832097067,39.7320564121411,26.0682865270412,-42.8331855726265,16.7648990455852
0.123908758096311,-44.6634159362369,-5.38197984607441,39.2814360901625,25.0226978911557,-41.9724260131997,16.9497281220441
0.126724866234863,-43.6290372638699,-5.08875456861489,38.540282695255,24.3588959162424,-41.0846599795624,16.72576406332
0.129540974373416,-42.9967032804183,-5.09608217495594,37.9006211054624,24.0463927276871,-40.4486621929404,16.4022694652532
0.132357082511968,-42.6613366189005,-4.9817461532744,37.6795904656261,23.8215413860875,-40.1704635422633,16.3489221561759
0.135173190650521,-42.2643787587203,-4.39128961199875,37.8730891467215,23.3278341853595,-40.0687339527209,16.7408997673614
0.137989298789073,-41.3895894650327,-3.22319172049232,38.1663977445404,22.3063905927625,-39.7779936047865,17.471603012024
0.140805406927626,-39.8185210368989,-1.63391614804007,38.1846048888588,20.7262185924695,-39.0015629628789,18.2753443704094
0.143621515066179,-37.6669220120595,0.107965539656651,37.7748875517162,18.7794782362014,-37.7209047818878,18.9414265456864
0.146437623204731,-35.3036334334434,1.7945221158036,37.098155549247,16.7545556588199,-36.2008944913452,19.4463388325253
0.149253731343284,-33.1179055204077,3.35305516556399,36.4709606859717,14.8824251774219,-34.7944331031897,19.9120079257679
0.152069839481836,-31.3137001972621,4.78711318509132,36.1008133823535,13.2632935060854,-33.7072567898078,20.4439632837224
0.154885947620389,-29.874178719465,6.06300546793616,35.9371841874011,11.9055866257644,-32.905681453433,21.0000948276686
0.157702055758941,-28.687881723194,7.06882999516691,35.7567117183609,10.8095258640136,-32.2222967207775,21.4127708567639
0.160518163897494,-27.6922306923289,7.70710826714024,35.3993389594692,9.99256121259434,-31.545784825899,21.5532236133047
0.163334272036046,-26.889251212928,8.05124700223154,34.9404982151595,9.41900210534822,-30.9148747140438,21.4958726086955
0.166150380174599,-26.2254483151989,8.41502864402758,34.6404769592264,8.90520983558563,-30.4329626372126,21.527752801627
0.168966488313151,-25.4792252278609,9.23151472145521,34.7107399493161,8.12385525320286,-30.0949825885885,21.9711273353857
0.171782596451704,-24.3200836893104,10.7805936311245,35.1006773204349,6.76974502909297,-29.7103805048726,22.9406354757797
0.174598704590256,-22.5600096584981,12.9295976178126,35.4896072763107,4.81520602034278,-29.0248084674044,24.2096024470616
0.177414812728809,-20.4242311677085,15.0646010874839,35.4888322551924,2.67981504011228,-27.9565317114504,25.2767166713381
0.180230920867361,-18.5980112967104,16.2864095493956,34.884420846106,1.15580087365742,-26.7412160714082,25.5854151977508
0.183047029005914,-17.9401997641284,15.7967133203189,33.7369130844473,1.07174322190475,-25.8385564242878,24.7668132023831
0.185863137144466,-19.0033277537374,13.2927053716314,32.2960331253688,2.85531119105297,-25.6496804395531,22.7943692485001
0.188679245283019,-21.6672825916562,9.17406197883329,30.8413445704895,6.24661030641144,-26.2543135810728,20.0077032746614
0.191495353421571,-25.1413077505331,4.44635019254586,29.587657943079,10.3474787789936,-27.3644828468061,17.0170040678124
0.194311461560124,-28.3516680591917,0.342123802535964,28.6937918617277,14.0047721283279,-28.5227299604597,14.5179578321318
0.197127569698676,-30.4794626586872,-2.18173256221968,28.2977300964675,16.3305976104534,-29.3885963775774,13.0579987671239
0.199943677837229,-31.3201267802814,-2.8362746174872,28.4838521627942,17.0782006988843,-29.9019894715378,12.8237887726535
0.202759785975781,-31.2651098037113,-2.08467516433856,29.1804346393728,16.6748924840249,-30.2227722215421,13.5478797375171
0.205575894114334,-30.9626845401095,-0.871929793097854,30.0907547470117,15.9173071666037,-30.5267196435606,14.6094124769569
0.208392002252887,-30.9143184657585,-0.146723960913461,30.7675945048451,15.530521213336,-30.8409564853018,15.3104352719658
0.211208110391439,-31.2682227680754,-0.43827403633901,30.8299487317363,15.8532484022072,-31.0490857499059,15.1958373476987
0.214024218529992,-31.8944561266923,-1.71008257879179,30.1843735479005,16.8022693527421,-31.0394148372964,14.2371454845544
0.216840326668544,-32.6145981888954,-3.53673584453655,29.0778623443588,18.075667016716,-30.8462302666271,12.7705632499111
0.219656434807097,-33.3784073946087,-5.45423877283329,27.9241686217754,19.416323083721,-30.651288008192,11.2349649244711
0.222472542945649,-34.2744333085814,-7.24866369404703,27.0257696145344,20.7615485013142,-30.6501014615579,9.88855296024366
0.225288651084202,-35.4229931055116,-9.01936039240107,26.4036327131105,22.2211767489563,-30.913312909311,8.69213616035471
0.228104759222754,-36.8772012212099,-11.0131862341223,25.8640149870876,23.9451937276661,-31.3706081041488,7.42541437648266
0.230920867361307,-38.6004866252934,-13.3603596431387,25.2401269821547,25.980423134216,-31.9203068037241,5.93988366950804
0.233736975499859,-40.4836488867136,-15.8826752430324,24.6009736436812,28.183162064873,-32.5423112651974,4.3591492003244
0.236553083638412,-42.3345700737588,-18.0914829999821,24.2430870737767,30.2130265368705,-33.2888285737678,3.07580203689728
0.239369191776964,-43.8464019145339,-19.3846771132247,24.4617248013092,31.6155395138793,-34.1540633579216,2.53852384404226
0.242185299915517,-44.6287685505167,-19.3428887224041,25.2858798281126,31.9858286364604,-34.9573241893147,2.97149555285427
0.245001408054069,-44.3634238366821,-17.9676187018968,26.3958051347853,31.1655212692894,-35.3796144857337,4.21409321644424
0.247817516192622,-43.0254679181829,-15.7289492265251,27.2965186916578,29.377208572354,-35.1609933049203,5.78378473256633
0.250633624331174,-41.0084102359958,-13.3911472376918,27.6172629983039,27.1997787368438,-34.3128366171498,7.11305788030604
0.253449732469727,-39.0176250236811,-11.7072795375811,27.3103454861,25.3624522806311,-33.1639852548906,7.80153297425944
0.256265840608279,-37.7517865776265,-11.1399164932163,26.6118700844102,24.4458515354214,-32.1818283310184,7.73597679559697
0.259081948746832,-37.5557603506121,-11.7332672876933,25.8224930629188,24.6445138191527,-31.6891267067655,7.04461288761276
0.261898056885384,-38.2656698188128,-13.1663864308485,25.0992833879643,25.7160281248307,-31.6824766033886,5.9664484785579
0.264714165023937,-39.3442450154969,-14.927821653813,24.416423361684,27.136033334655,-31.8803341885905,4.74430085393551
0.267530273162489,-40.211490551203,-16.5163774364451,23.6951131147579,28.3639339938241,-31.9533018329805,3.58936783915638
0.270346381301042,-40.5499544716302,-17.5907884580735,22.9591660135567,29.0703714648519,-31.7545602425935,2.68418877774162
0.273162489439594,-40.3951333521909,-18.032204272756,22.3629290794348,29.2136688124735,-31.3790312158129,2.1653624033394
0.275978597578147,-39.9863525257083,-17.9188303122188,22.0675222134896,28.9525914189636,-31.026937369599,2.07434595063539
0.2787947057167,-39.5259606752218,-17.4370253241377,22.0889353510841,28.4814929996798,-30.8074480131529,2.32595501347318
0.281610813855252,-39.0428565493637,-16.7753440978083,22.2675124515554,27.909100323586,-30.6551845004595,2.74608417687358
0.284426921993805,-38.4493117701489,-16.0599250439492,22.3893867261997,27.2546184070491,-30.4193492481743,3.16473084112526
0.287243030132357,-37.7128910829326,-15.36974933398,22.3431417489527,26.5413202084563,-30.0280164159426,3.48669620748633
0.29005913827091,-36.9792366120192,-14.8171704560877,22.1620661559315,25.8982035340535,-29.5706513839754,3.67244784992189
0.292875246409462,-36.540377325168,-14.6243842913741,21.915993033794,25.582380808271,-29.228185179481,3.64580437120996
0.295691354548015,-36.6778376758323,-15.1082245979845,21.5696130778478,25.8930311369084,-29.1237253768401,3.23069423993165
0.298507462686567,-37.492008364822,-16.5208481019861,20.9711602628359,27.006428233404,-29.231584313829,2.22515608042492
0.30132357082512,-38.797571478323,-18.7711124971168,20.0264589812062,28.7843419877199,-29.4120152297646,0.627673242044736
0.304139678963672,-40.0735350449181,-21.1358745946718,18.9376604502463,30.6047048197949,-29.5055977475822,-1.09910707221276
0.306955787102225,-40.4145202376661,-22.1184285525827,18.2960916850834,31.2664743951244,-29.3553059613748,-1.91116843374965
0.309771895240777,-38.4915759911135,-19.5903127059512,18.9012632851624,29.0409443485324,-28.696419638138,-0.344524710394381
0.31258800337933,-32.6337590363551,-11.2573101940565,21.3764488422986,21.9455346152058,-27.0051039393269,5.05956932412105
0.315404111517882,-21.1608164690631,4.64794555249278,25.8087620215559,8.25643545828516,-23.4847892453095,15.2283537870243
0.318220219656435,-2.97174586775746,28.6599611365121,31.6317070042696,-12.8441076343773,-17.3017264360135,30.1458340703908
0.321036327794987,21.8017921926331,59.5992640884547,37.7974718958216,-40.7005281405439,-7.99783985159427,48.6983679921381
0.32385243593354,51.3827371142717,94.4764802195643,43.0937431052927,-72.929608666918,4.1444970044895,68.7851116624285
0.326668544072092,82.41457749548,128.82056098989,46.4059834944099,-105.617569242685,18.004297000535,87.6132722421499
0.329484652210645,110.530668844397,157.375790526997,46.8451216825999,-133.953229685697,31.8427735808986,102.110456104798
0.332300760349197,131.23793637148,175.059224224692,43.821287853212,-153.148580298086,43.7083242591342,109.440256038952
0.33511686848775,140.842725449789,178.025067306004,37.1823418562155,-159.433896377897,51.8301917967867,107.60370458111
0.337932976626302,137.205196304748,164.622717093941,27.4175207891928,-150.913956699344,54.8938377577775,96.0201189415667
0.340749084764855,120.216712544446,135.989694853712,15.7729823092661,-128.103203699079,52.22186511759,75.8813385814892
0.343565192903407,91.9542048429036,96.0505480856652,4.09634324276159,-94.0023764642844,43.928930800071,50.0734456642134
0.34638130104196,56.4553170708536,50.8280482088515,-5.6272688620021,-53.6416826398525,31.0412929664279,22.6003896734247
0.349197409180513,19.0494115706893,7.17845138043221,-11.8709601902571,-13.1139314755608,15.4601858804732,-2.34625440491246
0.352013517319065,-14.7300043681793,-28.7350394265768,-14.0050350583975,21.7325218973781,-0.362484654890928,-21.3700372424871
0.354829625457618,-40.4241711186852,-52.7950822920429,-12.3709111733577,46.6096267053641,-14.0266299726637,-32.5829967327003
0.35764573359617,-55.7027880022455,-63.6995722494271,-7.99678424718168,59.7011801258363,-23.8530018775319,-35.8481782483044
0.360461841734723,-60.7718180005281,-62.9276512529049,-2.15583325237675,61.8497346267165,-29.3079923740757,-32.5417422526408
0.363277949873275,-57.9606465362731,-53.9664646076634,3.99418192860968,55.9635555719683,-30.9774142324414,-24.9861413395269
0.366094058011828,-50.6882748396629,-41.1141258212997,9.5741490183632,45.9012003304813,-30.131211929013,-15.7699884014682
0.36891016615038,-42.2804763483516,-28.2842657068147,13.9962106415369,35.2823710275832,-28.1383434949443,-7.14402753263887
0.371726274288933,-35.1148659414905,-18.1715396174539,16.9433263240366,26.6432027794722,-26.0290961327636,-0.614106646708663
0.374542382427485,-30.3290024730114,-11.9477109088927,18.3812915641187,21.1383566909521,-24.3551470185651,3.21679032761301
0.377358490566038,-28.0139146903381,-9.44746322993891,18.5664514603992,18.7306889601385,-23.2901830753687,4.55949411523014
0.38017459870459,-27.6261246617496,-9.65899929673317,17.9671253650164,18.6425619792414,-22.796625013383,4.15406303414162
0.382990706843143,-28.366834378731,-11.2878314018652,17.0790029768658,19.8273328902981,-22.7229186777984,2.89558578750029
0.385806814981695,-29.4275819266664,-13.2011241717751,16.2264577548913,21.3143530492208,-22.8270198407789,1.5126667915581
0.388622923120248,-30.1405413010285,-14.6552929521776,15.4852483488508,22.397917126603,-22.8128948249396,0.41497769833661
0.3914390312588,-30.099251632968,-15.3201094999627,14.7791421330053,22.7096805664653,-22.4391968829866,-0.270483683478673
0.394255139397353,-29.2484796381948,-15.1882874742713,14.0601921639235,22.218383556233,-21.6543359010592,-0.564047655173868
0.397071247535905,-27.8776452527,-14.4652456137047,13.4123996389953,21.1714454332024,-20.6450224458477,-0.52642298735473
0.399887355674458,-26.4723156624891,-13.4794449758213,12.9928706866679,19.9758803191552,-19.7325931745785,-0.243287144576716
0.40270346381301,-25.473166125037,-12.5945039405936,12.8786621844434,19.0338350328153,-19.1759141547402,0.142079121924873
0.405519571951563,-25.0725813596843,-12.0959553172971,12.9766260423872,18.5842683384907,-19.0246037010358,0.440335362545069
0.408335680090115,-25.1644411251795,-12.0711917998897,13.0932493252898,18.6178164625346,-19.1288452252346,0.51102876270004
0.411151788228668,-25.4567991838132,-12.348423507997,13.1083756758162,18.9026113459051,-19.2825874298147,0.379976083909646
0.41396789636722,-25.6471869228141,-12.5556018738672,13.0915850489468,19.1013943983407,-19.3693859858805,0.267991587539793
0.416784004505773,-25.5376894864742,-12.2972803119664,13.2404091745078,18.9174848992203,-19.389049330491,0.471564431270698
0.419600112644326,-25.0434664366202,-11.3675312421527,13.6759351944675,18.2054988393864,-19.3597008155438,1.15420197615742
0.422416220782878,-24.1461577391194,-9.87748563764885,14.2686721014705,17.0118216883841,-19.2074149202949,2.19559323191082
0.425232328921431,-22.872854126884,-8.21305291095136,14.6598012159326,15.5429535189177,-18.7663276714083,3.22337415249064
0.428048437059983,-21.3259147894994,-6.83803327715816,14.4878815123412,14.0819740333288,-17.9068981509203,3.82492411759152
0.430864545198536,-19.7139786898642,-6.05806820623623,13.655910483628,12.8860234480502,-16.6849445867461,3.79892113869589
0.433680653337088,-18.317306101198,-5.89050976504025,12.4267963361577,12.1039079331191,-15.3720512186778,3.26814328555873
0.436496761475641,-17.3779839538803,-6.11483516220721,11.2631487916731,11.7464095580437,-14.3205663727767,2.57415681473293
0.439312869614193,-16.9816001878906,-6.4511461175161,10.5304540703745,11.7163731527034,-13.7560271291326,2.03965397642921
0.442128977752746,-17.0177655760695,-6.72658769485453,10.2911778812149,11.872176635462,-13.6544717286422,1.78229509318021
0.444945085891298,-17.2499395398144,-6.91222852069138,10.337711019123,12.0810840302529,-13.7938252794687,1.71274124921581
0.447761194029851,-17.4382336720901,-7.02457908910324,10.4136545829868,12.2314063805967,-13.9259441275384,1.69453774694179
0.450577302168403,-17.4185521914667,-6.99300016620202,10.4255520252647,12.2057761788344,-13.9220521083657,1.71627592953134
0.453393410306956,-17.088921480065,-6.61641132733409,10.4725101527309,11.8526664036996,-13.780715816398,1.92804941269842
0.456209518445508,-16.3507863400679,-5.66052083318505,10.6902655068829,11.0056535866265,-13.5205259234754,2.51487233684892
0.459025626584061,-15.1028821765468,-4.03542539942551,11.0674567771213,9.56915378798617,-13.0851694768341,3.51601568884791
0.461841734722613,-13.3289372570075,-1.92267790842275,11.4062593485848,7.62580758271515,-12.3675983027962,4.74179072008102
0.464657842861166,-11.2079298359478,0.253927126405773,11.4618569623535,5.477001354771,-11.3348933991507,5.85789204437966
0.467473950999718,-9.12036322261058,2.01230819277663,11.1326714153872,3.55402751491697,-10.1265173189989,6.57248980408192
0.470290059138271,-7.48974033193836,3.04075613735048,10.5304964692888,2.22449209729394,-9.0101184006136,6.78562630331966
0.473106167276823,-6.53793444208893,3.3326241114188,9.87055855350773,1.60265516533506,-8.20424649779833,6.60159133246326
0.475922275415376,-6.12872810091622,3.15432460341952,9.28305270433574,1.48720174874835,-7.70589040262598,6.21868865387763
0.478738383553928,-5.83579879124269,2.88243705124827,8.71823584249096,1.47668086999721,-7.27701731686682,5.80033644686961
0.481554491692481,-5.21358177359012,2.82204287752435,8.03562465111447,1.19576944803289,-6.62460321235229,5.42883376431941
0.484370599831033,-4.0870253701577,3.11266368105865,7.19968905121635,0.487180844549526,-5.64335721068703,5.1561763661375
0.487186707969586,-2.6455332760939,3.75191673603808,6.39745001213199,-0.55319172997209,-4.52149164411294,5.07468337408503
0.490002816108139,-1.26908656465469,4.68506243562576,5.95414900028046,-1.70798793548554,-3.61161778246757,5.31960571795311
0.492818924246691,-0.224204247869705,5.87838801407413,6.10259226194383,-2.82709188310221,-3.16339825490677,5.99049013800898
0.495635032385244,0.528131389275221,7.32128152908945,6.79315013981423,-3.92470645918234,-3.13250937526951,7.05721583445184
0.498451140523796,1.25859098598518,8.95693301775767,7.69834203177249,-5.10776200187142,-3.21987552289366,8.32763752476508
0.501267248662349,2.18808496136559,10.5948161996954,8.40673123832978,-6.39145058053048,-3.10932313848209,9.50077371901257
0.504083356800901,3.22944699643339,11.8845285124384,8.65508151600497,-7.55698775443588,-2.71281725978579,10.2698050142217
0.506899464939454,3.97811904744707,12.4099627217191,8.43184367427202,-8.19404088458308,-2.22686231341247,10.4209031979956
0.509715573078006,3.99070140032013,11.8943932737686,7.90369187344845,-7.94254733704436,-1.95649523656416,9.89904257360852
0.512531681216559,3.16052682387388,10.4225790333857,7.26205220951182,-6.79155292862979,-2.05076269281897,8.84231562144876
0.515347789355111,1.90795472916898,8.53871038433122,6.63075565516224,-5.2233325567501,-2.36140046299663,7.58473301974673
0.518163897493664,1.02532586530681,7.11372570617386,6.08839984086705,-4.06952578574034,-2.53153698778012,6.60106277352046
0.520980005632216,1.26167043741575,6.99559943159366,5.73392899417791,-4.1286349345047,-2.23612927838108,6.36476421288579
0.523796113770769,2.91592558943983,8.60262456071197,5.68669897127214,-5.7592750750759,-1.38538669091615,7.14466176599205
0.526612221909321,5.69459847639906,11.6897437443301,5.99514526793102,-8.69217111036456,-0.15027339576598,8.84244450613054
0.529428330047874,8.89873119060168,15.4398754800373,6.5411442894356,-12.1693033353195,1.17879345058304,10.9905098847364
0.532244438186426,11.7877950877753,18.84062123247,7.05282614469466,-15.3142081601227,2.36748447154033,12.9467236885823
0.535060546324979,13.883793953746,21.1332417948948,7.24944784114878,-17.5085178743204,3.31717305629862,14.1913448180218
0.537876654463531,15.0695262806489,22.0906501496412,7.02112386899226,-18.580088215145,4.02420120582832,14.5558870093167
0.540692762602084,15.5041825969612,22.0070119427129,6.50282934575167,-18.755597269837,4.50067662560477,14.2549206442323
0.543508870740636,15.4828417542279,21.4584197532544,5.97557799902652,-18.4706307537411,4.75363187760068,13.7169988761405
0.546324978879189,15.3385595797803,21.000393552005,5.66183397222469,-18.1694765658927,4.83836280377781,13.3311137621148
0.549141087017741,15.3883929275946,20.959404778994,5.57101185139944,-18.1738988532943,4.90869053809757,13.2652083151967
0.551957195156294,15.8703746390642,21.3886679407767,5.5182933017125,-18.6295212899205,5.17604066867586,13.4534806212446
0.554773303294847,16.8560663820934,22.1592875311226,5.30322114902919,-19.507676956608,5.77642261653211,13.7312543400759
0.557589411433399,18.1994743183235,23.099128861158,4.89965454283453,-20.6493015897408,6.64990988774449,13.9993917019963
0.560405519571952,19.6004047190566,24.0916873060574,4.49128258700076,-21.846046012557,7.55456106602794,14.2914849465291
0.563221627710504,20.7783130968485,25.0913062853691,4.31299318852056,-22.9348096911088,8.23265995416399,14.7021497369448
0.566037735849057,21.6413562371044,26.0693625973654,4.42800636026094,-23.8553594172349,8.60667493842173,15.2486844788131
0.568853843987609,22.3122371892061,26.947121742555,4.63488455334895,-24.6296794658805,8.83867631792856,15.791003147952
0.571669952126162,22.9781714462722,27.5730117446578,4.59484029838555,-25.275591595465,9.19166557394333,16.0839260215217
0.574486060264714,23.6824371920394,27.7665625888005,4.08412539676109,-25.7244998904199,9.79915589763915,15.9253439927808
0.577302168403267,24.2365377468697,27.4054002915,3.16886254463032,-25.8209690191849,10.5338376011197,15.2871314180652
0.580118276541819,24.3434085807743,26.5069068861358,2.16349830536154,-25.425157733455,11.0899551377064,14.3352025957487
0.582934384680372,23.8489737564465,25.2602780632754,1.41130430682885,-24.5546259098609,11.2188347248088,13.3357911850521
0.585750492818924,22.9219231530971,23.9832985040249,1.06137535092775,-23.452610828561,10.9302739010847,12.5223369274763
0.588566600957477,22.0011177568388,23.0046089146037,1.00349115776491,-22.5028633357213,10.498813299537,12.0040500361843
0.591382709096029,21.5267894250167,22.513157405986,0.986367980969266,-22.0199734155014,10.2702107220237,11.7497626934776
0.594198817234582,21.6506546132048,22.4573358103098,0.806681197104918,-22.0539952117573,10.42198670805,11.6320085037073
0.597014925373134,22.1482286932353,22.5712233179572,0.422994624721884,-22.3597260055962,10.8626170342567,11.4971089713395
0.599831033511687,22.5981573857418,22.529021066911,-0.0691363188307754,-22.5635892263264,11.3336468522863,11.2299423740401
0.602647141650239,22.6786227737804,22.1294209852839,-0.549201788496443,-22.4040218795322,11.6139122811384,10.7901095983938
0.605463249788792,22.3441226120789,21.3806660060446,-0.963456606034264,-21.8623943090617,11.6537896090566,10.2086047000052
0.608279357927344,21.7567202530668,20.4300585019954,-1.32666175107143,-21.0933893775311,11.5416910020691,9.551698375462
0.611095466065897,21.0541028557886,19.3963469413938,-1.65775591439482,-20.2252248985912,11.3559293850917,8.86929551349948
0.613911574204449,20.166418685342,18.2290707619696,-1.93734792337244,-19.1977447236558,11.0518833043572,8.14586141929856
0.616727682343002,18.840191637002,16.6971445088459,-2.14304712815607,-17.7686680729239,10.491619382579,7.27704869034491
0.619543790481555,16.8433943769451,14.5221965681542,-2.32119780879089,-15.6827954725496,9.58229609286798,6.10049937968165
0.622359898620107,14.1744014348612,11.5756821287363,-2.59871930612483,-12.8750417817987,8.386560370493,4.48848141130574
0.625176006758659,11.1058479572137,8.01373362659574,-3.09211433061794,-9.55979079190471,7.09898114391581,2.4608096479889
0.627992114897212,8.04204756066717,4.26192721860792,-3.78012034205925,-6.15198738963754,5.91108395136321,0.240903438274338
0.630808223035765,5.31775344515331,0.857031150810683,-4.46072229434263,-3.087392297982,4.88923786974797,-1.80184557176597
0.633624331174317,3.09162051583899,-1.7639860331869,-4.85560654902588,-0.663817241326046,3.97361353243244,-3.30979629110639
0.63644043931287,1.38272893444258,-3.41980227944915,-4.80253121389173,1.01853667250328,3.09263007416716,-4.11116674667044
0.639256547451422,0.168100697635502,-4.22363872115327,-4.39173941878877,2.02776901175888,2.27992005821214,-4.30768906997102
0.642072655589975,-0.579009667417527,-4.50755170666553,-3.928542039248,2.54328068704153,1.67476618591524,-4.21804687295677
0.644888763728527,-0.947583533404077,-4.67691710521691,-3.72933357181284,2.8122503193105,1.39087501920438,-4.20312533851488
0.64770487186708,-1.16178093797671,-5.05639797781006,-3.89461703983334,3.10908945789338,1.36641805092832,-4.4755075088217
0.650520980005632,-1.55200214186126,-5.78979597435431,-4.23779383249305,3.67089905810778,1.3428958453159,-5.01379490342368
0.653337088144185,-2.40255968975472,-6.83785918884975,-4.43529949909503,4.62020943930223,1.01636990467016,-5.63657934397239
0.656153196282737,-3.78721533858765,-8.07133046619091,-4.28411512760326,5.92927290238928,0.248449894507805,-6.17772279689709
0.65896930442129,-5.53631491483886,-9.39785376875967,-3.86153885392081,7.46708434179927,-0.837388030459023,-6.62969631134024
0.661785412559842,-7.37142159676749,-10.8345083679698,-3.46308677120227,9.10296498236862,-1.95416741278261,-7.14879756958602
0.664601520698395,-9.0947077825171,-12.4728831176615,-3.37817533514443,10.7837954500893,-2.85826622368634,-7.92552922640298
0.667417628836947,-10.6706692353503,-14.3592977467781,-3.68862851142782,12.5149834910642,-3.49102036196122,-9.02396312910296
0.6702337369755,-12.1353219045581,-16.3727378773558,-4.23741597279775,14.2540298909569,-3.94895296588015,-10.3050769250768
0.673049845114052,-13.4269410867181,-18.1891055500823,-4.76216446336422,15.8080233184002,-4.33238831167693,-11.4756350067233
0.675865953252605,-14.3115577706897,-19.3746937975144,-5.06313602682478,16.843125784102,-4.62421087193244,-12.2189149121696
0.678682061391157,-14.5030716441818,-19.5789739705898,-5.07590232640796,17.0410228073858,-4.71358465888692,-12.3274381484989
0.68149816952971,-13.906330775006,-18.7310276549434,-4.82469687993748,16.3186792149747,-4.54081694753424,-11.7778622674405
0.684314277668262,-12.7829522446148,-17.1258936411058,-4.34294139649098,14.9544229428603,-4.22000542406192,-10.7344175187984
0.687130385806815,-11.6743968391296,-15.3385403623526,-3.66414352322291,13.5064686007411,-4.00512665795336,-9.50134194278773
0.689946493945367,-11.1040273477391,-13.9964903318111,-2.89246298407205,12.5502588397751,-4.10578218183351,-8.44447665794159
0.69276260208392,-11.2645927157159,-13.516287169511,-2.25169445379518,12.3904399426134,-4.50644913096034,-7.88399081165311
0.695578710222473,-11.9154845538138,-13.9237864062304,-2.00830185241666,12.9196354800221,-4.95359135069856,-7.96604412932356
0.698394818361025,-12.5525471796969,-14.8392890705423,-2.2867418908454,13.6959181251196,-5.13290264442573,-8.56301548069383
0.701210926499578,-12.7170478199923,-15.6421922916882,-2.92514447169587,14.1796200558402,-4.89595167414822,-9.28366838169202
0.70402703463813,-12.2347687178877,-15.7563569536819,-3.52158823579419,13.9955628357848,-4.35659024104676,-9.63897259473805
0.706843142776683,-11.2568997088287,-14.9351869322987,-3.67828722347,13.0960433205637,-3.78930624267934,-9.30673707788434
0.709659250915235,-10.1254639598652,-13.4049525029561,-3.27948854309094,11.7652082314107,-3.42298770838713,-8.34222052302354
0.712475359053788,-9.18782699921944,-11.7767127227923,-2.58888572357291,10.4822698610059,-3.29947063782326,-7.18279922318263
0.71529146719234,-8.67595958467166,-10.7540095757125,-2.07804999104087,9.7149845801921,-3.2989547968154,-6.4160297833767
0.718107575330893,-8.67763852781469,-10.7818901800602,-2.10425165224546,9.72976435393742,-3.28669343778461,-6.44307091615281
0.720923683469445,-9.14667177026308,-11.821804828499,-2.67513305823595,10.4842382993811,-3.23576935601356,-7.24846894336749
0.723739791607998,-9.89678211527313,-13.3654660122309,-3.46868389695772,11.631124063752,-3.2140491091577,-8.41707495459429
0.72655589974655,-10.5898833190856,-14.6663260653886,-4.07644274630299,12.6281046922371,-3.25672028639132,-9.3713844058458
0.729372007885103,-10.7865850175799,-15.0584662940249,-4.27188127644503,12.9225256558024,-3.25735187056742,-9.66517378523496
0.732188116023655,-10.1044641828177,-14.2117217796901,-4.10725759687238,12.1580929812539,-2.99860329297265,-9.15948968828121
0.735004224162208,-8.43355878455814,-12.232629231163,-3.79907044660487,10.3330940078606,-2.31724416897663,-8.01584983888394
0.73782033230076,-6.07066476057961,-9.60411437037986,-3.53344960980025,7.83738956547973,-1.26860757538968,-6.56878199009005
0.740636440439313,-3.64613319935127,-7.00979142574228,-3.36365822639101,5.32796231254677,-0.141237486480128,-5.18672482606665
0.743452548577865,-1.84462834553362,-5.10564000848077,-3.26101166294716,3.4751341770072,0.70819165870677,-4.18332583571397
0.746268656716418,-1.07407712350408,-4.30594736280256,-3.23187023929848,2.69001224315332,1.0788965578972,-3.76890880105052
0.74908476485497,-1.28811574431462,-4.65088515679415,-3.36276941247953,2.96950045055439,1.03732683408246,-4.00682728463684
0.751900872993523,-2.06663570556064,-5.80525715474426,-3.73862144918362,3.93594643015245,0.835992871811492,-4.77193930196394
0.754716981132075,-2.88142405513431,-7.19320393675397,-4.31177988161967,5.03731399594414,0.715177913242681,-5.75249190918682
0.757533089270628,-3.35946310603028,-8.22038388010245,-4.86092077407216,5.78992349306637,0.750728834020939,-6.54065232708731
0.76034919740918,-3.39053793487131,-8.50020000595767,-5.10966207108635,5.94536897041449,0.859562068107521,-6.80493103852201
0.763165305547733,-3.06499245106581,-7.99554448610332,-4.93055203503751,5.53026846858457,0.932779791985848,-6.46304826057042
0.765981413686285,-2.54622559391801,-7.01367632806257,-4.46745073414456,4.77995096099029,0.960612570113272,-5.74056353110356
0.768797521824838,-1.99075610023239,-6.04916772678455,-4.05841162655216,4.01996191350847,1.03382776315988,-5.05378967666835
0.771613629963391,-1.54236623116732,-5.54372574687474,-4.00135951570742,3.54304598902103,1.22949664227005,-4.77254263129108
0.774429738101943,-1.33922656576336,-5.68270528876996,-4.3434787230066,3.51096592726666,1.50212607862162,-5.01309200588828
0.777245846240496,-1.46708058209218,-6.33372015287193,-4.86663957077975,3.90040036748205,1.69977949434378,-5.60017986182584
0.780061954379048,-1.86836498002501,-7.14891392955994,-5.28054894953493,4.50863945479248,1.70609198475496,-6.21473143954744
0.782878062517601,-2.29620193133968,-7.75306782102562,-5.45686588968593,5.02463487618265,1.58033197917313,-6.60496685535578
0.785694170656153,-2.39794557208637,-7.90076111306352,-5.50281554097715,5.14935334257494,1.55243498444539,-6.70178832702033
0.788510278794706,-1.91654074730291,-7.53514608380055,-5.61860533649764,4.72584341555173,1.85103229459737,-6.57687571014909
0.791326386933258,-0.886937856529281,-6.76600600781197,-5.87906815128269,3.82647193217063,2.49606514737671,-6.32253707954733
0.794142495071811,0.322800302416683,-5.82354058082115,-6.14634088323784,2.75037013920223,3.23457059282726,-5.98494073202949
0.796958603210363,1.18363210279722,-5.01142783905485,-6.19505994185207,1.91389786812882,3.68934602232464,-5.60324389045346
0.799774711348916,1.29753582478862,-4.63448743509973,-5.93202325988835,1.66847580515556,3.61477954233849,-5.28325534749404
0.802590819487468,0.622481371732909,-4.88248927432059,-5.5049706460535,2.13000395129384,3.06372600889321,-5.19372996018705
0.805406927626021,-0.515110625360516,-5.71198771084692,-5.1968770854864,3.11354916810372,2.34088323006294,-5.45443239816666
0.808223035764573,-1.61768342364407,-6.8124417706245,-5.19475834698043,4.21506259713429,1.78853746166818,-6.00360005880247
0.811039143903126,-2.27940405836155,-7.71257218611054,-5.43316812774898,4.99598812223604,1.57688203469372,-6.57287015692976
0.813855252041678,-2.34430807354403,-7.99279586682661,-5.64848779328258,5.16855197018532,1.65208985986928,-6.8206418300546
0.816671360180231,-1.89067699776556,-7.49027523131291,-5.59959823354735,4.69047611453924,1.85446061789089,-6.54493673243013
0.819487468318783,-1.10825830314323,-6.37891611855925,-5.27065781541602,3.74358721085124,2.0811997561364,-5.82478696698763
0.822303576457336,-0.195152835244296,-5.084557470672,-4.88940463542771,2.63985515295815,2.34712590009171,-4.98698105304986
0.825119684595888,0.652380241307561,-4.09595976672652,-4.74834000803408,1.72178976270948,2.70036012467082,-4.4221498873803
0.827935792734441,1.19773542929009,-3.77796077146338,-4.97569620075348,1.29011267108665,3.08671581502178,-4.37682848610843
0.830751900872993,1.17823358581096,-4.26173750331869,-5.43997108912965,1.54175195875387,3.30910233747031,-4.85085429622417
0.833568009011546,0.433692102643462,-5.42460160722634,-5.8582937098698,2.49545475229144,3.14599290625663,-5.64144765854807
0.836384117150099,-0.925380120788167,-6.93607063786162,-6.01069051707346,3.9307253793249,2.54265519814265,-6.47338057746754
0.839200225288651,-2.46876301634566,-8.3514012941581,-5.88263827781245,5.41008215525188,1.7069376307334,-7.11701978598527
0.842016333427204,-3.61371250624862,-9.24548389901923,-5.63177139277061,6.42959820263392,1.00902944326099,-7.43862764589492
0.844832441565756,-3.93484289882341,-9.36461502607435,-5.42977212725094,6.64972896244888,0.747464614213763,-7.39719357666264
0.847648549704309,-3.40986474731128,-8.73921354597477,-5.32934879866349,6.07453914664302,0.959742025676103,-7.03428117231913
0.850464657842861,-2.42270653992259,-7.69090607837228,-5.26819953844968,5.05680630914744,1.42274649926354,-6.47955280841098
0.853280765981414,-1.52166144468575,-6.70970070635772,-5.18803926167197,4.11568107552173,1.83318890849311,-5.94886998401485
0.856096874119966,-1.10909586608291,-6.24800205183394,-5.13890618575104,3.67854895895842,2.01490515983407,-5.69345411879249
0.858912982258519,-1.27368118049279,-6.52823430435426,-5.25455312386147,3.90095774242353,1.99043597168434,-5.89139371410787
0.861729090397071,-1.84584315905744,-7.45757724597911,-5.61173408692167,4.65171020251827,1.88294546393212,-6.53465566645039
0.864545198535624,-2.58195140388748,-8.68917626715373,-6.10722486326624,5.63556383552061,1.76263672968938,-7.39820056520998
0.867361306674176,-3.31081981469515,-9.79312511209656,-6.4823052974014,6.55197246339586,1.58574274135313,-8.13771520474898
0.870177414812729,-3.95087903935847,-10.4445597676073,-6.4936807282488,7.19771940348287,1.27140084444517,-8.46912024792804
0.872993522951281,-4.43925826256056,-10.5342976735428,-6.0950394109822,7.48677796805166,0.827890574210822,-8.31466854226248
0.875809631089834,-4.68191142939676,-10.1603961044164,-5.47848467501962,7.42115376690657,0.398286622811431,-7.819440389718
0.878625739228386,-4.59096339254963,-9.53158714349302,-4.94062375094339,7.06127526802133,0.17483017919688,-7.23610544721821
0.881441847366939,-4.17541229682043,-8.85887756093468,-4.68346526411425,6.51714492887756,0.254026483646906,-6.77117141252446
0.884257955505491,-3.5889473413325,-8.30082673220481,-4.7118793908723,5.94488703676866,0.561466024769901,-6.50635306153856
0.887074063644044,-3.07072599375825,-7.97186762201525,-4.901141628257,5.52129680788675,0.915207817249373,-6.43650462513612
0.889890171782596,-2.81233719861604,-7.96897398562997,-5.15663678701394,5.390655592123,1.17214979419895,-6.56280538632195
0.892706279921149,-2.85484133279877,-8.36487222222591,-5.51003088942714,5.60985677751234,1.32759477831419,-6.93745155582652
0.895522388059701,-3.09484417069398,-9.15691388715811,-6.06206971646413,6.12587902892604,1.48361277288508,-7.60949180181112
0.898338496198254,-3.38057402050762,-10.2106899571314,-6.83011593662375,6.7956319888195,1.72477095805807,-8.52040294687756
0.901154604336806,-3.60189982922254,-11.2557447294299,-7.65384490020739,7.42882227932623,2.02597253549242,-9.45479481481865
0.903970712475359,-3.69750331389266,-11.9637732596316,-8.26626994573892,7.83063828676211,2.28438331592313,-10.1150216026852
0.906786820613911,-3.59844327289516,-12.0852111077502,-8.48676783485506,7.84182719032269,2.44416228097995,-10.2859894713026
0.909602928752464,-3.20108541786096,-11.5744070836738,-8.37332166581282,7.38774625076737,2.58611812397593,-9.97386437474331
0.912419036891017,-2.43515200180955,-10.628827908513,-8.19367590670348,6.53198995516129,2.87926195244696,-9.41125190760825
0.915235145029569,-1.3869878190565,-9.61117123838891,-8.22418341933242,5.4990795287227,3.41859780013796,-8.91767732886067
0.918051253168122,-0.356288383190139,-8.89016101731959,-8.53387263412946,4.62322470025487,4.08879212546966,-8.71201682572452
0.920867361306674,0.247208513571954,-8.68294934781938,-8.93015786139133,4.21787041712371,4.58868318748164,-8.80655360460535
0.923683469445227,0.133117016507458,-8.97818966192238,-9.11130667842984,4.42253632270746,4.62221184746865,-9.04474817017611
0.926499577583779,-0.669426186642141,-9.56971781779662,-8.90029163115448,5.11957200221938,4.11543272225617,-9.23500472447555
0.929315685722332,-1.80096362288623,-10.1720906858511,-8.37112706296483,5.98652715436864,3.2850817200393,-9.27160887440794
0.932131793860884,-2.78122116621351,-10.555413180953,-7.77419201473945,6.66831717358324,2.49648542426297,-9.16480259784621
0.934947901999437,-3.30206929339652,-10.6392231995616,-7.33715390616511,6.97064624647907,2.0175423063843,-8.98818855286337
0.937764010137989,-3.3961327299897,-10.512848879259,-7.11671614926926,6.95449080462433,1.86029170963978,-8.81478251426411
0.940580118276542,-3.36364177889799,-10.3830201425623,-7.0193783636643,6.87333096073014,1.82786829238315,-8.70119925311329
0.943396226415094,-3.5243052394322,-10.4746238799781,-6.9503186405459,6.99946455970515,1.71300670055685,-8.712471260262
0.946212334553647,-3.98904023404539,-10.9238738307492,-6.93483359670378,7.45645703239729,1.47289668132919,-8.92935371372648
0.949028442692199,-4.61504928087831,-11.7051241963155,-7.09007491543724,8.16008673859693,1.23751281727946,-9.39759955587639
0.951844550830752,-5.15037664887124,-12.622356480891,-7.47197983201972,8.8863665648811,1.16080159157424,-10.0471681564553
0.954660658969304,-5.42714397336814,-13.3748023564835,-7.94765838311536,9.40097316492582,1.26025720487361,-10.6612303697994
0.957476767107857,-5.44474529330738,-13.6758441197841,-8.23109882647674,9.56029470654575,1.39317676658468,-10.9534714731304
0.960292875246409,-5.29763977378331,-13.3732842539845,-8.07564448020123,9.33546201388393,1.38900235320896,-10.7244643670929
0.963108983384962,-5.04006696832238,-12.5094984391906,-7.4694314708682,8.77478270375648,1.21468225127291,-9.98946495502939
0.965925091523514,-4.62504159978965,-11.2918409905485,-6.66679939075881,7.95844129516905,1.02087889548458,-8.97932019065363
0.968741199662067,-3.97602452617891,-9.99963833207821,-6.0236138058993,6.98783142912856,1.02379463986019,-8.01162606898876
0.971557307800619,-3.12001165983209,-8.88735458355852,-5.76734292372642,6.00368312169531,1.32366563194716,-7.32734875364247
0.974373415939172,-2.24763984831244,-8.1284419694626,-5.88080212115016,5.18804090888752,1.81658113641886,-7.00462204530638
0.977189524077725,-1.62789616778417,-7.8009969421526,-6.17310077436843,4.71444655496838,2.27260230329213,-6.98704885826051
0.980005632216277,-1.43351496289215,-7.88578783219325,-6.4522728693011,4.6596513975427,2.50937895320448,-7.16903035074718
0.98282174035483,-1.61036784782846,-8.25379534494579,-6.64342749711733,4.93208159638713,2.51652982464443,-7.44861142103156
0.985637848493382,-1.88729769400977,-8.65277028065632,-6.76547258664655,5.27003398733305,2.43908744631839,-7.70912143365144
0.988453956631935,-1.91157014917976,-8.72768380044764,-6.81611365126788,5.3196269748137,2.45227175104406,-7.77189872585776
0.991270064770487,-1.40698324630254,-8.10532311881401,-6.69833987251147,4.75615318255827,2.64567831310447,-7.40183149566274
0.99408617290904,-0.258312966994918,-6.53914370525941,-6.2808307382645,3.39872833612716,3.01125888563479,-6.40998722176195
0.996902281047592,1.49055503078864,-4.06245813953955,-5.55301317032819,1.28595155437545,3.52178410055841,-4.80773565493387
0.999718389186145,3.66715618794331,-1.06144276896216,-4.72859895690547,-1.30285670949057,4.19787757242439,-2.89502086293381
1.0025344973247,5.98376176100924,1.81153081367789,-4.17223094733135,-3.89764628734357,5.07799635417029,-1.18035006682673
1.00535060546325,8.05615582464278,3.88753064631586,-4.16862517832692,-5.97184323547932,6.11239050148485,-0.14054726600553
1.0081667136018,9.48797298568666,4.78414866314563,-4.70382432254103,-7.13606082441615,7.09589865411385,0.0401621703022998
1.01098282174035,10.0336324699882,4.58872670853865,-5.44490576144955,-7.31117958926342,7.73926911571888,-0.428089526455453
1.01379892987891,9.76047417332937,3.80403523511746,-5.95643893821191,-6.78225470422342,7.85845655577064,-1.07620185154722
1.01661503801746,9.08574837808146,3.08837001123239,-5.99737836684907,-6.08705919465693,7.54156337246527,-1.45450417780834
1.01943114615601,8.62246181725163,2.95374082213193,-5.66872099511971,-5.78810131969178,7.14559140618567,-1.35749008649389
1.02224725429456,8.89626486122978,3.59776130424134,-5.29850355698843,-6.24701308273556,7.09738420910911,-0.850371126373545
1.02506336243312,10.096689974928,4.93235022304422,-5.16433975188378,-7.51452009898611,7.63051486340589,-0.115994764419782
1.02787947057167,12.0154895545319,6.72997475308631,-5.28551480144561,-9.37273215380912,8.65050217798876,0.722229975820353
1.03069557871022,14.2005803721078,8.7488534641475,-5.45172690796034,-11.4747169181277,9.82615364003409,1.64856327809358
1.03351168684878,16.2064646431208,10.7577283064536,-5.4487363366672,-13.4820964747872,10.827600489894,2.65449598489318
1.03632779498733,17.7654126246158,12.4917040057428,-5.27370861887306,-15.1285583151793,11.5195606217445,3.60899769343486
1.03914390312588,18.7832877556736,13.6324222476739,-5.15086550799971,-16.2078550016737,11.9670766318367,4.24077836983708
1.04196001126443,19.2144636540385,13.8737706276045,-5.34069302643399,-16.5441171408215,12.2775783402362,4.26653880058524
1.04477611940298,18.9652902581795,13.0487264049397,-5.91656385323976,-16.0070083315596,12.4409270557096,3.56608127584998
1.04759222754154,17.9343069144013,11.2328534703205,-6.70145344408087,-14.5835801923609,12.3178801792411,2.26570001311979
1.05040833568009,16.1586387481814,8.75163178085687,-7.4070069673245,-12.4551352645191,11.7828228577529,0.672312406766181
1.05322444381864,13.9235575396018,6.08161966712556,-7.84193787247629,-10.0025886033637,10.8827477060391,-0.880159102675364
1.0560405519572,11.7043197874081,3.6918873803591,-8.01243240704897,-7.69810358388358,9.85837609722852,-2.16027251334494
1.05885666009575,9.93863884727774,1.88766390247322,-8.05097494480451,-5.91315137487548,8.99480689604112,-3.08165552116564
1.0616727682343,8.77219534055159,0.705999114329221,-8.06619622622237,-4.73909722744041,8.41919578338698,-3.68009855594658
1.06448887637285,7.96161304259484,-0.100035308302397,-8.06164835089724,-3.93078886714622,8.01163069674604,-4.08084182959982
1.06730498451141,7.01995880650048,-0.967297197826429,-7.98725600432691,-3.02633080433703,7.5036074054137,-4.47727660107667
1.07012109264996,5.52122049408327,-2.33294799467582,-7.85416848875909,-1.59413624970372,6.68769449142118,-5.09355824171746
1.07293720078851,3.36701091212253,-4.41825224191413,-7.78526315403666,0.5256206648958,5.5761370330796,-6.1017576979754
1.07575330892706,0.841797774756563,-7.09449496650375,-7.93629274126032,3.12634859587359,4.38904525800844,-7.51539385388203
1.07856941706562,-1.57192245848306,-9.9194657810403,-8.34754332255724,5.74569411976168,3.38781043203709,-9.13350455179877
1.08138552520417,-3.47845856597227,-12.340415699928,-8.86195713395577,7.90943713295016,2.69174928399175,-10.6011864169419
1.08420163334272,-4.74668738475558,-13.9469022913467,-9.20021490659107,9.34679483805112,2.22676376091774,-11.5735585989689
1.08701774148127,-5.46861509198747,-14.6171737117649,-9.14855861977738,10.0428944018762,1.83997176389495,-11.8828661657711
1.08983384961983,-5.77347820835962,-14.4833827593392,-8.70990455097961,10.1284304838494,1.46821317131,-11.5966436551594
1.09264995775838,-5.69072132056864,-13.781978528199,-8.09125720763036,9.73634992438382,1.20026794353086,-10.9366178679147
1.09546606589693,-5.19358471332394,-12.7285418774762,-7.53495716415224,8.96106329540006,1.17068622541415,-10.1317495208142
1.09828217403548,-4.36605416097791,-11.5007094175508,-7.13465525657294,7.93338178926438,1.38430054779752,-9.31768233706189
1.10109828217404,-3.50367860207625,-10.2982933210121,-6.79461471893585,6.90098596154418,1.6454680584298,-8.54645401997398
1.10391439031259,-3.01810700351383,-9.38722673089931,-6.36911972738548,6.20266686720657,1.67550636193582,-7.87817322914239
1.10673049845114,-3.20536129202723,-9.06043034703867,-5.85506905501144,6.13289581953295,1.3248538814921,-7.45774970102505
1.10954660658969,-4.0673745931127,-9.52111418827319,-5.45373959516049,6.79424439069295,0.693182501023895,-7.48742689171684
1.11236271472825,-5.32582403685758,-10.7550526283995,-5.42922859154196,8.04043833262856,0.0517022773421898,-8.09214060997075
1.1151788228668,-6.59747491859221,-12.4750560033469,-5.87758108475473,9.53626546096957,-0.35994691691874,-9.17631854405083
1.11799493100535,-7.57473125249299,-14.1865057895549,-6.61177453706195,10.880618521024,-0.481478357715517,-10.3991401633084
1.1208110391439,-8.08208345492929,-15.3561398958966,-7.27405644096728,11.7191116754129,-0.404013506981002,-11.3150981684319
1.12362714728246,-8.01855088265216,-15.6083497501716,-7.58979886751943,11.8134503164119,-0.214376007566368,-11.5990743088455
1.12644325542101,-7.30785119292958,-14.8626457280282,-7.55479453509858,11.0852484604789,0.1234716710845,-11.2087201315634
1.12925936355956,-5.95696004236615,-13.36431002063,-7.40734997826383,9.66063503149807,0.72519496794884,-10.3858299994469
1.13207547169811,-4.19184978377524,-11.6109513008652,-7.41910151708999,7.90140054232023,1.61362586665738,-9.5150264089776
1.13489157983667,-2.5225463635345,-10.205461609607,-7.68291524607251,6.36400398657075,2.58018444126901,-8.94418842783976
1.13770768797522,-1.60798623344047,-9.67117209627509,-8.06318586283461,5.63957916485778,3.22759981469707,-8.86717897955485
1.14052379611377,-1.94592174904961,-10.2734462337227,-8.32752448467314,6.10968399138618,3.19080136781176,-9.30048535919794
1.14333990425232,-3.57744370753176,-11.9121065154585,-8.33466280792677,7.74477511149515,2.3786095501975,-10.1233846616927
1.14615601239088,-6.02489551260797,-14.1507988056206,-8.1259032930126,10.0878471591143,1.05050389020231,-11.1383510493166
1.14897212052943,-8.53728332916774,-16.3989706197464,-7.86168729057868,12.4681269744571,-0.337798019294533,-12.1303289551625
1.15178822866798,-10.4987586821546,-18.1745773363259,-7.67581865417126,14.3366680092402,-1.41147001399168,-12.9251979952486
1.15460433680653,-11.7300917790023,-19.3105172315009,-7.5804254524986,15.5203045052516,-2.07483316325185,-13.4454713419997
1.15742044494509,-12.4807010829977,-19.9726400321513,-7.49193894915357,16.2266705575745,-2.49438106692206,-13.7322894906524
1.16023655308364,-13.1125849505376,-20.4318283154378,-7.31924336490017,16.7722066329877,-2.89667079281873,-13.875535840169
1.16305266122219,-13.6578403226357,-20.6464708562592,-6.98863053362352,17.1521555894475,-3.3346048945061,-13.8175506949414
1.16586876936074,-13.477932376643,-19.8292312173311,-6.35129884068805,16.653581796987,-3.56331676797748,-13.0902650290096
1.1686848774993,-11.1824138888563,-16.2481957929376,-5.06578190408128,13.7153048408969,-3.05831599238752,-10.6569888485094
1.17150098563785,-4.86218762934061,-7.48555887530148,-2.62337124596088,6.17387325232105,-1.11940819168986,-5.05446506063118
1.1743170937764,7.39105588010403,8.79217222527265,1.40111634516862,-8.09161405268834,2.99496976746771,5.09664428522063
1.17713320191495,26.7836608794322,33.7634212273947,6.97976034796247,-30.2735410534134,9.90195026573487,20.3715907876786
1.17994931005351,53.1270191403935,66.511147519219,13.3841283788256,-59.8190833298063,19.871445380784,39.9476379490223
1.18276541819206,84.4037995858996,103.666508213507,19.2627086276078,-94.0351538997035,32.5705454791459,61.4646084205575
1.18558152633061,116.821345388064,139.872894450442,23.0515490623776,-128.347119919253,46.8848981628433,81.4622217564098
1.18839763446916,145.448308986755,168.963419974454,23.5151109876988,-157.205864480605,60.9665989995283,96.2392654810765
1.19121374260772,165.319876081392,185.461830900517,20.1419548191246,-175.390853490954,72.5889606311337,102.801892859821
1.19402985074627,172.683871067368,185.917391491401,13.2335204240326,-179.300631279384,79.7251753216678,99.5754559577167
1.19684595888482,165.957449803876,169.682381970171,3.72493216629533,-167.819915887023,81.1162588187901,86.7036570682331
1.19966206702337,146.062346446637,138.971238755353,-7.0911076912833,-142.516792600995,76.5767270689599,65.940065532035
1.20247817516193,116.076099007223,98.2881057855686,-17.7879932216546,-107.182102396396,66.9320461144389,40.250056281957
1.20529428330048,80.4153170395805,53.4588056919797,-26.9565113476009,-66.9370613657801,53.6859141935907,13.2511471721894
1.20811039143903,43.8859959593235,10.5196368415787,-33.3663591177448,-27.2028164004511,38.6261775385342,-11.423361138083
1.21092649957758,10.8593603791755,-25.3366593112417,-36.1960196904172,7.23864946603313,23.5276900347963,-30.7663395008294
1.21374260771614,-15.3312177375197,-50.6004351409128,-35.2692174033932,32.9658264392163,9.96899983293676,-42.934826272153
1.21655871585469,-32.7847724594861,-63.9338588951825,-31.1490864356965,48.3593156773343,-0.817843011894784,-47.5414726654395
1.21937482399324,-41.2266082518355,-66.2092560286567,-24.9826477768213,53.7179321402461,-8.12198023750709,-45.595951902739
1.22219093213179,-41.9439497361101,-60.0800205268447,-18.1360707907346,51.0119851314774,-11.9039394726878,-39.1080456587896
1.22500704027035,-37.3865931106971,-49.1845694764587,-11.7979763657616,43.2855812935779,-12.7943083724678,-30.4912729211102
1.2278231484089,-30.4537190418117,-37.1919861298564,-6.73826708804464,33.8228525858341,-11.8577259768836,-21.9651266089505
1.23063925654745,-23.6660418787901,-26.951603790333,-3.28556191154284,25.3088228345616,-10.1902399836237,-15.1185828509379
1.233455364686,-18.5442095551986,-19.9843001784128,-1.44009062321424,19.2642548668057,-8.55205946599216,-10.7121954008135
1.23627147282456,-15.4518566949475,-16.4430635082685,-0.991206813320959,15.947460101608,-7.23032494081328,-8.71713516079472
1.23908758096311,-13.9189944409619,-15.4934004694317,-1.57440602846982,14.7061974551968,-6.17229420624605,-8.53390324895079
1.24190368910166,-13.1965011005237,-15.8978921278517,-2.70139102732802,14.5471966141877,-5.24755503659784,-9.29964157758987
1.24471979724021,-12.6995596389862,-16.5384474900144,-3.83888785102821,14.6190035645003,-4.43033589397901,-10.1886676705213
1.24753590537877,-12.1416340377704,-16.7061873629066,-4.56455332513624,14.4239107003385,-3.78854035631708,-10.6353703440214
1.25035201351732,-11.4156750956584,-16.1482293519993,-4.73255425634091,13.7819522238289,-3.34156041965876,-10.4403918041701
1.25316812165587,-10.4400350142552,-14.9653187190608,-4.52528370480555,12.702676866658,-2.95737565472484,-9.74530121193317
1.25598422979442,-9.14348677335081,-13.46192116039,-4.3184343870392,11.3027039668704,-2.4125261931558,-8.8901777737146
1.25880033793298,-7.58244029505585,-12.0051430926496,-4.42270279759379,9.79379169385274,-1.57986874873103,-8.21392294512171
1.26161644607153,-6.03337630032222,-10.9092220667542,-4.87584576643197,8.47129918353821,-0.578765266945125,-7.89253391659308
1.26443255421008,-4.91486053860159,-10.3504853743601,-5.43562483575849,7.63267295648084,0.260382148578449,-7.89305510505929
1.26724866234863,-4.55192670795721,-10.3244820239402,-5.77255531598296,7.43820436594869,0.610314304012877,-8.04851866996156
1.27006477048719,-4.95415635500293,-10.6617214818165,-5.70756512681362,7.80793891840974,0.376704385905344,-8.18464330431508
1.27288087862574,-5.78950196674493,-11.1048931504561,-5.31539118371115,8.44719755860051,-0.23705539151689,-8.21014216708362
1.27569698676429,-6.58556295064728,-11.4215241471548,-4.83596119650749,9.00354354890102,-0.874800877069892,-8.12874267183113
1.27851309490284,-7.0078155750892,-11.5007477913894,-4.49293221630018,9.25428168323929,-1.25744167939451,-7.99684000384478
1.2813292030414,-7.00456595305995,-11.3797386837552,-4.37517273069525,9.19215231840758,-1.31469661118235,-7.87745570722523
1.28414531117995,-6.72101255069776,-11.1748988884822,-4.4538863377844,8.94795571958996,-1.13356310645668,-7.81439261313328
1.2869614193185,-6.27506640269299,-10.95065855179,-4.67559214909702,8.6128624772415,-0.799737126797985,-7.81312535044351
1.28977752745705,-5.59610506401465,-10.6133096626529,-5.01720459863821,8.10470736333376,-0.289450232688219,-7.81525713064554
1.29259363559561,-4.4667673693792,-9.92017867071566,-5.45341130133646,7.19347302004743,0.493321965978626,-7.68679498602606
1.29540974373416,-2.73311197608727,-8.62351065083411,-5.89039867474684,5.67831131346069,1.57864334932979,-7.25695466279047
1.29822585187271,-0.507260747604971,-6.66596915630201,-6.15870840869704,3.58661495195349,2.82572383054603,-6.41233878249952
1.30104196001126,1.80580302629996,-4.29568861814164,-6.1014916444416,1.24494279592084,3.95364733537078,-5.19859013129162
1.30385806814982,3.68036174279005,-2.01913135710857,-5.69949309989862,-0.830615192840737,4.68992742134433,-3.8593122285036
1.30667417628837,4.70909684425402,-0.414685591762578,-5.1237824360166,-2.14720562624572,4.91643964013531,-2.76923401388959
1.30949028442692,4.74394908648203,0.0949751264236312,-4.6489739600584,-2.41946210645283,4.69646152327022,-2.27699941681739
1.31230639256547,3.8778712579531,-0.593375282860594,-4.47124654081369,-1.64224798754625,4.17455889938339,-2.53231091183714
1.31512250070403,2.34240466096785,-2.22585472466997,-4.56825938563782,-0.058274968148937,3.45533202330283,-3.39705705515389
1.31793860884258,0.439364143159916,-4.28078023685312,-4.72014438001304,1.9207080468466,2.57975426158648,-4.50046230843308
1.32075471698113,-1.45239763174501,-6.13402520619156,-4.68162757444655,3.79321141896828,1.61461497135077,-5.40782639031905
1.32357082511968,-2.86512319389516,-7.23096877828042,-4.36584558438526,5.04804598608779,0.750361195245047,-5.79840718133284
1.32638693325824,-3.3246235752304,-7.21488645785102,-3.89026288262062,5.26975501654071,0.282819653695112,-5.55257467023582
1.32920304139679,-2.5405528831364,-5.99574255488636,-3.45518967174996,4.26814771901138,0.457318394306778,-4.72546611331816
1.33201914953534,-0.59364370562436,-3.76332344939231,-3.16967974376795,2.17848357750833,1.28801801907179,-3.46650159658013
1.33483525767389,2.03404178532054,-0.947106406619606,-2.98114819194015,-0.543467689350467,2.50759498863034,-1.96412729927988
1.33765136581245,4.64753384659683,1.88055072685956,-2.76698311973727,-3.26404228672819,3.70725848316705,-0.443216196438855
1.340467473951,6.64756650940808,4.15032780923886,-2.49723870016922,-5.39894715932347,4.57240260478865,0.826544554534817
1.34328358208955,7.76701712567217,5.45447239106688,-2.31254473460529,-6.61074475836952,5.03978093013873,1.5709638282308
1.3460996902281,8.096215743117,5.65899752607038,-2.43721821704662,-6.87760663459369,5.26671698008181,1.61088965451188
1.34891579836666,7.91671701864889,4.9232831432228,-2.99343387542608,-6.42000008093584,5.45507544703749,0.964924633898359
1.35173190650521,7.49838896436499,3.62791679975144,-3.87047216461354,-5.56315288205821,5.68443056448926,-0.12127768243105
1.35454801464376,7.01662259548976,2.25540797273711,-4.76121462275265,-4.63601528411343,5.88891860912121,-1.25290332500777
1.35736412278231,6.61654227706726,1.27236759089998,-5.34417468616728,-3.94445493398362,5.98035848161727,-2.03590354763365
1.36018023092087,6.50716453254964,1.03333042302449,-5.47383410952515,-3.77024747778706,5.99049932103739,-2.22025184325033
1.36299633905942,6.94299413631516,1.70579379216647,-5.23720034414869,-4.32439396424082,6.09009724023193,-1.76570327599111
1.36581244719797,8.06770693314755,3.22359552180712,-4.84411141134044,-5.64565122747733,6.455909172244,-0.810257944766661
1.36862855533652,9.7453444899043,5.29015051570795,-4.45519397419636,-7.51774750280613,7.10026923205033,0.417478270755796
1.37144466347508,11.5454929297497,7.44630615151599,-4.09918677823374,-9.49589954063286,7.82233985399173,1.67355968664113
1.37426077161363,12.9356172174153,9.19268810523943,-3.74292911217592,-11.0641526613274,8.33927316479563,2.72487949653175
1.37707687975218,13.5642255353058,10.1363054694557,-3.42792006585014,-11.8502655023808,8.49607280057799,3.35419270180279
1.37989298789073,13.4415616125305,10.1231378741178,-3.31842373841262,-11.7823497433242,8.37999267547154,3.40235706785261
1.38270909602929,12.9022046033637,9.31323565462909,-3.5889689487346,-11.1077201289964,8.24558677604915,2.86213335294725
1.38552520416784,12.3955772940707,8.15719107459844,-4.23838621947221,-10.2763841843345,8.31698175677143,1.95940242756312
1.38834131230639,12.2639006386313,7.2621522466477,-5.00174839198365,-9.76302644263953,8.6328245153075,1.13020192733203
1.39115742044495,12.6488174522578,7.18873034263701,-5.46008710962075,-9.91877389744739,9.05445228093926,0.864321616508129
1.3939735285835,13.5441306169122,8.25951371132928,-5.28461690558295,-10.9018221641208,9.41437376124759,1.48744840287317
1.39678963672205,14.8929171353568,10.4534791003239,-4.43943803503292,-12.6731981178403,9.66617758519484,3.00702053264547
1.3996057448606,16.6139503262836,13.4177403971669,-3.19620992911677,-15.0158453617252,9.9050801277002,5.11076523402504
1.40242185299916,18.5419211308262,16.5826575156468,-1.95926361517937,-17.5622893232365,10.2505923730028,7.31169695023373
1.40523796113771,20.3801693342514,19.3384540407165,-1.04171529353493,-19.859311687484,10.7109423138932,9.14836937359079
1.40805406927626,21.7740421458856,21.2193678150059,-0.554674330879678,-21.4967049804457,11.1643582383826,10.3323467420631
1.41087017741481,22.4971486083102,22.0395045511014,-0.457644057208814,-22.2683265797058,11.4773963327595,10.7909302469463
1.41368628555337,22.6117095998793,21.9340634945943,-0.677646105285017,-22.2728865472368,11.6446778525822,10.6282086946546
1.41650239369192,22.4518079429206,21.2844731037429,-1.16733483917768,-21.8681405233318,11.8095713910492,10.0585691322826
1.41931850183047,22.4100483989382,20.5481317281125,-1.86191667082565,-21.4790900635253,12.1359825348819,9.34310752864343
1.42213460996902,22.6755210025011,20.0639285262036,-2.61159247629744,-21.3697247643523,12.6435567393993,8.72616802495309
1.42495071810758,23.1254144207922,19.9327825575667,-3.19263186322549,-21.5290984891795,13.1590231420088,8.37007534717061
1.42776682624613,23.4563582983925,20.0398695748846,-3.41648872350792,-21.7481139366385,13.4364235109502,8.31169042568832
1.43058293438468,23.4468967642101,20.19450506314,-3.25239170107012,-21.820700913675,13.3496442326401,8.47105668103493
1.43339904252323,23.136082542534,20.2819452962501,-2.85413724628397,-21.7090139193921,12.995109894409,8.71390402498305
1.43621515066179,22.7778394403677,20.3226905520187,-2.45514888834908,-21.5502649961932,12.6164941643584,8.93377083183479
1.43903125880034,22.6224613333083,20.4167350638662,-2.20572626944209,-21.5195981985872,12.4140938013752,9.10550439721205
1.44184736693889,22.7186170994829,20.6356711544516,-2.08294594503139,-21.6771441269672,12.4007815222572,9.27636260471008
1.44466347507744,22.8981676293516,20.9475652847863,-1.9506023445653,-21.922866457069,12.4243849869585,9.49848147011052
1.447479583216,22.9357820983834,21.2180015604321,-1.7177805379513,-22.0768918294077,12.3267813181673,9.75011051124038
1.45029569135455,22.7245699116624,21.2719520805155,-1.45261783114691,-21.9982609960889,12.0885938714047,9.90966712468428
1.4531117994931,22.3102955225792,20.9683121231512,-1.34198339942795,-21.6393038228652,11.8261394610036,9.81316436186162
1.45592790763165,21.7694750718193,20.2442785146489,-1.52519655717041,-21.0068767932341,11.6473358144949,9.35954097873926
1.45874401577021,21.0661067634433,19.1158719303292,-1.9502348331141,-20.0909893468863,11.5081707982787,8.58281854860755
1.46156012390876,20.042317590216,17.6527827520977,-2.38953483811828,-18.8475501711568,11.2159262141671,7.6316239569897
1.46437623204731,18.5722437485931,15.9610774224503,-2.61116632614278,-17.2666605855217,10.5917050373679,6.67495554815375
1.46719234018586,16.7491760429128,14.190020947991,-2.55915509492179,-15.4695984954519,9.65416556891728,5.81543292653459
1.47000844832442,14.9244937561438,12.5377941925164,-2.38669956362746,-13.7311439743301,8.65559665988565,5.07554731444446
1.47282455646297,13.5244795085434,11.2095383678477,-2.31494114069573,-12.3670089381955,7.91971032461956,4.44729861357597
1.47564066460152,12.7582105671348,10.3161604772515,-2.44205008988326,-11.5371855221931,7.60013032850901,3.93705519368412
1.47845677274007,12.4403011118588,9.77039412663735,-2.66990698522144,-11.1053476192481,7.55510404854012,3.55024357070795
1.48127288087863,12.0799270459458,9.27062917497205,-2.80929787097378,-10.6752781104589,7.44461245845981,3.23066565199913
1.48408898901718,11.1819685273237,8.4179794350518,-2.76398909227193,-9.79997398118777,6.97297880979783,2.82699517138994
1.48690509715573,9.53950093237345,6.91279775458252,-2.62670317779093,-8.22614934347798,6.08310205508219,2.1430472883958
1.48972120529428,7.30913255539527,4.70602204004991,-2.60311051534537,-6.00757729772259,4.95612153537032,1.05145576235227
1.49253731343284,4.83864258755081,2.00743151372446,-2.83121107382634,-3.42303705063763,3.83492683068858,-0.411889780050942
1.49535342157139,2.40947253276151,-0.840452502177999,-3.24992503493951,-0.784510015291755,2.82969878385051,-2.04518876855875
1.49816952970994,0.104048643793067,-3.52244280491114,-3.62649144870421,1.70919708055904,1.86527004624864,-3.57446712680768
1.50098563784849,-2.12287444288313,-5.84425004159856,-3.72137559871543,3.98356224224084,0.799250577916151,-4.78281282015699
1.50380174598705,-4.27396246683392,-7.73297057194958,-3.45900810511566,6.00346651939175,-0.407477180859134,-5.59598933853262
1.5066178541256,-6.21862818363077,-9.18749954777433,-2.96887136414356,7.70306386570255,-1.6248784097436,-6.07818545595894
1.50943396226415,-7.76825018630687,-10.2364031825549,-2.468152996248,9.00232668443087,-2.65004859502944,-6.35227808940143
1.5122500704027,-8.84008528146827,-10.9297584765049,-2.08967319503667,9.88492187898661,-3.3752060432158,-6.5097158357708
1.51506617854126,-9.5486195403107,-11.3517156336784,-1.80309609336771,10.4501675869946,-3.87276172347149,-6.57740586352306
1.51788228667981,-10.1322783946807,-11.622679717461,-1.49040132278034,10.8774790560708,-4.32093853595017,-6.55654052012068
1.52069839481836,-10.7785175653357,-11.8741677598648,-1.09565019452911,11.3263426626002,-4.84143368540328,-6.48490897719695
1.52351450295691,-11.5060568256704,-12.2102610837842,-0.704204258113863,11.8581589547273,-5.40092628377825,-6.45723267094904
1.52633061109547,-12.2110323877215,-12.6870630425231,-0.476030654801521,12.4490477151223,-5.86750086646001,-6.58154684866229
1.52914671923402,-12.8310323206681,-13.3267072019927,-0.495674881324515,13.0788697613304,-6.16767871967182,-6.91119104165859
1.53196282737257,-13.4656664947676,-14.1470428681335,-0.681376373365865,13.8063546814505,-6.39214506070086,-7.41420962074966
1.53477893551112,-14.3233231349695,-15.1662621662302,-0.842939031260727,14.7447926505999,-6.74019205185439,-8.00460059874548
1.53759504364968,-15.5198666483423,-16.3580331984307,-0.838166550088395,15.9389499233865,-7.34085004912696,-8.59809987425955
1.54041115178823,-16.8975348306377,-17.5796829623861,-0.68214813174837,17.2386088965119,-8.10769334944466,-9.13091554706721
1.54322725992678,-18.0327760494193,-18.5391117786253,-0.506335729206011,18.2859439140223,-8.76322016010662,-9.52272375391564
1.54604336806533,-18.4581967681407,-18.8647688290433,-0.406572060902572,18.661482798592,-9.02581235361908,-9.63567044497294
1.54885947620389,-17.9536350628999,-18.2800795717219,-0.326444508822057,18.1168573173109,-8.81359527703891,-9.30326204027199
1.55167558434244,-16.7009944967851,-16.7955391725403,-0.0945446757551558,16.7482668346627,-8.30322491051499,-8.44504192414772
1.55449169248099,-15.1970651887856,-14.7929755820179,0.404089606767689,14.9950203854018,-7.80057739777665,-7.19444298762512
1.55730780061954,-13.9978071669886,-12.927441318788,1.0703658482006,13.4626242428883,-7.53408650759461,-5.92853773529371
1.5601239087581,-13.4763971133473,-11.8748689177133,1.60152819563407,12.6756330155303,-7.5389626544907,-5.13667036103959
1.56294001689665,-13.7301388889709,-12.0367053059591,1.69343358301185,12.883422097465,-7.7117862359914,-5.17163586147362
1.5657561250352,-14.6270148792409,-13.3354304432695,1.29158443597142,13.9812226612552,-7.95929965760616,-6.02192300364903
1.56857223317375,-15.8846807457032,-15.1992520358454,0.68542870985778,15.5419663907743,-8.28505472778048,-7.25691166299381
1.57138834131231,-17.1086289249176,-16.7616960671904,0.346932857727243,16.935162496054,-8.72778089132244,-8.20738160473157
1.57420444945086,-17.8254086180885,-17.2119389336547,0.613469684433745,17.5186737758716,-9.2194391512611,-8.29923462461049
1.57702055758941,-17.5965107486631,-16.148677986093,1.44783276257015,16.8725943673781,-9.52217175561665,-7.35042261176142
1.57983666572796,-16.2231019164116,-13.7620013446446,2.46110057176699,14.9925516305281,-9.34210124408931,-5.65045038643883
1.58265277386652,-13.9238599816922,-10.7406619527071,3.18319802898512,12.3322609671997,-8.55352900533867,-3.778731961861
1.58546888200507,-11.3240019409821,-7.95388701972133,3.37011492126081,9.63894448035174,-7.34705843112148,-2.29188604923026
1.58828499014362,-9.19895964308309,-6.08462440261618,3.11433524046691,7.64179202284963,-6.156647441775,-1.48514458107463
1.59110109828217,-8.09877360516854,-5.4010900234364,2.69768358173213,6.74993181430247,-5.39822859345034,-1.35170322085214
1.59391720642073,-8.08735212651547,-5.74914649951272,2.33820562700275,6.91824931301409,-5.21277887675911,-1.70547043625499
1.59673331455928,-8.76587682275053,-6.71616987984762,2.04970694290292,7.74102335129907,-5.40779188282672,-2.33323146847235
1.59954942269783,-9.55429221286414,-7.84424561369306,1.71004659917108,8.6992689132786,-5.63216940601761,-3.06709950726099
1.60236553083638,-10.0287403298494,-8.78441024644525,1.2443300834042,9.40657528814735,-5.63653520662683,-3.77004008152052
1.60518163897494,-10.0904093473614,-9.35084067056824,0.739568676793183,9.72062500896483,-5.4149890120773,-4.30563599688753
1.60799774711349,-9.88383640557208,-9.49677152231652,0.387064883255562,9.6903039639443,-5.13545064441382,-4.55485331953048
1.61081385525204,-9.57347634951107,-9.25839064658747,0.315085702923602,9.41593349804927,-4.94428102621734,-4.47165247183193
1.61362996339059,-9.17802842251555,-8.70451372991921,0.473514692596344,8.94127107621738,-4.82577155755595,-4.11549951866143
1.61644607152915,-8.58818112619144,-7.90894099604451,0.67924013014693,8.24856106111798,-4.63371062816918,-3.61485043294879
1.6192621796677,-7.72359889908464,-6.94387778323946,0.77972111584518,7.33373834116205,-4.25166000746491,-3.08207833369714
1.62207828780625,-6.6673672168571,-5.88541965573931,0.781947561117788,6.2763934362982,-3.72465738898744,-2.55173604731076
1.6248943959448,-5.65154751352465,-4.82547538853639,0.826072124988261,5.23851145103052,-3.23880981925646,-1.99970163177406
1.62771050408336,-4.91338825981351,-3.88571580267906,1.02767245713444,4.39955203124629,-2.97053035847398,-1.42902167277231
1.63052661222191,-4.55522482073178,-3.21810092441253,1.33712389631925,3.88666287257215,-2.94617435852552,-0.940488514046638
1.63334272036046,-4.522973112876,-2.96777200860335,1.55520110427265,3.74537256073968,-3.03908710857433,-0.706285452165353
1.63615882849901,-4.69923937838785,-3.19456251579714,1.50467686259072,3.9469009470925,-3.10195812048928,-0.844942826603212
1.63897493663757,-5.00385017764741,-3.79456991539369,1.20928026225372,4.39921004652055,-3.10656521995057,-1.29264482656999
1.64179104477612,-5.40072153564512,-4.48896109110932,0.911760444535806,4.94484131337722,-3.15624099009046,-1.78860032328676
1.64460715291467,-5.81637755796931,-4.91903785154202,0.897339706427292,5.36770770475566,-3.3568586321983,-2.01084907255736
1.64742326105322,-6.07820064446774,-4.81863683455432,1.25956380991342,5.44841873951103,-3.66888222719058,-1.77953651232045
1.65023936919178,-5.97634250140002,-4.17479519634975,1.80154730505027,5.07556884887488,-3.88894490322514,-1.18662394564974
1.65305547733033,-5.43677112600801,-3.27807339253144,2.15869773347657,4.35742225926973,-3.79773442974229,-0.559687829527435
1.65587158546888,-4.66540799088506,-2.6149101121857,2.05049787869937,3.64015905153538,-3.35795293479221,-0.282206116743167
1.65868769360743,-4.10729179344523,-2.63717119053702,1.47012060290821,3.37223149199112,-2.78870619817672,-0.583525293814403
1.66150380174599,-4.19380517960841,-3.51323969398293,0.680565485625483,3.85352243679567,-2.43718533261695,-1.41633710417872
1.66431990988454,-5.02978658010945,-4.98859591419842,0.0411906659110235,5.00919124715394,-2.53548862301024,-2.4737026241437
1.66713601802309,-6.25200329351046,-6.44897464906882,-0.196971355558365,6.35048897128964,-3.02751596897605,-3.32297300231359
1.66995212616164,-7.192701596197,-7.18605197271215,0.00664962348484455,7.18937678445458,-3.59967560984092,-3.58970117461365
1.6727682343002,-7.26473265323693,-6.74517858921845,0.51955406401848,7.00495562122769,-3.8921433586277,-3.11281226259998
1.67558434243875,-6.31050861837419,-5.1633123141269,1.14719630424729,5.73691046625055,-3.72885246131074,-2.00805800493981
1.6784004505773,-4.67531198288225,-2.95540793273519,1.71990405014706,3.81535995780872,-3.19760801651465,-0.617751941294067
1.68121655871585,-2.97366309279394,-0.861989929215497,2.11167316357845,1.91782651100472,-2.5426681281862,0.624841617181475
1.68403266685441,-1.7419271056035,0.484518075380118,2.22644518098362,0.62870451511169,-1.98418614329356,1.35548162818187
1.68684877499296,-1.2249638727799,0.788881995504223,2.01384586828412,0.218040938637836,-1.61940487053201,1.40136393189417
1.68966488313151,-1.40192619728985,0.123990616196261,1.52591681348611,0.638967790546793,-1.46392150538798,0.824953714841185
1.69248099127006,-2.15397717310804,-1.20016921339557,0.953807959712476,1.67707319325181,-1.55389256641026,-0.123180626841546
1.69529709940862,-3.38499032848669,-2.81344341919556,0.571546909291138,3.09921687384113,-1.97826861888892,-1.12094825495221
1.69811320754717,-4.98948328290269,-4.3999750223156,0.589508260587085,4.69472915260914,-2.78949577174489,-1.90523338086426
1.70092931568572,-6.73237596654906,-5.71639731684002,1.01597864970903,6.22438664169454,-3.87417730812905,-2.35020933356549
1.70374542382427,-8.20342258202554,-6.56052111247265,1.64290146955288,7.38197184724909,-4.92316202578921,-2.45880982145989
1.70656153196283,-8.94781118866961,-6.76505654129413,2.18275464737548,7.85643386498187,-5.56528291802255,-2.29115094695932
1.70937764010138,-8.71201767307417,-6.25318405284732,2.45883362022685,7.48260086296075,-5.58542564665051,-1.89717521631024
1.71219374823993,-7.62594063232883,-5.1259556035293,2.49998502879954,6.37594811792906,-5.06296283056418,-1.31298528736488
1.71500985637848,-6.17159236797659,-3.70658595852714,2.46500640944945,4.93908916325187,-4.31829938871302,-0.620789774538848
1.71782596451704,-4.94230228148144,-2.47778115455307,2.46452112692838,3.71004171801726,-3.70341170420491,-0.00663001381234629
1.72064207265559,-4.35068293390515,-1.91352229108502,2.43716064282013,3.13210261249509,-3.39392178836264,0.261819175867554
1.72345818079414,-4.47539737493544,-2.28088841027848,2.19450896465696,3.37814289260696,-3.3349531697962,-0.0431897228107587
1.72627428893269,-5.1214862585914,-3.51300000839036,1.60848625020104,4.31724313349088,-3.36498625439622,-0.952256879094661
1.72909039707125,-6.00458713495306,-5.21692976055966,0.787657374393406,5.61075844775636,-3.39612225467324,-2.21463619308313
1.7319065052098,-6.89700129891201,-6.8167149654615,0.0802863334505055,6.85685813218675,-3.48864381618126,-3.3682143160055
1.73472261334835,-7.64813415955361,-7.77756528607892,-0.129431126525304,7.71284972281627,-3.75935151651416,-3.95349820630211
1.7375387214869,-8.1289306095286,-7.82187186841912,0.307058741109475,7.97540123897386,-4.21799467531904,-3.75740656365482
1.74035482962546,-8.2146423862097,-7.03955393318289,1.17508845302681,7.6270981596963,-4.69486541961825,-2.93223274007804
1.74317093776401,-7.86021525129423,-5.83683543202929,2.02337981926494,6.84852534166176,-4.94179753527959,-1.90672780638217
1.74598704590256,-7.20487125928758,-4.75177340489279,2.45309785439479,5.97832233209018,-4.82898455684118,-1.149337775249
1.74880315404112,-6.58195348614412,-4.23274440579219,2.34920908035193,5.40734894596815,-4.46558128324803,-0.941767662720125
1.75161926217967,-6.37081423169793,-4.47709880937655,1.89371542232139,5.42395652053724,-4.13226482700966,-1.29169169352758
1.75443537031822,-6.76585345795466,-5.37822559992614,1.38762785802853,6.0720395289404,-4.07674065799159,-1.9952988709488
1.75725147845677,-7.63175467451263,-6.58158624731364,1.05016842719899,7.10667046091313,-4.34096155085581,-2.76570891005733
1.76006758659533,-8.57020533346138,-7.62574040610727,0.944464927354117,8.09797286978432,-4.75733513040775,-3.34063773937657
1.76288369473388,-9.16690491649106,-8.12777755509145,1.03912736139961,8.64734123579126,-5.10301613894534,-3.54432509684592
1.76569980287243,-9.24464160338546,-7.94769672108823,1.29694488229723,8.59616916223685,-5.27079324284134,-3.3253759193955
1.76851591101098,-8.93899675975412,-7.24873324386276,1.69026351589137,8.09386500180844,-5.31463013782274,-2.7792348639857
1.77133201914954,-8.54887214089609,-6.40052064410588,2.14835149679021,7.47469639250099,-5.34861181884315,-2.12608457365784
1.77414812728809,-8.2849308038392,-5.75877571888811,2.52615508495108,7.02185326136365,-5.40554294439514,-1.61631031696851
1.77696423542664,-8.10801536847729,-5.4425428967176,2.66547247175969,6.77527913259745,-5.38674392011849,-1.38853521247895
1.77978034356519,-7.76684431540038,-5.24432416471079,2.52252015068959,6.50558424005559,-5.14468223304499,-1.3609020070106
1.78259645170375,-6.98484497909723,-4.73360909594225,2.25123588315499,5.85922703751974,-4.61804043112611,-1.24118660639363
1.7854125598423,-5.64325420050397,-3.50178167758264,2.14147252292133,4.5725179390433,-3.89236336171265,-0.680154577330653
1.78822866798085,-3.83870658523847,-1.41659255770715,2.42211402753132,2.62764957147281,-3.1304103063849,0.502760734912086
1.7910447761194,-1.81432722057348,1.25053800533883,3.06486522591231,0.281894607617327,-2.4395962232429,2.15770161562557
1.79386088425796,0.143141816150918,3.89449052785405,3.75134871170313,-2.01881617200248,-1.80410344777611,3.82291961977859
1.79667699239651,1.75837881931183,5.81438226430906,4.05600344499723,-3.78638054181044,-1.1488123128427,4.93519285465315
1.79949310053506,2.78100909499621,6.51066025357097,3.72965115857477,-4.64583467428359,-0.474321031789282,5.12015570607287
1.80230920867361,3.03200704479074,5.91253503207791,2.88052798728717,-4.47227103843432,0.0757395287517872,4.39653150968254
1.80512531681217,2.52727824145737,4.44711340759851,1.91983516614115,-3.48719582452794,0.303721537658111,3.18347428686983
1.80794142495072,1.61238666530804,2.92630586198543,1.31391919667739,-2.26934626364673,0.149233734315322,2.12011252933141
1.81075753308927,0.960015465383828,2.28213243898937,1.32211697360554,-1.6210739521866,-0.181050754110856,1.80212470629745
1.81357364122782,1.33015778344887,3.22202166173899,1.89186387829012,-2.27608972259393,-0.280853047420627,2.55694277001456
1.81638974936638,3.16722480383519,5.91648854277189,2.7492637389367,-4.54185667330354,0.208980532449247,4.3328761408543
1.81920585750493,6.27763239388318,9.85848022465331,3.58084783077013,-8.06805630926824,1.34839228155653,6.71966402771172
1.82202196564348,9.83450510798273,13.9966034939255,4.1620983859428,-11.9155543009541,2.83620336101996,9.07935093993416
1.82483807378203,12.7523396782005,17.1199629998046,4.36762332160412,-14.9361513390025,4.19235817829817,10.7437931607043
1.82765418192059,14.2104545276414,18.3260012895588,4.11554676191744,-16.2682279086001,5.04745388286199,11.2207740257381
1.83047029005914,13.9961634026342,17.3464063604077,3.35024295777353,-15.671284881521,5.32296022243034,10.3483246590906
1.83328639819769,12.4757589297306,14.5860704840662,2.11031155433556,-13.5309147068984,5.18272368769755,8.34819101920088
1.83610250633624,10.268418338432,10.8847774267836,0.61635908835161,-10.5765978826078,4.82602962504018,5.7505682575676
1.8389186144748,7.88366461120534,7.14053564320008,-0.743128968005256,-7.51210012720271,4.3133967896053,3.19870333759741
1.84173472261335,5.55908630430528,3.9797622320125,-1.57932407229278,-4.76942426815889,3.56920518829903,1.20021907985986
1.8445508307519,3.34756113819105,1.61844511755075,-1.7291160206403,-2.4830031278709,2.53833857941567,-0.0553354515447708
1.84736693889045,1.31126179755303,-0.0495583146561765,-1.3608201122092,-0.630851741448426,1.33604095488112,-0.70518921343269
1.85018304702901,-0.376379829814395,-1.23154094699112,-0.855161117176728,0.803960388402759,0.239390643681166,-1.04335103208393
1.85299915516756,-1.51164416400025,-2.05318237705476,-0.541538213054506,1.7824132705275,-0.485052975472873,-1.29736029505463
1.85581526330611,-2.04034680671438,-2.54013381658312,-0.499787009868736,2.29024031164875,-0.770279898422823,-1.51996041322593
1.85863137144466,-2.16094734782303,-2.74494092086368,-0.583993573040646,2.45294413434336,-0.788476887391194,-1.66446724695216
1.86144747958322,-2.24665145106345,-2.87528765611459,-0.628636205051139,2.56096955358902,-0.809007623006156,-1.75196193058287
1.86426358772177,-2.64710036481727,-3.28701965887526,-0.639919294057994,2.96706001184626,-1.00359053537964,-1.96346947646663
1.86707969586032,-3.53213334469525,-4.33021897944176,-0.798085634746508,3.93117616206851,-1.36702385497437,-2.56415230709413
1.86989580399887,-4.88634174539727,-6.15658333869059,-1.27024159329331,5.52146254204393,-1.80805007605198,-3.71341246599195
1.87271191213743,-6.61421363533149,-8.61566949815414,-2.00145586282264,7.61494156674281,-2.30637888625442,-5.30856268048839
1.87552802027598,-8.62199682853761,-11.2963773010979,-2.67438047256028,9.95918706481775,-2.97380817798867,-6.98537888682909
1.87834412841453,-10.7930668363406,-13.6824884701953,-2.88942163385467,12.2377776532679,-3.95182260124296,-8.28595505202497
1.88116023655308,-12.9086803333859,-15.344178044789,-2.43549771140314,14.1264291890874,-5.23659131099136,-8.88983787809607
1.88397634469164,-14.6420790243945,-16.0880280165974,-1.44594899220296,15.365053520496,-6.59806501609576,-8.7669885044002
1.88679245283019,-15.6909577779385,-16.0139559276346,-0.322998149696188,15.8524568527866,-7.68397981412114,-8.16847703866542
1.88960856096874,-15.9696360464808,-15.4608054826615,0.508830563819284,15.7152207645712,-8.23923330515004,-7.47598745942111
1.89242466910729,-15.6966677300143,-14.8597389351656,0.836928794848758,15.27820333259,-8.26679826243154,-7.01140507015841
1.89524077724585,-15.2785315597346,-14.553566695468,0.724964864266552,14.9160491276013,-8.00174821200057,-6.91430091560075
1.8980568853844,-15.0595166420397,-14.6649692143538,0.394547427685966,14.8622429281968,-7.72703203486286,-7.13521089333391
1.90087299352295,-15.1284950683045,-15.0813561809964,0.0471388873080674,15.1049256246505,-7.58781697780629,-7.51710864684419
1.9036891016615,-15.3293706502658,-15.5604140739551,-0.231043423689265,15.4448923621105,-7.54916361328828,-7.89572874882218
1.90650520980006,-15.451364410979,-15.8855066615743,-0.434142250595331,15.6684355362767,-7.50861108019183,-8.15982445608483
1.90932131793861,-15.4301095194823,-15.9752846376314,-0.545175118149103,15.7026970785568,-7.4424672006666,-8.26022987789025
1.91213742607716,-15.3934958203024,-15.8963220163287,-0.502826196026371,15.6449089183156,-7.445334812138,-8.19957410617756
1.91495353421571,-15.5266197440361,-15.7955556677581,-0.268935923722028,15.6610877058971,-7.62884191015703,-8.03224579574007
1.91776964235427,-15.883487416714,-15.8057172591402,0.0777701575737382,15.8446023379271,-7.98062878714385,-7.86397355078324
1.92058575049282,-16.3128288433576,-15.9720756318293,0.340753211528252,16.1424522375935,-8.32679102744292,-7.81566121015054
1.92340185863137,-16.5639154225071,-16.2272814298841,0.336633992622936,16.3955984261956,-8.45027470756499,-7.94532371863059
1.92621796676992,-16.4821680394416,-16.4219065096348,0.0602615298067093,16.4520372745382,-8.27121478462413,-8.18082248991407
1.92903407490848,-16.1275922060355,-16.401624471195,-0.274032265159509,16.2646083386153,-7.926779970438,-8.33782836817726
1.93185018304703,-15.7228834557281,-16.1039531365315,-0.381069680803357,15.9134182961298,-7.67090688746238,-8.24251140866741
1.93466629118558,-15.4949730293363,-15.6333391191631,-0.138366089826834,15.5641560742497,-7.67830346975472,-7.88585260449497
1.93748239932413,-15.5628395315106,-15.2734969969033,0.289342534607355,15.4181682642069,-7.92609103305899,-7.49207723114795
1.94029850746269,-15.9620860426944,-15.4133179606983,0.548768081996057,15.6877020016963,-8.25542706234522,-7.43227493935113
1.94311461560124,-16.7463583829237,-16.3902884765039,0.356069906419862,16.5683234297138,-8.5512141446718,-8.01710928504201
1.94593072373979,-18.0081079097046,-18.2823023503828,-0.274194440678283,18.1452051300437,-8.86695673451314,-9.27824839553056
1.94874683187834,-19.7075328480196,-20.6959914044718,-0.988458556452194,20.2017621262457,-9.35953714578372,-10.842224980462
1.9515629400169,-21.3586170826087,-22.6082453831561,-1.24962830054744,21.9834312328824,-10.0544943910306,-11.9289368418518
1.95437904815545,-21.7731975036702,-22.3292353654556,-0.55603786178543,22.0512164345629,-10.6085798209424,-11.4426366136205
1.957195156294,-19.0916166334914,-17.6702968881196,1.42131974537173,18.3809567608055,-10.2564681894315,-8.12448857137395
1.96001126443255,-11.2029308728123,-6.38607227581744,4.81685859699486,8.79450157431487,-8.00989473490358,-0.784606839411292
1.96282737257111,3.54852623983387,13.1245562529028,9.57603001306892,-8.33654124636833,-3.01375188661753,11.3502931329859
1.96564348070966,25.6341210273336,41.0222435585031,15.3881225311695,-33.3281822929183,5.12299924808202,28.2051830448363
1.96845958884821,53.8740723918473,75.4288563261544,21.5547839343071,-64.6514643590008,16.1596442287701,48.4918201302308
1.97127569698676,85.4025630655569,112.331319999459,26.9287569339024,-98.8669415325081,29.2369030658272,69.6300384666809
1.97409180512532,116.072246910923,146.147111696133,30.0748647852098,-131.109679303528,42.9986910628565,88.1109882406711
1.97690791326387,141.187784611721,170.8675274448,29.6797428330792,-156.02765602826,55.7540208893207,100.27363513894
1.97972402140242,156.415254703642,181.469882148436,25.0546274447942,-168.942568426039,65.680313629424,103.262254796615
1.98254012954097,158.708693298067,175.186306135237,16.4776128371704,-166.947499716652,71.1155402304481,95.8319594862037
1.98535623767953,147.07272788923,152.263229835899,5.19050194666829,-149.667978862565,70.9411129712811,78.7268658912835
1.98817234581808,122.943389026978,115.9968315503,-6.94655747667851,-119.470110288639,64.9449732518284,54.5251370368107
1.99098845395663,89.9906980937271,72.0225260105732,-17.968172083154,-81.0066120521502,53.9794350884406,27.0271769637096
1.99380456209518,53.2972020353863,27.0333191484474,-26.2638828869389,-40.1652605919169,39.7805424611626,0.384718130754251
1.99662067023374,18.1215260592326,-12.7272608836678,-30.8487869429004,-2.69713258778237,24.4851565010665,-21.7880239132841
1.99943677837229,-11.3247386655495,-42.7661435790077,-31.4414049134583,27.0454411222786,10.0583331239544,-37.103774246233
2.00225288651084,-32.6414705987856,-61.0679931691589,-28.4265225703733,46.8547318839723,-2.10747401420619,-44.7472578697661
2.00506899464939,-45.3328451587825,-68.0916365430507,-22.7587913842682,56.7122408509166,-11.2870268872572,-45.4252139636594
2.00788510278795,-50.3552185928945,-66.1422257939806,-15.7870072010861,58.2487221934375,-17.2841056959042,-40.9646164975333
2.0107012109265,-49.4648282792136,-58.4213949225609,-8.95656664334733,53.9431116008873,-20.2541308179331,-33.6889807829541
2.01351731906505,-44.6809998354451,-48.1092785122854,-3.42827867684021,46.3951391738653,-20.6263605793025,-25.7687785945628
2.0163334272036,-37.9722674313511,-37.7367321673016,0.235535264049496,37.8544997993264,-19.1039013477003,-18.7505984516261
2.01914953534216,-31.0737848774494,-28.9287043373675,2.14508054008195,30.0012446074085,-16.6094327087657,-13.3918118986428
2.02196564348071,-25.3077885935433,-22.4435662565816,2.8642223369617,23.8756774250624,-14.0860054652525,-9.78967195980995
2.02478175161926,-21.400412372531,-18.3720822574243,3.02833011510671,19.8862473149777,-12.2143712438189,-7.6718760711588
2.02759785975781,-19.4157602108052,-16.3843056518495,3.03145455895572,17.9000329313274,-11.2236073848805,-6.67642554644689
2.03041396789637,-18.9123176294974,-15.9592488951537,2.95306873434372,17.4357832623256,-10.9326931819206,-6.50309008040499
2.03323007603492,-19.2718377357743,-16.5590168212798,2.71282091449453,17.915427278527,-10.9923293251344,-6.92309795339262
2.03604618417347,-20.0078658333919,-17.7251030166585,2.28276281673332,18.8664844250252,-11.1453143250626,-7.72117009996261
2.03886229231202,-20.8734815362311,-19.1002781022935,1.77320343393761,19.9868798192623,-11.3233424850844,-8.66353733417794
2.04167840045058,-21.751215360186,-20.4075789081308,1.34363645205516,21.0793971341584,-11.5474259061206,-9.53197122803783
2.04449450858913,-22.4785767972463,-21.4252006179369,1.05337617930943,21.9518887075916,-11.7659764882779,-10.1859122193137
2.04731061672768,-22.793970755005,-21.9798105285491,0.814160226455904,22.3868906417771,-11.8040654907305,-10.5828251510466
2.05012672486623,-22.4598635873154,-21.9603183249008,0.499545262414642,22.2100909561081,-11.479704424865,-10.7303865312431
2.05294283300479,-21.4497563280325,-21.3428776702496,0.106878657782868,21.396316999141,-10.7783174929077,-10.6179995062334
2.05575894114334,-20.0222088993679,-20.2132988157645,-0.191089916396535,20.1177538575662,-9.91555949148571,-10.2021943660805
2.05857504928189,-18.600612139801,-18.7705555473817,-0.169943407580714,18.6855838435913,-9.21533436611012,-9.47024947748119
2.06139115742044,-17.5426781784362,-17.2969556286691,0.245722549767049,17.4198169035527,-8.89420036410162,-8.52561653945104
2.064207265559,-16.9729042317915,-16.0910197256756,0.881884506115881,16.5319619787336,-8.92739436895369,-7.60456760977987
2.06702337369755,-16.7909392914472,-15.3771004911901,1.41383880025707,16.0840198913186,-9.10238904585213,-6.98163084546651
2.0698394818361,-16.8166952177652,-15.2235738505235,1.5931213672417,16.0201345341444,-9.20490829250345,-6.8152262416409
2.07265558997466,-16.9259890736212,-15.5077910132443,1.41819806037682,16.2168900434328,-9.17209356699899,-7.04479647643376
2.07547169811321,-17.062562985072,-15.9513904316044,1.11117255346759,16.5069767083382,-9.08686776926977,-7.4201089390684
2.07828780625176,-17.14654824869,-16.2165181087926,0.930030139897429,16.6815331787413,-9.03828919429373,-7.64324398444759
2.08110391439031,-17.0043456663916,-16.0217348703157,0.982610796075893,16.5130402683537,-8.99347823123376,-7.51956203711992
2.08392002252886,-16.4229288334112,-15.2284612468112,1.19446758660001,15.8256950401112,-8.80869821000559,-7.01699683010557
2.08673613066742,-15.3057246974746,-13.8690516513893,1.4366730460853,14.5873881744319,-8.37119887177993,-6.21618930265198
2.08955223880597,-13.7935009195574,-12.1184196976849,1.6750812218725,12.9559603086212,-7.73429107071496,-5.22166923790622
2.09236834694452,-12.2208280963806,-10.2302665678248,1.99056152855573,11.2255473321027,-7.10569481246815,-4.11985251963455
2.09518445508307,-10.9125201181325,-8.46128224281623,2.45123787531622,9.68690118047434,-6.68187899672434,-3.00502218375
2.09800056322163,-9.97155316762542,-7.00386375451764,2.96768941310778,8.48770846107153,-6.4696212903666,-2.01808717070493
2.10081667136018,-9.23333153084922,-5.94573740327064,3.28759412757858,7.58953446705993,-6.2604628292139,-1.32907163784603
2.10363277949873,-8.43017761346761,-5.26715856031771,3.1630190531499,6.84866808689266,-5.79659833330875,-1.05206975358391
2.10644888763729,-7.43356931509862,-4.87143930580348,2.56213000929514,6.15250431045105,-4.99784966219688,-1.15465464825417
2.10926499577584,-6.37254923900021,-4.63051241038891,1.74203682861129,5.50153082469456,-4.05729303380575,-1.44423779088881
2.11208110391439,-5.52781476204865,-4.42326646264354,1.10454829940511,4.9755406123461,-3.31618153072688,-1.65935908161921
2.11489721205294,-5.08947829741044,-4.15444830451485,0.93502999289559,4.62196330096265,-3.01225414515302,-1.60970915580963
2.1177133201915,-4.98232786246771,-3.75840385501682,1.22392400745089,4.37036585874227,-3.1031259349593,-1.26723992378296
2.12052942833005,-4.90610514978131,-3.19911424446424,1.70699090531708,4.05260969712278,-3.3065480275492,-0.74606166957358
2.1233455364686,-4.55816844734941,-2.47213173474635,2.08603671260306,3.51515009104788,-3.32210257997623,-0.193047511071648
2.12616164460715,-3.85629554562185,-1.60806995802991,2.24822558759193,2.73218275182588,-3.05226056660689,0.320077814781011
2.12897775274571,-2.98594838832425,-0.677746904986256,2.308201483338,1.83184764665525,-2.64707493583112,0.81522728917587
2.13179386088426,-2.24769767204706,0.203888750466347,2.4515864225134,1.02190446079035,-2.34964204728023,1.32773758648988
2.13460996902281,-1.84292850482488,0.887616191197994,2.73054469602287,0.477656156813442,-2.28673660042387,1.80908044361043
2.13742607716136,-1.77265142428911,1.22682219939084,2.99947362367995,0.272914612449134,-2.38606252398453,2.11314791153539
2.14024218529992,-1.91036328248748,1.13658979228974,3.04695307477722,0.386886745098867,-2.47865817863235,2.09177143353348
2.14305829343847,-2.15027690878591,0.649855759790436,2.80013266857635,0.750210574497738,-2.47520478868113,1.72499421418339
2.14587440157702,-2.47109145003549,-0.056736567119355,2.41435488291614,1.26391400857742,-2.44272316647581,1.17880915789839
2.14869050971557,-2.84867872903517,-0.681254950940506,2.16742377809466,1.76496683998784,-2.50805125356491,0.743084413577077
2.15150661785413,-3.11240101489048,-0.859836426923224,2.25256458796726,1.98611872090685,-2.68248280142887,0.696364080522016
2.15432272599268,-2.91708619974814,-0.268165163124124,2.64892103662401,1.59262568143613,-2.78300361818607,1.19037793674994
2.15713883413123,-1.9155618787467,1.25655409448719,3.17211597323388,0.329503892129756,-2.54383892599029,2.21433503386053
2.15995494226978,-0.0314446422895378,3.61324895917498,3.64469360146452,-1.79090215844272,-1.83806912187703,3.62897128031975
2.16277105040834,2.38791559510866,6.41454638010873,4.02663078500007,-4.40123098760869,-0.819357594945702,5.2205885825544
2.16558715854689,4.69249775222189,9.0886452872822,4.39614753506031,-6.89057151975204,0.14817510858079,6.74239641117125
2.16840326668544,6.26918302771373,11.0856965931501,4.81651356543641,-8.67743981043193,0.726334731138658,7.95110507929328
2.17121937482399,6.86874489661985,12.0964305190652,5.22768562244535,-9.48258770784253,0.820529637087249,8.66205807075528
2.17403548296255,6.697785168303,12.1707607588384,5.47297559053542,-9.43427296357071,0.612404788883793,8.82186817468692
2.1768515911011,6.23468871323448,11.6768724336273,5.44218372039281,-8.95578057343088,0.396252496420834,8.55952807701005
2.17966769923965,5.93025111576053,11.1298723934061,5.19962127764558,-8.53006175458332,0.365314919057477,8.16474683552584
2.1824838073782,6.01449583036127,10.9853608580472,4.97086502768588,-8.49992834420421,0.521815401337695,7.97811294286652
2.18529991551676,6.51279350249219,11.4981199635119,4.98532646101972,-9.00545673300205,0.763733520736237,8.24172321226581
2.18811602365531,7.38867215964637,12.6902750189557,5.30160285930934,-10.039473589301,1.04353465016851,8.99593893913253
2.19093213179386,8.64064401113474,14.4011079200428,5.76046390890802,-11.5208759655888,1.44009005111336,10.0807859144754
2.19374823993241,10.2565016189711,16.3596260971606,6.10312447818949,-13.3080638580658,2.07668857039081,11.231375287675
2.19656434807097,12.0904706074333,18.2471460616916,6.1566754542583,-15.1688083345624,2.96689757658748,12.2019107579749
2.19938045620952,13.8208500732524,19.7591311027921,5.93828102953961,-16.7899905880223,3.94128452185642,12.8487060661658
2.20219656434807,15.0797890160356,20.6835020103925,5.60371299435684,-17.8816455132141,4.7380380108394,13.1436075023747
2.20501267248662,15.683319986863,20.9827074499281,5.29938746306505,-18.3330137183956,5.19196626189899,13.1410474564966
2.20782878062518,15.7804646697591,20.8351947743328,5.05473010457369,-18.3078297220459,5.3628672825927,12.9449624394532
2.21064488876373,15.7853968084269,20.5911833906771,4.80578658225017,-18.188290099552,5.48980511308838,12.6984849864636
2.21346099690228,16.1200468037504,20.634633657656,4.51458685390562,-18.3773402307032,5.80272997492238,12.5746102557808
2.21627710504083,16.9425188699746,21.1998369869115,4.25731811693693,-19.0711779284431,6.34260037651883,12.7285775519242
2.21909321317939,18.049404957856,22.2308624820148,4.18145752415874,-20.1401337199354,6.93397371684865,13.2061600030868
2.22190932131794,19.008730445937,23.3651127935411,4.35638234760409,-21.186921619739,7.32617404916646,13.8607475705726
2.22472542945649,19.415529958543,24.0687002618862,4.65317030334322,-21.7421151102146,7.3811798275999,14.3609352826147
2.22754153759504,19.0948159782211,23.8758812867896,4.78106530856848,-21.4853486325053,7.1568753348263,14.328473297679
2.2303576457336,18.1445469672387,22.6225169851987,4.47797001796003,-20.3835319762187,6.83328847463932,13.5502435015794
2.23317375387215,16.840957522323,20.5531727233885,3.71221520106542,-18.6970651228558,6.56437116062881,12.1326939622269
2.2359898620107,15.5101259526408,18.2399154453979,2.7297894927571,-16.8750206990194,6.39016822994186,10.4848524690775
2.23880597014925,14.4463816320198,16.3470669153695,1.90068528334968,-15.3967242736946,6.27284817433505,9.12387609935957
2.24162207828781,13.8721308188348,15.3519745399788,1.47984372114404,-14.6120526794068,6.19614354884537,8.41590913056143
2.24443818642636,13.8837321958806,15.3488680090605,1.46513581317988,-14.6163001024706,6.20929819135037,8.40700191112018
2.24725429456491,14.3689597004661,16.0204881599712,1.65152845950512,-15.1947239302186,6.35871562048047,8.83600830973815
2.25007040270346,14.9660734677829,16.7855142590809,1.81944079129795,-15.8757938634319,6.57331633824248,9.30247752518941
2.25288651084202,15.1597593805117,17.0526524082104,1.89289302769868,-16.1062058943611,6.63343317640652,9.47277271795454
2.25570261898057,14.5225449707786,16.4647597768301,1.9422148060515,-15.4936523738044,6.29016508236355,9.2034872914408
2.25851872711912,12.9723630908599,15.0200137685196,2.04765067765973,-13.9961884296897,5.46235620660007,8.53383222308966
2.26133483525767,10.8553599725311,13.0171722064569,2.16181223392575,-11.936266089494,4.3467738693027,7.58949222019132
2.26415094339623,8.75603354271149,10.864082953958,2.10804941124655,-9.81005824833477,3.32399206573247,6.4860661826023
2.26696705153478,7.13448516562839,8.86259142651167,1.72810626088328,-7.99853829607003,2.70318945237256,5.29534884369748
2.26978315967333,6.04061780099883,7.09174436050729,1.05112655950846,-6.56618108075306,2.49474562074519,4.07143546000788
2.27259926781188,5.11940008438974,5.44341261413443,0.324012529744687,-5.28140634926209,2.39769377732253,2.88371257193956
2.27541537595044,3.90582086044169,3.76158994863776,-0.144230911803938,-3.83370540453973,2.02502588612282,1.80867951841691
2.27823148408899,2.1821167824071,1.97327288373895,-0.20884389866815,-2.07769483307302,1.19548034053762,0.882214492535399
2.28104759222754,0.124561691330844,0.124173851292371,-0.000387840038473669,-0.124367771311608,0.062474765684659,0.0618930056269485
2.28386370036609,-1.85761104030075,-1.67827905105567,0.179331989245078,1.76794504567821,-1.01847151477291,-0.749473530905295
2.28667980850465,-3.43998955351902,-3.34047136589972,0.0995181876193012,3.39023045970937,-1.76975387056916,-1.62047658914021
2.2894959166432,-4.59248020609401,-4.80948159466628,-0.217001388572269,4.70098090038015,-2.18773940876087,-2.51324149161928
2.29231202478175,-5.52833321557157,-6.05124571142122,-0.522912495849645,5.7897894634964,-2.50271035986096,-3.28707910363543
2.2951281329203,-6.47379741756338,-7.03313812337733,-0.559340705813953,6.75346777047036,-2.95722835587471,-3.79623941459564
2.29794424105886,-7.48436449528825,-7.75380403699012,-0.269439541701869,7.61908426613918,-3.60746247679319,-4.01162178934599
2.30076034919741,-8.46935824081329,-8.30640917500648,0.162949065806808,8.38788370790988,-4.31615365331005,-4.07173005459983
2.30357645733596,-9.38307987801776,-8.91423793827497,0.468841939742784,9.14865890814637,-4.92596090888027,-4.22269799926609
2.30639256547451,-10.384341684301,-9.8832526354116,0.50108904888943,10.1337971598563,-5.44271536659523,-4.69108179326108
2.30920867361307,-11.7928338628344,-11.4727633952055,0.320070467628899,11.63279862902,-6.05645216523167,-5.57634646378832
2.31202478175162,-13.8509200362111,-13.7459845718355,0.104935464375547,13.7984523040233,-6.97792775029331,-6.82052455372999
2.31484088989017,-16.4724064505926,-16.4793070176395,-0.00690056704689113,16.475856734116,-8.23275294177285,-8.24310379234318
2.31765699802872,-19.1819353734364,-19.1805249042883,0.0014104691481549,19.1812301388623,-9.59167292129228,-9.58955721757005
2.32047310616728,-21.3105118637751,-21.2227208481777,0.087791015597368,21.2666163559764,-10.6991514396862,-10.5674649162902
2.32328921430583,-22.3275122424467,-22.0583635381043,0.269148704342378,22.1929378902755,-11.2983304733945,-10.894607416881
2.32610532244438,-22.0956568746045,-21.4374620293819,0.658194845222607,21.7665594519932,-11.3769258599136,-10.3896335920797
2.32892143058293,-20.8977317484017,-19.5321258497437,1.36560589865801,20.2149287990727,-11.1316688235299,-9.08325997554285
2.33173753872149,-19.2480597483483,-16.8967989044264,2.35126084392181,18.0724293263874,-10.799660296135,-7.27276903025232
2.33455364686004,-17.6383317402079,-14.2681676866721,3.3701640535358,15.95324971344,-10.5042478968718,-5.44900181656816
2.33736975499859,-16.3789368914543,-12.2922532375757,4.08668365387864,14.335595064515,-10.2328102726665,-4.10278479184853
2.34018586313714,-15.5919120121257,-11.3082853087988,4.28362670332695,13.4500986604622,-9.93776935772633,-3.5123293027359
2.3430019712757,-15.2871267413287,-11.2878282628747,3.99929847845401,13.2874775021017,-9.64321260989135,-3.64426489221034
2.34581807941425,-15.4122254833826,-11.9365069490799,3.47571853430273,13.6743662162313,-9.44397200884269,-4.23039420738859
2.3486341875528,-15.8333363887739,-12.875100585046,2.95823580372786,14.3542184869099,-9.39578609625086,-4.95843239065907
2.35145029569135,-16.3039968863761,-13.7891047318351,2.51489215454098,15.0465508091056,-9.40944452045852,-5.63710628864704
2.35426640382991,-16.5111906042501,-14.4827899199787,2.02840068427133,15.4969902621144,-9.26979564426069,-6.2271946178537
2.35708251196846,-16.2141468909153,-14.8508267759411,1.36332011497422,15.5324868334282,-8.78873350294478,-6.74375333048344
2.35989862010701,-15.3832028116384,-14.8281806300133,0.555022181625095,15.1056917208259,-7.96911249663176,-7.13657922419412
2.36271472824556,-14.216983414609,-14.371501932354,-0.154518517744915,14.2942426734815,-7.03123244843206,-7.26301022504944
2.36553083638412,-13.0094064143004,-13.4837262038125,-0.47431978951218,13.2465663090565,-6.26754331239409,-6.97902299666236
2.36834694452267,-11.9705513711673,-12.2558304936783,-0.285279122511024,12.1131909324228,-5.84263612432814,-6.27055480809467
2.37116305266122,-11.1481677367988,-10.8877703207997,0.260397415999096,11.0179690287992,-5.70428257639894,-5.3136864524003
2.37397916079977,-10.5048079897524,-9.66383347007834,0.840974519674081,10.0843207299154,-5.67289125471325,-4.41142947520213
2.37679526893833,-10.0613000360584,-8.88089929259446,1.18040074346394,9.47109966432643,-5.62085038976117,-3.85024927456526
2.37961137707688,-9.95245060029111,-8.74721379381532,1.20523680647579,9.34983219705321,-5.57884370338345,-3.77098849366977
2.38242748521543,-10.3185121753417,-9.2831796973634,1.03533247797835,9.80084593635257,-5.67692232666004,-4.12392360969253
2.38524359335398,-11.1122237140791,-10.2671930090415,0.84503070503761,10.6897083615603,-5.97862720955837,-4.71108115200195
2.38805970149254,-11.9985060060207,-11.2686151720829,0.729890833937793,11.6335605890518,-6.36419841997924,-5.26936216907256
2.39087580963109,-12.4690238386458,-11.7817985387489,0.687225299896882,12.1254111886974,-6.57812456927134,-5.54728661942602
2.39369191776964,-12.1229633261203,-11.4246559350221,0.698307391098195,11.7738096305712,-6.41063535860923,-5.36317427196194
2.39650802590819,-10.9212742283152,-10.1202497838763,0.801024444438875,10.5207620060958,-5.86114933637704,-4.65961266971873
2.39932413404675,-9.2306942457357,-8.17029533551608,1.06039891021961,8.70049479062589,-5.14554657797765,-3.55494821264824
2.4021402421853,-7.62891259960168,-6.16769687664886,1.46121572295282,6.89830473812527,-4.54506416127725,-2.35324057684802
2.40495635032385,-6.61044416635594,-4.76740249477115,1.84304167158479,5.68892333056354,-4.22674291897036,-1.46218041159318
2.4077724584624,-6.381112927682,-4.40718389195518,1.97392903572681,5.39414840981859,-4.17752098170441,-1.21662742811418
2.41058856660096,-6.8363885377679,-5.10558839793677,1.73080013983113,5.97098846785233,-4.28359433879951,-1.68739412905282
2.41340467473951,-7.6783741789509,-6.44026812672234,1.23810605222857,7.05932115283662,-4.45824011558974,-2.60108103724688
2.41622078287806,-8.55554560201423,-7.7305543408185,0.824991261195725,8.14304997141636,-4.69026843160498,-3.45278153981139
2.41903689101661,-9.14867994000955,-8.34667006401481,0.80200987599474,8.74767500201218,-4.97534490800215,-3.77233009401004
2.42185299915517,-9.21196650876664,-7.99290396980913,1.21906253895752,8.60243523928789,-5.21551452386208,-3.3869207154258
2.42466910729372,-8.61782934012744,-6.81327299290502,1.80455634722242,7.71555116651623,-5.21119284367493,-2.5043583228413
2.42748521543227,-7.42012329450096,-5.26703709197245,2.15308620252851,6.34358019323671,-4.78660474851473,-1.55697544472197
2.43030132357082,-5.89027478534939,-3.86459971909901,2.02567506625038,4.8774372522242,-3.95797492579989,-0.919462326424313
2.43311743170938,-4.45978052546473,-2.93280317427938,1.52697735118535,3.69629184987205,-2.99337893832504,-0.702912911547016
2.43593353984793,-3.55209647291261,-2.53215143634877,1.01994503656384,3.04212395463069,-2.28602075473822,-0.756103199892467
2.43874964798648,-3.37874373594922,-2.52691806390855,0.851825672040669,2.95283089992888,-2.11528470399494,-0.837546195933939
2.44156575612504,-3.82920407998457,-2.71482413534142,1.11437994464315,3.27201410766299,-2.47179201231386,-0.800222095349131
2.44438186426359,-4.53879411956656,-2.91779868906575,1.62099543050082,3.72829640431616,-3.07989477503369,-0.648401629282467
2.44719797240214,-5.0960120913108,-3.00192961315362,2.09408247815718,4.04897085223221,-3.59504728473399,-0.453923567498224
2.45001408054069,-5.24916863939534,-2.86387707417369,2.38529156522165,4.05652285678451,-3.81723010230849,-0.239292754476019
2.45283018867925,-4.97916370052489,-2.43513839232373,2.54402530820116,3.70715104642431,-3.76159450436303,0.0544434579387181
2.4556462968178,-4.4174512024086,-1.7166644731696,2.700786729239,3.0670578377891,-3.5591189658238,0.492061128034704
2.45846240495635,-3.71003105635748,-0.81447293467664,2.89555812168084,2.26225199551706,-3.30279458901916,1.0405425935021
2.4612785130949,-2.95647809297027,0.0576225627626685,3.01410065573294,1.4494277651038,-2.98528937435161,1.5358616092478
2.46409462123346,-2.26640914496611,0.617531510350836,2.88394065531695,0.824438817307638,-2.57517490014153,1.75073608283389
2.46691072937201,-1.85069115403911,0.586965955422348,2.43765710946145,0.631862599308379,-2.14417413175028,1.5123115324419
2.46972683751056,-2.01286273101324,-0.214800360897711,1.79806237011553,1.11383154595547,-1.90546255056438,0.791631004608908
2.47254294564911,-2.98373177399809,-1.76923742054977,1.21449435344832,2.37648459727393,-2.0991130637232,-0.277371533550727
2.47535905378767,-4.69343064711663,-3.78482810753443,0.908602539582196,4.23912937732553,-2.80101659334941,-1.43811278397612
2.47817516192622,-6.67003966331134,-5.71388287118582,0.956156792125523,6.19196126724858,-3.81309822771843,-2.37886303953015
2.48099127006477,-8.19630404362701,-6.91136763272522,1.28493641090179,7.55383583817611,-4.7406202272644,-2.81321561091171
2.48380737820332,-8.67081031844854,-6.91007014117694,1.7607401772716,7.79044022981274,-5.21577524786007,-2.57466498195267
2.48662348634188,-7.94687667564063,-5.68010900441889,2.26676767122174,6.81349284002976,-5.10682217343119,-1.70667066659857
2.48943959448043,-6.41304026016968,-3.70198174692963,2.71105851324005,5.05751100354965,-4.56204938670486,-0.495461616844791
2.49225570261898,-4.75875085728685,-1.77523477377178,2.98351608351507,3.26699281552931,-3.87113347040096,0.604140654871643
2.49507181075753,-3.59485576885137,-0.654830047390435,2.94002572146094,2.1248429081209,-3.26744074515616,1.14259783703525
2.49788791889609,-3.18526189508891,-0.720367656423399,2.46489423866551,1.95281477575615,-2.82507806687721,0.872263291121054
2.50070402703464,-3.43434371493269,-1.85437977612322,1.57996393880947,2.64436174552796,-2.50715382687108,-0.137207918656879
2.50352013517319,-4.07100025313719,-3.56736255433252,0.503637698804663,3.81918140373486,-2.28731897597093,-1.53186242776393
2.50633624331174,-4.84519139838164,-5.26391956096872,-0.41872816258708,5.05455547967518,-2.21323161789728,-2.8413238617779
2.5091523514503,-5.59656454163432,-6.48818669332108,-0.891622151686754,6.0423756174777,-2.35247119497379,-3.68990442250392
2.51196845958885,-6.20492219747192,-7.03903263544549,-0.834110437973571,6.6219774164587,-2.68540587974917,-3.93657153670953
2.5147845677274,-6.53970811840992,-6.95020586578828,-0.410497747378356,6.7449569920991,-3.06460518551578,-3.68035180658332
2.51760067586595,-6.49926064793526,-6.40343611183367,0.0958245361015955,6.45134837988446,-3.29754259201843,-3.15380578786603
2.52041678400451,-6.11211643619331,-5.64268760430042,0.469428831892895,5.87740202024687,-3.2907726340431,-2.58662938620376
2.52323289214306,-5.58404541500417,-4.9126301451482,0.671415269855972,5.24833778007619,-3.12773034243007,-2.12060743764611
2.52604900028161,-5.20552569904106,-4.40960383516306,0.795921863878001,4.80756476710206,-3.00072378145953,-1.80684098564253
2.52886510842016,-5.16370272363381,-4.23852046860267,0.925182255031139,4.70111159611824,-3.04444248933247,-1.65666910678577
2.53168121655872,-5.41191032046167,-4.39666454471965,1.01524577574202,4.90428743259066,-3.21357804810185,-1.69070938448881
2.53449732469727,-5.72627950035382,-4.81165264303837,0.914626857315449,5.26896607169609,-3.32045317883463,-1.94851289286146
2.53731343283582,-5.92554182823311,-5.4233168093647,0.50222501886841,5.67442931879891,-3.21388342355076,-2.46054589524815
2.54012954097437,-6.07531529016787,-6.24847915541794,-0.173163865250068,6.1618972227929,-2.9510757124589,-3.210821510334
2.54294564911293,-6.48722715728595,-7.36177400327576,-0.874546845989808,6.92450058028085,-2.80634015564807,-4.11816042463278
2.54576175725148,-7.48096065243787,-8.78564267161077,-1.3046820191729,8.13330166202432,-3.08813931663248,-5.04516234539184
2.54857786539003,-9.07645888386275,-10.3624429846357,-1.28598410077293,9.71945093424921,-3.89523739154491,-5.8242135427043
2.55139397352858,-10.8570314347265,-11.7131627971218,-0.856131362395224,11.2850971159241,-5.00045003616565,-6.28464707975849
2.55421008166714,-12.1289553860375,-12.3423865329062,-0.213431146868681,12.2356709594719,-5.95776211958442,-6.27790883988744
2.55702618980569,-12.2863683894447,-11.8547303524931,0.431638036951625,12.0705493709689,-6.35900321319816,-5.71154615777073
2.55984229794424,-11.1384657406564,-10.1643367151565,0.974129025499918,10.6514012279064,-6.05629738307815,-4.59510384482827
2.56265840608279,-8.98830271301574,-7.56991124419611,1.41839146881963,8.27910697860592,-5.20334709091769,-3.07575988768824
2.56547451422135,-6.44136150379464,-4.65136223442639,1.78999926936824,5.54636186911052,-4.11568038658144,-1.43068148252908
2.5682906223599,-4.11048849028073,-2.05809002427358,2.05239846600715,3.08428925727716,-3.08144347814394,-0.00284577913321593
2.57110673049845,-2.42136744165562,-0.31017716507713,2.11119027657849,1.36577230336638,-2.26627885911706,0.90050655575068
2.573922838637,-1.59617581027274,0.306512287126831,1.90268809739957,0.644831761572956,-1.74943195383616,1.1046001922632
2.57673894677556,-1.72960821476318,-0.251556588639836,1.47805162612334,0.990582401701509,-1.60382992044326,0.613247518741754
2.57955505491411,-2.8183749905013,-1.8266810483245,0.991693942176798,2.3225280194129,-1.90503446633905,-0.417493553073851
2.58237116305266,-4.69690202124889,-4.10256032031029,0.594341700938593,4.39973117077959,-2.64562186109374,-1.75410930968585
2.58518727119121,-6.96512918810618,-6.6348534144196,0.330275773686579,6.79999130126289,-3.64770248089638,-3.15228882036651
2.58800337932977,-9.03519479684879,-8.89284706251111,0.142347734337687,8.96402092967995,-4.58877126559324,-4.37524966408671
2.59081948746832,-10.3333035126807,-10.3475781540786,-0.0142746413978241,10.3404408333797,-5.15951443564146,-5.18092639773819
2.59363559560687,-10.5541013798473,-10.6183636408511,-0.064262261003865,10.5862325103492,-5.2449195594217,-5.3413129509275
2.59645170374542,-9.80377041785358,-9.64105138631816,0.162719031535421,9.72241090208587,-4.9832447246945,-4.73916617739137
2.59926781188398,-8.54080617197985,-7.77535731505162,0.765448856928227,8.15808174351573,-4.65312751445404,-3.5049542290617
2.60208392002253,-7.3637080679521,-5.76019681662129,1.60351125133081,6.56195244228669,-4.48360965964145,-2.07834278264524
2.60490002816108,-6.78003665186886,-4.4769198232601,2.30311682860876,5.62847823756448,-4.54157674023881,-1.08690149732567
2.60771613629963,-7.06146791746631,-4.57924002733503,2.48222789013128,5.82035397240067,-4.77184790379879,-1.04850606860188
2.61053224443819,-8.19457294532716,-6.14575822653673,2.04881471879042,7.17016558593195,-5.12169383205879,-2.04847175387316
2.61334835257674,-9.87754504020372,-8.54171713487334,1.33582790533038,9.20963108753853,-5.60668647276705,-3.60294461477148
2.61616446071529,-11.5411749804666,-10.6036786040843,0.937496376382352,11.0724267922754,-6.23933567842448,-4.83309111385095
2.61898056885384,-12.4413305673383,-11.1056514525502,1.33567911478815,11.7734910099442,-6.88850484106323,-4.884986168881
2.6217966769924,-11.8807546113766,-9.30557515781063,2.57517945356601,10.5931648845936,-7.22796703247133,-3.36519785212231
2.62461278513095,-9.52588545597263,-5.30437875223506,4.22150670373757,7.41513210410385,-6.8736960798551,-0.541436024248747
2.6274288932695,-5.65919520837529,-0.0319682067301413,5.62722700164515,2.84558170755272,-5.64321110501022,2.7976293974575
2.63024500140805,-1.17514496842136,5.13216052795439,6.30730549637576,-1.97850777976651,-3.74122523239856,5.71973301216508
2.63306110954661,2.74916803497332,8.90922139817031,6.16005336319699,-5.82919471657181,-1.70544266411184,7.53463738068365
2.63587721768516,5.16902505669354,10.5813931513748,5.41236809468124,-7.87520910403416,-0.121671518993849,7.99688062302801
2.63869332582371,5.79302390610184,10.1809197243034,4.38789581820159,-7.98697181520264,0.702564043950125,7.28440777125252
2.64150943396226,5.07038118708852,8.3810895182095,3.31070833112098,-6.72573535264901,0.879836427983767,5.84589892466524
2.64432554210082,3.90521963628702,6.18864842505726,2.28342878877024,-5.04693403067214,0.810895423758394,4.23603860691375
2.64714165023937,3.18537570439429,4.58552173829903,1.40014603390474,-3.88544872134666,0.892614835244775,2.99283388610189
2.64995775837792,3.41351525262836,4.250406172237,0.836890919608639,-3.83196071243268,1.28831216650986,2.54364854592282
2.65277386651647,4.62991464643124,5.43337746797153,0.803462821540295,-5.03164605720139,1.91322591244547,3.11842014475591
2.65558997465503,6.5904583162273,7.97763123220067,1.38717291597337,-7.28404477421399,2.60164270012697,4.68240207408702
2.65840608279358,8.98869639391924,11.4191610505383,2.43046465661904,-10.2039287222288,3.2791158686501,6.92481285357866
2.66122219093213,11.5293980907319,15.0920738850758,3.56267579434395,-13.3107359879038,3.98336114819396,9.32737483970988
2.66403829907068,13.8455722055413,18.2213518430121,4.37577963747081,-16.0334620242767,4.73489628403522,11.2985657402414
2.66685440720924,15.4242972735766,20.0388838751966,4.61458660161997,-17.7315905743866,5.40485533597833,12.3267352384083
2.66967051534779,15.7081164645099,19.9585153551193,4.25039889060933,-17.8333159098146,5.7288587869503,12.1044571228643
2.67248662348634,14.3715556742446,17.7887190890099,3.41716341476531,-16.0801373816272,5.47719612973964,10.6029412518876
2.67530273162489,11.5898190554266,13.8917509112323,2.30193185580569,-12.7407849833295,4.64394359981046,8.09684138351899
2.67811883976345,8.0778662645857,9.17218728324969,1.09432101866399,-8.62502677391769,3.49177262296085,5.13325415095684
2.680934947902,4.82050967101346,4.82973849403723,0.00922882302377381,-4.82512408252535,2.40564042399484,2.4194836585305
2.68375105604055,2.63353279382133,1.93328955076928,-0.700243243052049,-2.28341117229531,1.66688801843669,0.616523153858618
2.6865671641791,1.8227624453252,1.00194170637,-0.820820738955203,-1.4123520758476,1.3217915921402,0.0905604837073963
2.68938327231766,2.13724410822576,1.81311433800372,-0.324129770222033,-1.97517922311474,1.2306869392239,0.744492283890845
2.69219938045621,2.99869053482863,3.54247966957403,0.5437891347454,-3.27058510220133,1.22745070004162,2.04313440215972
2.69501548859476,3.80927760595739,5.14719727503775,1.33791966908035,-4.47823744049757,1.23567896843852,3.24255847205905
2.69783159673331,4.13629474495378,5.77973984342082,1.64344509846704,-4.9580172941873,1.24642482324337,3.71159247094393
2.70064770487187,3.72509350185524,5.04276825225314,1.3176747503979,-4.38393087705419,1.20370937572867,3.18022150132552
2.70346381301042,2.44518799287855,3.01677358684534,0.571585593966787,-2.73098078986195,0.936801199455884,1.79417959040606
2.70627992114897,0.290722194556066,0.112217145080854,-0.178505049475212,-0.20146966981846,0.234613622015639,-0.0331439521971791
2.70909602928752,-2.5545694605613,-3.14357428430665,-0.589004823745352,2.84907187243398,-0.982782318407974,-1.866289554026
2.71191213742608,-5.68629679548745,-6.28304924582633,-0.596752450338883,5.98467302065689,-2.54477217257428,-3.43990084808261
2.71472824556463,-8.57651124559008,-8.98808336362873,-0.411572118038649,8.7822973046094,-4.08246956377571,-4.69982774083369
2.71754435370318,-10.7833233729447,-11.1002484153494,-0.316925042404719,10.9417858941471,-5.23319916527,-5.70858672887708
2.72036046184173,-12.144318577983,-12.5916623787434,-0.447343800760429,12.3679904783632,-5.84848738861128,-6.51950308975193
2.72317656998029,-12.8144679252232,-13.5306771298873,-0.716209204664095,13.1725725275552,-6.04912936027955,-7.12344316727569
2.72599267811884,-13.11835710619,-14.049147519501,-0.930790413310918,13.5837523128455,-6.09378334643957,-7.48996896640594
2.72880878625739,-13.3261095769705,-14.3000787245659,-0.973969147595374,13.8130941507682,-6.17607021468756,-7.63702393608063
2.73162489439594,-13.5164308493637,-14.4042236453401,-0.88779279597642,13.9603272473519,-6.31431902669362,-7.64600822065825
2.7344410025345,-13.6146314331483,-14.408733005926,-0.794101572777736,14.0116822195371,-6.41026493018526,-7.60141728935186
2.73725711067305,-13.548271339228,-14.2897212881091,-0.741449948881101,13.9189963136686,-6.40341069517346,-7.51558561849512
2.7400732188116,-13.3691084407185,-14.0067858646008,-0.637677423882213,13.6879471526596,-6.36571550841817,-7.32223164424148
2.74288932695015,-13.2316674640519,-13.5755312736514,-0.343863809599497,13.4035993688517,-6.44390182722621,-6.95969754162545
2.74570543508871,-13.2582654054202,-13.1010694577633,0.157195947656863,13.1796674315917,-6.70773067653851,-6.47193675505322
2.74852154322726,-13.4258997623283,-12.7390477914657,0.686851970862609,13.082473776897,-7.05637586659546,-6.02609791030154
2.75133765136581,-13.5848623967018,-12.6061273006734,0.978735096028482,13.0954948486876,-7.28179874636516,-5.81369610232244
2.75415375950436,-13.5906007876658,-12.7008289284092,0.889771859256587,13.1457148580375,-7.24018632346118,-5.9055285345763
