t,leadI,leadII,leadIII,aVR,aVL,aVF
0,359.414414414414,320.288288288288,-39.1261261261262,-339.851351351351,199.27027027027,140.581081081081
0.00281610813855252,372.772747646795,337.729717615419,-35.0430300313761,-355.251232631107,203.907888839086,151.343343792021
0.00563221627710504,374.362031831277,343.470756062767,-30.89127576851,-358.916393947022,202.626653799894,156.289740147129
0.00844832441565756,372.310432068467,347.18865543113,-25.1217766373365,-359.749543749799,198.716104352902,161.033439396897
0.0112644325542101,368.0602305545,349.508626509145,-18.5516040453552,-358.784428531822,193.305917299927,165.478511231895
0.0140805406927626,363.212045692608,350.500806776082,-12.7112389165264,-356.856426234345,187.961642304567,168.894783929778
0.0168966488313151,359.545030930177,348.97405307552,-10.5709778546563,-354.259542002849,185.058004392417,169.201537610432
0.0197127569698676,356.928986177865,347.610794481481,-9.31819169638385,-352.269890329673,183.123588937124,169.146301392549
0.0225288651084202,355.042658697304,346.355564911906,-8.68709378539864,-350.699111804605,181.864876241351,168.834235563254
0.0253449732469727,354.217297999365,347.615428264059,-6.6018697353062,-350.916363131712,180.409583867336,170.506779264376
0.0281610813855252,352.804739159966,349.3440209652,-3.46071819476612,-351.074380062583,178.132728677366,172.941651385217
0.0309771895240777,350.693792449427,350.062383243792,-0.631409205634952,-350.37808784661,175.662600827531,174.715487019079
0.0337932976626302,349.424951241382,350.315842848248,0.890891606866376,-349.870397044815,174.267029817258,175.603367227557
0.0366094058011828,349.850600568928,350.230487842423,0.379887273494433,-350.040544205676,174.735356647717,175.305187557959
0.0394255139397353,350.701579623612,350.43841279534,-0.26316682827229,-350.569996209476,175.482373225942,175.087622983534
0.0422416220782878,350.782207274131,350.049780338107,-0.732426936023955,-350.415993806119,175.757317105077,174.658676701041
0.0450577302168403,349.490199979054,349.495991888897,0.00579190984359457,-349.493095933975,174.742204034605,174.75089189937
0.0478738383553928,346.656132167041,348.821666300682,2.16553413364096,-347.738899233862,172.2452990167,175.493600217162
0.0506899464939454,343.777271218438,348.059364858124,4.28209363968642,-345.918318038281,169.747588789376,176.170729248905
0.0535060546324979,343.297126747291,347.23285222088,3.93572547358889,-345.264989484085,169.680700636851,175.584288847234
0.0563221627710504,344.02732767188,346.089316318026,2.06198864614578,-345.058321994953,170.982669512867,174.075652482086
0.0591382709096029,344.560258492633,346.335343696807,1.77508520417376,-345.44780109472,171.39258664423,174.05521445049
0.0619543790481554,344.949214046491,346.514904929994,1.56569088350278,-345.732059488243,171.691761581494,174.040297906748
0.064770487186708,343.882308693781,347.186269206777,3.30396051299567,-345.534288950279,170.289174090393,175.245114859886
0.0675865953252605,342.023009648426,347.676260005274,5.65325035684782,-344.84963482685,168.184879645789,176.664755181061
0.070402703463813,341.20632467304,347.223407874332,6.01708320129205,-344.214866273686,167.594620735874,176.620245537812
0.0732188116023655,341.961053485643,346.082427897392,4.12137441174883,-344.021740691517,168.919839536947,175.10190115457
0.076034919740918,343.052200029107,345.790003262753,2.73780323364559,-344.42110164593,170.157198397731,174.263903248199
0.0788510278794706,343.848566523279,346.116891406153,2.26832488287437,-344.982728964716,170.790120820202,174.192608144514
0.0816671360180231,343.349164787049,346.085312466229,2.73614767918042,-344.717238626639,170.306508553934,174.410730072705
0.0844832441565756,341.363742253131,345.521952345633,4.1582100925026,-343.442847299382,168.602766080314,174.840081219068
0.0872993522951281,339.914693958882,345.380943676606,5.46624971772417,-342.647818817744,167.224222120579,175.423596697165
0.0901154604336806,339.937739915848,345.278029375783,5.34028945993424,-342.607884645815,167.298725227957,175.309159417858
0.0929315685722332,340.494872288697,344.392449376231,3.89757708753376,-342.443660832464,168.298647600582,174.145013231882
0.0957476767107857,341.711960525903,344.016270527302,2.30431000139953,-342.864115526603,169.703825262252,173.160290264351
0.0985637848493382,342.60024481499,344.822343579151,2.22209876416082,-343.71129419707,170.189073025415,173.522221171656
0.101379892987891,341.897772525715,346.221119624416,4.32334709870054,-344.059446075065,168.787212713507,175.272233361558
0.104196001126443,340.57460885344,347.512163843787,6.93755499034671,-344.043386348614,166.818526931547,177.224859417067
0.107012109264996,340.959687126049,347.914112023654,6.95442489760575,-344.436899574852,167.002631114221,177.43426846063
0.109828217403548,341.781046535001,346.316377922719,4.53533138771797,-344.04871222886,168.622857573641,175.425854655218
0.112644325542101,342.110354385557,345.42043782597,3.31008344041294,-343.765396105764,169.400135472572,174.365260633192
0.115460433680653,341.810385250918,344.496385299957,2.68600004903902,-343.153385275437,169.562192600939,173.591192674498
0.118276541819206,341.591454641372,345.713064787055,4.12161014568227,-343.652259714214,168.734922247845,174.917337466368
0.121092649957758,340.621200860348,347.681675600342,7.06047473999365,-344.151438230345,166.780363060177,177.371075170168
0.123908758096311,341.534004436593,349.658766397404,8.12476196081082,-345.596385416998,166.704621237891,178.891764179107
0.126724866234863,343.010677092111,349.750952774844,6.74027568273345,-346.380814933478,168.135200704689,178.245614228789
0.129540974373416,344.628729880583,349.007765794154,4.37903591357161,-346.818247837369,170.124846983506,176.693400853863
0.132357082511968,345.269343233369,348.735511604752,3.46616837138271,-347.00242741906,170.901587430993,176.100839988067
0.135173190650521,344.926422273877,348.806964787696,3.88054251381891,-346.866693530787,170.522939880029,176.343753650757
0.137989298789073,343.595518694286,349.399426873153,5.80390817886689,-346.49747278372,168.89580525771,177.60166752601
0.140805406927626,343.434635619739,351.452768917156,8.0181332974164,-347.443702268447,167.708251161161,179.735451107286
0.143621515066179,345.478465802139,352.951387852873,7.47292205073438,-349.214926827506,169.002771875702,180.212154951804
0.146437623204731,348.05076741224,354.855614209494,6.80484679725413,-351.453190810867,170.622960307493,180.830230503374
0.149253731343284,350.468458187307,355.434933351448,4.96647516414106,-352.951695769378,172.750991511583,180.200704257795
0.152069839481836,351.692682357362,355.317433404804,3.62475104744215,-353.505057881083,174.03396565496,179.471092226123
0.154885947620389,351.505549915667,356.312301646127,4.80675173046052,-353.908925780897,173.349399092603,180.559526688294
0.157702055758941,351.368972465538,358.11902489955,6.75005243401154,-354.743998682544,172.309460015763,182.434538666781
0.160518163897494,352.620073321322,360.788431702285,8.16835838096375,-356.704252511804,172.225857470179,184.478395041625
0.163334272036046,355.154118780467,362.196369251506,7.04225047103915,-358.675244015987,174.055934154714,184.619309861273
0.166150380174599,357.543888541403,362.683631302135,5.13974276073196,-360.113759921769,176.202072890335,183.911687031433
0.168966488313151,358.477578520864,362.228787847361,3.75120932649793,-360.353183184112,177.363184597183,182.98999858693
0.171782596451704,358.078401504924,362.437135601068,4.35873409614356,-360.257768552996,176.85983370439,183.397934848606
0.174598704590256,356.706439791991,363.669821762367,6.96338197037664,-360.188130777179,174.871528910807,185.316601866372
0.177414812728809,356.785746905743,365.109802523647,8.32405561790415,-360.947774714695,174.230845643919,186.716929070775
0.180230920867361,359.545190828785,367.511544596649,7.96635376786378,-363.528367712717,175.789418530461,187.738949182256
0.183047029005914,362.639778682193,368.994284917445,6.35450623525162,-365.817031799819,178.142636223471,187.674395576348
0.185863137144466,364.087875768206,369.26598509437,5.17810932616459,-366.676930431288,179.45488322102,187.222047210267
0.188679245283019,364.064135583552,368.653815145118,4.58967956156567,-366.358975364335,179.737228010993,186.621747353342
0.191495353421571,361.075090626665,366.045777015403,4.97068638873827,-363.560433821034,178.052202118963,185.508231702071
0.194311461560124,357.002461249344,362.791535527872,5.78907427852795,-359.896998388608,175.606693485408,184.2903049032
0.197127569698676,354.030077996956,358.525354110025,4.49527611306888,-356.277716053491,174.767400941944,181.510315111547
0.199943677837229,352.941327391751,356.222176738797,3.28084934704509,-354.581752065274,174.830239022353,179.751513042921
0.202759785975781,353.227334373208,355.621841888934,2.39450751572588,-354.424588131071,175.416413428741,179.00817470233
0.205575894114334,353.976387215729,356.264316075451,2.28792885972246,-355.12035164559,175.844229178003,179.276122467587
0.208392002252887,353.172297720464,357.273534293257,4.1012365727928,-355.222916006861,174.535530573836,180.687385433025
0.211208110391439,350.964500726017,357.199637304774,6.23513657875736,-354.082069015395,172.36468207363,181.717386941766
0.214024218529992,348.272528956684,355.524766775538,7.25223781885438,-351.898647866111,170.510145568915,181.388502297196
0.216840326668544,347.658591142377,352.951591864498,5.29300072212038,-350.305091503438,171.182795210129,179.122296293309
0.219656434807097,347.750824866052,351.613888563651,3.86306369759848,-349.682356714851,171.943880584227,177.738476130625
0.222472542945649,348.088297288204,350.90773033104,2.81943304283641,-349.498013809622,172.634432122684,176.863581686938
0.225288651084202,347.253974591689,349.581876495919,2.32790190422963,-348.417925543804,172.46303634373,175.954889200074
0.228104759222754,344.48379965937,348.614210310389,4.13041065101896,-346.54900498488,170.176694504176,176.372310480704
0.230920867361307,341.921692269245,347.637808944027,5.7161166747818,-344.779750606636,168.102787797232,176.676962809404
0.233736975499859,340.86222274166,345.304251200838,4.44202845917806,-343.083236971249,168.210097141241,174.873139830008
0.236553083638412,340.629287911983,343.060806153989,2.43151824200555,-341.845047032986,169.098884834989,172.746162197997
0.239369191776964,339.378657026019,340.883129298796,1.50447227277692,-340.130893162407,168.937092376621,171.193800785786
0.242185299915517,337.655423207041,338.483296737867,0.827873530825912,-338.069359972454,168.413774838108,169.655585134346
0.245001408054069,335.046950649409,337.272106274468,2.22515562505902,-336.159528461939,166.410897512175,169.748630949764
0.247817516192622,332.873016944847,338.819532345361,5.9465154005145,-335.846274645104,163.463250772166,172.383023872938
0.250633624331174,333.447634629742,339.94891165079,6.50127702104822,-336.698273140266,163.473178804347,173.225094335919
0.253449732469727,335.487953048842,341.313494545042,5.82554149620023,-338.400723796942,164.831205776321,173.569518020621
0.256265840608279,336.977066772825,342.309426893797,5.33236012097228,-339.643246833311,165.822353325926,173.820893507385
0.259081948746832,338.334043385963,341.955677084446,3.62163369848332,-340.144860235205,167.35620484374,172.788655391465
0.261898056885384,337.703487066467,341.967651195411,4.26416412894429,-339.835569130939,166.719661468761,173.115907662178
0.264714165023937,335.89249839426,341.165921790303,5.27342339604292,-338.529210092281,165.309537499108,173.219672593173
0.267530273162489,334.030447137735,340.580784564224,6.55033742648908,-337.30561585098,163.740054855623,173.565560995357
0.270346381301042,333.752065442471,339.883569582697,6.13150414022596,-336.817817512584,163.810280651122,173.007536861461
0.273162489439594,334.62951513894,338.564242923824,3.93472778488393,-336.596879031382,165.347393677028,171.249485354354
0.275978597578147,335.540072561175,338.141652981077,2.60158041990195,-336.840862771126,166.469246070636,170.371616700489
0.2787947057167,336.204637239527,338.643696972052,2.4390597325251,-337.424167105789,166.882788753501,170.541378352288
0.281610813855252,334.79857215873,338.739954448361,3.94138228963061,-336.769263303545,165.42859493455,171.340668368996
0.284426921993805,333.232051870063,338.810207369506,5.5781554994424,-336.021129619784,163.82694818531,172.194181434474
0.287243030132357,333.439517827761,339.131637239473,5.69211941171193,-336.285577533617,163.873699208024,172.411878325592
0.29005913827091,334.401404203849,338.825918409644,4.42451420579448,-336.613661306747,164.988444999028,171.625216307719
0.292875246409462,335.643743424066,338.872947632651,3.2292042085848,-337.258345528359,166.207269607741,171.051075920618
0.295691354548015,336.280300774818,338.907271618923,2.62697084410519,-337.593786196871,166.826664965357,170.767121231514
0.298507462686567,335.123950931822,338.662166555216,3.53821562339436,-336.893058743519,165.792867654214,171.100191089305
0.30132357082512,333.199371334522,338.483278147031,5.28390681250949,-335.841324740776,163.957732261006,171.88359247977
0.304139678963672,332.064885082545,337.812405129806,5.74752004726071,-334.938645106175,163.158682517642,171.779962588533
0.306955787102225,332.587668398181,337.052616413689,4.46494801550807,-334.820142405935,164.061360191336,170.758782214598
0.309771895240777,334.049843401121,337.308557974556,3.25871457343464,-335.679200687839,165.395564413843,170.283636273995
0.31258800337933,335.927471379789,338.035667756622,2.10819637683301,-336.981569568206,166.909637501478,170.071932066728
0.315404111517882,339.188939979537,342.888843704297,3.69990372475945,-341.038891841917,167.744518127389,173.294373714528
0.318220219656435,345.351489543442,353.995277954807,8.64378841136482,-349.673383749125,168.353850566039,181.319533183086
0.321036327794987,356.062780934739,370.476082568819,14.4133016340798,-363.269431751779,170.82473965033,192.444692101449
0.32385243593354,373.605974046889,391.689806643348,18.0838325964594,-382.647890345119,177.761070725215,204.886819619904
0.326668544072092,395.865231979235,416.62797879772,20.762746818485,-406.246605388478,187.551242580375,218.695362808103
0.329484652210645,418.864918406296,441.582854128655,22.7179357223591,-430.223886267476,198.073491341968,232.150394925507
0.332300760349197,441.324377123291,465.199139109888,23.8747619865974,-453.26175811659,208.724807568347,244.536950548243
0.33511686848775,459.337210823845,484.326431485212,24.9892206613671,-471.831821154528,217.173995081239,254.65782607329
0.337932976626302,470.862828335554,494.774336254726,23.9115079191721,-482.81858229514,223.475660208191,259.342922086949
0.340749084764855,475.492541714614,494.294988293562,18.802446578948,-484.893765004088,228.345047567833,256.548717436255
0.343565192903407,472.657916392089,483.13889068689,10.4809742948008,-477.898403539489,231.088471048644,246.809932490845
0.34638130104196,461.133615293265,462.839652614682,1.70603732141723,-461.986633953974,229.713788985924,232.27284496805
0.349197409180513,441.64627103703,434.516569210361,-7.12970182666942,-438.081420123695,224.38798643185,213.693433691846
0.352013517319065,416.076992985889,403.579206675953,-12.4977863099364,-409.828099830921,214.287389647913,195.540710183008
0.354829625457618,389.58088408906,375.326484359836,-14.2543997292239,-382.453684224448,201.917641909142,180.536042315306
0.35764573359617,366.460676634933,352.004848360986,-14.4558282739472,-359.23276249796,190.45825245444,168.774510043519
0.360461841734723,350.397005479915,336.064322045721,-14.3326834341937,-343.230663762818,182.364844457054,160.865819305764
0.363277949873275,340.834284567861,327.94225868936,-12.8920258785012,-334.388271628611,176.863155223181,157.525116405429
0.366094058011828,335.746085595695,324.986139532523,-10.7599460631724,-330.366112564109,173.253015829434,157.113096734675
0.36891016615038,333.383276242457,325.800352659526,-7.5829235829309,-329.591814450992,170.483099912694,159.108714538298
0.371726274288933,332.199106937208,328.555850747455,-3.64325618975266,-330.377478842332,167.92118156348,162.456297278851
0.374542382427485,331.33484832568,332.458027393231,1.1231790675518,-331.896437859456,165.105834629064,166.790603230392
0.377358490566038,332.054855606077,335.306006778331,3.25115117225329,-333.680431192204,164.401852216912,169.278578975292
0.38017459870459,333.660973294569,337.654743053135,3.99376975856512,-335.657858173852,164.833601768002,170.82425640585
0.382990706843143,335.10334452439,338.558484997637,3.45514047324696,-336.830914761014,165.824102025572,171.006812735442
0.385806814981695,335.885893994778,339.488231653775,3.60233765899676,-337.687062824276,166.141778167891,171.545284656386
0.388622923120248,335.376408017157,340.16680147529,4.79039345813277,-337.771604746224,165.293007279512,172.478597466711
0.3914390312588,333.923937993766,340.391895232463,6.46795723869701,-337.157916613114,163.727990377534,173.42992623558
0.394255139397353,333.404174193494,340.556178512882,7.15200431938763,-336.980176353188,163.126084937053,173.854091416135
0.397071247535905,334.105452660058,339.595454797102,5.49000213704386,-336.85045372858,164.307725261507,172.542728467073
0.399887355674458,335.697901240115,339.704745196648,4.00684395653286,-337.701323218382,165.845528641791,171.85579457659
0.40270346381301,337.130296156055,340.324822539602,3.19452638354682,-338.727559347828,166.967884886254,171.759674461574
0.405519571951563,337.635408263857,341.587850772131,3.95244250827363,-339.611629517994,166.841482877792,172.770146640202
0.408335680090115,336.653280138687,341.969351658129,5.31607151944274,-339.311315898408,165.668604309622,173.642711588786
0.411151788228668,335.936480027385,342.788100133684,6.85162010629944,-339.362290080534,164.542429960543,174.819860119992
0.41396789636722,335.953640342565,342.305033775121,6.35139343255622,-339.129337058843,164.801123455004,174.328213603839
0.416784004505773,336.776633327616,341.682314582198,4.90568125458208,-339.229473954907,165.935476036517,173.29399791839
0.419600112644326,337.647445857301,341.497983059367,3.85053720206611,-339.572714458334,166.898454327617,172.674260130716
0.422416220782878,337.4725343371,342.173918478087,4.70138414098659,-339.823226407594,166.385575098057,173.437651309537
0.425232328921431,337.615032462482,343.477714380231,5.862681917749,-340.546373421356,165.876175272366,174.67019814899
0.428048437059983,337.178721410368,345.780062779756,8.6013413693878,-341.479392095062,164.28869002049,177.190702074572
0.430864545198536,338.211063558649,347.190261245385,8.97919768673557,-342.700662402017,164.615932935957,178.08472946606
0.433680653337088,340.045136910282,347.679173411809,7.63403650152708,-343.862155161045,166.205550204377,177.656604956668
0.436496761475641,341.383723952943,346.415065648184,5.03134169524139,-343.899394800563,168.176191128851,175.723203671713
0.439312869614193,342.360683390898,346.573089296864,4.21240590596642,-344.466886343881,169.074138742466,175.392747601415
0.442128977752746,342.533398744199,346.688421875231,4.15502313103138,-344.610910309715,169.189187806584,175.421722503131
0.444945085891298,341.578829124435,347.583065276736,6.00423615230096,-344.580947200585,167.787296486067,176.793650714518
0.447761194029851,340.882142417113,348.236015205914,7.35387278880063,-344.559078811513,166.764134814156,177.794943997357
0.450577302168403,341.994607222733,348.442410443812,6.44780322107886,-345.218508833272,167.773402000827,177.445106832445
0.453393410306956,343.346845174369,348.593046726091,5.2462015517217,-345.96994595023,169.050321811324,176.919624138906
0.456209518445508,343.523299007827,347.622362833492,4.09906382566504,-345.57283092066,169.712117591081,175.860713329579
0.459025626584061,343.381926530196,347.454227647986,4.07230111778983,-345.418077089091,169.654812706203,175.763264382888
0.461841734722613,342.738434281842,348.952452498509,6.21401821666677,-345.845443390175,168.262208032588,177.583235357588
0.464657842861166,343.079254097287,351.126547446369,8.04729334908205,-347.102900771828,167.515980374102,179.586920397725
0.467473950999718,345.219092805562,352.983453350737,7.76436054517569,-349.101273078149,168.727366130193,180.373906947956
0.470290059138271,347.591309430008,354.879017013923,7.28770758391522,-351.235163221965,170.151800923046,181.083362298919
0.473106167276823,349.862969421197,355.722169954757,5.85920053355977,-352.792569687977,172.001884443819,180.790685244159
0.475922275415376,351.250770142636,355.527071255453,4.27630111281701,-353.388920699044,173.487234514909,179.901686184135
0.478738383553928,350.102398183364,355.114523469821,5.01212528645738,-352.608460826593,172.545136448453,180.063324378139
0.481554491692481,348.994109830557,356.164209090531,7.17009925997331,-352.579159460544,170.912005285292,181.667154175252
0.484370599831033,349.265857308293,356.660159408421,7.39430210012836,-352.963008358357,170.935777604082,182.027230754275
0.487186707969586,351.625440211831,357.292281879026,5.66684166719477,-354.458861045428,172.979299272318,181.47956177311
0.490002816108139,354.158035772167,358.023788749404,3.86575297723738,-356.090912260786,175.146141397465,180.944770863321
0.492818924246691,356.00643490972,358.827830706595,2.82139579687538,-357.417132808157,176.592519556422,180.824613251735
0.495635032385244,356.545008902629,359.684811946317,3.13980304368749,-358.114910424473,176.702602929471,181.412307495002
0.498451140523796,355.587302726444,360.31027438067,4.72297165422663,-357.948788553557,175.432165536109,182.516623017448
0.501267248662349,354.348014399159,361.036920464963,6.68890606580334,-357.692467432061,173.829554166678,183.862913265383
0.504083356800901,355.064464783021,362.107571019494,7.04310623647382,-358.586017901257,174.010679273273,184.575338627984
0.506899464939454,357.478455128285,363.429291099719,5.95083597143343,-360.453873114002,175.763809578426,184.690063535576
0.509715573078006,359.51044719825,364.664096501787,5.15364930353644,-362.087271850019,177.178398947357,184.908872902662
0.512531681216559,360.99348398804,365.565311554033,4.57182756599303,-363.279397771037,178.210828211024,185.068569560013
0.515347789355111,359.64446326979,365.952901549812,6.30843828002207,-362.798682409801,176.668012494884,186.130669914917
0.518163897493664,357.30910781916,364.074532005598,6.76542418643839,-360.691819912379,175.271841816361,185.419978096018
0.520980005632216,355.334506938574,362.163303238201,6.82879629962696,-358.748905088388,174.252855319474,184.496049768914
0.523796113770769,355.784450234947,361.038561006496,5.25411077154831,-358.411505620722,175.2651697317,183.146335889022
0.526612221909321,357.733775826045,362.108768358541,4.37499253249609,-359.921272092293,176.679391646775,183.241880445519
0.529428330047874,360.777416270978,365.321258453286,4.54384218230848,-363.049337362132,178.116787044335,184.932550317797
0.532244438186426,362.998798343008,369.016655452718,6.01785710970989,-366.007726897863,178.490470616649,187.517256281214
0.535060546324979,363.809591613724,370.633093149934,6.82350153621064,-367.221342381829,178.493045038756,188.728297343072
0.537876654463531,363.861031622069,372.082996374016,8.22196475194733,-367.972013998042,177.819533435061,190.152480562982
0.540692762602084,365.249355851979,372.600886811756,7.35153095977728,-368.925121331867,178.948912446101,189.976208885767
0.543508870740636,366.80292809083,372.978865930672,6.17593783984171,-369.890897010751,180.313495125494,189.577401885257
0.546324978879189,367.936793138764,373.254731642655,5.31793850389028,-370.595762390709,181.309427317437,189.286335073272
0.549141087017741,369.034493712447,373.996382942646,4.96188923019946,-371.515438327546,182.036302241124,189.479136086423
0.551957195156294,368.214706386144,374.807828748774,6.59312236263014,-371.511267567459,180.810792011757,190.700475555702
0.554773303294847,367.346233486584,375.129901217907,7.78366773132387,-371.238067352245,179.78128287763,191.456784474616
0.557589411433399,368.06316499504,376.445588656318,8.38242366127832,-372.254376825679,179.840370666881,192.414006158798
0.560405519571952,370.20735027423,376.595366324746,6.38801605051577,-373.401358299488,181.909667111857,191.491691187631
0.563221627710504,372.312583004587,377.244993049392,4.93241004480478,-374.778788026989,183.690086479891,191.088701547098
0.566037735849057,373.308761611659,377.719119078976,4.41035746731762,-375.513940345318,184.449202072171,191.064738273147
0.568853843987609,373.225347744282,378.33531322833,5.10996548404876,-375.780330486306,184.057691130116,191.72263935619
0.571669952126162,372.083843803846,379.595507336132,7.51166353228632,-375.839675569989,182.28609013578,193.553585434209
0.574486060264714,372.331349091282,380.515252177548,8.1839030862659,-376.423300634415,182.073723002508,194.349577631907
0.577302168403267,373.592614135332,380.376053601103,6.78343946577058,-376.984333868218,183.404587334781,193.579746533437
0.580118276541819,375.323609228531,380.54461659664,5.22100736810904,-377.934112912585,185.051300930211,192.882811982374
0.582934384680372,376.857121456454,380.937797463712,4.08067600725843,-378.897459460083,186.388222724598,192.509236735485
0.585750492818924,376.895720982536,380.14413322967,3.24841224713361,-378.519927106103,186.823654367701,191.696272738402
0.588566600957477,374.492486700027,379.294726106722,4.80223940669532,-376.893606403375,184.845123646666,192.048482756709
0.591382709096029,371.928032451906,377.324010535089,5.39597808318325,-374.626021493497,183.266027184361,191.359994309136
0.594198817234582,371.677318720205,376.426008440708,4.74868972050297,-374.051663580456,183.464314499851,190.587349080605
0.597014925373134,373.115274131755,377.661700673499,4.54642654174467,-375.388487402627,184.284423795005,191.104063607622
0.599831033511687,374.705069380223,378.293406761769,3.5883373815459,-376.499238070996,185.558365999338,190.940872071657
0.602647141650239,375.32505914297,377.673828678728,2.34876953575844,-376.499443910849,186.488144803606,190.011299107243
0.605463249788792,374.426773760656,376.951477251689,2.52470349103334,-375.689125506173,185.951035134811,189.738090371361
0.608279357927344,371.880072271306,375.883961126076,4.0038888547698,-373.882016698691,183.938091708268,189.943924990423
0.611095466065897,370.56169043283,374.564528689327,4.00283825649666,-372.563109561079,183.279426088167,189.283683472912
0.613911574204449,370.680102485124,373.601549121511,2.92144663638663,-372.140825803317,183.879327924369,188.261497878949
0.616727682343002,371.576993421545,372.898724465845,1.32173104430035,-372.237858943695,185.127631188622,187.110227755073
0.619543790481555,371.421115064505,372.655928468636,1.23481340413065,-372.038521766571,185.093150830187,186.945370936383
0.622359898620107,369.416254730815,371.127944258932,1.71168952811729,-370.272099494874,183.852282601349,186.419816893525
0.625176006758659,366.061926387105,368.661973415764,2.60004702865899,-367.361949901434,181.730939679223,185.631010222211
0.627992114897212,362.533165834618,365.511418854813,2.97825302019493,-364.022292344716,179.777456407212,184.244835937504
0.630808223035765,360.227878077465,361.861225119986,1.63334704252048,-361.044551598726,179.297265517472,181.747286081253
0.633624331174317,358.81553433993,359.467310109029,0.651775769098094,-359.14142222448,179.081879285416,180.059542939063
0.63644043931287,357.514587824517,357.179813685231,-0.334774139286083,-357.347200754874,178.924680981902,178.422519772972
0.639256547451422,356.024787667812,354.969986206213,-1.05480146159886,-355.497386937013,178.539794564705,176.957592372307
0.642072655589975,353.046372794787,353.357157347817,0.310784553029976,-353.201765071302,176.367794120878,176.833970950423
0.644888763728527,349.791970353754,352.450200436073,2.65823008231996,-351.121085394914,173.566870135717,177.554215259197
0.64770487186708,349.037702219326,351.788263567938,2.75056134861211,-350.412982893632,173.143570435357,177.269412458275
0.650520980005632,349.567829154317,351.305153056596,1.73732390227889,-350.436491105456,173.915252626019,176.521238479437
0.653337088144185,349.684582792868,349.871933003426,0.187350210558577,-349.778257898147,174.748616291155,175.029641606992
0.656153196282737,348.959326075091,348.015437614985,-0.943888460105825,-348.487381845038,174.951607267598,173.53577457744
0.65896930442129,346.26875226985,346.660485988042,0.391733718192256,-346.464619128946,172.938509275829,173.526109853117
0.661785412559842,343.224428844107,345.941739171775,2.7173103276678,-344.583084007941,170.25355925822,174.329524749721
0.664601520698395,341.542860726519,344.876853848942,3.33399312242358,-343.20985728773,169.104433802048,174.105423485683
0.667417628836947,340.855891105325,343.55934148726,2.70345038193517,-342.207616296293,169.076220361695,173.131395934598
0.6702337369755,340.624666806536,342.327607062433,1.70294025589698,-341.476136934484,169.460863275319,172.015273659165
0.673049845114052,339.915596764657,340.888320920105,0.972724155448475,-340.401958842381,169.471436304604,170.930522537777
0.675865953252605,338.317461551757,338.757242022302,0.439780470544861,-338.537351787029,168.938840540606,169.598511246423
0.678682061391157,335.259979010931,336.931731114857,1.67175210392554,-336.095855062894,166.794113453503,169.301741609391
0.68149816952971,332.758338159327,335.599393318898,2.84105515957043,-334.178865739112,164.958641499878,169.220224239234
0.684314277668262,333.093780818629,336.51808833793,3.42430751930067,-334.805934578279,164.834736649664,169.971197928615
0.687130385806815,335.499851254767,336.918435978883,1.41858472411627,-336.209143616825,167.040633265325,169.1685103515
0.689946493945367,336.98575060451,338.02109585334,1.03534524883003,-337.503423228925,167.97520267784,169.528220551085
0.69276260208392,336.719443955345,338.82586531313,2.106421357785,-337.772654634238,167.30651129878,170.466143335458
0.695578710222473,335.444456854229,339.143065092362,3.69860823813343,-337.293760973295,165.872924308048,171.420836665248
0.698394818361025,333.973603014792,339.644727592702,5.67112457791012,-336.809165303747,164.151239218441,172.657926085306
0.701210926499578,333.170265688705,338.930238004825,5.75997231611962,-336.050251846765,163.705146686293,172.345105160472
0.70402703463813,333.934735990848,338.138616005559,4.20388001471122,-336.036675998204,164.865427988068,171.171248010135
0.706843142776683,334.762836103947,337.290699394978,2.52786329103066,-336.026767749462,166.117486406458,169.909281343004
0.709659250915235,335.907532251184,337.75247757138,1.84494532019642,-336.830004911282,167.031293465494,169.798711445788
0.712475359053788,336.202669199796,339.440284564279,3.23761536448336,-337.821476882038,166.482526917656,171.338949964381
0.71529146719234,335.607604432773,341.21243243735,5.60482800457686,-338.410018435061,165.001388214098,173.408630220963
0.718107575330893,335.443456320898,342.235667342283,6.79221102138467,-338.839561831591,164.325622649757,174.513939181834
0.720923683469445,335.863966264857,342.17200034583,6.30803408097273,-339.017983305344,164.777966091942,174.240017213401
0.723739791607998,336.711185259045,341.044908536473,4.33372327742831,-338.878046897759,166.188730990808,172.689315906951
0.72655589974655,336.789210355394,339.681995157021,2.8927848016267,-338.235602756208,166.948212776884,171.287389979324
0.729372007885103,336.846156487283,339.497749928885,2.65159344160264,-338.171953208084,167.09728152284,171.074671685244
0.732188116023655,335.26678099667,339.63343590551,4.36665490884036,-337.45010845109,165.450063043915,172.000045407175
0.735004224162208,334.384239817595,340.002621684557,5.61838186696212,-337.193430751076,164.382928975316,172.81050177576
0.73782033230076,335.36105989151,341.082538267675,5.72147837616518,-338.221799079592,164.819790757672,173.40200832192
0.740636440439313,337.694923225806,342.140864889432,4.44594166362651,-339.917894057619,166.62449078109,173.293403276529
0.743452548577865,340.478903730168,344.264059059491,3.78515532932215,-342.371481394829,168.346874200423,174.024607194406
0.746268656716418,342.510774607548,346.08381534737,3.57304073982164,-344.297294977459,169.468866933863,174.828428043596
0.74908476485497,342.372785674453,346.601484534371,4.22869885991821,-344.487135104412,169.072043407267,175.415091697145
0.751900872993523,340.921294249444,346.979302174809,6.05800792536479,-343.950298212127,167.43164316204,176.518655050087
0.754716981132075,340.672400884995,346.714737608985,6.04233672398971,-343.69356924699,167.315032080503,176.378537166487
0.757533089270628,340.760903820917,346.251490592188,5.49058677127033,-343.506197206553,167.635158524824,175.871038681729
0.76034919740918,341.906121986418,345.373080210866,3.46695822444815,-343.639601098642,169.219581880985,174.420019217657
0.763165305547733,342.471796138689,345.002134062503,2.53033792381399,-343.736965100596,169.970729107437,173.766235993158
0.765981413686285,342.344337481085,345.271713744133,2.92737626304779,-343.808025612609,169.708480609019,174.09954500359
0.768797521824838,341.711000147846,346.278933435791,4.56793328794464,-343.994966791819,168.571533429951,175.423433361868
0.771613629963391,340.978606617521,347.554358894771,6.5757522772509,-344.266482756146,167.201427170135,177.065055586011
0.774429738101943,341.524698596434,347.944907819486,6.42020922305232,-344.73480320796,167.552244686691,177.182558521269
0.777245846240496,342.733729070605,347.149322678662,4.41559360805752,-344.941525874634,169.159067731274,175.78245814336
0.780061954379048,343.345976239965,346.028357381962,2.68238114199676,-344.687166810964,170.331797548984,174.355369261979
0.782878062517601,343.252508609579,345.480384035329,2.22787542575065,-344.366446322454,170.512316591914,173.85412973054
0.785694170656153,342.373823204535,346.161073939716,3.78725073518109,-344.267448572125,169.293286234677,174.974162337449
0.788510278794706,340.92205148433,346.657871238074,5.73581975374458,-343.789961361202,167.593115865293,176.196845495909
0.791326386933258,340.672953548173,346.750299448369,6.07734590019589,-343.711626498271,167.297803823988,176.413822674282
0.794142495071811,342.112088238063,346.007288967885,3.89520072982202,-344.059688602974,169.10844375412,174.951244848853
0.796958603210363,343.702744175502,346.005319807932,2.30257563243032,-344.854031991717,170.700084271536,174.153947720181
0.799774711348916,345.133830742363,347.08450747626,1.95067673389667,-346.109169109312,171.591577004233,174.517592105078
0.802590819487468,345.367831747846,348.142302104085,2.77447035623925,-346.755066925966,171.296680695803,175.458386230162
0.805406927626021,343.37736623314,348.374014518576,4.99664828543558,-345.875690375858,169.190358973852,176.685331402006
0.808223035764573,341.924637341749,348.002815961181,6.07817861943215,-344.963726651465,167.923229361158,177.040497290307
0.811039143903126,341.674840820147,346.921430364289,5.24658954414213,-344.298135592218,168.214125638002,176.084009954216
0.813855252041678,341.762684592431,345.321719168211,3.55903457577966,-343.542201880321,169.101825008326,174.440376871995
0.816671360180231,342.367109247702,345.234804736441,2.86769548873843,-343.800956992071,169.749706879482,174.051250112589
0.819487468318783,343.348557251486,346.251995625801,2.90343837431442,-344.800276438644,170.222559438586,174.577717000058
0.822303576457336,342.984236132933,347.264542289613,4.28030615668001,-345.124389211273,169.351964988126,175.772424223146
0.825119684595888,341.637713780186,347.733386970514,6.09567319032857,-344.68555037535,167.771020294929,176.914530080422
0.827935792734441,341.465431441073,348.075570348468,6.61013890739497,-344.77050089477,167.427646266839,177.342854627931
0.830751900872993,342.690473305425,347.784998337524,5.09452503209945,-345.237735821474,168.797974136663,176.439761684812
0.833568009011546,344.124874924062,347.843082372205,3.71820744814221,-345.983978648134,170.20333373796,175.780644910173
0.836384117150099,344.901607823235,347.885474644106,2.98386682087084,-346.39354123367,170.958870501182,175.434670732488
0.839200225288651,343.577408021629,347.376101956674,3.7986939350447,-345.476754989152,169.889357043292,175.587397945859
0.842016333427204,340.719855539085,345.923714617423,5.20385907833804,-343.321785078254,167.757998230374,175.563786847881
0.844832441565756,338.904444822321,344.863698739915,5.95925391759351,-341.884071781118,166.472595452364,175.411476328754
0.847648549704309,338.660103435276,344.360208948269,5.70010551299345,-341.510156191773,166.479998961141,175.030157230631
0.850464657842861,340.37286587486,344.803208687066,4.43034281220611,-342.588037280963,167.971261531327,174.616775749636
0.853280765981414,341.893071113801,345.396685506441,3.50361439263935,-343.644878310121,169.194728360581,174.45014994954
0.856096874119966,342.46227104038,346.099987088331,3.63771604795153,-344.281129064355,169.412277496214,174.868851568141
0.858912982258519,340.986604587895,346.613287379055,5.62668279116031,-343.799945983475,167.679960898367,176.119985085108
0.861729090397071,339.639442382327,346.447603983941,6.80816160161351,-343.043523183134,166.415640390357,176.627882792777
0.864545198535624,339.466693050608,345.246056139734,5.77936308912655,-342.356374595171,166.84366498074,175.51270961443
0.867361306674176,339.880925447692,344.369113909501,4.48818846180899,-342.125019678596,167.696368492941,174.428651185655
0.870177414812729,340.183250389545,343.729083070218,3.54583268067233,-341.956166729882,168.318708854437,173.637457875445
0.872993522951281,340.133744158482,342.991804326085,2.85806016760284,-341.562774242283,168.637841995439,172.924932246844
0.875809631089834,339.287143707651,343.804487073918,4.5173433662668,-341.545815390785,167.384900170692,174.160915220093
0.878625739228386,337.858788991971,343.8573061054,5.99851711342905,-340.858047548686,165.930135939271,174.927911609415
0.881441847366939,337.08646938736,344.166011959294,7.07954257193421,-340.626240673327,165.003463407713,175.622777265614
0.884257955505491,337.873577780843,343.580850373503,5.70727259265971,-340.727214077173,166.083152594092,174.644061483081
0.887074063644044,338.988356376153,343.694086248805,4.7057298726512,-341.341221312479,167.141313251751,174.199908060728
0.889890171782596,339.801970609079,344.046886960859,4.24491635177947,-341.924428784969,167.77852712865,174.145901656319
0.892706279921149,339.585313267298,344.034220157127,4.44890688982895,-341.809766712212,167.568203188734,174.241563523478
0.895522388059701,338.34656240476,344.565287792851,6.21872538809117,-341.455925098806,166.063918508334,175.392006590471
0.898338496198254,337.442467782698,344.142415572246,6.69994778954759,-340.792441677472,165.371259996575,175.421181680897
0.901154604336806,338.133400998264,343.563628696993,5.43022769872891,-340.848514847628,166.351586649768,174.496928197861
0.903970712475359,339.1779867374,342.600892267696,3.42290553029653,-340.889439502548,167.877540603552,173.011898898996
0.906786820613911,339.400058726532,341.628088853297,2.22803012676547,-340.514073789915,168.586014299883,171.928059490031
0.909602928752464,339.562136588318,341.1882505361,1.62611394778259,-340.375193562209,168.968011320267,171.407182241941
0.912419036891017,338.059490837705,341.407549696256,3.34805885855116,-339.733520266981,167.355715989577,172.377804277404
0.915235145029569,337.773262806478,342.378072461653,4.60480965517479,-340.075667634065,166.584226575652,173.491441058414
0.918051253168122,338.644985903385,343.086402473215,4.44141656982936,-340.8656941883,167.101784666778,173.763909521522
0.920867361306674,340.361832438118,343.333216520226,2.97138408210867,-341.847524479172,168.695224178004,173.152300301167
0.923683469445227,342.155174640405,343.51335221926,1.35817757885559,-342.834263429833,170.398498530775,172.435764899058
0.926499577583779,342.383409459246,343.104510716478,0.721101257231339,-342.743960087862,170.831154101007,171.912805986854
0.929315685722332,341.199204164654,342.806120285342,1.60691612068842,-342.002662224998,169.796144021983,172.206518203015
0.932131793860884,338.984138227169,342.588341882741,3.60420365557258,-340.786240054955,167.689967285798,173.096272769157
0.934947901999437,337.637642324272,342.429397668415,4.7917553441423,-340.033519996343,166.422943490065,173.610576506278
0.937764010137989,338.275847925033,342.313393220929,4.03754529589639,-340.294620572981,167.119151314568,173.175469258413
0.940580118276542,339.552106953911,342.228728095537,2.67662114162522,-340.890417524724,168.437742906143,172.452674618581
0.943396226415094,340.21342046631,342.43709199157,2.22367152525982,-341.32525622894,168.994874470525,172.330381758415
0.946212334553647,339.615451177852,342.319008874888,2.70355769703531,-340.96723002637,168.455946740409,172.511283285961
0.949028442692199,337.828245947822,341.692514221951,3.86426827412936,-339.760380084887,166.981988836846,172.77839124804
0.951844550830752,335.98355288883,342.045739626825,6.06218673799452,-339.014646257828,164.960683075418,174.05396318241
0.954660658969304,336.258152389952,340.952757935023,4.69460554507106,-338.605455162487,165.78177342244,172.823681740047
0.957476767107857,336.458567130069,339.61473961298,3.15617248291142,-338.036653371524,166.651197323579,171.385456047946
0.960292875246409,337.415307218807,339.44866388785,2.03335666904292,-338.431985553328,167.690975274882,170.741010278446
0.963108983384962,338.113578029426,339.867766975248,1.75418894582197,-338.990672502337,168.179694541802,170.810977960535
0.965925091523514,337.002269371758,340.443802972043,3.44153360028469,-338.7230361719,166.780367885737,171.942668286164
0.968741199662067,335.650875227522,341.404531689785,5.75365646226248,-338.527703458653,164.94860938263,173.579094076024
0.971557307800619,336.015349665397,341.835557364634,5.82020769923673,-338.925453515015,165.09757098308,173.827882531935
0.974373415939172,337.361983917298,342.150138775946,4.78815485864806,-339.756061346622,166.286914529325,173.469146817297
0.977189524077725,338.614972772801,342.649890276725,4.03491750392419,-340.632431524763,167.290027634438,173.342403890324
0.980005632216277,339.799615117455,343.284787017048,3.48517189959273,-341.542201067251,168.157221608931,173.38497945832
0.98282174035483,339.85375033824,343.748162459075,3.89441212083545,-341.800956398657,167.979669108702,173.821287289955
0.985637848493382,338.54247953349,343.816197935138,5.2737184016483,-341.179338734314,166.634380565921,174.544958168393
0.988453956631935,338.125769105833,344.136009416587,6.0102403107544,-341.13088926121,166.057764397539,175.073124863671
0.991270064770487,338.902260436245,344.369421839695,5.46716140344932,-341.63584113797,166.717549516398,174.918291621572
0.99408617290904,340.279446445898,344.539776446772,4.26033000087426,-342.409611446335,168.009558222512,174.400053223823
0.996902281047592,341.554733312011,344.934264910398,3.37953159838662,-343.244499111204,169.087600856812,174.156898254392
0.999718389186145,341.945181085582,345.492336076935,3.54715499135256,-343.718758581259,169.199013047115,174.519745534144
1.0025344973247,342.500303179584,348.331046758011,5.83074357842685,-345.415674968797,168.334779800578,177.080895168219
1.00535060546325,343.715924227158,351.753643174245,8.03771894708717,-347.734783700702,167.839102640036,179.895681060666
1.0081667136018,346.224074968678,353.981447696033,7.75737272735466,-350.102761332356,169.233351120662,180.869410211694
1.01098282174035,348.324789418938,355.067084563681,6.74229514474268,-351.69593699131,170.791247137098,180.904689854212
1.01379892987891,349.857982811092,354.238492616467,4.38050980537514,-352.048237713779,172.738736502858,179.309501210921
1.01661503801746,350.166505848739,353.6337499309,3.46724408216005,-351.900127889819,173.34963088329,178.55049700653
1.01943114615601,349.040898411903,353.462538450294,4.42164003839082,-351.251718431098,172.309629186756,178.942089244342
1.02224725429456,348.219380816257,354.958518085947,6.7391372696905,-351.588949451102,170.740121773283,180.848827677819
1.02506336243312,348.700426149723,356.590661953939,7.89023580421599,-352.645544051831,170.405095172753,182.240448879077
1.02787947057167,350.402295157519,357.511715805453,7.10942064793323,-353.957005481486,171.646437254793,182.310568226693
1.03069557871022,352.995174740426,358.183941237512,5.18876649708557,-355.589557988969,173.90320412167,181.686353867299
1.03351168684878,355.157728009247,358.674560793322,3.51683278407478,-356.916144401284,175.820447612586,181.095696788698
1.03632779498733,355.655429231506,359.843105064079,4.18767583257295,-357.749267147793,175.733876699467,182.015390448326
1.03914390312588,355.748517165044,361.776584688731,6.02806752368667,-358.762550926887,174.860224820679,183.902326106209
1.04196001126443,355.816456815086,363.457878994127,7.64142217904072,-359.637167904607,174.087517318023,185.549650586584
1.04477611940298,357.486979417867,364.414804987065,6.92782556919735,-360.950892202466,175.279576924335,185.671315278131
1.04759222754154,358.706199962435,364.032586631222,5.32638666878711,-361.369393296829,176.689906646824,184.679486650005
1.05040833568009,359.325884291375,362.673002091015,3.34711779964067,-360.999443191195,177.989383245867,183.010059945328
1.05322444381864,358.967688413837,361.68071775991,2.71302934607326,-360.324203086873,178.127329533882,182.196873552992
1.0560405519572,356.274855470838,360.416192781052,4.14133731021468,-358.345524125945,176.066759080312,182.278765045634
1.05885666009575,353.769195651179,358.412662232813,4.64346658163424,-356.090928941996,174.562864534773,181.528064407224
1.0616727682343,351.940455396639,356.680241695984,4.73978629934561,-354.310348546311,173.600334548647,180.710013997665
1.06448887637285,351.686385529249,355.145689116882,3.45930358763326,-353.416037323065,174.113540970808,179.302496352258
1.06730498451141,351.230798002912,353.755549237596,2.52475123468429,-352.493173620254,174.353023384114,178.14015023614
1.07012109264996,351.438602700609,353.281276705813,1.84267400520372,-352.359939703211,174.797964347703,177.561975355508
1.07293720078851,350.239486609009,352.664975632739,2.42548902373011,-351.452231120874,173.90699879264,177.545232328235
1.07575330892706,347.473225695209,351.134547275453,3.66132158024442,-349.303886485331,171.905952057482,177.397934427849
1.07856941706562,343.8333500797,348.396636374483,4.56328629478315,-346.114993227091,169.635031892458,176.479961334633
1.08138552520417,340.906653260289,344.507295627859,3.6006423675704,-342.706974444074,168.653005446359,174.053968997715
1.08420163334272,340.391559038136,341.938840655893,1.54728161775648,-341.165199847015,169.42213871019,171.743061136825
1.08701774148127,340.555933143541,341.685207020746,1.12927387720475,-341.120570082143,169.713329633168,171.407240448975
1.08983384961983,341.216212987043,342.040406511417,0.824193524373527,-341.62830974923,170.196009731335,171.432300017895
1.09264995775838,338.996552010533,340.948865593871,1.95231358333785,-339.972708802202,168.522119213598,171.450589588604
1.09546606589693,335.755608963846,339.88205502384,4.12644605999418,-337.818831993843,165.814581451926,172.004250541917
1.09828217403548,335.281320296646,339.913918591809,4.63259829516335,-337.597619444227,165.324361000741,172.273258443486
1.10109828217404,336.826257142211,339.937174018958,3.11091687674735,-338.381715580585,166.857670132732,171.524045447853
1.10391439031259,338.494132125741,340.764615483619,2.27048335787771,-339.62937380468,168.111824383932,171.517549420748
1.10673049845114,339.711420321845,341.368518496641,1.65709817479586,-340.539969409243,169.027161073524,171.512808335718
1.10954660658969,338.708757067032,342.079429571199,3.37067250416675,-340.394093319115,167.669042281433,172.725051037683
1.11236271472825,336.356032247692,342.328127391005,5.97209514331252,-339.342079819348,165.19196855219,174.150111267159
1.1151788228668,335.179223076865,341.699169314296,6.51994623743127,-338.439196195581,164.329638419717,174.109557775864
1.11799493100535,335.130804849339,340.159503321531,5.02869847219171,-337.645154085435,165.051053188574,172.594100896861
1.1208110391439,335.63577953049,338.765631449047,3.12985191855637,-337.200705489769,166.252963805967,170.947741683802
1.12362714728246,336.274488376563,338.288635145211,2.01414676864835,-337.281561760887,167.130170803957,170.15139095693
1.12644325542101,335.930177424676,337.940502355896,2.01032493122011,-336.935339890286,166.959926246728,169.975413643558
1.12925936355956,334.328103155899,338.496888437786,4.16878528188698,-336.412495796842,165.079658937006,171.332836859836
1.13207547169811,333.699151626455,338.632807151582,4.93365552512762,-336.165979389019,164.382748050664,171.783231338355
1.13489157983667,335.131208742758,339.002162792409,3.87095404965117,-337.066685767583,165.630127346553,171.43655842103
1.13770768797522,337.257011580823,340.082203348091,2.82519176726822,-338.669607464457,167.215909906777,171.45369755768
1.14052379611377,339.348828000714,341.410776662326,2.06194866161212,-340.37980233152,168.643439669551,171.736362661969
1.14333990425232,340.335214796933,341.299802795307,0.964587998373872,-340.81750879612,169.685313399279,171.13219539684
1.14615601239088,338.623717166,340.408340572203,1.78462340620291,-339.516028869102,168.419546879899,171.096481989203
1.14897212052943,334.943185344823,338.406931346962,3.46374600213881,-336.675058345892,165.739719671342,170.93533867455
1.15178822866798,333.067440693743,336.946215256417,3.87877456267364,-335.00682797508,164.594333065535,170.412494909545
1.15460433680653,332.508908747652,335.33980826777,2.83089952011767,-333.924358507711,164.839004613767,169.085353893944
1.15742044494509,332.371423888198,333.897225894028,1.52580200583014,-333.134324891113,165.422810941184,167.711513949929
1.16023655308364,332.000925205692,332.844366109689,0.843440903997248,-332.422645657691,165.578742150847,166.843903506843
1.16305266122219,330.920050408141,332.886411571935,1.96636116379398,-331.903230990038,164.476844622173,167.426386367864
1.16586876936074,329.861024439531,334.267879250731,4.40685481119993,-332.064451845131,162.727084814166,169.337367030966
1.1686848774993,330.709038186105,336.086603490216,5.37756530411099,-333.397820838161,162.665736440997,170.732084397164
1.17150098563785,333.219049234391,338.764769138081,5.54571990368981,-335.991909186236,163.836664665351,172.155244520885
1.1743170937764,337.482371112961,343.691130030342,6.20875891738092,-340.586750571651,165.63680609779,174.949944473861
1.17713320191495,345.186585704645,352.419571951198,7.23298624655342,-348.803078827921,168.976799729046,179.826279098876
1.17994931005351,358.103676587327,369.055907118297,10.9522305309694,-363.579791852812,173.575723028179,190.004068824633
1.18276541819206,375.635821484892,392.814550107706,17.1787286228136,-384.225185796299,179.228546431039,204.99663936526
1.18558152633061,396.806391098967,419.610115523392,22.8037244244258,-408.20825331118,187.00133333727,221.206919973909
1.18839763446916,421.442911026574,447.811691271311,26.3687802447372,-434.627301148943,197.537065390918,237.090235758024
1.19121374260772,446.717939777373,473.797560383794,27.0796206064209,-460.257750080583,209.819159585476,250.438590495107
1.19402985074627,466.785699777139,491.682560687169,24.8968609100301,-479.234130232154,220.944419433554,258.2897107986
1.19684595888482,478.460311424031,498.792380398085,20.3320689740543,-488.626345911058,229.064121224988,259.56222468607
1.19966206702337,479.956892704663,496.146908004533,16.1900152998691,-488.051900354598,231.883438702397,256.168461652201
1.20247817516193,472.674320687741,483.409877936567,10.735557248826,-478.042099312154,230.969381719458,247.072717592697
1.20529428330048,458.714181959701,463.037430975521,4.32324901582064,-460.875806467611,227.19546647194,233.680339995671
1.20811039143903,439.610306435866,435.47138515406,-4.13892128180561,-437.540845794963,221.874613858836,215.666231936127
1.21092649957758,416.752306563853,405.897010432498,-10.8552961313557,-411.324658498176,213.803801347605,197.520857150571
1.21374260771614,393.315632051435,377.288275245522,-16.027356805913,-385.301953648479,204.671494428674,180.630459219805
1.21655871585469,370.267084082985,352.085868193153,-18.1812158898318,-361.176476138069,194.224149986408,166.952326151661
1.21937482399324,350.203369980373,334.232360383842,-15.9710095965307,-342.217865182107,183.087189788452,159.130675393656
1.22219093213179,335.559992875798,323.093182096017,-12.4668107797813,-329.326587485908,174.01340182779,155.313185658118
1.22500704027035,327.304020965648,317.124571712767,-10.1794492528816,-322.214296339207,168.741735109265,153.472561229943
1.2278231484089,324.790481906394,317.361074102611,-7.42940780378348,-321.075778004503,166.109944855089,154.965833149414
1.23063925654745,325.117240732753,320.775558445176,-4.34168228757716,-322.946399588964,164.729461510165,158.216938078799
1.233455364686,325.625879844259,324.078067267874,-1.54781257638524,-324.851973556066,163.586846210322,161.265127345744
1.23627147282456,324.646325880832,326.218226605487,1.57190072465471,-325.432276243159,161.537212578089,163.895063665071
1.23908758096311,323.661248293617,327.510052391777,3.84880409816014,-325.585650342697,159.906222097728,165.679428244969
1.24190368910166,324.02292038325,329.26335205286,5.2404316696099,-326.643136218055,159.39124435682,167.251891861235
1.24471979724021,326.448134206181,331.623611766715,5.17547756053409,-329.035872986448,160.636328322824,168.399544663625
1.24753590537877,329.028630085346,332.805920233499,3.7772901481535,-330.917275159423,162.625669968596,168.291605190826
1.25035201351732,330.641832761173,333.668820723633,3.02698796245994,-332.155326742403,163.807422399357,168.347904343046
1.25316812165587,331.278906289374,334.29860328613,3.01969699675561,-332.788754787752,164.129604646309,168.659150141443
1.25598422979442,330.393089387155,335.568714812855,5.17562542569999,-332.980902100005,162.608731980727,170.372170119277
1.25880033793298,330.016737635523,336.225541608994,6.20880397347111,-333.121139622258,161.903966831026,171.217172791232
1.26161644607153,331.903309342416,337.515391201647,5.61208185923113,-334.709350272031,163.145613741592,171.563736530439
1.26443255421008,334.90114925478,338.997092338208,4.0959430834277,-336.949120796494,165.402603085676,171.546517710818
1.26724866234863,337.089104092623,339.538190284846,2.44908619222372,-338.313647188734,167.320008950199,170.993638238535
1.27006477048719,337.875500704112,339.933107259969,2.05760655585709,-338.904303982041,167.908947074128,170.995356907913
1.27288087862574,336.828510114783,340.221334961089,3.39282484630598,-338.524922537936,166.717842634239,171.807079903698
1.27569698676429,334.983745689446,339.891383734575,4.90763804512875,-337.437564712011,165.038053822159,172.399510889852
1.27851309490284,334.447824468669,339.380414669647,4.93259020097787,-336.914119569158,164.757617133845,172.156502435312
1.2813292030414,335.407466754116,339.547799495426,4.14033274130981,-337.477633124771,165.633567006403,171.844066118368
1.28414531117995,337.188480562462,339.94012048262,2.7516399201578,-338.564300522541,167.218420321152,171.345880201389
1.2869614193185,337.948030003311,341.036922153691,3.08889215037976,-339.492476078501,167.429568926466,172.062907152035
1.28977752745705,337.962070020747,341.83741604013,3.87534601938296,-339.899743030439,167.043362000682,172.856381029757
1.29259363559561,336.891692192772,341.070870471225,4.17917827845287,-338.981281331999,166.35625695716,172.625024374839
1.29540974373416,336.380639795946,340.511411949442,4.13077215349637,-338.446025872694,166.124933821225,172.321092051469
1.29822585187271,337.898744861815,341.453875681961,3.55513082014625,-339.676310271888,167.171807020834,172.504503251054
1.30104196001126,341.167974108839,343.492508042035,2.32453393319577,-342.330241075437,169.421720087822,172.908520987615
1.30385806814982,343.554000766748,345.250547418184,1.69654665143651,-344.402274092466,170.928727057656,173.47354703481
1.30667417628837,345.295427501331,346.803797748023,1.50837024669249,-346.049612624677,171.893528627319,174.156083997358
1.30949028442692,345.215615926688,348.747896488279,3.53228056159094,-346.981756207484,170.841667682549,176.140088524935
1.31230639256547,344.3468973091,349.356316241749,5.00941893264849,-346.851606775424,169.668739188226,177.182867587199
1.31512250070403,344.793493269908,348.989898983778,4.19640571386935,-346.891696126843,170.29854377802,176.593152348824
1.31793860884258,345.119438557708,348.452315412313,3.3328768546055,-346.78587698501,170.893280851551,175.892596133459
1.32075471698113,345.357327701278,347.249494746465,1.89216704518731,-346.303411223871,171.732580328045,174.570830895826
1.32357082511968,344.72048097936,346.911935979006,2.19145499964611,-345.816208479183,171.264512989857,174.551695489326
1.32638693325824,342.904901296021,346.125258385705,3.2203570896844,-344.515079840863,169.842272103168,174.672807737695
1.32920304139679,340.769343106669,346.091419054718,5.32207594804936,-343.430381080693,167.72363357931,175.706747501384
1.33201914953534,340.831656499213,346.336877841074,5.50522134186104,-343.584267170144,167.663217578676,175.921049591468
1.33483525767389,342.498072812909,347.056336835281,4.55826402237221,-344.777204824095,168.969904395268,175.807300428827
1.33765136581245,345.335233679125,348.932210572374,3.59697689324901,-347.13372212575,170.869128392938,176.264593732812
1.340467473951,347.676074125126,350.841617790448,3.16554366532233,-349.258845957787,172.255265229902,177.003580727885
1.34328358208955,348.844209559895,353.315811635053,4.47160207515776,-351.080010597474,172.186303742369,178.893706855106
1.3460996902281,348.616141103168,354.040961795677,5.42482069250894,-351.328551449423,171.59566020533,179.732891244093
1.34891579836666,347.909374333015,354.300051923997,6.39067759098259,-351.104713128506,170.759348371016,180.34536475749
1.35173190650521,348.744326055521,354.218991032845,5.47466497732466,-351.481658544183,171.634830539098,179.846828005085
1.35454801464376,350.434335231065,354.42998545685,3.99565022578429,-352.432160343957,173.219342502641,179.212817841317
1.35736412278231,351.667777929717,354.313822214667,2.64604428495068,-352.990800072192,174.510866822383,178.479933249809
1.36018023092087,352.027685997596,353.688728770208,1.66104277261212,-352.858207383902,175.183321612492,177.67488577141
1.36299633905942,350.669425394005,353.23250820277,2.56308280876465,-351.950966798388,174.05317129262,177.897795505767
1.36581244719797,349.407951117944,353.439850879352,4.03189976140862,-351.423900998648,172.688025678268,178.73587532038
1.36862855533652,350.108209224906,354.671803491356,4.56359426645014,-352.390006358131,172.772307479228,179.617698878903
1.37144466347508,352.510381737461,355.841092664368,3.33071092690682,-354.175737200914,174.589835405277,179.585901795637
1.37426077161363,354.803904847505,356.694491103816,1.89058625631094,-355.74919797566,176.456659295597,179.292538680063
1.37707687975218,356.477818442299,358.12780728926,1.64998884696104,-357.30281286578,177.413914797669,179.888898068111
1.37989298789073,356.618889033837,359.444060415502,2.82517138166543,-358.031474724669,176.896858826086,181.134615898584
1.38270909602929,355.641223681272,360.404719583295,4.76349590202295,-358.022971632283,175.438863889624,182.584107742659
1.38552520416784,354.927680696834,359.755069650058,4.82738895322456,-357.341375173446,175.050145871805,182.291229301641
1.38834131230639,355.487530629566,359.280926681828,3.79339605226204,-357.384228655697,175.847067288652,181.537161367045
1.39115742044495,356.436446048997,358.664720169908,2.22827412091084,-357.550583109453,177.104085964043,180.446497145409
1.3939735285835,358.209630920815,359.295610522466,1.08597960165065,-358.752620721641,178.561825659582,180.190795062058
1.39678963672205,358.963466460972,359.75606192727,0.792595466298849,-359.359764194121,179.085435497336,180.274328696785
1.3996057448606,358.162867587867,361.172744372289,3.00987678442169,-359.667805980078,177.576495401723,182.091310578355
1.40242185299916,358.118867897292,363.01716989015,4.89830199285831,-360.568018893721,176.610282952217,183.957735941504
1.40523796113771,359.977848479548,365.173781032642,5.19593255309422,-362.575814756095,177.390957963227,185.184856792868
1.40805406927626,362.685394969117,367.288082702142,4.60268773302465,-364.986738835629,179.041353618046,185.945385217583
1.41087017741481,365.201793379341,369.101348853727,3.89955547438592,-367.151571116534,180.651118952477,186.500452164056
1.41368628555337,366.498058703756,370.694906102556,4.19684739880068,-368.596482403156,181.150605652477,187.445876750678
1.41650239369192,365.823192627316,371.317641537898,5.49444891058209,-368.570417082607,180.164371858367,188.40604522424
1.41931850183047,364.250020966121,370.961672491415,6.71165152529341,-367.605846728768,178.769184720414,188.836662008354
1.42213460996902,364.452632460897,369.891402058458,5.43876959756091,-367.172017259678,179.506931431668,187.66508582801
1.42495071810758,365.951288261121,370.461052890705,4.50976462958448,-368.206170575913,180.720761815768,187.485408760145
1.42776682624613,368.125697734943,371.687277647638,3.56157991269487,-369.906487691291,182.282058911124,187.624428780167
1.43058293438468,369.442520770388,372.312073957463,2.86955318707476,-370.877297363926,183.286483791657,187.590813572269
1.43339904252323,369.052814823514,371.957609027419,2.9047942039054,-370.505211925467,183.074010309804,187.431201615662
1.43621515066179,366.607140664018,371.428748788246,4.82160812422808,-369.017944726132,180.892766269895,188.125178456237
1.43903125880034,365.90280541841,371.312919639769,5.41011422135858,-368.60786252909,180.246345598526,188.361516930564
1.44184736693889,366.46937556213,371.228382455269,4.75900689313841,-368.8488790087,180.855184334496,187.993694674204
1.44466347507744,368.233664321422,371.706995940039,3.47333161861712,-369.97033013073,182.380166351402,187.590163779328
1.447479583216,369.251163300983,372.326465230684,3.0753019297008,-370.788814265834,183.087930685641,187.700883580192
1.45029569135455,369.4534661869,372.238268620655,2.78480243375452,-370.845867403777,183.334331876573,187.511535527205
1.4531117994931,367.439865996534,372.444055084562,5.00418908802851,-369.941960540548,181.217838454253,188.724122086295
1.45592790763165,365.970252405821,372.594247056926,6.62399465110536,-369.282249731374,179.673128877358,189.609120854016
1.45874401577021,365.978288903177,371.353082675625,5.37479377244802,-368.665685789401,180.301747565364,188.363938224036
1.46156012390876,366.254310502722,370.177070350014,3.92275984729218,-368.215690426368,181.165775327715,187.049915098653
1.46437623204731,366.996075576282,369.859077483148,2.86300190686552,-368.427576529715,182.066536834708,186.361039695007
1.46719234018586,366.997135783728,369.356836152725,2.3597003689971,-368.176985968226,182.318717707365,185.858268260861
1.47000844832442,364.836659874573,368.179809801959,3.34314992738655,-366.508234838266,180.746754973593,185.761479864673
1.47282455646297,361.098600257902,366.510295795775,5.4116955378729,-363.804448026838,177.843452360014,185.960995666824
1.47564066460152,359.180869302636,364.481342733553,5.30047343091667,-361.831106018094,176.94019793586,184.890908082235
1.47845677274007,359.132006336992,362.730367732814,3.59836139582228,-360.931187034903,177.766822470585,183.164364564318
1.48127288087863,359.906812640662,362.262898140972,2.35608550031014,-361.084855390817,178.775363570176,182.309491820641
1.48408898901718,360.74245642027,362.732186998842,1.98973057857228,-361.737321709556,179.376362920849,182.360958788707
1.48690509715573,359.731408570675,362.264225920982,2.53281735030663,-360.997817245829,178.599295610184,182.398521635644
1.48972120529428,356.562095671303,360.571906375861,4.00981070455816,-358.567001023582,176.276142483372,182.29085854021
1.49253731343284,353.168367491575,357.445683985225,4.27731649365057,-355.3070257384,174.445525498962,180.861500239438
1.49535342157139,351.501944696619,355.164029993112,3.66208529649316,-353.332987344865,173.919929700063,179.413057644802
1.49816952970994,350.826028795068,353.768935212181,2.94290641711336,-352.297482003625,173.941561188977,178.355920814647
1.50098563784849,350.332715773024,351.39995289311,1.0672371200867,-350.866334333067,174.632739326469,176.233595006599
1.50380174598705,348.621893268924,349.670965863351,1.04907259442689,-349.146429566137,173.786410337248,175.360019228889
1.5066178541256,345.752322820486,347.868762996183,2.11644017569643,-346.810542908335,171.817941322395,174.99260158594
1.50943396226415,342.037047382868,345.742967793018,3.70592041015044,-343.890007587943,169.165563486359,174.724444101584
1.5122500704027,339.865789107279,344.191469369156,4.32568026187624,-342.028629238217,167.770054422702,174.258574815516
1.51506617854126,339.631890801777,342.788961670337,3.15707086855986,-341.210426236057,168.237409966609,172.973016269448
1.51788228667981,339.731337788324,342.035506350423,2.30416856209939,-340.883422069374,168.713584613112,172.169837456261
1.52069839481836,339.533762341832,341.755757877424,2.22199553559221,-340.644760109628,168.65588340312,171.988876706508
1.52351450295691,338.308938282036,341.281428980295,2.97249069825915,-339.795183631166,167.668223791889,172.126959839277
1.52633061109547,335.523914567343,340.394930557453,4.87101599011021,-337.959422562398,165.326449288616,172.632973273782
1.52914671923402,333.491282309384,339.477768978484,5.98648666910066,-336.484525643934,163.752397820141,172.732127823792
1.53196282737257,333.628715553593,338.538228085492,4.90951253189962,-336.083471819542,164.359601510846,171.723870308696
1.53477893551112,334.269332776904,337.852510001049,3.58317722414529,-336.060921388977,165.343077776379,170.717843612597
1.53759504364968,334.466727066034,337.08188670484,2.61515963880549,-335.774306885437,165.925783713614,169.848523171823
1.54041115178823,333.530169214282,337.059764502858,3.52959528857605,-335.29496685857,165.000286962853,170.294679895717
1.54322725992678,331.766003436471,336.77346253929,5.00745910281915,-334.26973298788,163.379272166826,170.890460821054
1.54604336806533,328.857500731077,334.673413346549,5.81591261547248,-331.765457038813,161.520794057802,170.244662981011
1.54885947620389,327.815372946277,333.410861700335,5.59548875405812,-330.613117323306,161.109942096109,169.503175227197
1.55167558434244,329.216032151078,333.840177283513,4.62414513243471,-331.528104717295,162.295943509322,169.232161207974
1.55449169248099,330.77860699473,334.153510595042,3.37490360031148,-332.466058794886,163.701851697209,168.764207097677
1.55730780061954,332.459354961599,335.732976025433,3.2736210638343,-334.096165493516,164.592866948882,169.503298544634
1.5601239087581,332.065101153397,337.155895270239,5.09079411684201,-334.610498211818,163.487153518277,171.123344693541
1.56294001689665,330.696732613049,337.654091618326,6.95735900527723,-334.175412115687,161.869686803886,172.305725311802
1.5657561250352,330.50850596962,338.287853340117,7.77934737049691,-334.398179654868,161.364579299562,173.033600355307
1.56857223317375,331.45175477064,338.210087972176,6.7583332015364,-334.830921371408,162.346710784552,172.484210586856
1.57138834131231,332.140179048724,337.342862765838,5.20268371711461,-334.741520907281,163.468747665805,171.272773241477
1.57420444945086,331.832152596065,335.088986564855,3.25683396878935,-333.46056958046,164.287659313638,169.172910266822
1.57702055758941,330.526716555526,333.984321444099,3.45760488857286,-332.255518999813,163.534555833477,168.720963166336
1.57983666572796,328.763483534926,335.339338162727,6.57585462780179,-332.051410848826,161.093814453562,170.957596395265
1.58265277386652,329.097536139047,337.408913545115,8.31137740606761,-333.253224842081,160.39307936649,172.860145475591
1.58546888200507,331.232435840175,340.270161341371,9.03772550119692,-335.751298590773,161.097355169489,174.653943421284
1.58828499014362,334.41151639655,341.277800424279,6.86628402772942,-337.844658410414,163.77261618441,174.072042226004
1.59110109828217,337.001904804451,342.823688185229,5.82178338077824,-339.91279649484,165.590060711836,174.322735783004
1.59391720642073,337.541702633439,342.871319917216,5.32961728377649,-340.206511275328,166.106042674831,174.100468600496
1.59673331455928,336.584889666414,342.635927429053,6.05103776263894,-339.610408547733,165.266925951887,174.343482595846
1.59954942269783,335.346253242286,343.544752531281,8.19849928899509,-339.445502886783,163.573876976645,175.871625910138
1.60236553083638,335.252710778002,343.127428039151,7.87471726114927,-339.190069408576,163.688996758426,175.50107265015
1.60518163897494,336.265064239004,342.822846350936,6.55778211193189,-339.54395529497,164.853641063536,174.690314231434
1.60799774711349,337.814392759522,342.870705509686,5.05631275016435,-340.342549134604,166.379040004679,173.963509129925
1.61081385525204,338.945160555992,342.635479007534,3.69031845154166,-340.790319781763,167.627421052225,173.162898729538
1.61362996339059,338.419663348703,342.463800406134,4.04413705743133,-340.441731877419,167.187763145636,173.253968731783
1.61644607152915,336.685351416926,342.878814269092,6.19346285216568,-339.782082843009,165.24594428238,174.536138560629
1.6192621796677,336.500199474329,342.911553347087,6.41135387275835,-339.705876410708,165.044422800785,174.661453609923
1.62207828780625,338.256160962265,344.286228819149,6.03006785688359,-341.271194890707,166.113046552691,175.158148338016
1.6248943959448,340.078050970172,345.019370961254,4.94131999108225,-342.548710965713,167.568365489545,174.980345476168
1.62771050408336,341.407746075096,344.74398156387,3.33623548877421,-343.075863819483,169.035755293161,174.040108526322
1.63052661222191,342.108059575657,345.623615170359,3.51555559470177,-343.865837373008,169.296251990478,174.56958538253
1.63334272036046,340.998241762555,346.535766505756,5.53752474320106,-343.767004134155,167.730358509677,176.036645624478
1.63615882849901,340.458404337579,347.4716507036,7.01324636602044,-343.965027520589,166.722578985779,177.24244853481
1.63897493663757,341.145032193848,347.884543759932,6.73951156608365,-344.51478797689,167.202760313882,177.312027663008
1.64179104477612,342.186475693245,347.645578768514,5.45910307526867,-344.91602723088,168.363686308988,176.552340921891
1.64460715291467,343.216722973839,347.201015442076,3.98429246823724,-345.208869207957,169.616215252801,175.592653955157
1.64742326105322,343.158173916201,346.336241236102,3.17806731990117,-344.747207576151,169.99005329815,174.757154278002
1.65023936919178,341.764661190825,346.245403577482,4.48074238665674,-344.005032384153,168.641959402084,175.363072982069
1.65305547733033,340.207302160788,346.989574912224,6.78227275143621,-343.598438536506,166.712514704676,176.88592383183
1.65587158546888,340.421454406189,347.262547526318,6.84109312012941,-343.842000966253,166.79018064303,177.051820323224
1.65868769360743,341.928533151566,348.002087316787,6.07355416522068,-344.965310234176,167.927489493173,177.037820741004
1.66150380174599,343.568777635843,348.541835838934,4.97305820309072,-346.055306737388,169.297859716376,176.757447021012
1.66431990988454,344.765899883705,348.935767944974,4.16986806126982,-346.85083391434,170.298015911217,176.552818003122
1.66713601802309,344.55898727245,347.872495786154,3.31350851370422,-346.215741529302,170.622739379373,175.593002149929
1.66995212616164,341.166098845981,345.47553593472,4.30943708873895,-343.32081739035,168.428330878621,174.892486511729
1.6727682343002,338.959976515981,343.996285888629,5.03630937264757,-341.478131202305,166.961833571667,174.516297630638
1.67558434243875,339.781257744425,344.807757914502,5.02650017007767,-342.294507829463,167.377378787173,174.91712904229
1.6784004505773,342.00160201854,346.750786791184,4.7491847726439,-344.376194404862,168.626208622948,175.749985781914
1.68121655871585,344.162418918253,348.439050558856,4.27663164060283,-346.300734738555,169.942893638825,176.357841099729
1.68403266685441,345.46932149792,349.671219382414,4.20189788449369,-347.570270440167,170.633711806713,176.936558633454
1.68684877499296,345.07237516802,350.300353932341,5.22797876432054,-347.686364550181,169.92219820185,177.764166348331
1.68966488313151,343.702041507436,350.219211451759,6.51716994432275,-346.960626479597,168.592435781557,178.368190698041
1.69248099127006,343.512380633211,349.349521480738,5.83714084752734,-346.430951056974,168.837619892842,177.593331164133
1.69529709940862,344.454582669793,349.255096081534,4.80051341174141,-346.854839375663,169.827034629026,177.027804746638
1.69811320754717,345.412399185225,348.916024078612,3.50362489338636,-347.164211631919,170.95438714592,176.209824485999
1.70092931568572,345.300986983566,348.668554483551,3.36756749998483,-346.984770733558,170.966709741791,176.018060991768
1.70374542382427,343.598736209033,347.67747170123,4.07873549219676,-345.638103955132,169.760000358418,175.878103596713
1.70656153196283,341.005577996046,346.954136089032,5.9485580929865,-343.979857042539,167.52850995153,176.451347091009
1.70937764010138,339.653290006406,346.426214085738,6.77292407933163,-343.039752046072,166.440182963537,176.599569082535
1.71219374823993,339.476799653022,345.230444855402,5.75364520238008,-342.353622254212,166.861577225321,175.492045028891
1.71500985637848,340.96892653617,345.978657381836,5.00973084566652,-343.473791959003,167.979597845252,175.494194113751
1.71782596451704,343.138570920421,347.335204282069,4.19663336164803,-345.236887601245,169.470968779386,175.765918821858
1.72064207265559,343.911603761099,348.325271610509,4.41366784940925,-346.118437685804,169.748967955845,176.369469729959
1.72345818079414,343.125015918529,348.507553676256,5.38253775772631,-345.816284797393,168.871239080402,176.945045716991
1.72627428893269,341.470304820326,348.370434897757,6.90013007743096,-344.920369859042,167.285087371448,177.635282487594
1.72909039707125,341.343249051642,348.000203397162,6.65695434552049,-344.671726224402,167.343147353061,177.328578871341
1.7319065052098,342.331143035608,347.459836024412,5.12869298880383,-344.89548953001,168.601225023402,176.294264506608
1.73472261334835,342.511838899392,345.714671194745,3.20283229535266,-344.113255047069,169.65450330202,174.458751745049
1.7375387214869,342.643718653116,343.900661060809,1.25694240769343,-343.272189856962,170.693388122711,172.578801734251
1.74035482962546,341.659345424664,345.008122939799,3.34877751513494,-343.333734182231,169.155283954764,174.178450227467
1.74317093776401,340.130438103064,345.546240900897,5.41580279783324,-342.83833950198,167.357317652615,175.481021849365
1.74598704590256,339.284730803641,345.938982952084,6.65425214844322,-342.611856877863,166.315239327599,176.296617550264
1.74880315404112,340.558590067685,346.225623298481,5.66703323079599,-343.392106683082,167.445778418444,175.946328264638
1.75161926217967,342.02862076224,346.434825974725,4.40620521248508,-344.231723368482,168.811207774877,175.420515593605
1.75443537031822,343.101513533019,346.31735503657,3.21584150355102,-344.709434284794,169.942836014734,174.76659827006
1.75725147845677,342.803932809613,346.231619602072,3.42768679245864,-344.517776205842,169.688123008577,174.829653197265
1.76006758659533,340.695651884067,346.169046127781,5.47339424371364,-343.432349005924,167.611128820177,175.821220185747
1.76288369473388,339.156936146928,344.502439995038,5.34550384811013,-341.829688070983,166.905716149409,174.923971921574
1.76569980287243,338.574226448225,343.286077861799,4.71185141357432,-340.930152155012,166.931187517325,173.998964637687
1.76851591101098,339.769876665574,343.749104574098,3.97922790852431,-341.759490619836,167.895324378525,173.864166241311
1.77133201914954,340.912670761353,344.627354167551,3.71468340619839,-342.770012464452,168.598993677577,174.171018786875
1.77414812728809,341.746731933266,345.53849538963,3.79176345636398,-343.642613661448,168.977484238451,174.665129422997
1.77696423542664,341.004685239148,346.203486150672,5.19880091152413,-343.60408569491,167.902942163812,175.701143531098
1.77978034356519,339.65263843333,346.148513103038,6.49587466970831,-342.900575768184,166.578381881811,176.322193886373
1.78259645170375,339.47632410646,345.838235153836,6.36191104737679,-342.657279630148,166.557206529541,176.100073100607
1.7854125598423,340.968579461465,346.152093143762,5.18351368229639,-343.560336302613,167.892532889584,175.667803413029
1.78822866798085,342.598005186361,346.651316659935,4.05331147357401,-344.624660923148,169.272346856393,175.352314066754
1.7910447761194,344.597700065507,348.096296689588,3.49859662408068,-346.346998377547,170.549551720713,175.797446656834
1.79386088425796,345.787008739332,350.771843659429,4.98483492009694,-348.279426199381,170.401086909618,177.878339289763
1.79667699239651,345.844549651476,352.724574995214,6.88002534373777,-349.284562323345,169.482262153869,179.802300169476
1.79949310053506,346.426857952511,354.419920042391,7.99306208988071,-350.423388997451,169.216897931315,181.206491066136
1.80230920867361,348.202633108155,355.116944670065,6.91431156191027,-351.65978888911,170.644160773122,181.015628115988
1.80512531681217,350.038983998357,355.355507552873,5.31652355451592,-352.697245775615,172.361230221921,180.336015553695
1.80794142495072,351.649389500267,355.529621190969,3.88023169070158,-353.589505345618,173.884578904783,179.704926440835
1.81075753308927,352.014265316589,355.656696948161,3.64243163157226,-353.835481132375,174.185916842508,179.649564289867
1.81357364122782,349.849161757725,354.668817552684,4.81965579495841,-352.258989655204,172.514752981383,179.744236673821
1.81638974936638,347.998818162762,353.947819912474,5.94900174971201,-350.973319037618,171.024908206525,179.948410831093
1.81920585750493,349.349918502791,355.582853958485,6.23293545569356,-352.466386230638,171.558491523549,180.907894707089
1.82202196564348,353.037572811817,359.207579307189,6.17000649537277,-356.122576059503,173.433783158222,182.688792901281
1.82483807378203,357.349921673253,362.663531222227,5.31360954897434,-360.00672644774,176.018156062139,183.988570385601
1.82765418192059,360.497262702015,365.45599247136,4.95872976934504,-362.976627586687,177.769266466335,185.207361120353
1.83047029005914,360.362924094134,365.873115696399,5.51019160226514,-363.118019895266,177.426366245934,185.691653649332
1.83328639819769,359.184253048179,366.177550491077,6.99329744289832,-362.680901769628,176.09547780264,186.585423966988
1.83610250633624,358.053851095171,364.778803063634,6.72495196846313,-361.416327079402,175.664449563354,185.751877516048
1.8389186144748,357.498990463551,362.407154883195,4.90816441964438,-359.953072673373,176.295413021953,183.65765965142
1.84173472261335,357.364185090158,359.865753555461,2.50156846530354,-358.61496932281,177.431308312427,181.183661010382
1.8445508307519,357.535954437652,358.010927583274,0.474973145621334,-357.773441010463,178.530490646015,179.242950364447
1.84736693889045,356.580694381425,357.467663005028,0.886968623602797,-357.024178693227,177.846862878911,179.177315814316
1.85018304702901,353.722254068368,357.071164727286,3.3489106589177,-355.396709397827,175.186671704725,180.210037693102
1.85299915516756,350.555414314661,354.89068943917,4.33527512450939,-352.723051876915,173.110069595076,179.61298228184
1.85581526330611,348.514272204291,351.678345823742,3.16407361945056,-350.096309014016,172.67509929242,177.421209721596
1.85863137144466,348.915650797452,350.144305426303,1.22865462885022,-349.529978111877,173.843498084301,175.686480027576
1.86144747958322,349.748906894102,350.10532041898,0.356413524878178,-349.927113656541,174.696246684612,175.230866971929
1.86426358772177,349.816741256418,350.347023665427,0.530282409008919,-350.081882460923,174.643229423705,175.438653037218
1.86707969586032,348.245312473147,349.983116854674,1.7378043815271,-349.114214663911,173.25375404581,175.860460618101
1.86989580399887,345.47747766596,348.907053093773,3.42957542781295,-347.192265379867,171.023951119074,176.168314260793
1.87271191213743,343.997703049113,347.041069794763,3.04336674565019,-345.519386421938,170.477168151731,175.042218270207
1.87552802027598,343.998323584663,345.138881051486,1.1405574668226,-344.568602318075,171.42888305892,173.139719259154
1.87834412841453,343.458464054937,343.210267989614,-0.248196065322645,-343.334366022276,171.85333006013,171.481035962146
1.88116023655308,342.524138506961,341.262369302961,-1.26176920400019,-341.893253904961,171.892953855481,170.00030004948
1.88397634469164,340.221289538451,339.570551334732,-0.650738203719584,-339.895920436591,170.436013871085,169.459906565506
1.88679245283019,336.649476040685,338.335788499976,1.6863124592906,-337.49263227033,167.481581790697,170.011050479633
1.88960856096874,334.582922570731,337.704760727089,3.12183815635825,-336.14384164891,165.730542207186,170.413299441724
1.89242466910729,334.695598629079,337.514365238783,2.81876660970346,-336.104981933931,165.938416009688,170.166565924243
1.89524077724585,336.398771821566,338.456031121841,2.05725930027569,-337.427401471703,167.170756260645,170.256645211058
1.8980568853844,336.561197348722,338.332831481469,1.77163413274712,-337.447014415096,167.394781607987,170.052232807108
1.90087299352295,336.139430187007,337.162290141757,1.02285995475,-336.650860164382,167.558285116129,169.092575048254
1.9036891016615,334.210668772763,336.307977816221,2.09730904345776,-335.259323294492,166.056679864653,169.202643429839
1.90650520980006,332.802974235796,336.22477569605,3.42180146025458,-334.513874965923,164.690586387771,169.823288578152
1.90932131793861,333.126358181766,336.434207357356,3.30784917559026,-334.780282769561,164.909254503088,169.871028266473
1.91213742607716,334.172846581528,336.316903542526,2.14405696099845,-335.244875062027,166.014394810265,169.230480251762
1.91495353421571,334.936619639442,336.231290081948,1.29467044250646,-335.583954860695,166.820974598468,168.762980262227
1.91776964235427,335.764210873172,336.168805629566,0.404594756393408,-335.966508251369,167.679808058389,168.28670019298
1.92058575049282,334.477129711118,336.12320174014,1.64607202902124,-335.300165725629,166.415528841049,168.88463688458
1.92340185863137,332.186980460818,336.089918024728,3.9029375639094,-334.138449242773,164.142021448454,169.996427794318
1.92621796676992,331.596154104086,336.065626111788,4.46947200770194,-333.830890107937,163.563341048192,170.267549059745
1.92903407490848,333.056036640864,335.507584386284,2.45154774541993,-334.281810513574,165.302244447722,168.979566065852
1.93185018304703,334.391679053601,335.640613523152,1.24893446955156,-335.016146288376,166.571372292025,168.444773996352
1.93466629118558,335.096333159825,335.737704012335,0.641370852509908,-335.41701858608,167.227481153658,168.189537432423
1.93748239932413,334.529995734546,335.53840869088,1.00841295633427,-335.034202212713,166.760791389106,168.273410823607
1.94029850746269,333.036033035235,336.203422874128,3.16738983889348,-334.619727954681,164.934321598171,169.685406356511
1.94311461560124,331.675517427575,335.878310709174,4.20279328159876,-333.776914068375,163.736362072988,170.040551995386
1.94593072373979,331.76317841016,335.100717191394,3.33753878123412,-333.431947800777,164.212819814463,169.219127986314
1.94874683187834,331.827157233761,333.722726757138,1.8955695233779,-332.774941995449,164.965793855191,167.809148140258
1.9515629400169,331.873851780737,332.446852786725,0.573001005987862,-332.160352283731,165.650425387375,166.509926896356
1.95437904815545,332.178087717659,332.596288942471,0.418201224811526,-332.387188330065,165.879943246424,166.507245083641
1.957195156294,331.589663790732,334.326291263693,2.73662747296112,-332.957977527213,164.426518158886,168.531459368327
1.96001126443255,332.240831090365,337.209859982515,4.96902889215011,-334.72534553644,163.635901099108,171.089444437333
1.96282737257111,337.308737100852,344.177226513278,6.86848941242579,-340.742981807065,165.220123844213,175.522857962852
1.96564348070966,346.950953482601,356.286377204032,9.33542372143063,-351.618665343316,168.807764880585,182.810900462731
1.96845958884821,362.363107780631,373.769164395081,11.4060566144502,-368.066136087856,175.47852558309,192.587610504765
1.97127569698676,382.526727848487,398.41574134799,15.8890134995028,-390.471234598239,183.318857174492,207.152377423747
1.97409180512532,405.077550845471,425.319047427463,20.2414965819923,-415.198299136467,192.418027131739,222.780272004728
1.97690791326387,427.479565588177,452.78878839396,25.3092228057825,-440.134176991069,201.085171391197,239.049005599871
1.97972402140242,448.152036279648,474.998657894826,26.8466216151778,-461.575347087237,210.652707332235,250.922639755002
1.98254012954097,464.860647870313,489.317299702072,24.4566518317596,-477.088973786193,220.201998019277,256.886975766916
1.98535623767953,474.894074553036,494.094391030222,19.2003164771859,-484.494232791629,227.846879037925,256.647353753704
1.98817234581808,475.733159606144,487.855297834015,12.1221382278712,-481.794228720079,231.805510689136,249.988718030943
1.99098845395663,466.890093204358,470.604392463242,3.7142992588839,-468.7472428338,231.587896972737,237.159345861063
1.99380456209518,448.008850376913,444.506115745211,-3.50273463170163,-446.257483061062,225.755792504307,220.501690556755
1.99662067023374,423.692400324165,414.652202126836,-9.04019819732895,-419.1723012255,216.366299260747,202.806001964753
1.99943677837229,399.461441218913,385.569291000609,-13.892150218304,-392.515366109761,206.676795718609,185.838570391153
2.00225288651084,377.994439269351,359.750653372626,-18.2437858967245,-368.872546320988,198.119112583038,170.753433737951
2.00506899464939,359.625319128006,339.826456234419,-19.7988628935875,-349.725887681213,189.712091010797,160.013796670416
2.00788510278795,344.867949840105,326.095373355268,-18.7725764848362,-335.481661597687,181.82026316247,153.661398435216
2.0107012109265,333.016750688727,318.50523371849,-14.5115169702371,-325.760992203608,173.764133829482,151.996858374126
2.01351731906505,324.09707039435,314.58655472479,-9.51051566956022,-319.34181255957,166.803793031955,152.538019527615
2.0163334272036,318.937878198766,313.347468474798,-5.59040972396775,-316.142673336782,162.264143961367,153.878529375415
2.01914953534216,319.224817001134,316.22531603849,-2.99950096264365,-317.725066519812,161.112158981889,156.612907537923
2.02196564348071,322.135799622331,319.406320053517,-2.72947956881382,-320.771059837924,162.432639595573,158.338420242352
2.02478175161926,325.070830841377,323.88920576887,-1.18162507250713,-324.480018305123,163.126227956942,161.353790348181
2.02759785975781,326.672632720817,326.620699637365,-0.0519330834511607,-326.646666179091,163.362282902134,163.284383276957
2.03041396789637,325.950604389237,328.884419681469,2.93381529223291,-327.417512035353,161.508394548502,165.909117486851
2.03323007603492,325.963948920324,330.53658169372,4.57263277339695,-328.250265307022,160.695658073463,167.554607233559
2.03604618417347,326.784156979058,332.012558087215,5.22840110815736,-329.398357533136,160.77787793545,168.620479597686
2.03886229231202,328.463405583184,332.279321653816,3.81591607063206,-330.3713636185,162.323744756276,168.047618862224
2.04167840045058,329.688994745629,331.933704962056,2.24471021642671,-330.811349853843,163.722142264601,167.089207589241
2.04449450858913,329.773014747022,331.681458766501,1.90844401947896,-330.727236756762,163.932285363772,166.79495139299
2.04731061672768,327.943242740016,331.227202235725,3.28395949570893,-329.58522248787,162.329641622154,167.255580865717
2.05012672486623,326.33763879514,330.895665928521,4.55802713338142,-328.61665236183,160.889805830879,167.726846530951
2.05294283300479,326.246423577264,330.923852426041,4.67742884877714,-328.585138001652,160.784497364243,167.800640637409
2.05575894114334,327.800787988344,330.944424166165,3.14363617782072,-329.372606077255,162.328575905262,167.044030171993
2.05857504928189,329.745699833874,331.499750746649,1.75405091277474,-330.622725290261,163.99582446055,166.626900829712
2.06139115742044,331.705494086534,332.445364825541,0.739870739006221,-332.075429456038,165.482811673764,166.592617782273
2.064207265559,331.514900476618,333.135515386987,1.6206149103682,-332.325207931803,164.947142783125,167.378065148677
2.06702337369755,330.565328278749,334.449686122746,3.8843578439969,-332.507507200748,163.340485217376,169.167021983372
2.0698394818361,330.142445120627,335.40882547078,5.26638035015355,-332.775635295704,162.438032385237,170.337602910467
2.07265558997466,331.454743745797,335.568534942149,4.11379119635245,-333.511639343973,163.670476274722,169.841163069251
2.07547169811321,332.682672957418,335.685097907733,3.00242495031495,-334.183885432576,164.840124003552,169.343761429024
2.07828780625176,333.578869464782,335.500014452219,1.92114498743729,-334.5394419585,165.828862238672,168.710579719828
2.08110391439031,333.69264049488,335.364932441926,1.67229194704669,-334.528786468403,166.010174273916,168.518612194487
2.08392002252886,332.424894515107,336.076812311441,3.65191779633386,-334.250853413274,164.386488359387,169.864365053888
2.08673613066742,331.499637986846,336.866529623972,5.36689163712606,-334.183083805409,163.06637317486,171.116710630549
2.08955223880597,332.445282528499,337.172743687029,4.72746115852942,-334.809013107764,163.858910684985,170.950102422779
2.09236834694452,335.026548806104,338.747013178146,3.72046437204244,-336.886780992125,165.653042217031,171.233738775094
2.09518445508307,337.450782388062,340.16614019895,2.71535781088807,-338.808461293506,167.367712288587,171.440749004919
2.09800056322163,338.679781785083,341.47203745152,2.79225566643737,-340.075909618301,167.943763059323,172.132146558979
2.10081667136018,338.496134513125,342.695294661114,4.19916014798866,-340.59571458712,167.148487182568,173.447227404551
2.10363277949873,337.551632056866,344.128393760563,6.576761703697,-340.840012908714,165.487435176584,175.35257773213
2.10644888763729,337.942917653779,344.363863600453,6.42094594667356,-341.153390627116,165.760985853553,175.392404773563
2.10926499577584,339.8494322873,345.346188436003,5.49675614870262,-342.597810361652,167.176338069299,175.421472292353
2.11208110391439,342.59167120891,346.063132115154,3.47146090624369,-344.327401662032,169.560105151333,174.767296510699
2.11489721205294,344.322921039539,346.856545217691,2.53362417815237,-345.589733128615,170.894648430693,174.695084697922
2.1177133201915,344.505838126635,346.895300418255,2.38946229161962,-345.700569272445,171.058187917508,174.642381354937
2.12052942833005,343.018401755165,347.463898084387,4.44549632922195,-345.241149919776,169.286452712971,175.954697206804
2.1233455364686,342.473117982954,348.149041770829,5.67592378787486,-345.311079876892,168.39859709754,176.912482779352
2.12616164460715,343.155770856526,349.189402058098,6.03363120157195,-346.172586457312,168.561069827477,177.611516629835
2.12897775274571,345.004781875108,349.408390127433,4.40360825232472,-347.206586001271,170.300586811392,176.905999189879
2.13179386088426,347.164739716817,349.838373421383,2.67363370456667,-348.5015565691,172.245553006125,176.256003562975
2.13460996902281,347.930702894592,350.962662693087,3.03195979849517,-349.446682793839,172.449371548048,176.997311245791
2.13742607716136,347.138955302467,351.783218234099,4.64426293163137,-349.461086768283,171.247346185418,178.213740582865
2.14024218529992,345.750634604975,352.111939386649,6.36130478167399,-348.931286995812,169.694664911651,179.236622084162
2.14305829343847,345.547846003595,352.351854477864,6.8040084742691,-348.94985024073,169.371918764663,179.577931476067
2.14587440157702,346.750623061933,352.256798804995,5.50617574306131,-349.503710933464,170.622223659436,178.881487274028
2.14869050971557,348.168774850208,351.917266800752,3.74849195054469,-350.04302082548,172.210141449831,177.832879375649
2.15150661785413,348.933647911631,352.209773900329,3.27612598869752,-350.57171090598,172.828760961467,177.742949944513
2.15432272599268,348.411260916731,352.423258389938,4.01199747320663,-350.417259653335,172.199631721762,178.217627931572
2.15713883413123,345.868750318532,352.038756294798,6.17000597626628,-348.953753306665,169.849372171133,179.104381135532
2.15995494226978,345.634052023415,352.568598464752,6.9345464413376,-349.101325244084,169.349752791039,179.751572453045
2.16277105040834,347.624008625613,353.765769116797,6.14176049118447,-350.694888871205,170.741124067214,179.953764803991
2.16558715854689,350.967459573473,356.530610163623,5.56315059014969,-353.749034868548,172.702154491662,181.046880376886
2.16840326668544,353.677812690553,358.818668438683,5.14085574812992,-356.248240564618,174.268478471211,181.979762093406
2.17121937482399,355.115634652944,360.488593557611,5.3729589046664,-357.802114105278,174.871337874139,182.930776231139
2.17403548296255,354.273926597529,361.7073780323,7.43345143477109,-357.990652314914,173.420237581379,184.570414733536
2.1768515911011,353.119298778123,362.056587886476,8.9372891083529,-357.587943332299,172.091004834885,185.496938497414
2.17966769923965,353.087069472144,361.500987893685,8.41391842154013,-357.294028682914,172.336575525302,184.957453157612
2.1824838073782,354.68448438461,361.905955325876,7.22147094126643,-358.295219855243,173.731506721672,184.563713133571
2.18529991551676,356.39066015928,362.741830714399,6.35117055511927,-359.56624543684,175.01974480208,184.546500634759
2.18811602365531,357.635901949878,363.892201598105,6.25629964822735,-360.764051773992,175.689801150825,185.074250623166
2.19093213179386,357.193952876105,364.731792641622,7.53783976551648,-360.962872758864,174.828056555294,186.134816203569
2.19374823993241,356.3310866662,365.074406737429,8.74332007122882,-360.702746701815,173.793883297486,186.908863404329
2.19656434807097,356.781953970402,366.405086354466,9.62313238406409,-361.593520162434,173.579410793169,188.014109369265
2.19938045620952,359.272266366616,368.186743242564,8.91447687594751,-363.72950480459,175.178894745334,188.550610059256
2.20219656434807,361.900274035108,369.216918243047,7.31664420793908,-365.558596139077,177.291814913584,188.266781225493
2.20501267248662,363.81830910711,370.779253703449,6.96094459633952,-367.29878140528,178.428682255385,188.870099149894
2.20782878062518,364.677862666079,371.919514534197,7.24165186811723,-368.298688600138,178.718105398981,189.580583201157
2.21064488876373,363.684265220427,371.941258182749,8.25699296232159,-367.812761701588,177.713636129053,190.099125572535
2.21346099690228,362.688938084946,371.686971437704,8.99803335275806,-367.187954761325,176.845452366094,190.342502395231
2.21627710504083,363.58344202919,372.311850472045,8.72840844285537,-367.947646250617,177.427516793167,190.52012945745
2.21909321317939,365.58707123571,372.227602129847,6.6405308941367,-368.907336682779,179.473270170787,189.434066511992
2.22190932131794,367.049407565802,372.976582636248,5.92717507044665,-370.012995101025,180.561116247678,189.451878853348
2.22472542945649,368.386840864345,374.063533830018,5.676692965673,-371.225187347182,181.355073949336,189.870113397846
2.22754153759504,368.282333401837,375.667307042405,7.38497364056809,-371.974820222121,180.448679880634,191.526140341486
2.2303576457336,366.855278220153,375.487029899673,8.63175167951999,-371.171154059913,179.111763270317,192.059390789597
2.23317375387215,366.354063284229,374.815143323166,8.46108003893733,-370.584603303697,178.946491622646,191.638111681052
2.2359898620107,366.52856710047,373.514302443361,6.98573534289022,-370.021434771915,179.77141587879,190.250018893125
2.23880597014925,366.655927626759,371.754423172276,5.09849554551715,-369.205175399517,180.778716040621,188.426459358897
2.24162207828781,366.478724703852,370.199830006548,3.72110530269583,-368.3392773552,181.378809700578,186.960467654622
2.24443818642636,364.998613191972,369.605532265217,4.60691907324554,-367.302072728594,180.195847059363,187.106225669231
2.24725429456491,363.378050575545,368.901631538537,5.52358096299145,-366.139841057041,178.927234806277,187.212606250764
2.25007040270346,363.005761652288,369.198362601325,6.19260094903649,-366.102062126807,178.406580351626,187.695481775181
2.25288651084202,364.084829953619,369.955242347989,5.87041239437025,-367.020036150804,179.107208779624,187.91282737118
2.25570261898057,365.412693674054,369.967333905708,4.5546402316545,-367.690013789881,180.4290267212,187.260987068681
2.25851872711912,365.841514338151,369.165690218384,3.32417588023253,-367.503602278268,181.258669228959,186.244933049308
2.26133483525767,364.803705376706,368.310459341026,3.50675396432041,-366.557082358866,180.648475706193,185.908606652673
2.26415094339623,361.074548622343,365.525024702798,4.45047608045525,-363.29978666257,178.312036270944,184.987750391627
2.26696705153478,357.812534306471,364.302561170465,6.49002686399382,-361.057547738468,175.661253721238,185.396294017229
2.26978315967333,357.052710692476,362.870041331434,5.81733063895859,-359.961376011955,175.617690026758,184.343685985196
2.27259926781188,357.848939207086,362.36483804929,4.51589884220431,-360.106888628188,176.666520182441,183.440368445747
2.27541537595044,358.430061642405,361.455806148333,3.02574450592721,-359.942933895369,177.702158568239,182.24077532713
2.27823148408899,357.773565394479,359.171417590978,1.39785219649957,-358.472491492728,178.187856598989,180.284634893739
2.28104759222754,354.592863567283,356.693702157107,2.10083858982335,-355.643282862195,176.24601248873,179.397270373465
2.28386370036609,350.380354613715,354.345044515202,3.96468990148765,-352.362699564458,173.207832356113,179.154867208345
2.28667980850465,348.116349757132,353.441359960433,5.32501020330074,-350.778854858783,171.395669776916,179.383185081867
2.2894959166432,348.084917147493,352.241498977964,4.15658183047077,-350.163208062729,171.964167658511,178.199040404217
2.29231202478175,348.602288676347,350.825475469548,2.22318679320136,-349.713882072948,173.189550941573,176.524331131375
2.2951281329203,348.439576649092,349.521843296216,1.08226664712373,-348.980709972654,173.678655000984,175.30205497167
2.29794424105886,346.429728803644,347.75992681689,1.33019801324502,-347.094827810267,172.5497653952,174.545062415067
2.30076034919741,343.341916567332,345.933690595509,2.59177402817744,-344.63780358142,170.375071269577,174.262732311843
2.30357645733596,340.81813977588,345.411292069295,4.59315229341416,-343.114715922587,168.112493741233,175.002222181354
2.30639256547451,340.597114233247,345.030022750009,4.43290851676238,-342.813568491628,168.082102858242,174.731465633386
2.30920867361307,340.976112537682,344.211443281982,3.23533074430031,-342.593777909832,168.870390896691,173.723387013141
2.31202478175162,340.44225346027,342.263227082795,1.820973622525,-341.352740271532,169.310639918872,172.04210035266
2.31484088989017,339.242151093269,340.841333591886,1.5991824986171,-340.041742342578,168.821484297326,171.220258045252
2.31765699802872,336.475170352495,339.263261036424,2.78809068392911,-337.869215694459,166.843539834283,171.025675860176
2.32047310616728,332.564613163868,337.030889737117,4.46627657324899,-334.797751450493,164.04916829531,170.748583155183
2.32328921430583,330.250829715371,334.320982564035,4.07015284866395,-332.285906139703,163.090338433354,169.19556770635
2.32610532244438,329.642754085899,333.423798494844,3.78104440894526,-331.533276290371,162.930854838477,168.602421451895
2.32892143058293,330.00942250063,332.768994275137,2.75957177450613,-331.389208387884,163.624925363062,167.764283024821
2.33173753872149,331.08750180104,333.37171433043,2.28421252938932,-332.229608065735,164.401644635826,167.827963429909
2.33455364686004,331.604175069683,335.432543089996,3.82836802031289,-333.518359079839,163.887903524685,169.630455555154
2.33736975499859,331.170797209678,337.476938582304,6.30614137262597,-334.323867895991,162.432327918526,171.891539977465
2.34018586313714,330.854499070642,338.158559297228,7.30406022658673,-334.506529183935,161.775219422027,172.731309761908
2.3430019712757,331.434119474284,338.926192153747,7.49207267946286,-335.180155814016,161.971023397411,173.209132416605
2.34581807941425,332.66762046097,338.405819378154,5.73819891718375,-335.536719919562,163.464710771893,172.072009147669
2.3486341875528,333.838039705625,338.566340964119,4.72830125849475,-336.202190334872,164.554869223565,171.647321111307
2.35145029569135,334.42210670897,338.683496646497,4.26138993752681,-336.552801677733,165.080358385722,171.472443292012
2.35426640382991,332.957290900111,339.039158205396,6.08186730528473,-335.998224552753,163.437711797413,172.56051275534
2.35708251196846,331.347891757519,338.488266949219,7.14037519169949,-334.918079353369,162.10375828291,172.814321070459
2.35989862010701,332.064375273782,338.356358599836,6.29198332605426,-335.210366936809,162.886195973864,172.324170962945
2.36271472824556,333.397764953037,338.260086110436,4.86232115739955,-335.828925531737,164.267721897819,171.561203633918
2.36553083638412,335.451555975082,337.919666020209,2.46811004512659,-336.685610997645,166.491722964978,170.193888032668
2.36834694452267,336.680346382764,338.751837379489,2.07149099672449,-337.716091881126,167.30442769302,170.411664188107
2.37116305266122,336.226390369364,339.359192476717,3.13280210735303,-337.792791423041,166.546794131006,171.245997292035
2.37397916079977,335.624917181029,340.342779245361,4.71786206433183,-337.983848213195,165.453527558349,172.530320654847
2.37679526893833,335.726248134541,340.79048772667,5.0642395921289,-338.258367930605,165.331004271206,172.927363659399
2.37961137707688,336.880828748992,341.657557404388,4.77672865539557,-339.26919307669,166.052050046798,173.217143029892
2.38242748521543,338.80411708583,342.560539034417,3.75642194858682,-340.682328060124,167.523847568622,173.158480491502
2.38524359335398,339.937660919379,342.409105932273,2.47144501289347,-341.173383425826,168.733107953243,172.440275472583
2.38805970149254,339.144033573636,342.298583423356,3.15454984971933,-340.721308498496,167.994741861959,172.726566636538
2.39087580963109,336.943872314027,341.677606833031,4.73373451900363,-339.310739573529,166.105068897512,173.205670676017
2.39369191776964,335.608254497693,340.954234714138,5.34598021644507,-338.281244605915,165.131137140624,173.150107465291
2.39650802590819,336.254399402357,340.966598490401,4.71219908804443,-338.610498946379,165.771100157156,172.839398789223
2.39932413404675,338.076765306615,341.78609075132,3.70932544470497,-339.931428028968,167.183719930955,172.747708098013
2.4021402421853,339.947120165278,342.654348299243,2.70722813396441,-341.300734232261,168.619946015657,172.680788216604
2.40495635032385,341.312187040469,344.638821736448,3.3266346959785,-342.975504388459,168.992776172245,173.982728216213
2.4077724584624,340.957691560349,346.087177347298,5.12948578694863,-343.522434453823,167.9141028867,175.608331567123
2.41058856660096,340.15865281252,346.333782057262,6.17512924474198,-343.246217434891,166.991761783889,176.254455651002
2.41340467473951,340.385947981559,346.783921184825,6.39797320326619,-343.584934583192,166.993987389146,176.590947194046
2.41622078287806,341.092150372496,346.031827583383,4.93967721088717,-343.56198897794,168.076236580805,175.485752397135
2.41903689101661,341.06725537694,343.86197946905,2.7947240921103,-342.464617422995,169.136265642415,173.32835178058
2.42185299915517,340.778929707206,343.088797937237,2.30986823003104,-341.933863822222,169.234530738588,172.699333083634
2.42466910729372,340.838653220065,344.955902105993,4.11724888592795,-342.897277663029,168.360702167068,174.53657549596
2.42748521543227,340.071773419315,346.048440273476,5.97666685416101,-343.060106846395,167.047553282577,176.012553563818
2.43030132357082,340.05238338424,347.38613489205,7.33375150781012,-343.719259138145,166.359315938215,177.35994319993
2.43311743170938,341.659168958818,347.822130576085,6.16296161726711,-344.740649767452,167.748103670776,176.992546096676
2.43593353984793,343.642340064894,347.600026893986,3.95768682909261,-345.62118347944,169.842326617901,175.778856861539
2.43874964798648,344.819588965587,347.708082113158,2.88849314757067,-346.263835539372,170.965547909008,175.298287630364
2.44156575612504,345.138484339095,348.057101755516,2.91861741642072,-346.597793047306,171.109933461337,175.487859585968
2.44438186426359,343.750290875284,349.122300209041,5.3720093337576,-346.436295542162,169.189140770763,177.247154771399
2.44719797240214,342.737126499,349.359416259727,6.62228976072697,-346.048271379364,168.057418369137,177.990853010227
2.45001408054069,342.808143408232,349.532473936386,6.7243305281541,-346.170308672309,168.041906440039,178.12840223227
2.45283018867925,343.940599505773,348.848310371068,4.90771086529514,-346.394454938421,169.516444320239,176.878010618182
2.4556462968178,344.767115553892,349.429602690344,4.66248713645228,-347.098359122118,170.05231420872,177.046044913398
2.45846240495635,345.640499369271,350.124011490526,4.48351212125465,-347.882255429898,170.578493624008,177.30376180589
2.4612785130949,345.197308274091,350.900977651632,5.70366937754068,-348.049142962861,169.746819448275,178.302323514586
2.46409462123346,344.063379370705,351.197885366029,7.1345059953241,-347.630632368367,168.46443668769,179.166195680677
2.46691072937201,344.046257040005,351.41458161703,7.36832457702496,-347.730419328517,168.33896623149,179.391453097027
2.46972683751056,345.114385260791,351.302579817861,6.18819455707012,-348.208482539326,169.46309535186,178.745387187466
2.47254294564911,346.4342644314,351.220836000479,4.786571569079,-348.82755021594,170.823846431161,178.003703784779
2.47535905378767,347.127413833277,351.431331995016,4.30391816173903,-349.279372914147,171.411747835769,177.867625078378
2.47817516192622,346.552679770996,351.044648765312,4.49196899431627,-348.798664268154,171.03035538834,177.768308879814
2.48099127006477,343.161495355226,348.871336929037,5.70984157381167,-346.016416142132,168.725826890707,177.290589251425
2.48380737820332,340.146148051235,346.20453393818,6.05838588694496,-343.175340994708,167.043881082145,176.131459912562
2.48662348634188,340.106665247341,345.608965400499,5.50230015315788,-342.85781532392,167.302182547092,175.555632776828
2.48943959448043,341.698786239411,346.795230674097,5.09644443468659,-344.247008456754,168.301170902362,175.945837554392
2.49225570261898,343.671254491037,349.011800074464,5.34054558342723,-346.34152728275,169.165354453805,177.176172828946
2.49507181075753,345.110848191766,350.089237058534,4.97838886676726,-347.60004262515,170.066229662499,177.53381296265
2.49788791889609,344.810745652314,351.145753960328,6.33500830801387,-347.978249806321,169.23786867215,178.740381134171
2.50070402703464,342.970780406864,350.295908986926,7.32512858006186,-346.633344696895,167.822825913401,178.810518783494
2.50352013517319,342.708518049586,348.865186276601,6.15666822701456,-345.786852163093,168.275924911286,177.510927251808
2.50633624331174,343.597732344754,348.091138405808,4.4934060610538,-345.844435375281,169.55216314185,176.292272233431
2.5091523514503,344.246719874397,347.526204375595,3.2794845011984,-345.886462124996,170.483617686599,175.402844438397
2.51196845958885,344.72037939148,347.654203206686,2.93382381520615,-346.187291299083,170.893277788137,175.294013510946
2.5147845677274,343.715295788352,346.93715372283,3.22185793447784,-345.326224755591,170.246718926937,175.079505828654
2.51760067586595,342.171273128445,346.683975823129,4.51270269468381,-344.427624475787,168.829285216881,175.598339258906
2.52041678400451,341.044377781382,346.229039293869,5.18466151248657,-343.636708537626,167.929858134448,175.706850403178
2.52323289214306,341.572701271816,346.167162905868,4.59446163405141,-343.869932088842,168.489119818882,175.380812269959
2.52604900028161,343.30907594879,346.932471444068,3.62339549527815,-345.120773696429,169.842840226756,175.277933469673
2.52886510842016,344.576358220642,347.761183338547,3.18482511790432,-346.168770779594,170.695766551369,175.473004228225
2.53168121655872,344.690807678944,348.095857355008,3.40504967606421,-346.393332516976,170.64287900144,175.750453515536
2.53449732469727,342.613088210167,347.259492259484,4.64640404931708,-344.936290234826,168.983342080425,175.952948154401
2.53731343283582,340.826521350535,346.378920178037,5.55239882750169,-343.602720764286,167.637061261517,175.965659502769
2.54012954097437,340.873387685315,346.006396326265,5.13300864094987,-343.43989200579,167.870189522183,175.569702483608
2.54294564911293,341.988217636113,346.274824530863,4.2866068947497,-344.131521083488,168.850805370682,175.280715712806
2.54576175725148,343.072025562395,345.660266552932,2.58824099053794,-344.366146057664,170.241892285928,174.124253771735
2.54857786539003,343.322723621172,345.211735230295,1.88901160912326,-344.267229425733,170.716856006024,173.550373419709
2.55139397352858,341.614600558965,344.344065006944,2.72946444797918,-342.979332782954,169.442568055493,173.536764727462
2.55421008166714,338.476844069552,342.6301764368,4.15333236724791,-340.553510253176,167.161755851152,173.391754402024
2.55702618980569,336.186771987096,340.568836874722,4.38206488762654,-338.377804430909,165.902353549735,172.475450881174
2.55984229794424,336.40647058645,340.685318271346,4.27884768489616,-338.545894428898,166.063811450777,172.482082978121
2.56265840608279,338.45790972755,342.661424978206,4.20351525065547,-340.559667352878,167.127197238447,173.432470114431
2.56547451422135,340.495452265149,344.373830394758,3.87837812960868,-342.434641329954,168.30853706777,174.126104262183
2.5682906223599,342.252696241135,345.893775062658,3.64107882152268,-344.073235651896,169.305808709806,174.76742694209
2.57110673049845,341.914272570004,347.543409660566,5.6291370905621,-344.728841115285,168.142567739721,176.586273375564
2.573922838637,341.667276155874,348.47722901266,6.80995285678608,-345.072252584267,167.428661649544,177.643590934723
2.57673894677556,343.10794462856,349.158771266019,6.0508266374589,-346.13335794729,168.528558995551,177.604798951739
2.57955505491411,344.159407564103,349.386034434109,5.22662687000587,-346.772720999106,169.466390347049,177.306330652057
2.58237116305266,345.196967467928,349.011588621867,3.81462115393856,-347.104278044897,170.691173156995,176.413104887903
2.58518727119121,344.873599271059,348.468145459939,3.59454618888003,-346.670872365499,170.639526541089,176.031345824409
2.58800337932977,342.476341306323,346.990891996519,4.51455069019602,-344.733616651421,168.980895308063,175.752721343357
2.59081948746832,339.916248836604,346.182883944622,6.26663510801825,-343.049566390613,166.824806864293,176.22475952632
2.59363559560687,338.588093674289,344.242383227829,5.65428955354076,-341.415238451059,166.466902060374,174.948336390685
2.59645170374542,339.239685150632,343.636589469434,4.3969043188024,-341.438137310033,167.421390415915,174.016746894118
2.59926781188398,339.98540135391,342.924298446111,2.93889709220105,-341.454849900011,168.523252130855,172.931597769156
2.60208392002253,340.799813904451,343.485062114886,2.68524821043474,-342.142438009669,169.057282847008,173.08515516266
2.60490002816108,340.583739209822,344.974956842636,4.39121763281332,-342.779348026229,168.096260788505,174.683087237725
2.60771613629963,339.615569800561,346.332503466521,6.71693366595986,-342.974036633541,166.449318067301,176.52471856624
2.61053224443819,339.179113583227,347.053144225186,7.87403064195911,-343.116128904207,165.652541470634,177.463587433573
2.61334835257674,339.671037359831,346.768630770755,7.09759341092445,-343.219834065293,166.286721974453,176.93311209084
2.61616446071529,340.030064872418,344.94004312217,4.90997824975233,-342.485053997294,167.560043311333,174.925010685961
2.61898056885384,339.21147402476,342.524834938316,3.31336091355547,-340.868154481538,167.949056555602,172.919097925936
2.6217966769924,337.803561943964,341.302422672036,3.49886072807232,-339.552992308,167.152350607946,172.400641700054
2.62461278513095,336.23569363382,342.571502367933,6.33580873411285,-339.403598000876,164.949942449854,174.453655551023
2.6274288932695,336.712331958288,345.658981995596,8.9466500373079,-341.185656976942,163.88284096049,177.302816016452
2.63024500140805,339.761765597302,349.80345330592,10.0416877086188,-344.782609451611,164.860038944341,179.92257050727
2.63306110954661,344.148625491018,353.638738582452,9.4901130914335,-348.893682036735,167.329256199792,181.564425836943
2.63587721768516,347.620504145709,355.357272869742,7.73676872403325,-351.488888507725,169.941867710838,181.547020796888
2.63869332582371,350.15443321497,357.151846867749,6.99741365277964,-353.65314004136,171.578509781095,182.074630260265
2.64150943396226,350.382868334498,357.921293128789,7.53842479429056,-354.152080731643,171.422221770104,182.72985896154
2.64432554210082,348.928653016246,357.942556278963,9.01390326271706,-353.435604647605,169.957374876765,183.47822977084
2.64714165023937,347.867302999619,356.337137785805,8.46983478618546,-352.102220392712,169.698734106717,182.403486285995
2.64995775837792,348.983776766055,356.516214130584,7.53243736452913,-352.74999544832,170.725669700763,182.024325747557
2.65277386651647,351.689721692199,357.457380524038,5.76765883183919,-354.573551108118,172.96103143018,181.612519677938
2.65558997465503,353.934794999433,358.414441181766,4.47964618233311,-356.1746180906,174.72757440855,181.44704368205
2.65840608279358,354.762879170996,359.653258381415,4.89037921041859,-357.208068776206,174.936249980289,182.271818795917
2.66122219093213,354.016470200301,361.36787005482,7.35139985451906,-357.69217012756,173.332535172891,184.35963495467
2.66403829907068,354.822489308994,362.889424945579,8.0669356365849,-358.855957127286,173.377776836204,185.478180291082
2.66685440720924,356.761538407944,365.350703390253,8.58916498230917,-361.056120899099,174.086186712818,186.969934186281
2.66967051534779,359.527522407047,367.147052173954,7.61952976690617,-363.3372872905,175.953996320071,187.38329097043
2.67248662348634,361.546258646855,368.187949963177,6.64169131632212,-364.867104305016,177.452283665267,187.41482063975
2.67530273162489,362.209152115734,368.407330324976,6.19817820924197,-365.308241220355,178.005486953246,187.302754267109
2.67811883976345,359.991398677469,367.216662659913,7.22526398244423,-363.604030668691,176.383067347512,187.220963321179
2.680934947902,355.941379200106,363.916255353997,7.97487615389088,-359.928817277052,173.983251523108,185.945565753944
2.68375105604055,352.985497642754,358.805911464765,5.82041382201021,-355.89570455376,173.582541910372,182.313162643387
2.6865671641791,352.178946909036,356.697095993238,4.51814908420221,-354.438021451137,173.830398912417,180.60762253872
2.68938327231766,352.94107192558,356.508771180394,3.56769925481444,-354.724921552987,174.686686335383,180.038235217604
2.69219938045621,353.767460346553,357.181792121204,3.41433177465137,-355.474626233879,175.176564285951,180.298061947928
2.69501548859476,353.019813742823,357.402836062263,4.38302231944004,-355.211324902543,174.318395711692,180.892929190852
2.69783159673331,351.123367454018,357.564163609549,6.44079615553096,-354.343765531783,172.341285649243,182.00247988254
2.70064770487187,350.009414122485,357.141595094045,7.13218097156005,-353.575504608265,171.438616575463,182.136888032803
2.70346381301042,350.54718326256,356.292873664204,5.74569040164363,-353.420028463382,172.400746430458,181.019282032924
2.70627992114897,350.399358305147,354.592814753295,4.19345644814831,-352.496086529221,173.102950928499,179.393135600722
2.70909602928752,349.751156754506,352.811724893974,3.06056813946782,-351.28144082424,173.345294307519,177.936146516721
2.71191213742608,348.197446031829,350.971495100306,2.77404906847744,-349.584470566067,172.711698481676,176.872772084392
2.71472824556463,344.361917793618,348.817946181054,4.45602838743628,-346.589931987336,169.952944703091,176.636987284245
2.71754435370318,341.022268911025,346.976035668036,5.95376675701044,-343.99915228953,167.534251077007,176.464901212523
2.72036046184173,339.39531555515,344.551103874334,5.15578831918413,-341.973209714742,167.119763617983,174.853446096759
2.72317656998029,338.478049966662,342.511126256195,4.03307628953291,-340.494588111429,167.222486838565,173.272101272864
2.72599267811884,338.078745586712,341.022261263675,2.94351567696333,-339.550503425193,167.567614954874,171.982888470319
2.72880878625739,338.327628189176,340.205778609394,1.8781504202185,-339.266703399285,168.224738884479,171.041964514806
2.73162489439594,336.618180127456,339.609873816053,2.99169368859697,-338.114026971754,166.813243219429,171.300783752325
2.7344410025345,334.289925230995,339.174956404317,4.88503117332175,-336.732440817656,164.702447028837,172.029993788819
2.73725711067305,333.130975281377,338.857534633012,5.72655935163539,-335.994254957194,163.702207964871,172.292046992324
2.7400732188116,333.906060131126,337.545241477522,3.63918134639619,-335.725650804324,165.133439392365,170.592211411959
2.74288932695015,334.74190720586,337.3979411054,2.65603389953986,-336.06992415563,166.04293665316,170.02698750247
2.74570543508871,335.622101213051,338.100903479432,2.4788022663808,-336.861502346241,166.571649473335,170.289852872906
2.74852154322726,335.183880494061,338.343799989535,3.15991949547475,-336.763840241798,166.011980499293,170.751859742505
2.75133765136581,333.243110553247,338.791232710464,5.54812215721762,-336.017171631855,163.847494198015,172.169677433841
2.75415375950436,332.366964091501,338.847632490568,6.48066839906738,-335.607298291034,162.943147846217,172.664150444818
2.75696986764292,332.808138886391,338.618639307857,5.81050042146563,-335.713389097124,163.498819232463,172.214569864661
2.75978597578147,333.670439993664,338.18135384406,4.51091385039553,-335.925896918862,164.579763071634,171.346133847228
2.76260208392002,335.38040994779,338.402516188412,3.02210624062172,-336.891463068101,166.179151853584,170.712311214517
2.76541819205857,335.81795226108,338.834086363477,3.01613410239668,-337.326019312278,166.400909079342,170.925110232937
2.76823430019713,334.246196317377,339.419221386761,5.17302506938438,-336.832708852069,164.536585623996,172.296123228073
2.77105040833568,333.099060005411,339.846278548721,6.74721854331051,-336.472669277066,163.17592073105,173.296748546016
2.77386651647423,333.612610753344,340.157963565554,6.5453528122095,-336.885287159449,163.533628970567,173.351658188882
2.77668262461279,335.068047424099,340.385444938942,5.31739751484287,-337.72674618152,164.875324954628,172.851421226892
2.77949873275134,337.481069896621,341.63209565371,4.15102575708886,-339.556582775166,166.665022069766,172.8915607054
2.78231484088989,338.431730723191,341.191174874492,2.75944415130044,-339.811452798842,167.836143285945,171.975309512896
2.78513094902844,336.153846291492,339.788746735236,3.63490044374362,-337.971296513364,166.259472923874,171.71182358949
2.787947057167,332.870409217712,337.684568422017,4.81415920430442,-335.277488819865,164.028125006704,171.249363813161
2.79076316530555,330.744169277576,335.608534527256,4.8643652496807,-333.176351902416,162.939902013947,170.236449888469
2.7935792734441,330.543127324555,334.903822720836,4.36069539628187,-332.723475022695,163.091215964136,169.632259058559
2.79639538158265,332.28749158709,334.929805610243,2.64231402315295,-333.608648598667,164.822588781969,168.786059816698
2.79921148972121,335.451698491437,338.460799815006,3.00910132356921,-336.956249153221,166.221298583934,170.734950569288
2.80202759785976,340.462637363643,345.360373391216,4.89773602757225,-342.911505377429,167.782450668036,175.129054709394
2.80484370599831,346.821402090931,356.069264755851,9.24786266492055,-351.445333423391,168.786769713005,182.658563710386
2.80765981413686,357.405743688487,371.449456528478,14.0437128399908,-364.427600108482,171.681015424248,192.746584684234
2.81047592227541,374.5861270704,391.859905157588,17.2737780871884,-383.223016113994,178.656174491606,204.566841622388
2.81329203041397,396.310434362988,416.752124141708,20.4416897787198,-406.531279252348,187.934372292134,218.596906960214
2.81610813855252,420.810783871768,443.834710531763,23.0239266599949,-432.322747201765,198.893428605887,233.429318595879
2.81892424669107,444.365492217029,469.003892212427,24.6383999953978,-456.684692214728,209.863546110816,246.821146103912
