t,leadI,leadII,leadIII,aVR,aVL,aVF
0,389,408,19,-398.5,185,213.5
0.00279485746226942,373,370,-3,-371.5,188,183.5
0.00558971492453885,349.21326688567,333.235680288735,-15.9775865969357,-341.224473587203,182.595426741303,158.6290468459
0.00838457238680827,330.12060106655,304.117444792928,-26.0031562736219,-317.119022929739,178.061878670086,139.057144259653
0.0111794298490777,315.429830725552,293.290672319861,-22.1391584056913,-304.360251522707,168.784494565622,135.575756957085
0.0139742873113471,293.895527632656,286.926222782932,-6.96930484972444,-290.410875207794,150.43241624119,139.978458966604
0.0167691447736165,285.964775570694,285.961093302118,-0.00368226857557374,-285.962934436406,142.984228919635,142.978705516771
0.019564002235886,293.092406525712,292.007779614821,-1.08462691089068,-292.550093070266,147.088516718301,145.461576351965
0.0223588596981554,298.958861328624,297.886941309717,-1.07192001890735,-298.422901319171,150.015390673766,148.407510645405
0.0251537171604248,310.35519730344,303.359640319917,-6.99555698352287,-306.857418811678,158.675377143481,148.182041668197
0.0279485746226942,316.336337811622,315.408735267804,-0.927602543817898,-315.872536539713,158.63197017772,157.240566361993
0.0307434320849637,304.582678575118,312.65647821945,8.07379964433198,-308.619578397284,148.254439465393,160.365138931891
0.0335382895472331,295.954146715322,304.952433836779,8.99828712145757,-300.453290276051,143.477929796932,156.975360479118
0.0363331470095025,294.255823077166,301.229460694969,6.97363761780372,-297.742641886068,143.641092729681,154.101549156387
0.0391280044717719,297.151103518332,300.075702817762,2.92459929943016,-298.613403168047,147.113252109451,151.500151058596
0.0419228619340414,306.570316041597,302.581515996652,-3.98880004494492,-304.575916019125,155.279558043271,149.296357975854
0.0447177193963108,312.128837377411,311.238369392965,-0.890467984446104,-311.683603385188,156.509652680928,155.173950704259
0.0475125768585802,308.23257615904,312.335866974529,4.10329081548872,-310.284221566784,152.064642671776,158.219578895009
0.0503074343208496,299.967140634854,309.956150644791,9.98901000993658,-304.961645639823,144.989065312459,159.972580327364
0.0531022917831191,295.419088680043,305.320967909142,9.90187922909945,-300.370028294593,142.758604725472,157.611423569121
0.0558971492453885,298.33748959257,302.180356264664,3.84286667209392,-300.258922928617,147.247311460238,153.011611468379
0.0586920067076579,307.771258830414,306.802031821106,-0.969227009308099,-307.28664532576,154.370242919861,152.916402405899
0.0614868641699273,313.924032762953,310.137073756222,-3.78695900673159,-312.030553259587,158.855495884842,153.175057374745
0.0642817216321968,306.873454089205,305.08067274536,-1.79278134384577,-305.977063417282,154.333117716526,151.643945700757
0.0670765790944662,296.00134570417,303.958439471117,7.95709376694657,-299.979892587644,144.022125968612,155.957766619032
0.0698714365567356,291.582200574868,300.310119213232,8.7279186383646,-295.94615989405,141.427140968252,154.519018925798
0.072666294019005,293.554830606873,298.267696889418,4.71286628254529,-295.911263748146,144.420982162164,151.490281585982
0.0754611514812745,304.940157390593,310.010891734984,5.07073434439059,-307.475524562789,149.934711523101,157.540813039687
0.0782560089435439,316.621343160579,316.998147948362,0.376804787783044,-316.80974555447,158.122269186398,158.687476368072
0.0810508664058133,314.460406464278,313.761093970073,-0.699312494205685,-314.110750217176,157.579859479242,156.530890737934
0.0838457238680827,309.087882647792,314.010729078893,4.92284643110082,-311.549305863342,152.082518108346,159.466787754997
0.0866405813303521,301.871502988227,313.481545792959,11.6100428047326,-307.676524390593,145.130730091747,162.545794298846
0.0894354387926216,297.765845939815,309.377173487517,11.6113275477022,-303.571509713666,143.077259196056,160.49425051761
0.092230296254891,310.100158453834,311.228372419061,1.12821396522622,-310.664265436448,154.485972244304,156.178293192143
0.0950251537171604,317.352679595617,318.930380889065,1.57770129344868,-318.141530242341,157.887489151084,160.254041091257
0.0978200111794298,316.124565463971,315.557076951069,-0.567488512901491,-315.84082120752,158.346026988436,157.494794219084
0.100614868641699,316.179150235488,316.042530327501,-0.136619907986528,-316.110840281495,158.157885071737,157.952955209757
0.103409726103969,309.051310257612,314.480962457193,5.42965219958114,-311.766136357403,151.810829029015,159.955307328387
0.106204583566238,300.905909476922,310.441015888897,9.53510641197516,-305.67346268291,145.685401532474,159.988061150436
0.108999441028508,311.261289902633,312.438970425685,1.17768052305189,-311.850130164159,155.041804689791,156.808325474369
0.111794298490777,317.15109778193,318.838171004136,1.68707322220519,-317.994634393033,157.732012279863,160.26262211317
0.114589155953046,318.876671077312,319.367629749614,0.490958672302327,-319.122150413463,159.192856202505,159.929294210958
0.117384013415316,320.26910275656,321.084132602479,0.815029845918957,-320.67661767952,159.727036455321,160.949581224199
0.120178870877585,314.147122765257,320.47359324375,6.32647047849355,-317.310358004504,153.910326143382,163.400031861122
0.122973728339855,306.997694292632,318.474804987227,11.4771106945947,-312.736249639929,147.760291799019,164.975957840911
0.125768585802124,313.433770860303,323.672427446396,10.2386565860932,-318.553099153349,151.597557137105,166.955542016245
0.128563443264394,323.016561521306,326.801858281469,3.78529676016336,-324.909209901387,159.615632380571,165.293577520816
0.131358300726663,322.661192334668,321.182425430538,-1.4787669041296,-321.921808882603,162.069979619399,159.851829263204
0.134153158188932,322.368296408082,320.131289773605,-2.2370066344771,-321.249793090844,162.30265152128,158.947141569564
0.136948015651202,318.225310999044,319.469586132181,1.24427513313753,-318.847448565613,158.490517932953,160.356930632659
0.139742873113471,308.087420662622,318.567001057924,10.4795803953024,-313.327210860273,148.80392013366,164.523290726613
0.142537730575741,311.589004030381,324.864454762599,13.2754507322174,-318.22672939649,149.156776649082,169.069952747408
0.14533258803801,320.852350554156,327.649198930376,6.79684837622062,-324.250774742266,157.027751088967,167.223023653298
0.148127445500279,324.499862204917,326.982854005276,2.48299180035912,-325.741358105097,161.008435202279,164.732922902818
0.150922302962549,330.454773285213,330.206583825274,-0.248189459938374,-330.330678555244,165.351481372576,164.979197182668
0.153717160424818,331.20570886382,333.488584441661,2.28287557784074,-332.34714665274,164.46141664299,167.885730009751
0.156512017887088,320.062773133237,330.587298087689,10.5245249544525,-325.325035610463,154.769124089392,170.555911521071
0.159306875349357,319.824619673264,334.117701532543,14.2930818592796,-326.971160602904,152.765768906992,174.205391695912
0.162101732811627,327.892950120682,335.649815338771,7.75686521808916,-331.771382729727,160.068042451296,171.70334027843
0.164896590273896,329.430241381171,333.856507226523,4.42626584535282,-331.643374303847,162.501987767909,169.141386535938
0.167691447736165,335.506238332653,334.257030824678,-1.24920750797503,-334.881634578665,168.377722920314,166.503911658351
0.170486305198435,339.078691869658,339.427622260083,0.348930390424471,-339.253157064871,169.364880739617,169.888276325254
0.173281162660704,332.018777356125,337.620328108221,5.60155075209536,-334.819552732173,163.208613302015,171.610939430158
0.176076020122974,332.086117101265,344.359961269398,12.2738441681335,-338.223039185332,159.906136466566,178.316902718766
0.178870877585243,332.951287412416,345.59279447086,12.6415070584432,-339.272040941638,160.154890176987,179.117150764651
0.181665735047513,336.392328932661,340.698058124719,4.30572919205787,-338.54519352869,166.043299870302,172.501893658388
0.184460592509782,341.540542785167,341.336638110111,-0.203904675055639,-341.438590447639,170.872223730111,170.566366717528
0.187255449972051,343.903346009156,344.411717818257,0.508371809101561,-344.157531913706,171.697487100027,172.460044813679
0.190050307434321,339.984517892106,341.699043556824,1.71452566471874,-340.841780724465,169.134996113693,171.706784610772
0.19284516489659,337.34992778184,347.568529589088,10.2186018072474,-342.459228685464,163.565662987296,178.893565698167
0.19564002235886,338.006722059436,352.470167913736,14.4634458543005,-345.238444986586,161.771638102568,183.466806884018
0.198434879821129,342.359590136059,353.537873873505,11.1782837374461,-347.948732004782,165.590653199306,182.358078805475
0.201229737283399,351.562795545437,355.447320906734,3.8845253612966,-353.505058226085,173.83913509207,179.665923134015
0.204024594745668,354.686931414537,353.41172244141,-1.27520897312644,-354.049326927974,177.981070193832,176.068256734142
0.206819452207937,355.917220275041,355.775207742905,-0.142012532135595,-355.846214008973,178.029616403588,177.816597605385
0.209614309670207,353.683143815754,362.804855175935,9.12171136018128,-358.243999495845,172.280716227786,185.963283268058
0.212409167132476,347.133298075061,360.352914456534,13.2196163814733,-353.743106265798,166.956840846794,186.786265419004
0.215204024594746,344.349128460269,356.39503450317,12.0459060429014,-350.372081481719,166.151611208684,184.220470273036
0.217998882057015,351.547604219166,354.535800626772,2.98819640760604,-353.041702422969,174.27970390578,178.761998517189
0.220793739519285,353.445328219895,353.4064277431,-0.0389004767943675,-353.425877981497,176.742114348344,176.683763633153
0.223588596981554,354.925622760286,350.906082421933,-4.01954033835261,-352.91585259111,179.472581549319,173.44327104179
0.226383454443823,353.934267334141,355.943296868876,2.00902953473582,-354.938782101509,175.962618899702,178.976163201806
0.229178311906093,347.126018136017,358.13413199532,11.008113859303,-352.630075065668,168.058952138357,184.571122927311
0.231973169368362,339.321255352497,350.271231514366,10.9499761618689,-344.796243433432,164.185639595314,180.610603838117
0.234768026830632,344.519952769933,348.600112207503,4.08015943757039,-346.560032488718,170.219896666181,176.340135822537
0.237562884292901,347.236207116919,346.370847299427,-0.865359817492333,-346.803527208173,174.050783467206,172.752743740967
0.24035774175517,343.99382167903,342.061712393413,-1.932109285617,-343.027767036222,172.962965482324,170.064801553898
0.24315259921744,348.116206033384,345.035186535818,-3.08101949756633,-346.575696284601,175.598612765475,170.977083519126
0.245947456679709,340.011387371682,343.875403049078,3.86401567739523,-341.94339521038,168.073685847144,173.869709363236
0.248742314141979,327.282222207559,339.202452679102,11.9202304715424,-333.242337443331,157.680995868008,175.561341575322
0.251537171604248,328.479778174871,333.605255938977,5.12547776410548,-331.042517056924,161.677150205383,169.365366851541
0.254332029066518,331.079156405346,328.279837318242,-2.79931908710336,-329.679496861794,166.939237746224,162.740259115569
0.257126886528787,330.143079008524,324.243683324794,-5.89939568373006,-327.193381166659,168.021237346127,159.172143820532
0.259921743991056,331.200106927566,324.056413731005,-7.14369319656134,-327.628260329286,169.171900062064,158.456360267222
0.262716601453326,322.797758594012,322.583814007462,-0.213944586549701,-322.690786300737,161.505851590281,161.184934710456
0.265511458915595,307.250265390063,314.160607131948,6.91034174188559,-310.705436261006,150.169961824089,160.535474436917
0.268306316377865,305.407371533204,312.547428677164,7.14005714395984,-308.977400105184,149.133657194622,159.843742910562
0.271101173840134,306.938505621441,308.137787636267,1.19928201482622,-307.538146628854,152.869611803307,154.668534825547
0.273896031302404,311.334110738318,305.41026429265,-5.92384644566869,-308.372187515484,158.628978591993,149.74320892349
0.276690888764673,313.201496729122,306.075135359336,-7.12636136978551,-309.638316044229,160.163929049454,149.474386994775
0.279485746226942,308.489911744845,304.321232757961,-4.16867898688412,-306.405572251403,156.329295365865,150.076276885538
0.282280603689212,293.174986199865,297.125308479945,3.95032228008046,-295.150147339905,144.612331959892,150.537815380013
0.285075461151481,288.415493075407,301.503285721254,13.0877926458469,-294.959389398331,137.66385021478,157.295539183551
0.287870318613751,291.930076089165,297.99333633555,6.06326024638469,-294.961706212358,142.93340792139,152.028298290967
0.29066517607602,297.535979759717,295.537395021655,-1.99858473806245,-296.536687390686,149.76728224889,146.769405141796
0.29346003353829,305.171384007013,301.164371437352,-4.00701256966113,-303.167877722183,154.589198288337,148.578679433845
0.296254891000559,303.118799481755,300.132491532981,-2.9863079487742,-301.625645507368,153.052553715264,148.573091792103
0.299049748462828,290.058068060547,297.073268817574,7.015200757027,-293.565668439061,141.52143365176,152.044234787301
0.301844605925098,284.545483660558,295.533466423904,10.9879827633467,-290.039475042231,136.778750448605,153.260724593625
0.304639463387367,285.04372865444,293.955985299143,8.91225664470272,-289.499856976792,138.065736004869,151.434120971923
0.307434320849637,291.744285349373,291.685482833473,-0.0588025159001404,-291.714884091423,145.901543932637,145.813340158786
0.310229178311906,298.111135738555,297.226926494476,-0.884209244078534,-297.669031116516,149.497672491317,148.171358625199
0.313024035774175,299.738742717365,296.917659662979,-2.82108305438561,-298.328201190172,151.279912885875,147.048288304297
0.315818893236445,290.954123675804,293.020143797184,2.06602012137995,-291.987133736494,144.444051777212,147.543081959282
0.318613750698714,285.710170964958,299.573760715153,13.8635897501946,-292.641965840055,135.923290607382,156.718675232674
0.321408608160984,286.166275118331,297.876715790462,11.7104406721305,-292.021495454397,137.2279172231,154.793578231296
0.324203465623253,292.92084025642,298.799308587058,5.87846833063793,-295.860074421739,143.521185962891,152.338888458848
0.326998323085523,302.088507436267,305.381470290838,3.29296285457104,-303.734988863553,149.397772290848,154.337216572705
0.329793180547792,304.380275826372,300.774739058855,-3.6055367675167,-302.577507442614,153.992906296944,148.584601145669
0.332588038010061,296.858292638671,295.980515960475,-0.877776678195687,-296.419404299573,148.868034658433,147.55136964114
0.335382895472331,288.93133420016,294.621948534032,5.69061433387213,-291.776641367096,141.620359933144,150.156281433952
0.3381777529346,280.339485143983,290.872224480548,10.5327393365648,-285.605854812266,134.903372903709,150.702481908556
0.34097261039687,284.121773380678,291.970486483857,7.84871310317908,-288.046129932268,138.13653013875,149.909599793518
0.343767467859139,295.939533638427,297.370247842882,1.4307142044546,-296.654890740654,147.254409716986,149.400481023668
0.346562325321409,298.947735285662,295.520374919308,-3.42736036635375,-297.234055102485,151.187547826008,146.046507276477
0.349357182783678,297.795157072885,294.945848143174,-2.84930892971084,-296.37050260803,150.322233001298,146.048269606732
0.352152040245947,295.137258830363,299.676918611178,4.53965978081527,-297.40708872077,145.298799524774,152.108289195997
0.354946897708217,286.452520492878,299.813484889442,13.3609643965642,-293.13300269116,136.545778048157,156.587224643003
0.357741755170486,287.267124432356,299.09116069483,11.8240362624741,-293.179142563593,137.721544084941,155.457598478652
0.360536612632756,296.915668743621,300.522395347833,3.60672660421159,-298.719032045727,146.654471069705,152.064560976022
0.363331470095025,300.671046975734,297.427409860252,-3.24363711548165,-299.049228417993,151.957342045608,147.091886372385
0.366126327557295,299.776752661485,296.943842369975,-2.83291029151093,-298.36029751573,151.304831476498,147.055466039232
0.368921185019564,299.284615213839,295.659817509833,-3.62479770400626,-297.472216361836,151.454706458923,146.017509902913
0.371716042481833,289.491199096945,295.730870208468,6.23967111152308,-292.611034652707,141.625763992711,150.985270659996
0.374510899944103,287.399654871028,297.241349752282,9.84169488125394,-292.320502311655,138.778979994887,153.541522316768
0.377305757406372,293.903649682374,303.576963440123,9.67331375774921,-298.740306561249,142.115167962312,156.625138598936
0.380100614868642,300.460911932996,301.218959717465,0.758047784468658,-300.83993582523,149.851432074264,150.988503750967
0.382895472330911,302.792314922578,300.923849819191,-1.86846510338768,-301.858082370885,152.330390012983,149.527692357902
0.385690329793181,304.367182203154,304.743495541508,0.376313338353839,-304.555338872331,151.9954344324,152.559904439931
0.38848518725545,295.440020707117,302.688541494513,7.24852078739696,-299.064281100815,144.09574995986,154.968531140955
0.391280044717719,288.512885523477,301.385946628648,12.8730611051708,-294.949416076063,137.819912209153,157.12950386691
0.394074902179989,293.973846298634,303.677479330855,9.70363303222069,-298.825662814744,142.135106633207,156.690556181538
0.396869759642258,299.346113817672,304.10081941071,4.75470559303807,-301.723466614191,147.295704112317,154.427762501874
0.399664617104528,303.834554508005,301.931936002288,-1.90261850571653,-302.883245255146,152.868586506861,150.014658748286
0.402459474566797,305.356027411389,302.736346274571,-2.61968113681723,-304.04618684298,153.987854274103,150.058332568877
0.405254332029067,300.314447065825,302.623224483681,2.30877741785582,-301.468835774753,149.002834823985,152.466000950768
0.408049189491336,293.625614073178,306.54276837786,12.9171543046818,-300.084191225519,140.354229884248,159.729961341271
0.410844046953605,296.095956178814,308.735882924806,12.6399267459918,-302.41591955181,141.728014716411,160.687904835399
0.413638904415875,299.28490186287,304.908751303741,5.62384944087034,-302.096826583306,146.830526211,155.266300372306
0.416433761878144,301.885298595581,298.940981272381,-2.94431732319981,-300.413139933981,152.414807959391,147.998331974591
0.419228619340414,305.293625797876,298.769205921357,-6.52441987651821,-302.031415859616,155.909022837197,146.12239302242
0.422023476802683,299.154517714115,295.628401463678,-3.52611625043676,-297.391459588897,151.340316982276,146.051142606621
0.424818334264952,291.75132806841,297.713543654924,5.96221558651382,-294.732435861667,142.894556240948,151.837879620719
0.427613191727222,287.194636130288,301.658163794458,14.46352766417,-294.426399962373,136.365554233059,158.060845729314
0.430408049189491,291.285266813782,301.674106565092,10.3888397513099,-296.479686689437,140.448213531236,156.031473158201
0.433202906651761,298.943008701808,300.959865550688,2.01685684888014,-299.951437126248,148.463075926464,151.488361199784
0.43599776411403,305.102499366817,303.813913272783,-1.28858609403432,-304.4582063198,153.195542730426,151.262663589374
0.4387926215763,304.879408148689,303.586846634472,-1.29256151421748,-304.233127391581,153.085984831453,151.147142560127
0.441587479038569,300.881736226218,305.872194172488,4.99045794627051,-303.376965199353,147.945639139974,155.431326059379
0.444382336500838,295.460680991709,308.734987697033,13.2743067053237,-302.097834344371,141.093187143193,161.004647201178
0.447177193963108,291.336461527981,304.518157500321,13.1816959723398,-297.927309514151,139.077382777821,158.84992673633
0.449972051425377,297.989264099436,299.990239103571,2.00097500413523,-298.989751601503,147.99414454765,150.995607053853
0.452766908887647,301.907473167475,297.827704651217,-4.07976851625835,-299.867588909346,152.993620841867,146.873968067479
0.455561766349916,302.652529959287,299.603164197574,-3.04936576171292,-301.127847078431,152.8509478605,148.276899217931
0.458356623812186,302.036661970208,303.036931587734,1.00026961752644,-302.536796778971,150.518196176341,152.01860060263
0.461151481274455,298.624305519567,305.651052840543,7.02674732097563,-302.137679180055,145.798779099296,156.338900080759
0.463946338736724,290.317055827601,305.290755009886,14.9736991822851,-297.803905418743,137.671678322658,160.132227096086
0.466741196198994,294.02645731684,301.030918125713,7.00446080887315,-297.528687721276,143.510998253983,154.017689467293
0.469536053661263,301.758448302249,302.896882955901,1.13843465365204,-302.327665629075,150.310006824299,152.017658804777
0.472330911123533,302.475377310675,300.599369447759,-1.87600786291642,-301.537373379217,152.175692586796,149.361680792421
0.475125768585802,307.206647982979,302.198940612538,-5.00770737044019,-304.702794297758,156.107177676709,148.595616621049
0.477920626048072,304.75794352172,310.615057132767,5.85711361104734,-307.686500327243,149.450414955336,158.236085371907
0.480715483510341,295.248952532305,306.071683336451,10.8227308041452,-300.660317934378,142.21311086408,158.447207070298
0.48351034097261,295.064438409637,306.084627155871,11.020188746234,-300.574532782754,142.022124831702,158.552407951053
0.48630519843488,300.692858265322,306.95881193725,6.26595367192857,-303.825835101286,147.213452296697,156.612382804589
0.489100055897149,306.404512760163,303.601341438267,-2.80317132189577,-305.002927099215,154.60384204103,150.399085058186
0.491894913359419,312.383356476656,311.360831943921,-1.02252453273547,-311.872094210289,156.702940504696,155.169153705593
0.494689770821688,313.808653041908,318.571339138348,4.76268609644075,-316.189996090128,154.522983472733,161.667012617395
0.497484628283958,304.089670401397,314.842304847087,10.7526344456904,-309.465987624242,146.668517977853,162.797469646389
0.500279485746227,299.118753633413,313.15996289554,14.0412092621268,-306.139358264476,142.538772185643,163.600586078833
0.503074343208496,304.746494887715,310.092045159969,5.34555027225429,-307.419270023842,149.70047230773,157.718797716112
0.505869200670766,309.41553889016,309.678333840106,0.262794949945601,-309.546936365133,154.576371970107,154.970564395026
0.508664058133035,317.554201757606,315.51366362988,-2.04053812772537,-316.533932693743,159.797369942665,156.736562751077
0.511458915595305,321.752785727959,324.453936279659,2.7011505516993,-323.103361003809,159.52581758813,163.577543415679
0.514253773057574,314.859322118238,322.584335687578,7.72501356934021,-318.721828902908,153.567154274449,165.154674628459
0.517048630519844,309.200381885378,324.259126816121,15.0587449307428,-316.72975435075,147.070818477318,169.658935873432
0.519843487982113,315.887123597584,326.248200752911,10.3610771553268,-321.067662175248,152.763023221129,168.304638954119
0.522638345444382,318.45416685568,320.680574034528,2.22640717884809,-319.567370445104,158.113879838416,161.453490606688
0.525433202906652,321.7258038486,319.6812581386,-2.04454571000042,-320.7035309936,161.8851747793,158.8183562143
0.528228060368921,325.696805570712,319.442919629715,-6.25388594099644,-322.569862600214,165.975345755854,156.594516844359
0.531022917831191,316.677595097664,316.51542801478,-0.162167082884025,-316.596511556222,158.419881090274,158.176630465948
0.53381777529346,308.279097814908,322.317373341827,14.0382755269192,-315.298235578367,147.120411143994,168.177824434373
0.536612632755729,308.922701756319,323.09768522616,14.1749834698405,-316.010193491239,147.373859143239,168.636334348
0.539407490217999,312.539511133346,316.578154919566,4.03864378622046,-314.558833026456,154.250433673563,160.308399352893
0.542202347680268,318.861007635387,316.85680061987,-2.00420701551695,-317.858904127629,160.432607325452,157.426296802177
0.544997205142538,321.473102654143,318.456983427387,-3.01611922675659,-319.965043040765,162.24461094045,157.720432100315
0.547792062604807,316.44131223294,314.449979968622,-1.99133226431871,-315.445646100781,159.216322248629,156.229323852151
0.550586920067077,306.382618643399,314.376814492354,7.99419584895526,-310.379716567877,149.194211397222,161.185505170655
0.553381777529346,302.024492575855,315.982413012729,13.9579204368743,-309.003452794292,144.03328606949,164.970166724802
0.556176634991615,302.679457503476,309.550519738698,6.87106223522204,-306.114988621087,147.904197634127,158.21079098696
0.558971492453885,310.957017050328,310.011202472716,-0.945814577612623,-310.484109761522,155.95141581397,154.532693947552
0.561766349916154,315.151188590389,309.37212900491,-5.77905958547962,-312.261658797649,160.465124087934,151.796534709715
0.564561207378424,309.173925624489,305.377312690527,-3.79661293396163,-307.275619157508,156.485269279225,150.790349878283
0.567356064840693,302.503787474632,304.423523997692,1.91973652305944,-303.463655736162,150.292025475786,153.171630260376
0.570150922302962,293.144096698308,302.837272212267,9.69317551395926,-297.990684455287,141.725460592174,156.265223863113
0.572945779765232,289.84479448302,299.557375515608,9.71258103258862,-294.701084999314,140.066106725216,154.634978274099
0.575740637227501,299.013885554776,302.145877996913,3.13199244213672,-300.579881775845,147.94094655632,152.638935219525
0.578535494689771,307.774315185809,304.231360265375,-3.54295492043428,-306.002837725592,155.658635053122,150.34420267247
0.58133035215204,304.906601962447,301.252524920255,-3.65407704219291,-303.079563441351,154.28033950232,148.799223939031
0.58412520961431,299.654702100587,300.498887997982,0.844185897394937,-300.076795049284,149.405258101596,150.671536947688
0.586920067076579,290.312659701602,299.793075624906,9.48041592330424,-295.052867663254,140.416121889149,154.636745774105
0.589714924538849,286.000388650447,296.58103903583,10.5806503853829,-291.290713843138,137.709869132532,153.580844710606
0.592509782001118,295.065358815478,299.2828166748,4.21745785932211,-297.174087745139,145.423950478078,151.750137267061
0.595304639463387,304.437531564896,305.106652734581,0.669121169684161,-304.772092149738,151.884205197606,152.887886952132
0.598099496925657,304.6733805277,302.117379534012,-2.55600099368786,-303.395380030856,153.614690760694,149.780689270162
0.600894354387926,302.826440881353,299.597233752317,-3.22920712903596,-301.211837316835,153.027824005194,148.184013311641
0.603689211850196,294.472259413198,294.801100408005,0.328840994806626,-294.636679910601,147.071709209196,147.564970701406
0.606484069312465,282.100685980063,294.660621944237,12.559935964174,-288.38065396215,134.770375007944,153.610278954205
0.609278926774734,286.120886865072,294.388223264899,8.267336399827,-290.254555064985,138.926775232622,151.327779832363
0.612073784237004,292.184902178848,296.912610059617,4.72770788076906,-294.548756119233,143.728597149039,150.820158970193
0.614868641699273,297.579334535849,295.012377566247,-2.56695696960116,-296.295856051048,150.073145752725,146.222710298323
0.617663499161543,298.931097284761,298.671752861165,-0.259344423596247,-298.801425072963,149.595220854179,149.206204218784
0.620458356623812,294.425471330108,297.72682885852,3.30135752841193,-296.076150094314,145.562056900848,150.514093193466
0.623253214086082,282.097343348113,293.645500885178,11.5481575370654,-287.871422116645,135.274592905524,152.596829211122
0.626048071548351,280.232239254893,294.543647361744,14.3114081068505,-287.387943308319,132.960415574021,154.427527734297
0.62884292901062,288.106904000021,291.85524418467,3.74834018464833,-289.981074092345,142.179281907686,147.801792184659
0.63163778647289,291.560369182966,289.987948752838,-1.57242043012843,-290.774158967902,146.566394806547,144.207764161355
0.634432643935159,295.997117326068,291.704729954255,-4.29238737181345,-293.850923640161,150.144752348941,143.706171291221
0.637227501397429,296.277614498776,295.572511451153,-0.705103047622856,-295.925062974965,148.4913587732,147.433704201765
0.640022358859698,293.034021542421,303.626298984146,10.5922774417252,-298.330160263284,141.220872050348,157.109288212936
0.642817216321968,306.414278977077,330.735099808714,24.3208208316368,-318.574689392896,141.04672907272,177.527960320176
0.645612073784237,334.070135974701,360.728984792178,26.6588488174767,-347.399560383439,153.705643578612,193.693916804827
0.648406931246506,367.292629782373,391.516124849629,24.2234950672562,-379.404377316001,171.534567357558,207.869809958443
0.651201788708776,403.456456500858,426.343263613248,22.8868071123907,-414.899860057053,190.284824694234,224.61503536282
0.653996646171045,432.558129355458,457.200090173993,24.6419608185348,-444.879109764725,203.958084268462,240.921025496264
0.656791503633315,442.487101083367,472.155081682683,29.6679805993163,-457.321091383025,206.409560242025,250.911531141
0.659586361095584,445.359187867992,475.708446293704,30.3492584257119,-460.533817080848,207.50496472114,253.028852359708
0.662381218557853,441.155363102601,459.784229482367,18.6288663797653,-450.469796292484,211.263248361418,239.206547931066
0.665176076020123,424.334709400862,425.570963107566,1.23625370670413,-424.952836254214,211.549227847079,213.403608407135
0.667970933482392,406.656950771632,391.450723693091,-15.2062270785415,-399.053837232362,210.931588925087,188.122248307275
0.670765790944662,377.589143413442,354.224245383378,-23.3648980300636,-365.90669439841,200.477020721753,165.429673676657
0.673560648406931,340.871696917026,316.803821823514,-24.0678750935114,-328.83775937027,182.469786005269,146.367973365001
0.676355505869201,310.929453405934,296.932955336137,-13.9964980697965,-303.931204371036,162.462975737865,141.46822863317
0.67915036333147,292.424532319878,281.50014290785,-10.9243894120285,-286.962337613864,151.674460865953,135.287876747911
0.68194522079374,289.750320657488,281.842700722879,-7.90761993460899,-285.796510690183,148.828970296048,136.967540394135
0.684740078256009,297.985146507837,287.871655086118,-10.1134914217189,-292.928400796978,154.049318964778,138.8790818322
0.687534935718278,301.440327400698,294.267126415739,-7.17320098495935,-297.853726908219,154.306764192829,143.54696271539
0.690329793180548,302.757064849462,298.708052911753,-4.04901193770894,-300.732558880607,153.403038393585,147.329520487022
0.693124650642817,299.108277326849,305.151079890936,6.04280256408742,-302.129678608893,146.532737381381,155.596941227512
0.695919508105087,292.472053398079,306.522396668073,14.0503432699932,-299.497225033076,139.210855064043,160.286369969033
0.698714365567356,293.790420955598,298.748460563142,4.95803960754438,-296.26944075937,144.416190674027,151.853250085343
0.701509223029625,299.97981116424,300.040777103261,0.0609659390215711,-300.01029413375,149.959422612609,150.050871521141
0.704304080491895,301.202203004153,297.314883066188,-3.88731993796523,-299.25854303517,152.544761471059,146.713781564111
0.707098937954164,300.741053943477,296.809106636721,-3.93194730675583,-298.775080290099,152.336500625116,146.438579664983
0.709893795416434,299.305770124049,301.211822069289,1.90605194524016,-300.258796096669,148.699859089404,151.558937007264
0.712688652878703,291.487808895215,305.308389597854,13.8205807026387,-298.398099246534,138.833614096288,159.564485150246
0.715483510340973,287.821662987849,301.684595395595,13.8629324077462,-294.753129191722,136.979365290051,157.77376390167
0.718278367803242,297.944859474918,302.160392520209,4.21553304529095,-300.052625997564,146.864663214814,153.18796278275
0.721073225265511,302.954277710104,303.306301446529,0.352023736424542,-303.130289578316,151.30112698684,151.829162591477
0.723868082727781,303.732226143681,301.877071959786,-1.85515418389429,-302.804649051733,152.793690163787,150.010958887946
0.72666294019005,306.534430375251,307.324621141795,0.790190766544185,-306.929525758523,152.872119804353,154.05740595417
0.72945779765232,297.506735724632,306.14663918952,8.63990346488794,-301.826687457076,144.433416129872,157.393271327204
0.732252655114589,291.827538588161,303.649966356369,11.822427768208,-297.738752472265,140.002555409977,157.736197062289
0.735047512576859,295.958408863404,303.256488169103,7.29807930569893,-299.607448516254,144.330164778853,155.277283737401
0.737842370039128,303.810942374578,301.258242243642,-2.55270013093542,-302.53459230911,153.181821252757,149.352771056354
0.740637227501397,309.78773648549,307.968003349952,-1.81973313553834,-308.877869917721,155.803734810514,153.074135107207
0.743432084963667,317.701999662699,314.403596229236,-3.29840343346348,-316.052797945967,160.500201548081,155.552596397886
0.746226942425936,309.38747793497,312.92967931691,3.54220138194057,-311.15857862594,152.922638276515,158.235940349425
0.749021799888206,298.767182715518,314.587697695575,15.8205149800562,-306.677440205547,141.473333867731,165.204106337815
0.751816657350475,300.089811653704,311.440852721459,11.3510410677557,-305.765332187582,144.369385292974,161.395946894608
0.754611514812745,304.827029425817,308.303394712534,3.47636528671666,-306.565212069175,150.67533206955,155.889879999625
0.757406372275014,308.910889169188,309.064575497273,0.153686328085257,-308.987732333231,154.378601420551,154.609130912679
0.760201229737283,316.744113822874,312.453853445797,-4.29026037707723,-314.598983634335,160.517187099976,154.08179653436
0.762996087199553,313.149823280595,311.736591072208,-1.41323220838717,-312.443207176401,157.281527744491,155.16167943191
0.765790944661822,301.711835375674,312.579999952342,10.868164576668,-307.145917664008,145.421835399503,161.724082264505
0.768585802124092,300.235966304289,316.528516183764,16.2925498794753,-308.382241244026,141.971708212407,166.41053303162
0.771380659586361,307.881958095065,315.208925620653,7.32696752558724,-311.545441857859,150.277495284739,161.26794657312
0.774175517048631,315.041456873069,315.121690876556,0.0802340034874192,-315.081573874812,157.480611434791,157.600962440022
0.7769703745109,321.771492859724,319.59422308206,-2.17726977766432,-320.682857970892,161.974381318694,158.708476652198
0.779765231973169,321.872588583641,321.631493421343,-0.241095162298507,-321.752041002492,161.05684187297,160.695199129522
0.782560089435439,312.650577114331,318.580160557593,5.92958344326274,-315.615368835962,153.360496835534,162.254872000428
0.785354946897708,307.459896464702,322.640838014477,15.1809415497753,-315.050367239589,146.139477457463,168.910889782126
0.788149804359978,307.991724655371,318.144269153325,10.1525444979544,-313.067996904348,148.919590078708,164.14840682564
0.790944661822247,315.194419687837,317.210212637452,2.01579294961488,-316.202316162645,156.589313369111,159.613002793534
0.793739519284516,322.70726340427,319.669705986389,-3.0375574178816,-321.18848469533,162.872410411076,158.316074284254
0.796534376746786,325.516467834945,322.485644953005,-3.0308228819398,-324.001056393975,164.273645358442,159.727411035533
0.799329234209055,318.606925467816,322.606256048142,3.99933058032627,-320.606590757979,157.303797443745,163.302793314234
0.802124091671325,310.700129512278,322.709233382606,12.0091038703279,-316.704681447442,149.345512820975,167.359168626467
0.804918949133594,309.132256146736,322.061663002028,12.9294068552918,-315.596959574382,148.101424645722,167.49553492866
0.807713806595864,316.345011629963,320.299265578073,3.95425394811053,-318.322138604018,156.195378840926,162.126759763092
0.810508664058133,329.604697094105,328.755917655327,-0.848779438778479,-329.180307374716,165.226738266442,163.953569108274
0.813303521520402,331.099689604081,330.303008362133,-0.796681241948079,-330.701348983107,165.948185423015,164.753163560093
0.816098378982672,329.573069872028,331.619974983805,2.04690511177705,-330.596522427917,163.763082380126,166.833440047791
0.818893236444941,323.015986772618,332.855029981304,9.83904320868589,-327.935508376961,156.588471781966,171.347036594995
0.821688093907211,315.289081429468,329.014485984827,13.7254045553585,-322.151783707148,150.781838437055,171.369945270093
0.82448295136948,319.479777409712,331.398488216842,11.9187108071303,-325.439132813277,153.780533301291,171.658599511986
0.82727780883175,330.501624486351,333.83680327635,3.33517878999896,-332.169213881351,163.583222848176,168.585991033175
0.830072666294019,334.756367944759,334.149773378377,-0.60659456638183,-334.453070661568,167.68148125557,166.771589405998
0.832867523756288,335.589189232632,333.663131183577,-1.9260580490544,-334.626160208105,168.757623640843,165.868536567262
0.835662381218558,334.260543824236,338.932279540846,4.67173571660931,-336.596411682541,164.794404053813,171.802007628727
0.838457238680827,326.34211684947,339.909357732356,13.5672408828863,-333.125737290913,156.387437983292,176.738299307621
0.841252096143097,326.581671701526,338.48991590992,11.9082442083934,-332.535793805723,157.336713746567,175.199080059157
0.844046953605366,339.49814831693,343.973423597197,4.47527528026711,-341.735785957064,167.511436518332,174.224349438732
0.846841811067636,344.503408906156,346.03553058943,1.53212168327337,-345.269469747793,171.485643611442,173.783826136352
0.849636668529905,344.637210839147,342.713513764859,-1.92369707428804,-343.675362302003,173.280453956718,170.394908345286
0.852431525992174,345.481915011677,349.036370535409,3.55445552373192,-347.259142773543,170.963729743972,176.29541302957
0.855226383454444,335.355462292092,345.81224825923,10.4567859671384,-340.583855275661,162.449338162477,178.134517113184
0.858021240916713,332.682634932814,345.602111324163,12.9194763913493,-339.142373128488,159.881579270732,179.260793857756
0.860816098378983,340.491349319807,350.055898113794,9.56454879398729,-345.2736237168,165.46340026291,179.810223453891
0.863610955841252,346.322104040385,344.892293142947,-1.4298108974383,-345.607198591666,173.875957468912,171.731241122754
0.866405813303522,349.723982374373,348.786542873194,-0.937439501178631,-349.255262623784,175.330710937776,173.924551686008
0.869200670765791,355.575747439738,355.054735028797,-0.521012410940671,-355.315241234268,178.048379925339,177.266861308928
0.87199552822806,348.227702109371,355.653712350509,7.42601024113793,-351.94070722994,170.400845934117,181.539861295824
0.87479038569033,343.77092252143,356.715576704604,12.9446541831747,-350.243249613017,165.413134169128,184.83011544389
0.877585243152599,348.625837234382,361.214449243852,12.5886120094696,-354.920143239117,168.018612612456,186.901530626661
0.880380100614869,352.258789620271,357.803519230017,5.54472960974596,-355.031154425144,173.357030005262,181.674124419881
0.883174958077138,354.828629179417,349.861890249131,-4.96673893028583,-352.345259714274,179.897684054852,172.447575659423
0.885969815539407,358.584663276106,355.114970314218,-3.46969296188882,-356.849816795162,181.027178118998,175.822638676164
0.888764673001677,351.069394817607,354.597350827992,3.52795601038514,-352.833372822799,173.770719403611,179.062653419188
0.891559530463946,342.877205921229,356.854487483311,13.9772815620821,-349.86584670227,164.449962179573,185.415884522696
0.894354387926216,344.698004410827,358.180222543955,13.4822181331275,-351.439113477391,165.60789313885,185.831220338541
0.897149245388485,348.223891304268,351.623055120821,3.39916381655286,-349.923473212545,172.412363743858,177.511109468687
0.899944102850755,352.940834672963,350.949768511766,-1.99106616119769,-351.945301592365,177.465950417081,174.479351175284
0.902738960313024,356.474745454081,350.110345768723,-6.36439968535791,-353.292545611402,181.419572569719,171.872973041683
0.905533817775293,348.844688336515,344.522964389557,-4.32172394695806,-346.683826363036,176.583206141737,170.100620221299
0.908328675237563,336.994356417481,342.993773133876,5.9994167163959,-339.994064775679,165.497469850542,174.496594925136
0.911123532699832,330.795844471007,341.084364956829,10.2885204858227,-335.940104713918,160.253661992592,175.686442721326
0.913918390162102,332.298737893095,335.507748077475,3.20901018438008,-333.903242985285,164.544863854357,169.358379130928
0.916713247624371,335.044108776576,332.040328026427,-3.00378075014868,-333.542218401502,169.023944763362,164.518273638139
0.919508105086641,340.153267832437,334.964738662753,-5.18852916968422,-337.559003247595,172.670898501061,164.888104746534
0.92230296254891,332.547004799229,328.40308418741,-4.14392061181877,-330.475044493319,168.345462705524,162.129581787796
0.925097820011179,324.123904802582,324.128845128515,0.00494032593371685,-324.126374965548,162.059482238324,162.066892727224
0.927892677473449,313.874490297229,319.993325886884,6.11883558965559,-316.933908092056,153.877827353786,163.05608073827
0.930687534935718,307.384375268385,312.4513548942,5.06697962581495,-309.917865081293,151.158697821285,158.759167260008
0.933482392397988,310.119335355379,311.117248150161,0.997912794782167,-310.61829175277,154.560711280298,156.057580472472
0.936277249860257,315.746980539,310.713195021574,-5.03378551742628,-313.230087780287,160.390383028213,152.839704752074
0.939072107322527,313.272298464579,306.278403928656,-6.99389453592261,-309.775351196617,160.133096500251,149.642254696367
0.941866964784796,309.262208275025,305.257276697332,-4.00493157769228,-307.259742486179,156.633569926358,150.62617255982
0.944661822247065,299.93134599324,308.874978096936,8.94363210369551,-304.403162045088,145.493856944772,158.909305100316
0.947456679709335,293.434582129401,304.317367457173,10.882785327772,-298.875974793287,141.275898400814,157.600076392472
0.950251537171604,299.17714103321,301.199134683449,2.02199365023949,-300.188137858329,148.577573691485,151.610564166844
0.953046394633874,302.44807389214,299.658199972063,-2.78987392007622,-301.053136932101,152.618973906108,148.434163025994
0.955841252096143,300.054562124588,294.261070719373,-5.79349140521578,-297.157816421981,152.924026764902,144.233789657078
0.958636109558412,300.409273343467,295.37481026221,-5.03446308125751,-297.892041802838,152.721868212362,145.170173590476
0.961430967020682,294.990751374098,299.717685176922,4.72693380282459,-297.35421827551,145.131908785637,152.222309489873
0.964225824482951,286.427824135712,300.157019773755,13.7291956380436,-293.292421954733,136.349314248834,156.943107705899
0.967020681945221,290.231727622629,299.291550298568,9.05982267593896,-294.761638960598,140.585952473345,154.175686487253
0.96981553940749,297.25672182221,299.662428214903,2.40570639269282,-298.459575018556,147.425507714759,151.034067303798
0.97261039686976,297.901692206162,299.227160870297,1.32546866413549,-298.564426538229,148.288111771013,150.276314767216
0.975405254332029,302.56860164615,301.506994271276,-1.0616073748734,-302.037797958713,151.815104510512,150.222693448201
0.978200111794298,299.060748317523,302.684014322938,3.62326600541428,-300.87238132023,147.718741156054,153.153640164176
0.980994969256568,287.371637589107,298.03434874781,10.6627111587027,-292.702993168458,138.354463215202,154.348529953256
0.983789826718837,286.297305995912,297.386241974452,11.0889359785398,-291.841773985182,137.604185008686,154.237588976496
0.986584684181107,294.172424813247,299.643288058478,5.47086324523144,-296.907856435863,144.350780784008,152.557075651855
0.989379541643376,297.844011292336,294.184838150972,-3.65917314136402,-296.014424721654,150.75159221685,145.262832504804
0.992174399105646,301.719875974748,295.629194703087,-6.09068127166131,-298.674535338918,153.905278623205,144.769256715713
0.994969256567915,302.041151052346,299.600537840595,-2.44061321175093,-300.82084444647,152.240882132048,148.579962314422
0.997764114030184,289.260099486566,297.930149135037,8.67004964847035,-293.595124310801,140.295024919048,153.300099391753
1.00055897149245,282.378845745357,293.484827975107,11.1059822297491,-287.931836860232,135.636431757804,152.295405102428
1.00335382895472,288.163663747806,294.62458933143,6.46092558362346,-291.394126539618,140.851369082092,150.542757457527
1.00614868641699,294.87989523826,295.189358873841,0.309463635580471,-295.034627056051,147.28521580134,147.749411254711
1.00894354387926,299.841416037289,295.745743981225,-4.09567205606373,-297.793580009257,151.968544046676,145.825035962581
1.01173840134153,303.883325038459,303.48988037482,-0.393444663639741,-303.686602706639,152.138384851049,151.54821785559
1.0145332588038,296.066238218369,300.773450227133,4.70721200876415,-298.419844222751,145.679513104803,152.740331117949
1.01732811626607,288.503611455575,302.612288380048,14.1086769244729,-295.557949917811,137.197467265551,158.36048265226
1.02012297372834,291.28135084578,303.672449012832,12.3910981670516,-297.476899929306,139.445126339364,158.031773589942
1.02291783119061,296.953746501084,298.155932405713,1.20218590462929,-297.554839453398,147.875780298227,149.679059155171
1.02571268865288,302.950104068837,298.876423280993,-4.07368078784361,-300.913263674915,153.51189242834,147.401371246575
1.02850754611515,304.689706132232,302.431150055282,-2.25855607694967,-303.560428093757,153.474131104591,150.086296989166
1.03130240357742,299.876380238672,300.70669430958,0.830314070907264,-300.291537274126,149.523033083883,150.768504190243
1.03409726103969,290.640920157749,299.712101044632,9.07118088688225,-295.176510601191,140.784869635434,154.391640965757
1.03689211850196,287.393609773675,301.612577626368,14.2189678526923,-294.503093700022,136.587320960492,157.91577273953
1.03968697596423,294.071352606295,300.129995792299,6.05864318600459,-297.100674199297,144.006354710145,153.094319489152
1.0424818334265,303.017707701473,305.004023074687,1.98631537321359,-304.01086538808,150.51569616413,153.49516922395
1.04527669088876,308.394048112477,306.343924851582,-2.05012326089445,-307.36898648203,155.222085686686,152.146900795344
1.04807154835103,304.62212671399,302.601392649501,-2.02073406448903,-303.611759681745,153.321430389239,150.290329292506
1.0508664058133,296.832021192531,303.837721249825,7.00570005729389,-300.334871221178,144.913160567619,155.42171065356
1.05366126327557,291.611094861275,303.606467780142,11.9953729188672,-297.608781320709,139.807860971204,157.800920349505
1.05645612073784,291.205240680396,301.125608648646,9.92036796825016,-296.165424664521,140.642436356073,155.522988308448
1.05925097820011,301.05646141875,305.119865502106,4.06340408335558,-303.088163460428,148.496528667697,154.591634792731
1.06204583566238,307.064159150348,307.23483406092,0.170674910571563,-307.149496605634,153.446742119888,153.702754485746
1.06484069312465,307.408579339939,304.517546820145,-2.89103251979458,-305.963063080042,155.149805929867,150.813257150175
1.06763555058692,304.030098077904,306.962270047837,2.93217196993277,-305.49618406287,150.548963053986,154.947221008885
1.07043040804919,295.777196375109,308.57913802428,12.8019416491712,-302.178167199694,141.487627362969,160.690539836725
1.07322526551146,293.301714415681,306.098948566877,12.7972341511966,-299.700331491279,140.252240132242,159.448091359037
1.07602012297373,303.104873476119,307.257298498245,4.15242502212675,-305.181085987182,149.476224226996,155.704861760186
1.078814980436,309.791998339136,308.179276291265,-1.61272204787082,-308.9856373152,155.702360193503,153.283277121697
1.08160983789827,310.235988700395,307.482030123161,-2.75395857723441,-308.859009411778,156.494973638815,152.364035772963
1.08440469536054,311.233922971078,310.067544215642,-1.16637875543574,-310.65073359336,156.200150863257,154.450582730103
1.08719955282281,300.904301051299,308.488214808505,7.5839137572064,-304.696257929902,146.660193647046,158.036064282856
1.08999441028508,293.367372512384,304.076092681288,10.7087201689047,-298.721732596836,141.32932617174,157.392406425097
1.09278926774734,296.150978111814,303.379834872647,7.22885676083331,-299.765406492231,144.46106067549,155.30434581674
1.09558412520961,304.579289811171,305.104524573943,0.525234762771788,-304.841907192557,152.0270275242,152.814879668357
1.09837898267188,307.170276174348,305.469977915127,-1.7002982592212,-306.320127044737,154.435287216785,151.884839827953
1.10117384013415,311.37397845381,309.146125227561,-2.2278532262485,-310.260051840685,156.800915840029,153.459136000656
1.10396869759642,305.869945478815,309.348852299817,3.47890682100189,-307.609398889316,151.195519328907,156.413879560409
1.10676355505869,294.344515894694,307.033659787618,12.6891438929243,-300.689087841156,140.827686000885,159.861401840271
1.10955841252096,295.255262709735,307.535111036439,12.2798483267041,-301.395186873087,141.487707191515,159.907479681571
1.11235326998323,303.499066280444,307.07149678973,3.5724305092856,-305.285281535087,149.963317885579,155.321963649508
1.1151481274455,307.171725769599,305.462972074364,-1.70875369523452,-306.317348921982,154.440239732417,151.877109189565
1.11794298490777,314.47773801866,311.224630766676,-3.25310725198466,-312.851184392668,158.865422635323,153.985761757346
1.12073784237004,310.736425494892,310.204931415878,-0.531494079014124,-310.470678455385,155.633959786953,154.836718668432
1.12353269983231,300.281388316732,312.004762606983,11.7233742902503,-306.143075461857,144.279007013241,161.864068448616
1.12632755729458,300.413339168426,312.695544838278,12.2822056698521,-306.554442003352,144.065566749287,162.488875254065
1.12912241475685,306.503685896787,313.032795962627,6.52911006584014,-309.768240929707,149.987287915474,159.780953014234
1.13191727221912,311.20583802617,310.441892036213,-0.763945989956426,-310.823865031191,155.984892008063,154.838973023128
1.13471212968139,316.561763233386,312.329411818077,-4.23235141530819,-314.445587525731,160.397057324347,154.048530201385
1.13750698714366,315.571898280004,313.125132988824,-2.44676529117982,-314.348515634414,159.009331785592,155.339183848822
1.14030184460592,306.220574906415,314.012752102739,7.79217719632413,-310.116663504577,149.214198855045,160.902464649531
1.14309670206819,301.586724696351,314.823208060119,13.2364833637682,-308.204966378235,144.175120666291,164.029845711944
1.14589155953046,304.542147050032,315.934746216479,11.3925991664478,-310.238446633255,146.574773941792,163.663672691464
1.14868641699273,310.286145687715,311.418633545646,1.1324878579311,-310.85238961668,154.576828914892,156.275560701789
1.151481274455,317.577212335091,318.432343370506,0.855131035415411,-318.004777852798,158.361040649838,159.643737202961
1.15427613191727,321.292903208226,319.01519544235,-2.27770776587653,-320.154049325288,161.785305487051,158.368743838237
1.15707098937954,315.122132781589,318.005223600724,2.88309081913474,-316.563678191157,156.119520981227,160.444157209929
1.15986584684181,309.834940789408,321.981520859848,12.1465800704393,-315.908230824628,148.844180359485,167.064050465143
1.16266070430408,310.664685554088,324.866373140525,14.2016875864366,-317.765529347306,148.231498983826,169.534030363481
1.16545556176635,316.368133886034,324.394719652002,8.02658576596804,-320.381426769018,154.170774060033,166.210652708985
1.16825041922862,328.589939770488,326.575932442585,-2.01400732790285,-327.582936106537,165.301973549195,162.280962557341
1.17104527669089,329.977489569968,329.96394138483,-0.0135481851375516,-329.970715477399,164.995518877553,164.975196599846
1.17384013415316,326.022392328305,325.016694066019,-1.00569826228588,-325.519543197162,163.514045295295,162.005497901867
1.17663499161543,322.132662034123,331.137979117944,9.00531708382056,-326.635320576034,156.563672475151,170.071648100882
1.1794298490777,318.818018216275,331.775368590639,12.9573503743645,-325.296693403457,152.930333920955,172.366359482502
1.18222470653997,323.453888415242,333.384159432121,9.93027101687937,-328.419023923681,156.761808699181,171.6572152245
1.18501956400224,329.578349213236,329.704281671013,0.125932457777367,-329.641315442125,164.726208377729,164.915107064395
1.18781442146451,328.69658666146,324.906457639048,-3.79012902241254,-326.801522150254,166.243357841936,160.558164308318
1.19060927892677,325.005401688462,319.10204747273,-5.90335421573207,-322.053724580596,165.454377952097,156.599346628499
1.19340413638904,321.329401239915,321.163766486713,-0.165634753202085,-321.246583863314,160.747517996559,160.499065866755
1.19619899385131,311.848767073071,320.580442495847,8.73167542277673,-316.214604784459,151.558545825147,164.656058959312
1.19899385131358,308.547359601664,321.415028326202,12.8676687245377,-314.981193963933,147.839845438563,167.14134852537
1.20178870877585,319.476587841613,322.729476654017,3.25288881240488,-321.103032247815,158.111849514604,162.991182733211
1.20458356623812,320.365631584154,318.745608708531,-1.62002287562245,-319.555620146343,160.992827229888,158.562792916454
1.20737842370039,320.015774129644,316.156934450547,-3.85883967909689,-318.086354290096,161.93730690437,156.149047385725
1.21017328116266,318.507048241637,316.242160027223,-2.26488821441382,-317.37460413443,160.385968228025,156.988635906404
1.21296813862493,304.855653886331,312.462031954747,7.60637806841555,-308.658842920539,148.624637908958,160.034205011581
1.2157629960872,298.627026920754,307.468413261799,8.84138634104431,-303.047720091276,144.892820289855,158.154899801421
1.21855785354947,302.38275361283,306.712575439029,4.32982182619821,-304.547664525929,149.026465893316,155.521198632613
1.22135271101174,305.133639167619,305.600480744204,0.466841576585466,-305.367059955912,152.333398795517,153.033661160395
1.22414756847401,307.097664758581,303.246545705269,-3.85111905331121,-305.172105231925,155.474391905946,149.697713325979
1.22694242593628,311.558448935666,303.235184125269,-8.32326481039723,-307.396816530467,159.940856873032,147.455959657436
1.22973728339855,301.703614291169,306.285602188701,4.58198789753175,-303.994608239935,148.560813196819,155.433795043116
1.23253214086082,291.641937130233,306.501341173742,14.8594040435084,-299.071639151987,138.391266543362,160.680372608625
1.23532699832309,295.414251650555,306.767152317849,11.3529006672942,-301.090701984202,142.03067549163,159.060026492571
1.23812185578535,299.052658548748,300.479963437016,1.42730488826811,-299.766310992882,148.81267683024,150.953634162642
1.24091671324762,305.20364456606,303.322331229685,-1.88131333637529,-304.262987897873,153.542478951218,150.720508946655
1.24371157070989,309.582315486081,305.282217024663,-4.30009846141871,-307.432266255372,156.94120697375,150.491059281622
1.24650642817216,303.499289914962,305.111396796465,1.61210688150271,-304.305343355714,150.94359151673,153.361751838984
1.24930128563443,291.638362882991,301.529961519223,9.89159863623178,-296.584162201107,140.87338212338,155.710780077727
1.2520961430967,291.52637117379,304.840478589488,13.3141074156978,-298.183424881639,139.106131879046,159.077293002593
1.25489100055897,295.074081577269,299.408693289985,4.33461171271637,-297.241387433627,145.369734932276,151.871652501351
1.25768585802124,298.331892544786,296.405784104974,-1.9261084398122,-297.36883832488,150.129000492299,147.239837832581
1.26048071548351,305.523388225141,300.298665943845,-5.22472228129669,-302.911027084493,155.374055253219,147.536971831274
1.26327557294578,301.219517465103,300.958509713781,-0.261007751321529,-301.089013589442,150.740262608212,150.34875098123
1.26607043040805,293.640975174198,301.580778369724,7.93980319552628,-297.610876771961,142.850585989336,154.760290782625
1.26886528787032,290.669876258612,304.882012006191,14.212135747579,-297.775944132401,138.228870255516,159.547073876885
1.27166014533259,290.116663197868,298.29085182277,8.17418862490291,-294.203757510319,140.971237286482,153.232520223837
1.27445500279486,295.461640967029,293.483104354158,-1.97853661287121,-294.472372660593,148.72008878995,145.752283870643
1.27724986025713,298.431440073707,294.34950125962,-4.0819388140871,-296.390470666664,151.256689443897,145.133781222767
1.2800447177194,296.948669712739,293.874314989399,-3.07435472333964,-295.411492351069,150.011512218039,145.39998013303
1.28283957518167,290.665921618046,295.6567517183,4.99083010025322,-293.161336668173,142.837545758897,150.323790909276
1.28563443264394,285.78709645605,297.831932358572,12.044835902522,-291.809514407311,136.871130276764,154.938384130547
1.2884292901062,288.153434756042,300.122361943895,11.9689271878528,-294.137898349969,138.092253784095,156.045644565874
1.29122414756847,302.577702727557,310.553541777536,7.97583904997879,-306.565622252547,147.300931838789,159.264690413758
1.29401900503074,326.360513480566,333.483550856585,7.12303737601917,-329.922032168576,159.618738052274,170.303294116302
1.29681386249301,347.48123500721,358.577779097393,11.0965440901837,-353.029507052302,168.192345458513,184.837161593789
1.29960871995528,370.599639951029,392.599649882114,22.0000099310847,-381.599644916572,174.299815009972,207.299829906599
1.30240357741755,395.572857395369,431.598255340463,36.025397945094,-413.585556367916,179.773729725138,233.811826642779
1.30519843487982,421.143474072018,459.910949059944,38.7674749879258,-440.527211565981,191.187999542046,249.339212023935
1.30799329234209,447.521643679608,480.443658698926,32.9220150193181,-463.982651189267,207.299814330145,256.682836859122
1.31078814980436,467.446328600491,486.967283804442,19.5209552039516,-477.206806202467,223.96268669827,253.244119504197
1.31358300726663,463.531899610828,470.987267744134,7.45536813330534,-467.259583677481,228.038265738761,239.221317938719
1.3163778647289,441.600695899122,437.647172763439,-3.95352313568304,-439.623934331281,222.777109517403,216.846824813878
1.31917272219117,408.366726774299,402.016636251463,-6.35009052283618,-405.191681512881,207.358408648568,197.833272864313
1.32196757965344,366.769279191117,361.422981856091,-5.34629733502589,-364.096130523604,186.057788263071,178.038342260532
1.32476243711571,338.777110701867,325.747424636973,-13.0296860648945,-332.26226766942,175.903398383381,156.358869286039
1.32755729457798,324.296215032952,303.559315107792,-20.7368999251603,-313.927765070372,172.516557479056,141.411207591316
1.33035215204025,314.118044958684,290.560475600173,-23.557569358511,-302.339260279428,168.837807158597,133.501453120831
1.33314700950252,307.810377595001,289.859721327785,-17.9506562672153,-298.835049461393,162.880516931108,135.954532530285
1.33594186696478,305.428726790041,296.833028304349,-8.5956984856922,-301.130877547195,157.012212637867,144.118664909328
1.33873672442705,295.335387986402,296.760029881525,1.42464189512344,-296.047708933964,146.955373045639,149.092335888324
1.34153158188932,294.884821456096,300.851386297432,5.96656484133609,-297.868103876764,144.45912830738,153.408975569384
1.34432643935159,306.033810968962,309.590035249036,3.55622428007433,-307.811923108999,151.238793344444,156.573129764555
1.34712129681386,311.852410108929,309.409497564764,-2.44291254416487,-310.630953836846,157.147661326547,153.483292510299
1.34991615427613,310.907560159161,306.928149963363,-3.97941019579781,-308.917855061262,157.443485177479,151.474369883783
1.3527110117384,310.579308749094,308.022399716342,-2.55690903275263,-309.300854232718,156.568108890924,152.732745341795
1.35550586920067,298.326861762131,305.774638677013,7.44777691488184,-302.050750219572,145.439542423625,156.611207795947
1.35830072666294,290.972494948925,304.963938089233,13.991443140308,-297.968216519079,138.490525904309,159.477690614771
1.36109558412521,296.962120960153,305.564420305509,8.60229934535658,-301.263270632831,144.179910807398,157.083359825433
1.36389044158748,302.749242307652,305.289113719136,2.53987141148411,-304.019178013394,150.104685448084,153.91449256531
1.36668529904975,306.020444922114,306.016219086826,-0.00422583528825271,-306.01833200447,153.012335378701,153.005996625769
1.36948015651202,311.521299643567,306.996286027506,-4.52501361606176,-309.258792835536,158.023156629815,151.235636205722
1.37227501397429,302.145993722291,305.664870601296,3.51887687900563,-303.905432161794,149.313558421643,154.591873740151
1.37506987143656,297.063619261334,307.079217631564,10.0155983702304,-302.071418446449,143.524010445552,158.547408000897
1.37786472889883,299.061344530456,309.581343522391,10.5199989919346,-304.321344026424,144.270672769261,160.050671257163
1.3806595863611,303.746021813776,307.166212028121,3.42019021434476,-305.456116920948,150.162915799716,155.293201121233
1.38345444382336,311.130957277551,307.10960169607,-4.0213555814812,-309.12027948681,157.576156429516,151.544123057294
1.38624930128563,313.429662097231,308.01445473945,-5.41520735778136,-310.722058418341,159.422434727506,151.299623690834
1.3890441587479,308.945652465463,308.596653350684,-0.348999114779019,-308.771152908073,154.647325790121,154.123827117952
1.39183901621017,300.171778841716,309.198717832535,9.02693899081925,-304.685248337125,145.572419925448,159.112828411677
1.39463387367244,299.20444714281,311.572377259221,12.3679301164109,-305.388412201016,143.4182585132,161.970153687816
1.39742873113471,303.801651211628,313.047185567918,9.24553435628968,-308.424418389773,147.278058427669,161.146359962104
1.40022358859698,312.231143055376,314.212489549688,1.98134649431233,-313.221816302532,155.124898280532,158.096918022
1.40301844605925,320.25360628426,316.050966117803,-4.20264016645757,-318.152286201031,162.228123225359,155.924162975673
1.40581330352152,316.654642321798,315.504092783186,-1.1505495386121,-316.079367552492,158.902595930205,157.176771622287
1.40860816098379,309.31030207585,316.328475490534,7.01817341468433,-312.819388783192,151.146064330583,161.673324452609
1.41140301844606,304.454479734545,318.608740297271,14.1542605627261,-311.531610015908,145.150109585909,166.381500429998
1.41419787590833,302.913825708799,311.94498649502,9.03116078622025,-307.429406101909,146.94133246129,160.48807364062
1.4169927333706,311.311067889424,311.315185589532,0.00411770010799728,-311.313126739478,155.653475094658,155.65965164482
1.41978759083287,317.989908845636,316.02091047024,-1.96899837539638,-317.005409657938,159.979453610516,157.025956047422
1.42258244829514,314.382939247076,311.423845803306,-2.95909344376929,-312.903392525191,158.671016345422,154.232376179768
1.42537730575741,312.462921546525,316.452268947827,3.98934740130198,-314.457595247176,154.236787072611,160.220808174564
1.42817216321968,308.626475680591,321.551288504488,12.9248128238974,-315.08888209254,147.850831428347,167.238050664193
1.43096702068195,307.961588757455,321.805080227808,13.8434914703535,-314.883334492632,147.059048643551,167.824285849081
1.43376187814421,315.393526186255,324.443202403412,9.04967621715713,-319.918364294833,153.171924984549,166.746439310285
1.43655673560648,322.817808534045,322.093666040594,-0.724142493451041,-322.45573728732,161.770975513748,160.684761773572
1.43935159306875,323.167174633678,320.397815919352,-2.76935871432534,-321.782495276515,162.968266674001,158.814228602513
1.44214645053102,322.640927730422,322.582954260886,-0.0579734695361935,-322.611940995654,161.349450599979,161.262490395675
1.44494130799329,316.815437540694,323.511315052986,6.69587751229272,-320.16337629684,155.0597800142,165.10359628264
1.44773616545556,310.993821249825,323.703420936282,12.7095996864566,-317.348621093054,149.142110781684,168.206510311369
1.45053102291783,315.467649355277,324.563329038612,9.09567968333585,-320.015489196944,153.18598483597,166.829504360974
1.4533258803801,324.638465379664,328.078459890586,3.43999451092242,-326.358462635125,160.599235434371,165.759227200754
1.45612073784237,326.992410866609,325.311195244945,-1.68121562166459,-326.151803055777,164.336813244137,161.81498981164
1.45891559530464,331.823607383598,329.72718182172,-2.09642556187799,-330.775394602659,166.960016472738,163.815378129921
1.46171045276691,326.925278922112,329.506286523643,2.58100760153025,-328.215782722878,162.172135660291,166.043647062586
1.46450531022918,314.952219178815,327.615386231732,12.6631670529168,-321.283802705274,151.144526062949,170.139276642324
1.46730016769145,317.557632415741,326.688941388432,9.13130897269082,-322.123286902087,154.213161721525,167.910125180561
1.47009502515372,327.544226069159,331.057169563412,3.51294349425274,-329.300697816285,162.015641287453,167.285056528832
1.47288988261599,329.897724664599,331.254613748229,1.35688908363028,-330.576169206414,164.270417790484,166.30575141593
1.47568474007826,334.995481199029,332.870390671371,-2.12509052765853,-333.9329359352,168.560285863344,165.372650071856
1.47847959754053,335.942770525149,338.474354050313,2.53158352516391,-337.208562287731,166.705593499993,170.502968787739
1.48127445500279,324.857759421917,336.501138651727,11.6433792298096,-330.679449036822,156.607190096054,174.072258940768
1.48406931246506,321.678986656345,336.840764520459,15.1617778641142,-329.259875588402,153.258604396115,176.001271192286
1.48686416992733,329.552058570103,340.085450714043,10.5333921439394,-334.818754642073,159.509333213082,175.309421428991
1.4896590273896,335.898927546135,336.205698707351,0.306771161216375,-336.052313126743,167.796078192459,168.256234934284
1.49245388485187,340.143424614207,336.013388792213,-4.13003582199462,-338.07840670321,172.136730218101,165.941676485109
1.49524874231414,343.844769469358,341.42264738861,-2.42212208074886,-342.633708428984,173.133445775054,169.50026265393
1.49804359977641,335.704110388252,342.429102742304,6.72499235405172,-339.066606565278,164.4895590171,174.577047548178
1.50083845723868,331.838534445489,347.979715826349,16.1411813808596,-339.909125135919,157.848676532315,182.060448603604
1.50363331470095,338.632427110346,353.028285901184,14.3958587908383,-345.830356505765,162.118284159754,183.712072346011
1.50642817216322,345.912824638526,348.085852537898,2.17302789937116,-346.999338588212,171.869898369578,175.129440218634
1.50922302962549,352.29304823255,350.211207403541,-2.08184082900902,-351.252127818045,177.187444530779,174.064683287266
1.51201788708776,353.723204449541,351.485399651071,-2.23780479846988,-352.604302050306,177.980504624005,174.6237974263
1.51481274455003,344.543095158026,351.401693252018,6.85859809399238,-347.972394205022,168.842248532017,179.130145673005
1.5176076020123,340.016604448246,354.108267109631,14.0916626613845,-347.062435778939,162.962470893431,184.099964885508
1.52040245947457,340.722928559694,355.935059233021,15.2121306733273,-348.328993896358,162.755398943183,185.573594953174
1.52319731693684,347.984085693898,355.024837187317,7.0407514934185,-351.504461440608,170.47166710024,181.032794340368
1.52599217439911,356.389712169924,356.382188299977,-0.00752386994730614,-356.385950234951,178.198618019936,178.187332215015
1.52878703186137,359.475721508721,354.455367343715,-5.02035416500513,-356.965544426218,182.248037836863,174.717506589355
1.53158188932364,353.35188092587,351.369744885333,-1.98213604053637,-352.360812905601,177.667008483203,174.693804422398
1.53437674678591,346.235712495124,356.219889055296,9.98417656017193,-351.22780077521,168.125767967476,183.102032807734
1.53717160424818,342.882336685496,356.803394008576,13.9210573230798,-349.842865347036,164.480639681208,185.362225665828
1.53996646171045,345.09962600477,353.969450618382,8.86982461361242,-349.534538311576,168.114900695579,181.419637615997
1.54276131917272,355.431508170318,357.540089394711,2.10858122439333,-356.485798782514,176.661463472962,179.824335309552
1.54555617663499,362.132119919538,359.392968108375,-2.7391518111628,-360.762544013957,182.435635865351,178.326908148606
1.54835103409726,357.151038917459,355.319648133022,-1.83139078443776,-356.23534352524,179.491214850949,176.744128674292
1.55114589155953,350.481168777575,353.355486902336,2.87431812476075,-351.918327839956,173.803425326407,178.114902513548
1.5539407490218,338.062815958491,348.751727235719,10.6889112772277,-343.407271597105,163.686952340632,179.720319256473
1.55673560648407,331.264570483491,341.027338032876,9.76276754938522,-336.145954258183,160.750901467053,175.39505279113
1.55953046394634,337.384698986271,337.591445547015,0.206746560743284,-337.488072266643,168.588976212764,168.899096053879
1.56232532140861,338.699706301077,335.171813412772,-3.52789288830547,-336.935759856925,171.113799594691,165.821960262233
1.56512017887088,338.077151535483,328.357010842798,-9.72014069268562,-333.217081189141,173.898646114084,159.318435075056
1.56791503633315,334.604058742583,332.349292622895,-2.25476611968793,-333.476675682739,168.429412431136,165.047263251604
1.57070989379542,322.018085731776,327.467058547475,5.44897281569916,-324.742572139625,158.284556458038,166.458015681587
1.57350475125769,313.360735526844,322.036912047972,8.67617652112807,-317.698823787408,152.342279502858,165.35654428455
1.57629960871996,319.350900097478,322.657908593865,3.3070084963876,-321.004404345672,158.021945800545,162.982458545127
1.57909446618222,322.3674625646,322.004077845887,-0.36338471871295,-322.185770205244,161.365423641657,160.820346563587
1.58188932364449,321.039573081863,316.371271131209,-4.66830195065387,-318.705422106536,162.853937516258,155.851484590278
1.58468418110676,319.71470496292,313.390663708498,-6.32404125442264,-316.552684335709,163.019373108672,153.533311227038
1.58747903856903,306.958369174303,306.32456031172,-0.633808862583351,-306.641464743011,153.796089018443,152.845375724568
1.5902738960313,292.443063756997,302.128523475939,9.6854597189415,-297.285793616468,141.378802019028,155.90699159744
1.59306875349357,294.299576726362,302.640505909407,8.34092918304498,-298.470041317884,142.979323771658,155.490717546226
1.59586361095584,300.092745569221,298.726681492999,-1.36606407622213,-299.40971353111,150.729404822722,148.680308708388
1.59865846841811,303.075691893757,298.389445934459,-4.68624595929799,-300.732568914108,153.880968926528,146.851599987581
1.60145332588038,306.758619587502,300.409447518436,-6.34917206906658,-303.584033552969,156.553895828284,147.030137724685
1.60424818334265,299.777486267304,298.140519290372,-1.63696697693172,-298.959002778838,150.707226622118,148.25177615672
1.60704304080492,287.430603531056,298.140347439261,10.709743908205,-292.785475485158,138.360429811425,154.425045673733
1.60983789826719,286.376342814338,297.736841455023,11.3604986406851,-292.056592134681,137.507922086827,154.548670047854
1.61263275572946,289.021769835688,294.630939520427,5.60916968473907,-291.826354678057,141.706300075474,150.120054602583
1.61542761319173,293.160826297968,293.410258209764,0.249431911795739,-293.285542253866,146.455697193086,146.82984506078
1.618222470654,298.762069712517,293.456117985803,-5.30595172671377,-296.10909384916,152.034010719615,144.075083129545
1.62101732811627,296.526442909694,293.004279714208,-3.52216319548626,-294.765361311951,150.02430305259,144.741058259361
1.62381218557854,287.381700497133,291.170283153087,3.78858265595397,-289.27599182511,141.79655892059,147.479432904521
1.6266070430408,283.521759242256,297.809156043941,14.2873968016847,-290.665457643099,134.617181220286,156.048276422813
1.62940190050307,286.053633476316,293.475298621315,7.42166514499826,-289.764466048816,139.315984165659,150.448481883156
1.63219675796534,291.255651668107,289.400824555667,-1.85482711243952,-290.328238111887,146.555239390273,143.772998721614
1.63499161542761,295.756633061831,293.547643201269,-2.20898986056193,-294.65213813155,148.982811461196,145.669326670353
1.63778647288988,296.263390829824,292.921213412286,-3.34217741753775,-294.592302121055,149.802784123681,144.789517997374
1.64058133035215,290.33378428653,295.210073468035,4.8762891815054,-292.771928877283,142.728747552512,150.04318132477
1.64337618781442,286.699989162001,297.898459544992,11.1984703829917,-292.299224353497,137.750759389505,154.548464963992
1.64617104527669,285.098252453213,297.359200717545,12.2609482643324,-291.228726585379,136.41865209444,154.810074490939
1.64896590273896,290.346057895132,291.399819265463,1.0537613703309,-290.872938580297,144.6461482624,146.226790317897
1.65176076020123,297.739974024108,292.65528664186,-5.08468738224747,-295.197630332984,151.412330703178,143.785299629806
1.6545556176635,297.979122737376,294.874133158502,-3.10498957887364,-296.426627947939,150.542056158125,145.884571789814
1.65735047512577,295.290966001145,296.263658770094,0.972692768948889,-295.77731238562,147.159136616098,148.618175769522
1.66014533258804,289.910879179203,300.960702797972,11.0498236187691,-295.435790988588,139.430527780217,156.005263208371
1.66294019005031,287.18095878669,299.190019346805,12.0090605601154,-293.185489066747,137.585949113287,155.59953995346
1.66573504751258,289.437518380373,296.399931025774,6.96241264540146,-292.918724703073,141.237552867486,151.681171835588
1.66852990497485,297.699628450075,297.785689680141,0.0860612300662069,-297.742659065108,148.806783610004,148.935875455104
1.67132476243712,299.695265953784,295.82564723898,-3.86961871480383,-297.760456596382,151.782442334294,145.978014262088
1.67411961989939,297.270683122247,294.326298468268,-2.94438465397951,-295.798490795257,150.107533888113,145.690956907144
1.67691447736165,295.118781915644,298.999672842469,3.88089092682509,-297.059227379057,145.61894549441,151.440281884647
1.67970933482392,286.230867873079,296.029242206907,9.79837433382755,-291.130055039993,138.216246769626,152.913808270367
1.68250419228619,288.524726881595,299.431900764911,10.9071738833159,-293.978313823253,138.80877649914,155.169537324114
1.68529904974846,298.642298865618,298.868717754367,0.226418888748924,-298.755508309992,149.207939988434,149.547568321558
1.68809390721073,300.4063457207,297.731884906835,-2.67446081386493,-299.069115313768,151.540403267283,147.528712046485
1.690888764673,300.273743439927,296.37779653929,-3.89594690063643,-298.325769989609,152.084845170282,146.240924819327
1.69368362213527,296.329715000616,297.073878289062,0.744163288446032,-296.701796644839,147.792775856085,148.909020788754
1.69647847959754,286.29868987329,295.933425126054,9.63473525276333,-291.116057499672,138.331977310264,152.784080189409
1.69927333705981,286.610256831707,295.483146716605,8.8728898848982,-291.046701774156,138.868683473404,152.178018300752
1.70206819452208,295.557999490991,300.905210171304,5.34721068031257,-298.231604831147,145.105394405339,153.126210425808
1.70486305198435,300.13334710036,301.573976343583,1.44062924322338,-300.853661721971,149.346358928568,151.507302793403
1.70765790944662,303.304688753688,300.416110578682,-2.88857817500582,-301.860399666185,153.096633464347,148.763766201838
1.71045276690889,306.52581242918,301.203581656891,-5.32223077228917,-303.864697043036,155.924021600735,147.940675442301
1.71324762437116,295.275255148857,303.88000772043,8.60475257157299,-299.577631434643,143.335251288642,156.242380146001
1.71604248183343,286.648273586179,296.533067579687,9.88479399350877,-291.590670582933,138.381739796335,153.208930786598
1.7188373392957,289.589153037748,298.96669649053,9.37754345278154,-294.277924764139,140.105804792483,154.172119971656
1.72163219675797,297.060080158748,299.488609259191,2.42852910044206,-298.274344708969,147.315775529153,150.958569179816
1.72442705422023,301.405479349611,301.496679571894,0.0912002222828505,-301.451079460752,150.657139563664,150.793939897088
1.7272219116825,306.541257167981,304.225202946328,-2.31605422165285,-305.383230057154,154.428655694817,150.954574362338
1.73001676914477,298.084000058831,302.696652389645,4.61265233081406,-300.390326224238,146.735673864009,153.65465236023
1.73281162660704,289.670354761397,300.582046369443,10.9116916080462,-295.12620056542,139.379331576675,155.746868988745
1.73560648406931,292.702914906777,306.0606068055,13.357691898723,-299.381760856139,139.672611504027,159.709149352112
1.73840134153158,299.038241537698,301.389220348574,2.3509788108766,-300.213730943136,148.343631363411,151.870099579725
1.74119619899385,303.509719332243,298.571488515925,-4.9382308163174,-301.040603924084,154.22397507428,146.816628849804
1.74399105645612,305.546598651257,300.270902546198,-5.2756961050585,-302.908750598727,155.411147378158,147.49760322057
1.74678591391839,301.904971263241,301.606999597087,-0.297971666154183,-301.755985430164,151.101471464698,150.654513965466
1.74958077138066,291.707285181762,299.65763147754,7.95034629577822,-295.682458329651,141.878469442992,153.803988886659
1.75237562884293,289.810113881594,303.066142266387,13.2560283847932,-296.438128073991,138.2770427484,158.16108532559
1.7551704863052,293.052728038179,297.26136639062,4.20863835244108,-295.157047214399,144.422044842869,150.735002371531
1.75796534376747,299.631273897217,299.656913994328,0.0256400971110793,-299.644093945773,149.802816900053,149.84127704572
1.76076020122974,305.44153670781,302.294621540587,-3.14691516722297,-303.868079124199,154.294225937517,149.573853186682
1.76355505869201,303.608602728716,299.460686486369,-4.14791624234761,-301.534644607542,153.878259485532,147.656385122011
1.76634991615428,294.745191142338,298.730633654779,3.9854425124405,-296.737912398558,145.379874314949,151.35803808361
1.76914477361655,290.002357290945,303.104440729637,13.1020834386924,-296.553399010291,138.450136926126,158.103262084165
1.77193963107881,290.144498874778,300.164237096232,10.019738221454,-295.154367985505,140.062380326662,155.091987658843
1.77473448854108,295.750709348191,299.743712371781,3.99300302358961,-297.747210859986,145.878853162301,151.868357697685
1.77752934600335,304.275350557811,301.335703535967,-2.93964702184411,-302.805527046889,153.607498789827,149.198028257061
1.78032420346562,303.280003813558,301.368803629521,-1.91120018403723,-302.32440372154,152.595601998798,149.728801722742
1.78311906092789,299.80314382491,301.812447731855,2.00930390694407,-300.807795778383,148.896919958983,151.910875819399
1.78591391839016,292.216290784315,305.122333178798,12.9060423944833,-298.669311981557,139.655124194916,159.014187786641
1.78870877585243,287.239200318922,302.041336321645,14.8021360027227,-294.640268320284,136.2185321581,158.421736162184
1.7915036333147,294.857934181025,301.836235358842,6.97830117781774,-298.347084769934,143.939816501603,154.40726826833
1.79429849077697,308.088023107865,305.38737213397,-2.7006509738946,-306.737697620918,155.39433704088,151.343360580038
1.79709334823924,307.924089832548,306.26216332819,-1.66192650435795,-307.093126580369,154.793008168453,152.300118411916
1.79988820570151,308.881029646849,309.897669734146,1.0166400872975,-309.389349690498,153.932194779776,155.457154910722
1.80268306316378,305.503735017671,311.169335749068,5.66560073139647,-308.336535383369,149.919067143137,158.417468240232
1.80547792062605,295.320692785302,309.931133790489,14.6104410051876,-302.625913287895,140.355125890057,162.270787397838
1.80827277808832,296.948973815032,305.935936274693,8.98696245966073,-301.442455044863,143.981005677686,157.461449367177
1.81106763555059,305.975442026092,306.46708557557,0.491643549477601,-306.221263800831,152.741899238307,153.479364562524
1.81386249301286,309.720205285083,310.21576726153,0.495561976446311,-309.967986273307,154.612321654319,155.355664618988
1.81665735047513,313.989397692218,314.991380873649,1.00198318143072,-314.490389282933,156.493707255394,157.99668202754
1.8194522079374,312.628314795459,320.138503542909,7.51018874744983,-316.383409169184,152.559063024005,163.824346145179
1.82224706539966,302.273727647446,314.731292267116,12.4575646196693,-308.502509957281,144.908081513889,163.594428443393
1.82504192286193,303.036122819878,314.047771565733,11.0116487458549,-308.541947192806,146.012237037012,162.529710155794
1.8278367803242,311.962398700593,318.607242486523,6.64484378592988,-315.284820593558,152.658777457332,162.626043136227
1.83063163778647,317.57612480741,319.152534777211,1.57640996980035,-318.364329792311,157.999857418805,160.364472373506
1.83342649524874,321.112418102692,320.089114717334,-1.02330338535802,-320.600766410013,161.067860744025,159.532905665988
1.83622135271101,320.736803655083,323.149094282914,2.41229062783043,-321.942948968999,159.162256513626,162.780692455372
1.83901621017328,310.207626370101,321.631797864336,11.4241714942344,-315.919712117218,149.391727437933,166.527984679285
1.84181106763555,306.1285238829,321.171005048176,15.0424811652763,-313.649764465538,145.543021358812,168.106743106726
1.84460592509782,312.964646311576,322.655965511685,9.6913192001083,-317.810305911631,151.636663555734,166.173642355897
1.84740078256009,318.497581427908,317.067124018494,-1.43045740941403,-317.782352723201,159.964019418661,157.81833330454
1.85019564002236,322.239478654073,320.188065400168,-2.05141325390497,-321.21377202712,162.145445953989,159.068326073131
1.85299049748463,323.721145285426,321.092264674102,-2.62888061132401,-322.406704979764,163.175012948375,159.231692031389
1.8557853549469,313.072365362112,318.521273870514,5.44890850840193,-315.796819616313,153.811728426855,161.985091189458
1.85858021240917,303.230239508907,316.29688593194,13.0666464230324,-309.763562720423,145.081796542937,164.681766177486
1.86137506987144,307.001065713152,317.643586191488,10.642520478336,-312.32232595232,148.179272617408,164.143053334912
1.86416992733371,312.513011374111,317.004432632548,4.4914212584365,-314.758722003329,154.010795057837,160.747926945492
1.86696478479598,319.350867244143,318.286753670831,-1.06411357331189,-318.818810457487,160.207490408727,158.61132004876
1.86975964225824,321.54649006249,318.022112766185,-3.52437729630554,-319.784301414338,162.535433679398,157.24886773494
1.87255449972051,310.852379265672,310.423652657233,-0.428726608438808,-310.638015961453,155.640552937055,154.997463024397
1.87534935718278,301.349591903934,310.419806245193,9.07021434125954,-305.884699074564,146.139688781337,159.745010293226
1.87814421464505,299.100024062576,309.584421346019,10.4843972834435,-304.342222704297,144.307813389566,160.034409314731
1.88093907210732,299.603417136679,303.937493200053,4.33407606337414,-301.770455168366,147.634670536652,154.135784631714
1.88373392956959,304.429824881642,302.370912309192,-2.05891257245008,-303.400368595417,153.244368727046,150.155999868371
1.88652878703186,308.239950909466,301.877217031853,-6.36273387761287,-305.058583970659,157.301342393539,147.75724157712
1.88932364449413,301.629714062834,297.375393745145,-4.25432031768855,-299.502553903989,152.942017190261,146.560536713728
1.8921185019564,291.476377153318,298.526586759139,7.05020960582124,-295.001481956229,142.213083773749,152.78839818248
1.89491335941867,289.178224914205,300.445544216359,11.267319302154,-294.811884565282,138.955452806026,155.856431759257
1.89770821688094,291.693190477958,299.828760327746,8.13556984978879,-295.760975402852,141.778810314084,153.982165088768
1.90050307434321,299.494223454602,297.472277167582,-2.02194628701926,-298.483250311092,150.75808487081,147.725165440282
1.90329793180548,303.947662269269,300.841045298206,-3.10661697106343,-302.394353783737,153.527139620166,148.867214163571
1.90609278926775,300.386153883368,296.32395083566,-4.0622030477071,-298.355052359514,152.224178465537,146.130873893977
1.90888764673002,294.636272602752,296.647228644774,2.01095604202192,-295.641750623763,146.312658280365,149.329092343398
1.91168250419229,288.340118660222,298.386467162431,10.0463485022084,-293.363292911326,139.146885079007,154.21640783232
1.91447736165456,284.785646860628,296.751045944976,11.9653990843482,-290.768346402802,136.41012388814,154.358222514662
1.91727221911682,292.539587409611,296.570141492921,4.03055408331056,-294.554864451266,144.25451666315,150.300347788116
1.92006707657909,299.650876358641,298.771548496284,-0.879327862356206,-299.211212427463,150.265102110498,148.946110316964
1.92286193404136,301.170139661323,296.267055590666,-4.90308407065629,-298.718597625994,153.036611865989,145.681985760005
1.92565679150363,302.814456118608,299.772866848828,-3.04158926977988,-301.293661483718,152.928022694194,148.365638789524
1.9284516489659,294.487846768679,301.331464644358,6.84361787567968,-297.909655706518,143.822114446499,154.087541260019
1.93124650642817,285.817689442395,297.656111300227,11.8384218578322,-291.736900371311,136.989633792282,154.74726657903
1.93404136389044,290.60169168155,293.683992606694,3.08230092514492,-292.142842144122,143.759695378202,148.38314676592
1.93683622135271,295.467506548438,294.761937336256,-0.705569212182695,-295.114721942347,148.08653788031,147.028184062036
1.93963107881498,293.064156132869,289.279886614044,-3.78426951882494,-291.172021373457,148.424212825847,142.74780854761
1.94242593627725,292.955062459752,287.859910734037,-5.09515172571446,-290.407486596895,149.025107092733,141.382379504161
1.94522079373952,284.487628357217,287.173573006576,2.68594464935899,-285.830600681896,140.900841853929,144.929758827967
1.94801565120179,274.854497781839,282.617255617546,7.76275783570753,-278.735876699693,133.545869973066,145.190006726627
1.95081050866406,276.626779115123,286.747580373609,10.1208012584861,-281.687179744366,133.252988928318,148.434190816048
1.95360536612633,285.223487126087,287.586334006206,2.36284688011904,-286.404910566147,141.430320122984,144.974590443163
1.9564002235886,286.976292412237,284.208058229849,-2.76823418238774,-285.592175321043,144.872263297312,140.719912023731
1.95919508105087,294.100661897945,292.983693226468,-1.11696867147703,-293.542177562207,147.608815284711,145.933362277496
1.96198993851314,299.46334818202,309.107143318999,9.64379513697924,-304.28524575051,144.90977652252,159.375469227989
1.96478479597541,309.719996150754,331.421938571981,21.7019424212273,-320.570967361368,144.009026864763,176.561940496604
1.96757965343767,335.825832900089,366.027929062522,30.2020961624331,-350.926880981306,152.811868368828,198.115012612478
1.97037451089994,372.294606882308,402.784202185975,30.4895953036678,-387.539404534142,170.90250578932,216.636898744822
1.97316936836221,405.501878801779,435.627083854426,30.1252050526472,-420.564481328103,187.688336874566,232.876144453537
1.97596422582448,438.754562010827,463.752827995864,24.9982659850374,-451.253695003346,206.878148012895,244.375546990451
1.97875908328675,458.334994145636,481.242339994142,22.9073458485063,-469.788667069889,217.713824148565,252.074842921324
1.98155394074902,448.282275020776,470.083272197776,21.8009971769999,-459.182773609276,213.240638921888,245.942134687388
1.98434879821129,435.472202576547,450.642407014757,15.1702044382095,-443.057304795652,210.150999069169,232.906305726483
1.98714365567356,414.293716428773,416.689108737345,2.39539230857156,-415.491412583059,205.949162060101,209.542250522958
1.98993851313583,385.913951882367,372.141494895625,-13.772456986742,-379.027723388996,199.843204434555,179.184518954442
1.9927333705981,364.616872561266,339.437319156973,-25.1795534042929,-352.027095859119,194.898212982779,157.12888287634
1.99552822806037,339.686209949235,312.32837726383,-27.357832685405,-326.007293606533,183.52202131732,142.485272289213
1.99832308552264,311.6038925754,292.551631466838,-19.0522611085627,-302.077762021119,165.328076841982,136.749685179138
2.00111794298491,291.027476489553,286.017601617165,-5.00987487238785,-288.522539053359,148.01867568097,140.503863372389
2.00391280044718,285.315021413085,283.311394156472,-2.00362725661222,-284.313207784779,143.659324334848,140.65388344993
2.00670765790945,290.126235360118,283.135611714549,-6.99062364556966,-286.630923537334,148.558429502844,138.07249403449
2.00950251537172,298.360064514626,291.335954540801,-7.02410997382538,-294.848009527714,152.692087244226,142.155922283488
2.01229737283399,304.909372763446,298.882905967985,-6.02646679546126,-301.896139365716,155.467919779454,146.428219586262
2.01509223029625,302.370643668743,303.389405436835,1.01876176809219,-302.880024552789,150.675940950325,152.204083602463
2.01788708775852,298.250567238469,307.238202544522,8.98763530605305,-302.744384891495,144.631465966208,158.112918925288
2.02068194522079,291.489680291514,304.422036365916,12.9323560744013,-297.955858328715,139.278662108557,158.677196220158
2.02347680268306,291.229734189383,299.122797869899,7.89306368051592,-295.176266029641,141.668335254434,153.507930775208
2.02627166014533,299.383739971954,299.494321003524,0.110581031570064,-299.439030487739,149.636579470192,149.802451017547
2.0290665176076,302.617907824961,299.85696885639,-2.76093896857145,-301.237438340675,152.689423396766,148.548014943909
2.03186137506987,300.259766569846,297.400346998375,-2.85941957147111,-298.830056784111,151.559593070659,147.270463713452
2.03465623253214,295.428663672562,299.293836440015,3.86517276745263,-297.361250056288,145.781745452555,151.579504603734
2.03745108999441,286.573631615031,300.27330874804,13.6996771330089,-293.423470181536,136.436977241011,156.986492940524
2.04024594745668,284.340951975795,293.117749171082,8.77679719528726,-288.729350573438,137.782077390254,150.947273183185
2.04304080491895,292.358021744741,295.596766269978,3.23874452523683,-293.97739400736,144.559638609752,149.417755397607
2.04583566238122,298.294812104523,297.760914732021,-0.533897372502167,-298.027863418272,149.414354738513,148.613508679759
2.04863051984349,300.166652412196,297.399379662305,-2.76727274989167,-298.783016037251,151.466962581044,147.316053456207
2.05142537730576,298.622565155535,299.374258107625,0.751692952090139,-298.99841163158,148.935436101722,150.062975529857
2.05422023476803,292.641027476244,300.152177099764,7.51114962351994,-296.396602288004,142.564938926362,153.831663361642
2.0570150922303,287.387624902343,301.11871018824,13.7310852858969,-294.253167545291,136.828269808223,157.424897737068
2.05980994969257,295.402592714489,301.73520279139,6.33261007690055,-298.568897752939,144.534991318794,154.033906434145
2.06260480715483,302.092949176121,303.688535392325,1.5955862162034,-302.890742284223,150.248681479959,152.642060804264
2.0653996646171,306.115198855786,302.381869953451,-3.73332890233473,-304.248534404618,154.92426387906,149.324270525558
2.06819452207937,305.814795313646,304.489484190046,-1.32531112360016,-305.152139751846,153.570053218623,151.582086533223
2.07098937954164,297.663412131038,305.07438150131,7.41096937027214,-301.368896816174,145.126221380383,156.242675435791
2.07378423700391,287.422514961318,300.128711812902,12.7061968515835,-293.77561338711,137.358159054867,156.417454332243
2.07657909446618,292.445024461473,304.848913534777,12.4038890733041,-298.646968998125,140.020567694084,158.626401304041
2.07937395192845,299.934122131505,303.58283195782,3.64870982631521,-301.758477044662,148.142706152595,153.615770892068
2.08216880939072,302.12728820693,299.388403773652,-2.73888443327803,-300.757845990291,152.433086320104,148.324759670187
2.08496366685299,305.924504883284,304.563544776327,-1.36096010695627,-305.244024829806,153.64273249512,151.601292334686
2.08775852431526,300.56581599847,303.950635869299,3.38481987082878,-302.258225933884,148.590498063821,153.667727870064
2.09055338177753,293.422140278344,303.156541041322,9.7344007629776,-298.289340659833,141.843869757683,156.44547090215
2.0933482392398,295.548190264343,309.957761624377,14.4095713600336,-302.75297594436,140.569309452155,162.183666492205
2.09614309670207,303.857287782214,311.459275815175,7.60198803296055,-307.658281798695,148.127649874627,159.530631924068
2.09893795416434,308.160158218476,307.366975667288,-0.793182551187613,-307.763566942882,154.476670384832,153.28689655805
2.10173281162661,315.03958481541,313.715212337481,-1.32437247792848,-314.377398576446,158.181978646669,156.195419929776
2.10452766908888,312.427772660821,313.906976749246,1.47920408842481,-313.167374705033,155.474284286198,157.693090418835
2.10732252655115,302.384753588667,311.183806555687,8.79905296701986,-306.784280072177,146.792850310824,159.991429761353
2.11011738401342,300.731245613988,315.088246802627,14.3570011886388,-307.909746208308,143.187122212675,164.722623995633
2.11291224147568,305.89442351867,315.372187433821,9.47776391515043,-310.633305476246,148.20832980176,162.424975674486
2.11570709893795,313.250863235799,315.388872902386,2.1380096665871,-314.319868069093,155.556426784606,158.763441284487
2.11850195640022,319.057760271193,316.813798347742,-2.2439619234508,-317.935779309467,160.650861097322,157.284918212146
2.12129681386249,319.171690006826,313.809220462202,-5.36246954462388,-316.490455234514,162.267079775725,154.223375458789
2.12409167132476,308.344118972051,311.238259456003,2.89414048395179,-309.791189214027,152.72498924405,157.066199969977
2.12688652878703,302.950842980088,316.162974992669,13.2121320125812,-309.556908986378,144.869355483753,164.687553502625
2.1296813862493,304.992187950422,317.226449152346,12.2342612019245,-311.109318551384,146.378963374249,164.730355177135
2.13247624371157,311.370824706267,316.408513084637,5.03768837836952,-313.889668895452,153.166568163949,160.723100731503
2.13527110117384,320.981881530047,316.913354447111,-4.06852708293661,-318.947617988579,162.525204306492,156.422413682087
2.13806595863611,320.809626145916,319.735787349231,-1.07383879668481,-320.272706747573,160.9417324713,159.330974276273
2.14086081609838,317.309885702518,320.290424080456,2.98053837793822,-318.800154891487,157.16467366229,161.635481229197
2.14365567356065,313.219141279979,323.26955554787,10.0504142678913,-318.244348413924,151.584363506044,166.659984907881
2.14645053102292,311.091290051321,325.096620100008,14.0053300486874,-318.093955075664,148.542980001317,169.550975074348
2.14924538848519,317.465182703897,324.428471924257,6.96328922035974,-320.946827314077,155.250946741769,165.695880572308
2.15204024594746,327.945091051637,328.049660021405,0.104568969768195,-327.997375536521,163.920261040934,164.077114495587
2.15483510340973,330.499332395379,325.644224436883,-4.85510795849683,-328.071778416131,167.677220176938,160.394558239193
2.157629960872,329.296347045968,329.34787894494,0.0515318989729394,-329.322112995454,164.622407573497,164.699705421957
2.16042481833426,328.516496628544,338.377123769604,9.86062714106077,-333.446810199074,159.327934743741,174.118875455333
2.16321967579653,324.173337002922,336.916644115473,12.7433071125518,-330.544990559197,155.715014945185,174.829975614013
2.1660145332588,326.536297815849,338.441571933446,11.9052741175972,-332.488934874647,157.315511849126,175.173423025521
2.16880939072107,336.951442968598,342.25369097868,5.3022480100816,-339.602566973639,165.824597479258,173.777969494381
2.17160424818334,338.253538157808,342.617471459202,4.3639333013939,-340.435504808505,166.944802428207,173.490702380298
2.17439910564561,339.331581231034,337.407507915217,-1.92407331581734,-338.369544573125,170.627827273426,167.7417172997
2.17719396310788,336.751208801511,341.49922933313,4.74802053161949,-339.12521906732,166.001594134946,173.123624932375
2.17998882057015,328.199755879432,339.840415399696,11.6406595202639,-334.020085639564,158.279548179584,175.74053745998
2.18278367803242,325.616133103541,336.515697285238,10.8995641816976,-331.065915194389,157.358284460921,173.707630733468
2.18557853549469,337.899047085851,345.281445217074,7.38239813122271,-341.590246151463,165.258324477314,176.331921674148
2.18837339295696,343.004885918133,343.435742937891,0.430857019757241,-343.220314428012,171.287014449188,171.933299978824
2.19116825041923,347.394667506804,345.478956570614,-1.91571093619041,-346.436812038709,174.655189221497,171.781622817212
2.1939631078815,349.962174024962,348.615797146537,-1.34637687842456,-349.288985585749,175.654275451693,173.634710134056
2.19675796534377,341.150691863228,349.732864592481,8.58217272925378,-345.441778227855,166.284259566987,179.157518660868
2.19955282280604,337.667449003014,352.579324586352,14.9118755833378,-345.123386794683,161.377786709838,183.745600084845
2.20234768026831,342.972462070173,351.398323006596,8.42586093642342,-347.185392538385,167.273300566875,179.91209197151
2.20514253773058,348.901216703175,348.353793426831,-0.547423276344603,-348.627505065003,174.72431998976,173.903185075243
2.20793739519284,350.500118516811,347.573007944344,-2.92711057246714,-349.036563230577,176.713614544639,172.322948685938
2.21073225265511,353.051906499518,350.663217077669,-2.38868942184928,-351.857561788593,177.720297960684,174.13726382791
2.21352711011738,344.025538727858,347.585041331835,3.55950260397651,-345.805290029846,170.233018061941,175.572271967906
2.21632196757965,333.730723261705,343.664807392563,9.93408413085837,-338.697765327134,161.898319565423,176.799445761711
2.21911682504192,338.002939402893,349.419047418008,11.4161080151152,-343.710993410451,163.293415693889,180.417577716562
2.22191168250419,340.828968313844,347.224353076762,6.39538476291727,-344.026660695303,167.216791775464,176.809868919839
2.22470653996646,346.633813345087,340.674854308745,-5.95895903634261,-343.654333826916,176.296386190715,167.357947636201
2.22750139742873,349.994042637821,346.687869748712,-3.30617288910935,-348.340956193266,176.650107763465,171.690848429801
2.230296254891,341.789413594739,341.46926228736,-0.320151307378353,-341.629337941049,171.054782451058,170.574555489991
2.23309111235327,326.795208180869,333.763416979383,6.96820879851481,-330.279312580126,159.913499691177,170.365812888949
2.23588596981554,323.087249734196,334.378523597405,11.2912738632089,-328.7328866658,155.897987935494,172.834898730307
2.23868082727781,324.903259917107,328.140032022496,3.23677210538915,-326.521645969802,160.833243905859,165.688402063943
2.24147568474008,325.781344426578,323.79811466277,-1.98322976380734,-324.789729544674,163.882287095193,160.907442449481
2.24427054220235,331.721971251921,321.52696198437,-10.1950092675503,-326.624466618146,170.958490259736,155.66597635841
2.24706539966462,324.461298661425,318.327377492752,-6.13392116867311,-321.394338077089,165.297609915049,156.096728162039
2.24986025712689,311.874417122994,315.869417297041,3.99500017404773,-313.871917210018,153.939708474473,159.932208735545
2.25265511458916,303.146330387956,311.228048259699,8.08171787174319,-307.187189323828,147.532306258107,159.654883065721
2.25544997205143,300.997057801075,307.022735590821,6.02567778974606,-304.009896695948,147.485690005664,156.524206690283
2.25824482951369,305.911003002142,303.910191219357,-2.00081178278464,-304.91059711075,153.955907392463,150.954689718286
2.26103968697596,310.360653442851,304.380823917503,-5.97982952534846,-307.370738680177,158.1702414841,149.200497196077
2.26383454443823,308.109387074032,301.174769785244,-6.93461728878788,-304.642078429638,157.52200218141,147.120076248228
2.2666294019005,298.963834115622,298.965735988675,0.00190187305270229,-298.964785052148,149.480966121285,149.483818930864
2.26942425936277,291.255887215108,301.139160242865,9.88327302775696,-296.197523728987,140.686307093676,155.511216635311
2.27221911682504,285.091210345494,297.900039135301,12.8088287898071,-291.495624740397,136.141190777843,155.354433962554
2.27501397428731,291.012461194317,293.014208111028,2.00174691671089,-292.013334652673,144.505357138803,147.507977513869
2.27780883174958,298.048818310877,295.337820973253,-2.71099733762412,-296.693319642065,150.379907824251,146.313411817814
2.28060368921185,295.787169375719,291.091447325379,-4.69572205034012,-293.439308350549,150.24144571303,143.19786263752
2.28339854667412,293.068406202931,288.058687263049,-5.0097189398823,-290.56354673299,149.039062571407,141.524484161583
2.28619340413639,287.388438476633,295.041162860949,7.65272438431572,-291.214800668791,139.867857046159,151.346943622632
2.28898826159866,279.151099792001,289.760301030396,10.6092012383954,-284.455700411198,134.270949276803,150.184751134396
2.29178311906093,286.095897849001,293.120096813714,7.02419896471287,-289.607997331357,139.535849442144,150.072147889213
2.2945779765232,295.833160425125,293.321199674737,-2.51196075038717,-294.577180049931,149.172560587756,145.404619462175
2.29737283398547,295.520284020284,290.997504218488,-4.52277980179582,-293.258894119386,150.02153191104,143.237362208346
2.30016769144774,295.192368150145,293.153926436229,-2.03844171391546,-294.173147293187,148.61540493203,145.557742361157
2.30296254891001,292.568972131575,294.023268276262,1.45429614468691,-293.296120203918,145.557337993444,147.738782210474
2.30575740637227,279.189098080418,292.677062306158,13.48796422574,-285.933080193288,132.850566927339,153.082513265949
2.30855226383454,282.171119814671,292.231434752007,10.060314937335,-287.201277283339,136.055402438668,151.145874844671
2.31134712129681,291.671683615564,292.327753206613,0.656069591048208,-291.999718411089,145.507807012258,146.49191139883
2.31414197875908,293.34639406269,289.930655525129,-3.41573853756069,-291.638524793909,148.381066300125,143.257458493784
2.31693683622135,295.32451536449,292.248748117347,-3.07576724714278,-293.786631740918,149.200141305816,144.586490435102
2.31973169368362,292.64561122087,293.966632810736,1.32102158986561,-293.306122015803,145.662294815502,147.643827200301
2.32252655114589,283.171637097562,293.565987102631,10.3943500050691,-288.368812100096,136.388643546246,151.98016855385
2.32532140860816,278.249045924113,293.350291018636,15.1012450945229,-285.799668471374,131.573900414795,154.225768056579
2.32811626607043,287.590667552868,293.346630030141,5.7559624772731,-290.468648791505,140.917352537797,149.551296253707
2.3309111235327,291.264546966144,291.870994792596,0.606447826451472,-291.56777087937,145.329049569846,146.238721309524
2.33370598099497,294.452895731451,292.346272977443,-2.10662275400875,-293.399584354447,148.27975924273,145.119825111717
2.33650083845724,297.624279121786,294.918941407841,-2.70533771394531,-296.271610264813,150.164808417866,146.106801846948
2.33929569591951,284.042515996515,291.470878006164,7.42836200964911,-287.756697001339,138.307076993433,149.449620007907
2.34209055338178,279.343626103988,291.46953333416,12.1259072301718,-285.406579719074,133.608859436908,151.797720282166
2.34488541084405,284.606664615255,293.329860907144,8.72319629188968,-288.968262761199,137.941734161682,151.026528599517
2.34768026830632,288.27016657161,292.799746343659,4.52957977204829,-290.534956457634,141.870293399781,148.664663057853
2.35047512576859,294.563519187607,291.446735388091,-3.1167837995157,-293.005127287849,148.840151493561,144.164975794288
2.35326998323086,298.488856117372,294.875699370871,-3.61315674650172,-296.682277744121,151.051006431937,145.631271312184
2.35606484069312,291.865812862274,294.401026846763,2.53521398448902,-293.133419854519,144.665299438893,148.468120415626
2.35885969815539,285.469284517049,298.594462591561,13.1251780745118,-292.031873554305,136.172053221269,155.859820333036
2.36165455561766,286.726211214579,302.304645469167,15.5784342545882,-294.515428341873,135.573888479995,158.941539861878
2.36444941307993,295.328520402598,299.670660376207,4.34213997360888,-297.499590389403,145.493190214495,152.006400174908
2.3672442705422,302.668866684402,302.576196516239,-0.0926701681638633,-302.62253160032,151.380768426283,151.241763174037
2.37003912800447,304.333583912664,300.923899662233,-3.40968425043093,-302.628741787448,153.871634081547,148.757107705901
2.37283398546674,298.660593892033,297.371858268721,-1.28873562331233,-298.016226080377,149.974664757673,148.041561322704
2.37562884292901,288.620564763604,297.711403181943,9.09083841833888,-293.165983972774,139.764863172633,153.401120800141
2.37842370039128,285.887951385556,299.239147190848,13.351195805292,-292.563549288202,136.268377790132,156.29517149807
2.38121855785355,287.439839401266,294.609489791922,7.16965039065582,-291.024664596594,140.135094505305,150.889570091289
2.38401341531582,296.720034161853,296.67290955433,-0.0471246075227327,-296.696471858091,148.383579384688,148.312892473404
2.38680827277809,301.016418506104,299.836983518757,-1.17943498734684,-300.42670101243,151.097926746725,149.328774265705
2.38960313024036,301.423523898233,299.301185601865,-2.12233829636796,-300.362354750049,151.7729310973,148.589423652749
2.39239798770263,293.799470806684,297.842869404618,4.04339859793311,-295.821170105651,144.878036104376,150.943134001275
2.3951928451649,288.075051411347,302.219162393615,14.1441109822678,-295.147106902481,136.96547021454,158.181636687942
2.39798770262717,286.54588094597,298.553502099288,12.0076211533183,-292.549691522629,137.269129896326,155.280561626303
2.40078256008944,294.765080789013,299.785876963396,5.0207961743825,-297.275478876204,144.872142307315,152.403336568889
2.4035774175517,298.730689508462,300.786216564784,2.05552705632186,-299.758453036623,148.33758122607,151.420871810553
2.40637227501397,301.232159555458,299.257005345032,-1.97515421042652,-300.244582450245,151.603656882942,148.640925567303
2.40916713247624,298.979876006056,301.964360008806,2.98448400274975,-300.472118007431,147.997696001653,152.474422005778
2.41196198993851,290.198818714969,299.140625313558,8.94180659858927,-294.669722014263,140.62850605819,154.041215956074
2.41475684740078,284.605914369609,296.508988884805,11.9030745151969,-290.557451627207,136.351419927206,154.206031700001
2.41755170486305,289.810316033803,295.8841603674,6.07384433359738,-292.847238200602,141.868235850103,150.979002350499
2.42034656232532,298.499558776547,299.701697326578,1.20213855003078,-299.100628051562,148.648710113258,150.451917938304
2.42314141978759,302.091120166421,299.216049858358,-2.87507030806302,-300.653585012389,152.483095237242,148.170489775148
2.42593627724986,303.160593368979,301.087201992289,-2.0733913766901,-302.123897680634,152.616992372835,149.5069053078
2.42873113471213,296.278338202392,302.075957194559,5.7976189921668,-299.177147698476,145.240359605113,153.936788093363
2.4315259921744,289.613566787354,300.448335919433,10.8347691320789,-295.030951353394,139.389398827638,155.641552525756
2.43432084963667,294.886682534113,302.006928727636,7.12024619352275,-298.446805630874,143.883218170295,154.563587460579
2.43711570709894,300.350715722568,300.652202881679,0.301487159110764,-300.501459302124,150.024614281729,150.476845020395
2.43991056456121,301.012123567722,296.197582894766,-4.81454067295573,-298.604853231244,152.913332120339,145.691521110905
2.44270542202348,302.319589905002,298.193146026974,-4.12644387802811,-300.256367965988,153.223016891515,147.033351074473
2.44550027948575,296.285423150928,300.97236470119,4.68694155026179,-298.628893926059,145.799240800333,152.829653125726
2.44829513694802,283.618814406314,298.401815490353,14.7830010840393,-291.010314948333,134.417906661137,156.592408287196
2.45108999441028,286.933081987236,299.113094014865,12.1800120276295,-293.023088001051,137.376534979803,155.646553021247
2.45388485187255,296.18304335403,303.58277183474,7.39972848071022,-299.882907594385,144.39165743666,155.491250157725
2.45667970933482,300.97520927196,300.166938032876,-0.808271239084718,-300.571073652418,150.891740255523,149.679333396895
2.45947456679709,306.464997333602,304.326052504529,-2.13894482907307,-305.395524919065,154.301971081337,151.093553837728
2.46226942425936,304.225820063432,303.902831670726,-0.322988392705554,-304.064325867079,152.274404228069,151.78992163901
2.46506428172163,294.547571541336,304.365243554344,9.81767201300761,-299.45640754784,142.364949764164,157.091457783676
2.4678591391839,291.073181937892,305.236907430895,14.1637254930026,-298.155044684394,138.454728222445,159.700316461949
2.47065399664617,298.201928618964,307.516418451454,9.31448983249061,-302.859173535209,144.443719393237,158.415454141972
2.47344885410844,305.022658874628,304.145357611578,-0.877301263049958,-304.584008243103,152.949980068839,151.634028174264
2.47624371157071,313.560904765425,309.458274201905,-4.10263056352005,-311.509589483665,158.831767664473,152.677821819193
2.47903856903298,314.034985043022,311.82664644463,-2.20833859839229,-312.930815743826,158.121661820707,154.809153923119
2.48183342649525,307.410982906314,311.311043813144,3.90006090682999,-309.361013359729,151.755460999742,157.605552359987
2.48462828395752,301.288139394901,312.38542451878,11.0972851238792,-306.836781956841,145.095427135511,161.74135482133
2.48742314141979,304.332755743084,313.488062183158,9.15530644007458,-308.910408963121,147.588724651505,161.321684311616
2.49021799888206,307.112503289194,310.145669874509,3.03316658531497,-308.629086581852,152.03966835194,156.589418229912
2.49301285634433,314.605650897077,312.582273015076,-2.02337788200157,-313.593961956076,158.314514389539,155.279447566537
2.4958077138066,317.774789728077,315.736521921703,-2.03826780637337,-316.75565582489,159.906528767225,156.849127057665
2.49860257126887,314.29472908243,315.285735323375,0.991006240945183,-314.790232202902,156.651861420742,158.13837078216
2.50139742873113,307.499786884678,320.511285840954,13.0114989562761,-314.005536362816,147.244143964201,166.761392398615
2.5041922861934,307.436824139581,320.394276690685,12.9574525511039,-313.915550415133,147.239685794238,166.675864620894
2.50698714365567,313.204263654625,322.120615170635,8.91635151600963,-317.66243941263,152.143956069308,165.518483343322
2.50978200111794,321.641002666756,320.752905358324,-0.888097308432123,-321.19695401254,161.264549987594,159.932404024946
2.51257685858021,323.488300954501,320.708272214074,-2.78002874042738,-322.098286584287,163.134164847464,158.964121736823
2.51537171604248,318.181741816241,317.297990364615,-0.883751451626267,-317.739866090428,159.532746633934,158.207119456494
2.51816657350475,312.734346756436,321.599327349629,8.86498059319263,-317.166837053033,151.934683081622,165.232153971411
2.52096143096702,306.559504737114,320.260358329894,13.7008535927803,-313.409931533504,146.429325572167,166.980605961337
2.52375628842929,306.321870016486,315.124696059482,8.80282604299583,-310.723283037984,148.759521986745,161.963761051239
2.52655114589156,317.592479206292,319.85530164361,2.26282243731828,-318.723890424951,157.664828384487,161.059062040464
2.52934600335383,321.129178480608,316.591750675533,-4.53742780507497,-318.86046457807,162.833303142841,156.027161435229
2.5321408608161,319.099505072023,316.320654386874,-2.77885068514837,-317.710079729449,160.939177878586,156.770901850863
2.53493571827837,316.964672943083,319.668752761933,2.70407981885086,-318.316712852508,157.130296562116,161.186416290392
2.53773057574064,305.652225292939,312.117913034534,6.46568774159482,-308.885069163736,149.593268775672,159.291800388064
2.54052543320291,298.421714731539,309.171151339968,10.7494366084291,-303.796433035753,143.836139061555,159.960293974199
2.54332029066518,305.536074819545,308.912967051068,3.3768922315229,-307.224520935307,151.079591294011,156.144929641295
2.54611514812745,310.842666504313,307.46500755498,-3.37765894933318,-309.153837029647,157.110162726823,152.043674302823
2.54891000558971,309.103848804282,302.367269367138,-6.73657943714363,-305.73555908571,157.920214120713,147.815344964997
2.55170486305198,307.084725884661,303.673336634667,-3.41138924999416,-305.379031259664,155.248057567328,150.130973692336
2.55449972051425,297.624699085304,304.96402280862,7.33932372331532,-301.294360946962,145.142687680994,156.151673265967
2.55729457797652,288.498018227722,301.216066232507,12.7180480047853,-294.857042230115,137.889985111468,156.967057118646
2.56008943543879,295.485377287247,301.969333322254,6.48395603500671,-298.727355304751,144.50071062612,154.22664467863
2.56288429290106,299.593633684662,300.333220145259,0.739586460596342,-299.963426914961,149.427023612033,150.536403302928
2.56567915036333,301.139877433199,298.409084201439,-2.73079323175983,-299.774480817319,151.935335332479,147.83914548484
2.5684740078256,303.17926618031,296.706864013737,-6.47240216657292,-299.943065097024,154.825834173442,145.117230923582
2.57126886528787,292.529605799897,297.829879687021,5.30027388712415,-295.179742743459,143.614665956386,151.565076787073
2.57406372275014,282.538340033928,294.275082220379,11.7367421864504,-288.406711127153,135.400798923739,153.005912203415
2.57685858021241,287.490732738817,298.007887088119,10.517154349302,-292.749309913468,138.486789194757,154.26252071871
2.57965343767468,293.450950284687,297.172940767587,3.72199048289951,-295.311945526137,144.864479900894,150.447465625243
2.58244829513695,297.205304155273,297.433805891998,0.228501736725036,-297.319555023636,148.488401209274,148.831153814362
2.58524315259922,303.241816610586,300.78224873329,-2.45956787729591,-302.012032671938,152.850692243941,149.161340427997
2.58803801006149,299.371717765138,299.70491333491,0.333195569771988,-299.538315550024,149.519261097683,150.019054452341
2.59083286752376,289.526353062622,300.314864194906,10.7885111322842,-294.920608628764,139.368920965169,155.551687663595
2.59362772498603,288.635308550299,302.11865843592,13.4833498856209,-295.376983493109,137.575979332339,157.80100416077
2.59642258244829,291.470498688562,299.081635432996,7.61113674443374,-295.276067060779,141.929680972064,153.346386088715
2.59921743991056,297.31359964652,299.474182223844,2.16058257732448,-298.393890935182,147.576508534598,150.817382400584
2.60201229737283,303.218673107368,299.843063153262,-3.37560995410558,-301.530868130315,153.297141530737,148.233726599578
2.6048071548351,298.106243977554,294.598622561232,-3.50762141632185,-296.352433269393,150.806932696938,145.545500572455
2.60760201229737,284.522171885368,286.389129169213,1.86695728384467,-285.455650527291,141.327607300762,144.128043226529
2.61039686975964,277.775452628818,287.122013988545,9.34656135972722,-282.448733308681,134.214445634545,148.234287674136
2.61319172722191,277.560742898429,286.974480958283,9.41373805985336,-282.267611928356,134.073502419288,148.194109509068
2.61598658468418,285.467115798907,285.552640267435,0.0855244685280354,-285.509878033171,142.690795665189,142.819082367981
2.61878144214645,292.021330722066,289.780196218634,-2.24113450343214,-290.90076347035,147.131232612749,143.769530857601
2.62157629960872,292.707385397954,289.398884750318,-3.3085006476353,-291.053135074136,148.007943022794,143.045192051342
2.62437115707099,290.512223584419,296.444300400579,5.93207681615939,-293.478261992499,142.29007338413,151.188188608369
2.62716601453326,294.010916897295,312.231850098669,18.2209332013739,-303.121383497982,137.894991847961,165.226391650022
2.62996087199553,309.589037019839,336.751810446267,27.1627734264275,-323.170423733053,141.213131796706,181.957291936347
2.6327557294578,340.494112374812,363.474843985845,22.9807316110328,-351.984478180328,158.75669038189,193.227787798439
2.63555058692007,377.283004363357,399.386006546888,22.1030021835313,-388.334505455123,177.590001089913,210.74450436521
2.63834544438234,405.264241260947,430.240365060269,24.9761237993223,-417.752303160608,190.144058730812,227.608244429796
2.64114030184461,430.296172601004,455.244459186967,24.9482865859631,-442.770315893986,202.67394300752,240.096372886465
2.64393515930688,444.334688880997,475.569783839906,31.2350949589093,-459.952236360452,206.549796961044,253.402439399408
2.64673001676914,442.00485518527,473.076341073397,31.0714858881274,-457.540598129333,205.466684648571,252.073913480762
2.64952487423141,436.446849122772,451.408124558923,14.9612754361503,-443.927486840848,210.742786843311,233.184699997537
2.65231973169368,423.978670726913,421.165884623916,-2.81278610299699,-422.572277675414,213.395728414955,209.176549260459
2.65511458915595,397.589670426026,378.83848337172,-18.7511870543058,-388.214076898873,208.170428740166,180.043648158707
2.65790944661822,364.507471963346,338.577685871014,-25.9297860923323,-351.54257891718,195.218629027839,156.323949889341
2.66070430408049,334.864816531967,313.488703781815,-21.376112750152,-324.176760156891,178.120464641059,146.056295515831
2.66349916154276,300.990419055612,291.696670401101,-9.29374865451098,-296.343544728356,155.142083855061,141.201460873295
2.66629401900503,290.757227929754,283.725096343563,-7.03213158619008,-287.241162136658,148.894679757972,138.346482378687
2.6690888764673,295.694402089218,285.868222117884,-9.82617997133445,-290.781312103551,152.760291030276,138.021021073275
2.67188373392957,299.816122989742,289.090503377066,-10.7256196126753,-294.453313183404,155.270871301208,139.182441882195
2.67467859139184,305.6415607475,298.689468394395,-6.95209235310483,-302.165514570947,156.296826550302,145.868688020645
2.67747344885411,309.678220536192,308.353165671248,-1.32505486494392,-309.01569310372,155.501637700568,153.514055403152
2.68026830631638,297.775800935806,310.415191421579,12.6393904857736,-304.095496178693,142.568205225016,161.527290953677
2.68306316377865,292.809180751292,308.757350473713,15.9481697224215,-300.783265612503,138.430505514435,162.352760098067
2.68585802124092,298.770996354327,303.199379631761,4.42838327743374,-300.985187993044,147.171306538447,153.813881454597
2.68865287870319,300.765183847915,297.209545877563,-3.55563797035222,-298.987364862739,152.160410909134,146.826953953605
2.69144773616546,302.753755638857,299.796803173446,-2.95695246541084,-301.275279406152,152.855354052134,148.419925354018
2.69424259362772,305.671759266657,302.23869919067,-3.43306007598682,-303.955229228664,154.552409671322,149.402819557342
2.69703745108999,298.640934058268,304.194934164746,5.55400010647816,-301.417934111507,146.543466975895,154.874467135612
2.69983230855226,289.875492331781,301.840987236981,11.9654949052,-295.858239784381,138.95499871329,156.90324107109
2.70262716601453,297.801240405146,307.26430235317,9.46306194802361,-302.532771379158,144.169089228561,158.363682150597
2.7054220234768,302.700535995716,306.122969322341,3.4224333266248,-304.411752659028,149.639051334546,154.772701324483
2.70821688093907,304.866988473061,303.886480396137,-0.980508076923684,-304.376734434599,152.923748274992,151.452986159607
2.71101173840134,309.679388897615,303.302979809147,-6.37640908846845,-306.491184353381,158.027898993042,148.463285360339
2.71380659586361,301.478019983602,301.133875973058,-0.34414401054471,-301.30594797833,150.911081997074,150.394865981256
2.71660145332588,288.948036253757,298.938509497631,9.99047324387362,-293.943272875694,139.478781504942,154.464491370752
2.71939631078815,290.87203832785,303.206194435146,12.3341561072966,-297.039116381498,139.268941110277,157.770175271222
2.72219116825042,297.732064240275,303.97993973957,6.24787549929556,-300.856001989923,145.74209437049,155.113907619433
2.72498602571269,305.984706456238,305.985917340026,0.0012108837879623,-305.985311898132,152.991747786225,152.993564111907
2.72778088317496,310.529752268997,309.330562354877,-1.19918991411947,-309.930157311937,155.864471091558,154.065686220379
2.73057574063723,307.196626153215,308.007411128101,0.810784974886815,-307.602018640658,153.192920589164,154.409098051494
2.7333705980995,299.034004405442,307.037185548845,8.00318114340331,-303.035594977144,145.515411631019,157.520183346124
2.73616545556177,296.0838373067,309.28124018055,13.1974028738498,-302.682538743625,141.443217216425,161.2393215272
2.73896031302404,299.81644543966,309.909939631637,10.0934941919769,-304.863192535649,144.861475623842,160.001716911807
2.74175517048631,308.092423077655,310.091633104724,1.99921002706867,-309.092028091189,153.046606525293,156.045421565896
2.74455002794857,315.361620392486,311.340066754068,-4.02155363841717,-313.350843573277,159.691587015451,153.659256557826
2.74734488541084,311.895669724701,308.905144053576,-2.99052567112454,-310.400406889138,157.443097697913,152.957309191226
2.75013974287311,305.144809520846,307.142891095272,1.99808157442584,-306.143850308059,151.57336397321,154.570486334849
2.75293460033538,299.315020145944,313.281507091014,13.9664869450696,-306.298263618479,142.674266600437,163.623997018042
2.75572945779765,299.927920940372,309.79293970758,9.86501876720752,-304.860430323976,145.031451086582,159.828979237394
2.75852431525992,309.185618803497,311.203197954836,2.01757915133965,-310.194408379166,153.584019826078,156.610388553088
2.76131917272219,316.128106384771,317.34735141834,1.21924503356968,-316.737728901555,157.4544306756,159.283298225955
2.76411403018446,316.593611450119,314.783902920052,-1.80970853006716,-315.688757185086,159.201659990093,156.487097194993
2.76690888764673,316.282045186463,316.259543145502,-0.0225020409612853,-316.270794165983,158.152273613712,158.11852055227
2.769703745109,308.554107880796,321.329400537025,12.7752926562294,-314.941754208911,147.889407612283,167.052346596627
2.77249860257127,304.995640421755,320.70178419179,15.7061437700349,-312.848712306773,144.64474832586,168.203963980913
2.77529346003354,311.273122776838,319.327244086627,8.05412130978902,-315.300183431732,151.609500733524,163.690682698208
2.77808831749581,318.956524840346,321.398606869916,2.44208202957077,-320.177565855131,158.257221405387,161.920344449744
2.78088317495808,319.362149708373,318.728257006987,-0.63389270138606,-319.04520335768,159.99802120488,159.047182152801
2.78367803242035,322.43377278158,319.373654533677,-3.0601182479034,-320.903713657629,162.746945514742,158.156768142887
2.78647288988262,315.7127366507,322.286819694535,6.57408304383534,-318.999778172617,154.569326803432,164.430451369185
2.78926774734489,305.00490356876,317.595500841075,12.5905972723148,-311.300202204917,146.207153148223,165.093049056695
