t,leadI,leadII,leadIII,aVR,aVL,aVF
0,1022,509,-513,-765.5,767.5,-2
0.00216262975778547,1021,509,-512,-765,766.5,-1.5
0.00432525951557093,1013.58115522395,505.301476992155,-508.279678231795,-759.441316108053,760.930416727873,-1.48910061981974
0.0064878892733564,1008.75169881518,503.39237482559,-505.359323989591,-756.072036820386,757.055511402386,-0.983474582000781
0.00865051903114187,1022.8648160673,510.428580362284,-512.436235705013,-766.64669821479,767.650525886155,-1.00382767136495
0.0108131487889273,1040.33911904251,518.144708478386,-522.194410564122,-779.241913760447,781.266764803315,-2.02485104286836
0.0129757785467128,1037.19391307353,515.082591849101,-522.111321224434,-776.138252461318,779.652617148984,-3.51436468766644
0.0151384083044983,1023.29890296909,510.160336928374,-513.138566040718,-766.729619948733,768.218734504905,-1.48911455617184
0.0173010380622837,1021.32098342681,509.153836943196,-512.167146483615,-765.237410185003,766.744064955213,-1.50665477020988
0.0194636678200692,1019.07450373585,508.515924665297,-510.558579070557,-763.795214200575,764.816541403205,-1.02132720262989
0.0216262975778547,1012.51385993772,504.241980907252,-508.271879030466,-758.377920422485,760.392869484092,-2.0149490616073
0.0237889273356401,1013.35793373031,504.680559717763,-508.677374012547,-759.019246724037,761.017653871429,-1.99840714739224
0.0259515570934256,1027.45059867061,513.220937709613,-514.229660960998,-770.335768190112,770.840129815805,-0.504361625692695
0.0281141868512111,1037.8730858132,518.426717908448,-519.446367904749,-778.149901860823,778.659726858973,-0.509824998150293
0.0302768166089965,1029.95045804448,513.969792184252,-515.980665860228,-771.960125114366,772.965561952354,-1.00543683798776
0.032439446366782,1023.48928693069,509.245713501345,-514.243573429343,-766.367500216016,768.866430180015,-2.49892996399871
0.0346020761245675,1022.87651425381,509.432964517404,-513.443549736409,-766.154739385608,768.160031995111,-2.00529260950219
0.0367647058823529,1016.30331466705,507.649475004152,-508.653839662902,-761.976394835603,762.478577164978,-0.502182329374648
0.0389273356401384,1009.19875587545,503.601577185807,-505.597178689639,-756.400166530627,757.397967282543,-0.997800751916088
0.0410899653979239,1015.41747568874,506.711138433678,-508.706337255062,-761.064307061209,762.061906471901,-0.997599410692203
0.0432525951557093,1033.1913399641,515.588194202487,-517.603145761617,-774.389767083295,775.397242862861,-1.00747577956531
0.0454152249134948,1040.40075143775,516.692860049602,-523.707891388144,-778.546805743674,782.054321412945,-3.50751566927102
0.0475778546712803,1026.81229565852,511.927540149483,-514.884755509034,-769.369917904,770.848525583776,-1.47860767977551
0.0497404844290657,1020.92359080847,508.965578740278,-511.958012068189,-764.944584774372,766.440801438328,-1.49621666395552
0.0519031141868512,1022.16995351826,509.55855050722,-512.61140301104,-765.86425201274,767.39067826465,-1.52642625190964
0.0540657439446367,1016.06258270552,506.501155182557,-509.561427522963,-761.281868944038,762.812005114241,-1.53013617020309
0.0562283737024221,1010.24007983085,503.609441496934,-506.630638333913,-756.92476066389,758.435359082379,-1.51059841848939
0.0583910034602076,1021.48469638376,509.242437311163,-512.2422590726,-765.363566847463,766.863477728181,-1.49991088071823
0.0605536332179931,1037.3932321343,517.199902711784,-520.193329422515,-777.296567423041,778.793280778407,-1.49671335536584
0.0627162629757786,1024.32164732773,516.176313034427,-508.145334293301,-770.248980181077,766.233490810514,4.01548937056316
0.064878892733564,997.596358078485,510.282900827955,-487.31345725053,-753.93962945322,742.454907664507,11.4847217887121
0.0670415224913495,992.290959797642,509.159023263952,-483.13193653369,-750.724991530797,737.711448165666,13.0135433651309
0.069204152249135,989.546051807916,508.336629463789,-481.209422344127,-748.941340635852,735.377737076022,13.5636035598307
0.0713667820069204,976.730690635455,505.332990333566,-471.397700301889,-741.031840484511,724.064195468672,16.9676450158386
0.0735294117647059,976.056293507932,504.423240763459,-471.633052744474,-740.239767135696,723.844673126203,16.3950940094924
0.0756920415224914,997.707669723001,511.927500130414,-485.780169592587,-754.817584926708,741.743919657794,13.0736652689134
0.0778546712802768,1013.21055353949,517.8269554655,-495.38359807399,-765.518754502495,754.29707580674,11.2216786957546
0.0800173010380623,1012.09399809699,514.192289985374,-497.901708111616,-763.143144041182,754.997853104303,8.14529093687884
0.0821799307958478,1002.43441011158,509.249133710463,-493.185276401113,-755.841771911019,747.809843256344,8.03192865467497
0.0843425605536332,1011.18518736885,509.577011310662,-501.608176058184,-760.381099339754,756.396681713515,3.98441762623935
0.0865051903114187,1020.47557688349,508.684976269419,-511.790600614069,-764.580276576454,766.133088748779,-1.55281217232488
0.0886678200692042,1011.90014433038,504.411798368953,-507.488345961424,-758.155971349665,759.6942451459,-1.53827379623579
0.0908304498269896,1013.04295251812,506.012673187865,-507.030279330255,-759.527812852993,760.036615924187,-0.508803071194905
0.0929930795847751,1026.71802118448,514.37186737989,-512.346153804593,-770.544944282186,769.532087494538,1.01285678764839
0.0951557093425606,1018.86563846501,517.454065140571,-501.411573324437,-768.159851802789,760.138605894722,8.02124590806727
0.097318339100346,995.417198943626,512.161444090518,-483.255754853108,-753.789321517072,739.336476898367,14.4528446187048
0.0994809688581315,981.832545747314,508.88164284945,-472.950902897864,-745.357094298382,727.391724322589,17.9653699757926
0.101643598615917,982.608732323375,509.928087285491,-472.680645037884,-746.268409804433,727.64468868063,18.6237211238034
0.103806228373702,989.09098612356,506.649418158433,-482.441567965128,-747.870202140997,735.766277044344,12.1039250966526
0.105968858131488,989.092255448837,504.034434010613,-485.057821438224,-746.563344729725,737.075038443531,9.4883062861947
0.108131487889273,1003.4468706703,508.216681273887,-495.230189396412,-755.831775972093,749.338530033356,6.49324593873723
0.110294117647059,1019.27777987499,516.202070078946,-503.075709796041,-767.739924976966,761.176744835514,6.56318014145222
0.112456747404844,1017.32448531928,516.211801642725,-501.11268367655,-766.768143481,759.218584497913,7.54955898308731
0.11461937716263,1004.89748559669,510.430665335298,-494.466820261393,-757.664075465995,749.682152929042,7.98192253695248
0.116782006920415,994.124058990838,509.065576032824,-485.058482958014,-751.594817511831,739.591270974426,12.0035465374053
0.118944636678201,992.833452901292,508.974542395865,-483.858910505427,-750.903997648578,738.34618170336,12.5578159452188
0.121107266435986,985.932833263419,506.447819065941,-479.485014197479,-746.19032616468,732.708923730449,13.4814024342309
0.123269896193772,978.955575933418,504.385048268154,-474.570527665265,-741.670312100786,726.763051799342,14.9072603014445
0.125432525951557,986.383588009897,510.731286423532,-475.652301586364,-748.557437216714,731.017944798131,17.5394924185839
0.127595155709343,1003.96251868869,517.159453825037,-486.80306486365,-760.560986256862,745.382791776168,15.1781944806935
0.129757785467128,1015.64324138816,514.408309326264,-501.2349320619,-765.025775357214,758.439086725032,6.58668863218168
0.131920415224913,1023.51179065662,508.268412412732,-515.243378243884,-765.890101534674,769.37758445025,-3.48748291557598
0.134083044982699,1024.16848901605,508.572431218846,-515.596057797208,-766.370460117451,769.882273406632,-3.51181328918108
0.136245674740484,1024.18722549712,509.564621482998,-514.622604014118,-766.875923490056,769.404914755617,-2.52899126556014
0.13840830449827,1015.66751543375,504.324291150967,-511.343224282788,-759.995903292361,763.505369858271,-3.50946656591026
0.140570934256055,1014.03455352436,505.526512612285,-508.508040912072,-759.780533068321,761.271297218215,-1.49076414989383
0.142733564013841,1028.38576388499,513.181533072534,-515.204230812456,-770.783648478762,771.794997348723,-1.01134886996078
0.144896193771626,1037.32202183245,517.137524332925,-520.184497499525,-777.229773082688,778.753259665988,-1.52348658329981
0.147058823529412,1027.86044407322,512.420609142324,-515.439834930898,-770.140526607772,771.65013950206,-1.5096128942871
0.149221453287197,1020.55529487018,508.778450209281,-511.776844660896,-764.666872539729,766.166069765536,-1.49919722580779
0.151384083044983,1022.23779602547,509.115353121368,-513.122442904099,-765.676574573417,767.680119464783,-2.00354489136527
0.153546712802768,1022.41100785508,507.708299944796,-514.702707910279,-765.059653899936,768.556857882677,-3.49720398274144
0.155709342560554,1013.18310592984,504.622382692707,-508.560723237131,-758.902744311273,760.871914583485,-1.96917027221201
0.157871972318339,1018.70891635273,507.363690530937,-511.345225821792,-763.036303441833,765.027071087261,-1.99076764542781
0.160034602076125,1031.43281694793,515.182428788368,-516.250388159567,-773.307622868152,773.841602553751,-0.53397968559932
0.16219723183391,1035.51463766929,516.204067513965,-519.310570155326,-775.859352591627,777.412603912308,-1.55325132068049
0.164359861591696,1025.30239254561,510.622031604846,-514.680360940763,-767.962212075228,769.991376743186,-2.02916466795853
0.166522491349481,1021.80918527864,508.903361404084,-512.905823874551,-765.35627334136,767.357504576593,-2.00123123523332
0.168685121107266,1025.80496078509,510.417359671588,-515.3876011135,-768.111160228339,770.596280949295,-2.48512072095599
0.170847750865052,1004.99357882082,507.535502898604,-497.458075922214,-756.264540859711,751.225827371516,5.03871348819473
0.173010380622837,993.099694383516,504.541890290965,-488.557804092551,-748.820792337241,740.828749238034,7.99204309920668
0.175173010380623,1004.29220890317,508.650416129368,-495.641792773803,-756.47131251627,749.967000838487,6.50431167778254
0.177335640138408,1024.78254463077,516.43901209397,-508.343532536803,-770.610778362371,766.563038583788,4.04773977858326
0.179498269896194,1029.18182699087,514.621376993208,-514.56044999766,-771.901601992038,771.871138494264,0.0304634977736669
0.181660899653979,1021.62389557564,509.329870382693,-512.294025192952,-765.476882979169,766.958960384298,-1.48207740512947
0.183823529411765,1021.91225009406,509.448933399646,-512.463316694418,-765.680591746855,767.187783394241,-1.50719164738632
0.18598615916955,1023.5976734857,510.268231597056,-513.329441888645,-766.932952541379,768.463557687173,-1.53060514579477
0.188148788927336,1014.63759141871,506.296006286445,-508.341585132263,-760.466798852577,761.489588275486,-1.022789422909
0.190311418685121,1013.48379161341,505.235262825093,-508.248528788322,-759.359527219254,760.866160200868,-1.50663298161459
0.192474048442907,1026.09195417241,512.047834592802,-514.044119579606,-769.069894382605,770.068036876007,-0.998142493402042
0.194636678200692,1032.5258777646,516.771208885436,-515.754668879169,-774.64854332502,774.140273321886,0.508270003133589
0.196799307958478,1012.43757594038,512.723100457427,-499.714475482953,-762.580338198903,756.076025711666,6.5043124872372
0.198961937716263,997.427518841141,508.692337456952,-488.735181384189,-753.059928149046,743.081350112665,9.97857803638118
0.201124567474048,1003.18244135954,510.129981057588,-493.052460301953,-756.656211208565,748.117450830748,8.53876037781737
0.203287197231834,1005.11441730282,509.613088170147,-495.50132913267,-757.363752736482,750.307873217744,7.05587951873838
0.205449826989619,998.630077404381,505.308294838399,-493.321782565981,-751.96918612139,745.975929985181,5.99325613620914
0.207612456747405,1002.3922113052,505.679818877702,-496.712392427493,-754.036015091449,749.552301866344,4.4837132251044
0.20977508650519,1015.26889188242,514.172048366021,-501.096843516396,-764.720470124219,758.182867699407,6.53760242481241
0.211937716262976,1020.27888338704,516.177470824753,-504.101412562284,-768.228177105895,762.190147974661,6.03802913123462
0.214100346020761,1013.81375208028,510.890300656435,-502.923451423848,-762.352026368359,758.368601752066,3.98342461629352
0.216262975778547,1009.43650581582,508.710228535912,-500.726277279912,-759.073367175868,755.081391547868,3.99197562800003
0.218425605536332,1009.23004265878,510.651329099471,-498.578713559305,-759.940685879123,753.90437810904,6.03630777008317
0.220588235294118,1001.03890766629,507.541185967904,-493.497721698388,-754.290046817098,747.26831468234,7.02173213475794
0.222750865051903,996.801471763512,504.864671501985,-491.936800261527,-750.833071632748,744.369136012519,6.46393562022882
0.224913494809689,1007.39979486619,508.696748833695,-498.703046032498,-758.048271849945,753.051420449346,4.99685140059864
0.227076124567474,1022.2125365617,515.675513375364,-506.537023186332,-768.94402496853,764.374779874014,4.56924509451636
0.22923875432526,1017.52361539652,513.827756391714,-503.695859004811,-765.675685894119,760.609737200668,5.06594869345173
0.231401384083045,1001.90284593426,509.461628474357,-492.441217459905,-755.68223720431,747.172031697084,8.51020550722609
0.23356401384083,996.461416636379,509.234296605632,-487.227120030746,-752.847856621006,741.844268333563,11.003588287443
0.235726643598616,992.489701568959,510.769770923175,-481.719930645783,-751.629736246067,737.104816107371,14.5249201386961
0.237889273356401,999.694595872846,507.265957098759,-492.428638774087,-753.480276485802,746.061617323466,7.41865916233616
0.240051903114187,1002.43404482766,505.128035626272,-497.30600920139,-753.781040226967,749.870027014526,3.91101321244093
0.242214532871972,1017.88887784586,510.980937969659,-506.907939876204,-764.434907907762,762.398408861034,2.03649904672761
0.244377162629758,1027.39610628624,516.346317999675,-511.049788286567,-771.871212142959,769.222947286405,2.64826485655396
0.246539792387543,1016.82538377465,513.058571649677,-503.766812124977,-764.941977712165,760.296097949815,4.64587976235021
0.248702422145329,1002.20192642344,508.650955708115,-493.550970715322,-755.426441065776,747.876448569379,7.5499924963969
0.250865051903114,997.052823612136,510.003693681327,-487.049129930808,-753.528258646731,742.050976771472,11.4772818752596
0.2530276816609,1000.92177869221,510.362982394079,-490.558796298127,-755.642380543142,745.740287495166,9.90209304797594
0.255190311418685,1005.54585302875,506.089752625776,-499.456100402976,-755.817802827264,752.500976715864,3.31682611139996
0.257352941176471,1017.50802256321,506.171488096145,-511.336534467068,-761.839755329679,764.422278515141,-2.58252318546147
0.259515570934256,1030.13830166635,513.163607232908,-516.974694433441,-771.650954449628,773.556498049895,-1.90554360026681
0.261678200692042,1033.75059040575,516.091800850894,-517.658789554859,-774.921195628324,775.704689980307,-0.78349435198254
0.263840830449827,1025.0182698244,511.214562809862,-513.803707014537,-768.11641631713,769.410988419467,-1.29457210233755
0.266003460207612,1020.91733819971,508.519564932685,-512.397773267024,-764.718451566197,766.657555733366,-1.93910416716932
0.268166089965398,1024.69685569861,510.714026922379,-513.982828776232,-767.705441310495,769.339842237421,-1.63440092692667
0.270328719723183,1020.38750310688,509.455959703461,-510.931543403419,-764.92173140517,765.659523255149,-0.737791849979146
0.272491349480969,1013.02048993842,505.319744933519,-507.700745004905,-759.170117435971,760.360617471664,-1.19050003569276
0.274653979238754,1017.81188383487,507.876640548639,-509.93524328623,-762.844262191755,763.87356356055,-1.02930136879547
0.27681660899654,1022.47807527193,514.880680644723,-507.597394627203,-768.679377958325,765.037734949565,3.64164300875996
0.278979238754325,1024.64876606304,515.02476906459,-509.623996998454,-769.836767563817,767.136381530749,2.70038603306818
0.281141868512111,1014.07137468759,509.66359969953,-504.407774988057,-761.867487193558,759.239574837822,2.62791235573667
0.283304498269896,1016.9347795506,508.969070622894,-507.965708927707,-762.951925086748,762.450244239154,0.501680847593491
0.285467128027682,1025.40210851086,511.089695787082,-514.312412723777,-768.24590214897,769.857260617318,-1.61135846834748
0.287629757785467,1019.72461975695,508.219517301027,-511.505102455923,-763.972068528989,765.614861106436,-1.64279257744772
0.289792387543253,1014.55842412845,504.197047114712,-510.361377013741,-759.377735621582,762.459900571097,-3.08216494951478
0.291955017301038,1023.9581539112,509.990636159375,-513.967517751826,-766.974395035288,768.962835831514,-1.9884407962258
0.294117647058824,1035.51679948488,515.845145748843,-519.671653736032,-775.680972616859,777.594226610454,-1.91325399359437
0.296280276816609,1029.55153478027,513.397981805231,-516.153552975036,-771.474758292749,772.852543877652,-1.37778558490254
0.298442906574394,1022.18284804496,508.667610967936,-513.515237077022,-765.425229506447,767.84904256099,-2.42381305454268
0.30060553633218,1023.6151214075,509.773393822206,-513.84172758529,-766.694257614851,768.728424496393,-2.03416688154232
0.302768166089965,1025.16588183188,510.956443139467,-514.209438692415,-768.061162485675,769.687660262148,-1.62649777647357
0.304930795847751,1017.12733231445,506.936800540179,-510.190531774273,-762.032066427315,763.658932044362,-1.62686561704714
0.307093425605536,1013.78569722706,505.840255078839,-507.945442148224,-759.812976152951,760.865569687643,-1.05259353469222
0.309256055363322,1027.25842473138,512.167383518195,-515.091041213187,-769.712904124789,771.174732972285,-1.46182884749589
0.311418685121107,1036.64009895117,514.927425201727,-521.712673749446,-775.78376207645,779.17638635031,-3.3926242738595
0.313581314878893,1025.903007417,511.587473417117,-514.315533999888,-768.745240417061,770.109270708446,-1.36403029138512
0.315743944636678,1019.6099626479,508.35973718564,-511.250225462255,-763.984849916768,765.430094055075,-1.44524413830777
0.317906574394464,1024.40355389871,510.627178231647,-513.776375667061,-767.515366065178,769.089964782885,-1.57459871770675
0.320069204152249,1022.81645240606,510.256295594482,-512.560156811581,-766.536374000272,767.688304608822,-1.15193060854989
0.322231833910035,1017.0635757607,505.904390253943,-511.159185506757,-761.483983007322,764.111380633729,-2.62739762640695
0.32439446366782,1016.45635773916,507.199956625841,-509.256401113323,-761.828157182503,762.856379426244,-1.02822224374108
0.326557093425606,1031.94704965089,514.041309289218,-517.905740361667,-772.994179470052,774.926395006276,-1.9322155362247
0.328719723183391,1033.06996196582,515.166180735885,-517.903781229936,-774.118071350852,775.486871597878,-1.36880024702543
0.330882352941176,1024.64307362501,509.93850905236,-514.704564572651,-767.290791338685,769.673819098831,-2.38302776014564
0.333044982698962,1021.33626069439,508.68609608467,-512.650164609723,-765.011178389532,766.993212652058,-1.9820342625261
0.335207612456747,1025.69138431044,511.236784574268,-514.454599736167,-768.464084442352,770.072992023301,-1.60890758094922
0.337370242214533,1023.5660570856,509.125916498959,-514.440140586645,-766.345986792281,769.003098836124,-2.65711204384314
0.339532871972318,1014.04304029741,505.427316136153,-508.615724161253,-759.735178216779,761.329382229329,-1.59420401254999
0.341695501730104,1022.18438446637,509.093488802248,-513.090895664122,-765.638936634309,767.637640065246,-1.9987034309367
0.343858131487889,1033.39117631996,515.283455716043,-518.107720603913,-774.337316018,775.749448461935,-1.41213244393498
0.346020761245675,1031.22904614431,513.744075936766,-517.484970207541,-772.486561040536,774.357008175924,-1.87044713538762
0.34818339100346,1021.34567070375,508.76679149712,-512.578879206629,-765.056231100435,766.962274955189,-1.90604385475433
0.350346020761246,1021.97492556006,509.466573502962,-512.508352057101,-765.720749531512,767.241638808581,-1.52088927706961
0.352508650519031,1026.99988836141,511.371320083095,-515.628568278312,-769.185604222251,771.314228319859,-2.12862409760857
0.354671280276817,1019.87639434774,507.799395659906,-512.076998687831,-763.837895003821,765.976696517784,-2.13880151396251
0.356833910034602,1013.47726023917,505.674165810135,-507.80309442903,-759.575713024651,760.640177334098,-1.06446430944743
0.358996539792388,1025.35619010806,511.206461876118,-514.149728231938,-768.281325992087,769.752959169997,-1.47163317790995
0.361159169550173,1035.1845111142,515.69575136289,-519.488759751312,-775.440131238546,777.336635432757,-1.89650419421082
0.363321799307958,1026.72554644754,511.991233769743,-514.734312677793,-769.35839010864,770.729929562665,-1.37153945402508
0.365484429065744,1019.37624496251,508.251898911261,-511.124346051247,-763.814071936885,765.250295506877,-1.43622356999253
0.367647058823529,1024.94810982681,510.418374617012,-514.529735209795,-767.68324222191,769.738922518301,-2.0556802963913
0.369809688581315,1026.1306196243,510.929389234132,-515.201230390171,-768.530004429217,770.665925007237,-2.13592057801935
0.3719723183391,1017.41010245883,506.589651551796,-510.820450907034,-761.999877005313,764.115276682933,-2.11539967761905
0.374134948096886,1017.41917752343,506.675089137297,-510.744088386138,-762.047133330366,764.081632954787,-2.0344996244205
0.376297577854671,1029.25053960683,513.172809372419,-516.077730234411,-771.211674489625,772.664134920621,-1.45246043099621
0.378460207612457,1033.27319636537,515.240785708548,-518.032410656826,-774.256991036961,775.6528035111,-1.39581247413889
0.380622837370242,1023.34872978985,510.277979172191,-513.070750617657,-766.813354481019,768.209740203753,-1.39638572273316
0.382785467128028,1019.77435526241,508.414529174886,-511.359826087519,-764.094442218646,765.567090674962,-1.47264845631651
0.384948096885813,1025.6135571176,511.228782978306,-514.384774139296,-768.421170047954,769.99916562845,-1.57799558049521
0.387110726643599,1024.17927813447,509.963638631245,-514.215639503226,-767.071458382857,769.197458818848,-2.12600043599053
0.389273356401384,1016.77809183405,504.80559951978,-511.972492314272,-760.791845676916,764.375292074162,-3.58344639724612
0.39143598615917,1018.61833896764,508.302375888419,-510.31596307922,-763.460357428029,764.46715102343,-1.00679359540032
0.393598615916955,1034.17740519887,514.640184031994,-519.537221166875,-774.408794615431,776.857313182872,-2.44851856744037
0.395761245674741,1031.90503063414,514.0461219128,-517.858908721341,-772.975576273471,774.881969677741,-1.9063934042706
0.397923875432526,1020.71330772503,508.936126568899,-511.777181156136,-764.824717146967,766.245244440585,-1.42052729361865
0.400086505190311,1022.24794974393,509.119973625619,-513.127976118313,-765.683961684776,767.687962931123,-2.00400124634717
0.402249134948097,1027.45258590277,511.63475925706,-515.817826645709,-769.543672579915,771.635206274239,-2.09153369432465
0.404411764705882,1020.56815968819,508.678155991511,-511.890003696678,-764.62315783985,766.229081692434,-1.60592385258354
0.406574394463668,1014.47756033079,505.683141031492,-508.794419299294,-760.080350681139,761.63598981504,-1.55563913390074
0.408737024221453,1023.55305599294,510.288779019329,-513.264276973616,-766.920917506137,768.40866648328,-1.48774897714327
0.410899653979239,1031.58977662836,515.363290023416,-516.226486604945,-773.476533325889,773.908131616653,-0.431598290764327
0.413062283737024,1028.64211239862,512.405737778033,-516.236374620583,-770.523925088324,772.439243509599,-1.91531842127506
0.41522491349481,1017.31303019282,508.210995136422,-509.102035056393,-762.762012664619,763.207532624604,-0.445519959985347
0.417387543252595,1023.28787116401,510.115039254983,-513.172831909025,-766.701455209495,768.230351536516,-1.5288963270209
0.419550173010381,1028.11353357574,511.465102470684,-516.648431105053,-769.789318023211,772.380982340395,-2.59166431718438
0.421712802768166,1015.85589765794,507.351736672792,-508.504160985147,-761.603817165365,762.180029321543,-0.576212156177348
0.423875432525952,1015.68083345309,506.309501122386,-509.371332330707,-760.99516728774,762.5260828919,-1.53091560416044
0.426038062283737,1021.52571955428,512.289123327293,-509.236596226986,-766.907421440786,765.381157890632,1.52626355015377
0.428200692041523,1021.34584882568,515.231825058074,-506.114023767602,-768.288836941875,763.729936296639,4.55890064523612
0.430363321799308,1008.30158318604,510.669182143703,-497.632401042339,-759.485382664873,752.96699211419,6.51839055068234
0.432525951557093,1016.37993569681,508.178511101418,-508.201424595395,-762.279223399115,762.290680146104,-0.0114567469884719
0.434688581314879,1026.13269992232,511.085025622759,-515.047674299565,-768.608862772542,770.590187110944,-1.98132433840271
0.436851211072664,1024.33196675019,510.712439849794,-513.619526900398,-767.522203299993,768.975746825295,-1.45354352530211
0.43901384083045,1014.52652039933,506.315421332215,-508.211099067114,-760.420970865772,761.368809733221,-0.947838867449661
0.441176470588235,1019.23609075278,506.630900610467,-512.60519014231,-762.933495681622,765.920640447544,-2.9871447659217
0.443339100346021,1030.97185858553,513.941448583515,-517.030410002016,-772.456653584523,774.001134293773,-1.54448070925071
0.445501730103806,1022.75197812314,513.310162664331,-509.441815458806,-768.031070393734,766.096896790972,1.93417360276254
0.447664359861592,999.531139910796,509.199616770147,-490.331523140649,-754.365378340471,744.931331525722,9.43404681474931
0.449826989619377,985.542572455789,508.760970134663,-476.781602321127,-747.151771295226,731.162087388458,15.9896839067682
0.451989619377163,992.222126426694,511.726063757049,-480.496062669645,-751.974095091871,736.359094548169,15.615000543702
0.454152249134948,1000.89668522854,509.510595330762,-491.386089897781,-755.203640279652,746.141387563162,9.06225271649032
0.456314878892734,1010.71626300053,505.838569177895,-504.877693822636,-758.277416089214,757.796978411584,0.480437677629652
0.458477508650519,1021.87367384253,509.438558006614,-512.435115835914,-765.656115924571,767.154394839221,-1.49827891465009
0.460640138408305,1032.86410182004,514.956880046175,-517.907221773864,-773.910490933107,775.385661796951,-1.4751708638446
0.46280276816609,1026.58510285604,512.836033036769,-513.749069819267,-769.710567946403,770.167086337652,-0.456518391249119
0.464965397923875,1008.46582803616,508.261812465222,-500.204015570934,-758.363820250689,754.334921803545,4.02889844714423
0.467128027681661,1001.48787884233,509.73975197071,-491.748126871623,-755.613815406522,746.618002856978,8.99581254954376
0.469290657439446,993.736126565884,511.834835706708,-481.901290859176,-752.785481136296,737.81870871253,14.9667724237656
0.471453287197232,990.600171474843,508.139739895717,-482.460431579125,-749.36995568528,736.530301526984,12.8396541582961
0.473615916955017,988.479571978458,506.095374402172,-482.384197576286,-747.287473190315,735.431884777372,11.855588412943
0.475778546712803,997.62967499376,511.415755717572,-486.213919276188,-754.522715355666,741.921797134974,12.6009182206922
0.477941176470588,1009.74120794021,514.150225275272,-495.590982664937,-761.94571660774,752.666095302573,9.27962130516715
0.480103806228374,1007.82561287726,510.127945699413,-497.697667177852,-758.976779288339,752.761640027558,6.21513926078057
0.482266435986159,1002.89461952293,508.014243827128,-494.880375695806,-755.454431675031,748.88749760937,6.56693406566052
0.484429065743945,1015.73502985237,509.809193890672,-505.925835961698,-762.772111871521,760.830432907034,1.94167896448721
0.48659169550173,1022.9232886563,511.317454838714,-511.605833817581,-767.120371747504,767.264561236938,-0.144189489433643
0.488754325259516,1006.07514895174,506.902504952873,-499.172643998865,-756.488826952306,752.623896475301,3.86493047700418
0.490916955017301,994.272576534792,506.084380073591,-488.188196461201,-750.178478304192,741.230386497997,8.94809180619484
0.493079584775087,995.195405181389,513.204894948091,-481.990510233298,-754.20015006474,738.592957707344,15.6071923573964
0.495242214532872,989.810323210098,514.533726228586,-475.276596981513,-752.172024719342,732.543460095806,19.6285646235364
0.497404844290657,986.187183045034,509.544142383812,-476.643040661222,-747.865662714423,731.415111853128,16.4505508612949
0.499567474048443,1001.90420726037,508.420272998985,-493.483934261383,-755.162240129676,747.694070760875,7.46816936880094
0.501730103806228,1025.08427382761,511.668507419734,-513.415766407875,-768.376390623672,769.250020117742,-0.873629494070542
0.503892733564014,1023.14321391774,510.283973373134,-512.859240544602,-766.713593645434,768.001227231168,-1.28763358573406
0.506055363321799,1014.92683218589,506.134743588426,-508.79208859746,-760.530787887156,761.859460391673,-1.32867250451716
0.508217993079585,1020.31729790439,508.668923623774,-511.648374280612,-764.49311076408,765.982836092499,-1.48972532841867
0.51038062283737,1032.26297404481,514.466182872469,-517.796791172338,-773.364578458638,775.029882608572,-1.66530414993429
0.512543252595156,1021.94863558381,513.248944346447,-508.699691237368,-767.598789965131,765.324163410591,2.27462655453979
0.514705882352941,1009.14555016133,508.405599762427,-500.739950398907,-758.775574961881,754.94275028012,3.83282468176037
0.516868512110727,1016.61324786286,509.327451140155,-507.285796722706,-762.970349501507,761.949522292783,1.02082720872437
0.519031141868512,1026.67434863473,512.049702392291,-514.624646242438,-769.36202551351,770.649497438583,-1.28747192507365
0.521193771626298,1019.3134784319,508.937336660552,-510.376141771345,-764.125407546224,764.844810101621,-0.719402555396869
0.523356401384083,1013.73273876673,506.034975321355,-507.697763445379,-759.883857044044,760.715251106056,-0.831394062011896
0.525519031141868,1024.24281810157,510.564022140095,-513.678795961474,-767.403420120832,768.960807031522,-1.55738691068933
0.527681660899654,1033.44555581837,514.975238512588,-518.470317305782,-774.210397165479,775.957936562076,-1.74753939659672
0.529844290657439,1027.73843400427,511.600888720329,-516.137545283937,-769.669661362298,771.937989644102,-2.26832828180397
0.532006920415225,1020.07592645459,507.915516725876,-512.160409728711,-763.995721590231,766.118168091649,-2.12244650141753
0.53416955017301,1024.76065013641,510.456350943568,-514.304299192841,-767.608500539989,769.532474664625,-1.92397412463663
0.536332179930796,1026.18051344474,511.817475592142,-514.363037852595,-768.998994518439,770.271775648666,-1.2727811302268
0.538494809688581,1017.6905386184,507.589695545798,-510.100843072607,-762.640117082101,763.895690845505,-1.25557376340441
0.540657439446367,1017.16262427097,506.683200190055,-510.479424080914,-761.922912230512,763.821024175941,-1.89811194542921
0.542820069204152,1028.078476699,512.420692057638,-515.657784641358,-770.249584378317,771.868130670177,-1.6185462918603
0.544982698961938,1032.83690206494,514.657852022546,-518.179050042392,-773.747377043741,775.507976053665,-1.76059900992323
0.547145328719723,1020.35081662858,509.948426080597,-510.402390547984,-765.149621354589,765.376603588283,-0.226982233693832
0.549307958477509,1005.372441324,508.120214992054,-497.252226331945,-756.746328158027,751.312333827973,5.43399433005447
0.551470588235294,999.686844220728,511.48551047006,-488.201333750668,-755.586177345394,743.944088985698,11.6420883596962
0.55363321799308,999.56699587242,510.98791398182,-488.5790818906,-755.27745492712,744.07303888151,11.2044160456102
0.555795847750865,1001.97080615388,506.566174770361,-495.404631383514,-754.268490462118,748.687718768695,5.58077169342351
0.557958477508651,1010.97991158544,507.997452539345,-502.982459046097,-759.488682062394,756.981185315769,2.50749674662421
0.560121107266436,1032.83971267318,513.88884230873,-518.950870364454,-773.364277490957,775.895291518819,-2.5310140278616
0.562283737024222,1030.28944983695,513.610939223683,-516.678510613271,-771.950194530318,773.483980225112,-1.53378569479389
0.564446366782007,1022.29576357899,507.634059864543,-514.661703714451,-764.964911721768,768.478733646722,-3.51382192495407
0.566608996539792,1018.81433581939,508.907330615193,-509.907005204193,-763.860833217289,764.360670511789,-0.499837294499798
0.568771626297578,1026.24592291167,512.11754878699,-514.128374124681,-769.181735849331,770.187148518176,-1.00541266884579
0.570934256055363,1022.44530324374,509.722225978825,-512.723077264913,-766.083764611281,767.584190254326,-1.5004256430442
0.573096885813149,1015.23351837199,506.126336856887,-509.107181515105,-760.67992761444,762.170349943548,-1.49042232910892
0.575259515570934,1021.50870861497,509.751974206794,-511.756734408173,-765.63034141088,766.63272151157,-1.00238010068961
0.57742214532872,1028.43424102575,514.698611256758,-513.735629768996,-771.566426141256,771.084935397375,0.481490743881409
0.579584775086505,1021.23033525923,512.088306765916,-509.142028493311,-766.659321012571,765.186181876269,1.47313913630251
0.581747404844291,1017.87386467791,507.913433386291,-509.96043129162,-762.893649032101,763.917147984766,-1.02349895266434
0.583910034602076,1023.05061840511,510.033071389245,-513.017547015861,-766.541844897176,768.034082710484,-1.49223781330801
0.586072664359862,1025.26837620114,512.167852434918,-513.100523766221,-768.718114318028,769.18444998368,-0.466335665651627
0.588235294117647,1019.55350679569,508.318312697982,-511.23519409771,-763.935909746837,765.394350446701,-1.45844069986379
0.590397923875433,1015.79418523308,506.423437102682,-509.370748130401,-761.108811167882,762.582466681742,-1.4736555138598
0.592560553633218,1028.28559158388,511.621628102967,-516.663963480908,-769.953609843421,772.474777532392,-2.52116768897071
0.594723183391003,1033.49945963969,514.698852516607,-518.800607123086,-774.09915607815,776.15003338139,-2.05087730323964
0.596885813148789,1024.898536726,510.415194063572,-514.483342662433,-767.656865394788,769.690939694219,-2.03407429943036
0.599048442906574,1017.78463358924,506.88593270529,-510.898700883951,-762.335283147266,764.341667236596,-2.00638408933071
0.60121107266436,1024.35723798624,511.183530174269,-513.17370781197,-767.770384080254,768.765472899104,-0.995088818850149
0.603373702422145,1026.12926262467,511.579469535132,-514.549793089534,-768.854366079899,770.3395278571,-1.48516177720137
0.605536332179931,1019.13982783928,507.095759024411,-512.044068814868,-763.117793431845,765.591948327073,-2.47415489522825
0.607698961937716,1018.84912896452,507.436701151445,-511.412427813078,-763.142915057984,765.1307783888,-1.9878633308162
0.609861591695502,1029.56140934094,513.250226600438,-516.311182740506,-771.405817970691,772.936296040725,-1.53047807003372
0.612024221453287,1032.94394890429,513.92513157589,-519.018817328396,-773.434540240088,775.981383116341,-2.54684287625275
0.614186851211073,1019.95361950787,508.958670407196,-510.99494910067,-764.456144957531,765.474284304268,-1.0181393467368
0.616349480968858,1020.01424833106,508.505411662541,-511.508836668521,-764.259829996801,765.761542499791,-1.50171250298985
0.618512110726644,1029.07618107883,512.046143383817,-517.030037695012,-770.561162231323,773.053109386921,-2.49194715559747
0.620674740484429,1023.87931421219,510.468142095207,-513.411172116984,-767.173728153699,768.645243164587,-1.47151501088854
0.622837370242215,1016.65991268999,506.361420824855,-510.298491865133,-761.510666757421,763.47920227756,-1.96853552013908
0.625,1021,509,-512,-765,766.5,-1.5
0.627162629757785,1032.72712663878,514.321668037514,-518.405458601268,-773.524397338148,775.566292620025,-2.04189528187703
0.629325259515571,1028.20617431285,512.560472606197,-515.645701706653,-770.383323459524,771.925938009752,-1.54261455022822
0.631487889273356,1019.04859785353,508.006806364678,-511.041791488856,-763.527702109106,765.045194671195,-1.51749256208882
0.633650519031142,1022.14234172346,509.573266347308,-512.569075376153,-765.857804035385,767.355708549807,-1.49790451442266
0.635813148788927,1028.72316407659,512.377151911078,-516.346012165511,-770.550157993834,772.534588121051,-1.98443012721646
0.637975778546713,1022.07914635293,509.074324708404,-513.004821644521,-765.576735530665,767.541983998723,-1.96524846805886
0.640138408304498,1017.56495515212,505.312253309628,-512.252701842496,-761.438604230876,764.90882849731,-3.47022426643446
0.642301038062284,1025.67636253617,510.820756242312,-514.855606293853,-768.248559389239,770.265984415009,-2.01742502577031
0.644463667820069,1032.38373115577,514.632051000883,-517.751680154889,-773.507891078327,775.067705655331,-1.55981457700318
0.646626297577855,1026.93010163361,510.91228237146,-516.017819262147,-768.921192002534,771.473960447877,-2.55276844534359
0.64878892733564,1012.48646529919,507.72964432021,-504.756820978976,-760.108054809698,758.621643139081,1.48641167061692
0.650951557093426,1023.56879200006,510.797517754592,-512.771274245469,-767.183154877327,768.170033122765,-0.986878245438106
0.653114186851211,1027.06095278597,512.068143370703,-514.992809415271,-769.564548078339,771.026881100623,-1.46233302228404
0.655276816608997,1018.34917043948,507.724223418302,-510.624947021181,-763.036696928892,764.487058730332,-1.45036180143961
0.657439446366782,1018.96420430267,507.004446797276,-511.959757505398,-762.984325549975,765.461980904036,-2.47765535406114
0.659602076124568,1029.16876615794,512.549507538969,-516.619258618972,-770.859136848455,772.894012388457,-2.03487554000174
0.661764705882353,1032.4242310753,514.148245411268,-518.275985664036,-773.286238243286,775.35010836967,-2.06387012638413
0.663927335640138,1021.77955301885,509.349800935971,-512.429752082881,-765.564676977411,767.104652550867,-1.53997557345525
0.666089965397924,1017.30327245013,508.144446711201,-509.15882573893,-762.723859580666,763.23104909453,-0.507189513864148
0.668252595155709,1024.66292239917,511.849606969794,-512.813315429373,-768.256264684481,768.738118914271,-0.481854229789576
0.670415224913495,1017.23943772525,511.154234591621,-506.085203133628,-764.196836158435,761.662320429439,2.53451572899638
0.67257785467128,996.446461920749,506.731080278489,-489.71538164226,-751.588771099619,743.080921781504,8.50784931811415
0.674740484429066,991.667686383836,508.328234975009,-483.339451408827,-749.997960679422,737.503568896331,12.4943917830907
0.676903114186851,1011.60456799305,513.848056543951,-497.756511449095,-762.726312268499,754.680539721071,8.04577254742782
0.679065743944637,1013.95159305143,512.992504951668,-500.95908809976,-763.472049001548,757.455340575594,6.01670842595382
0.681228373702422,1007.44967905077,508.193899764238,-499.255779286532,-757.821789407504,753.352729168651,4.46906023885305
0.683391003460208,1012.20340292859,509.103337586215,-503.100065342371,-760.6533702574,757.651734135478,3.00163612192199
0.685553633217993,1020.78521095482,512.448013901561,-508.337197053254,-766.616612428188,764.561204004035,2.0554084241536
0.687716262975779,1021.55023904668,509.834265806531,-511.715973240153,-765.692252426607,766.633106143418,-0.940853716811034
0.689878892733564,1015.61643947677,506.351108091299,-509.265331385474,-760.983773784036,762.440885431123,-1.45711164708752
0.69204152249135,1022.10772430604,510.042902185202,-512.064822120835,-766.075313245619,767.086273213436,-1.01095996781658
0.694204152249135,1031.05318693321,514.46416386367,-516.589023069542,-772.758675398441,773.821105001377,-1.06242960293616
0.69636678200692,1025.99601816356,511.431665705696,-514.564352457861,-768.713841934627,770.280185310709,-1.56634337608239
0.698529411764706,1014.39184045228,507.668356144239,-506.723484308038,-761.030098298257,760.557662380157,0.472435918100416
0.700692041522491,1015.65540183135,510.341848426256,-505.313553405097,-762.998625128805,760.484477618225,2.51414751057962
0.702854671280277,1014.75488958011,512.42001090434,-502.334878675775,-763.587450242228,758.544884127945,5.04256611428286
0.705017301038062,1006.80733644306,508.407445147826,-498.39989129523,-757.607390795441,752.603613869143,5.00377692629803
0.707179930795848,1004.44564418398,505.704494763624,-498.741149420359,-755.075069473804,751.593396802171,3.48167267163274
0.709342560553633,1011.58622972375,510.814718011783,-500.771511711968,-761.200473867768,756.17887071786,5.02160314990743
0.711505190311419,1010.5017256662,513.287641150938,-497.214084515263,-761.89468340857,753.857905090733,8.03677831783727
0.713667820069204,988.703895242806,509.820053314207,-478.883841928599,-749.261974278506,733.793868585702,15.468105692804
0.71583044982699,974.810817097928,507.851091630217,-466.95972546771,-741.330954364072,720.885271282819,20.4456830812533
0.717993079584775,982.83451791198,510.531649531099,-472.30286838088,-746.68308372154,727.56869314643,19.1143905751097
0.720155709342561,984.196483714644,511.740405799037,-472.456077915607,-747.968444756841,728.326280815126,19.642163941715
0.722318339100346,982.482007585151,507.204470550359,-475.277537034791,-744.843239067755,728.879772309971,15.9634667577842
0.724480968858132,992.574214232989,507.752425698318,-484.821788534671,-750.163319965653,738.69800138383,11.4653185818234
0.726643598615917,1015.3663025323,513.299686865144,-502.066615667156,-764.332994698722,758.716459099728,5.61653559899372
0.728806228373702,1025.43163260678,513.382322171491,-512.049310435287,-769.406977389134,768.740471521032,0.666505868102035
0.730968858131488,1019.71661274262,508.483906383893,-511.232706358728,-764.100259563258,765.474659550675,-1.37439998741741
0.733131487889273,1021.27153051989,508.648851691326,-512.622678828565,-764.960191105608,766.947104674227,-1.98691356861951
0.735294117647059,1027.97875429785,512.372387303352,-515.606366994496,-770.1755708006,771.792560646172,-1.61698984557211
0.737456747404844,1023.43300808844,510.553765416348,-512.879242672091,-766.993386752393,768.156125380265,-1.16273862787176
0.73961937716263,1014.25779749428,506.523492538623,-507.734304955657,-760.390645016452,760.996051224969,-0.605406208517081
0.741782006920415,1022.60305131002,509.307911711858,-513.295139598158,-765.955481510937,767.949095454087,-1.99361394314968
0.743944636678201,1032.16614672866,514.194948117485,-517.97119861118,-773.180547423074,775.068672669922,-1.88812524684772
0.746107266435986,1027.58491855628,511.953668435256,-515.631250121021,-769.769293495766,771.608084338649,-1.83879084288264
0.748269896193772,1019.20416335996,507.711555113691,-511.492608246264,-763.457859236823,765.34838580311,-1.89052656628655
0.750432525951557,1022.75201452768,509.844864993047,-512.907149534634,-766.298439760364,767.829582031158,-1.53114227079357
0.752595155709343,1030.57583569743,511.630835886776,-518.944999810651,-771.103335792101,774.760417754039,-3.65708196193793
0.754757785467128,1020.56832613241,509.12908167412,-511.439244458289,-764.848703903265,766.003785295349,-1.15508139208447
0.756920415224913,1016.24138742311,506.545663530968,-509.695723892139,-761.393525477037,762.968555657623,-1.5750301805856
0.759083044982699,1025.05258857637,511.065268664888,-513.98731991148,-768.058928620628,769.519954243924,-1.46102562329565
0.761245674740484,1032.39168301696,514.323883398561,-518.067799618395,-773.357783207759,775.229741317676,-1.87195810991716
0.76340830449827,1023.33748038087,510.31991262997,-513.017567750896,-766.828696505418,768.177524065881,-1.34882756046295
0.765570934256055,1018.12665341249,507.632852988352,-510.493800424137,-762.879753200421,764.310226918313,-1.43047371789231
0.767733564013841,1026.40182512527,511.130866838869,-515.270958286402,-768.76634598207,770.836391705836,-2.07004572376627
0.769896193771626,1027.78058210764,512.230007878011,-515.550574229631,-770.005294992827,771.665578168637,-1.66028317581015
0.772058823529412,1018.83719369157,507.779616692345,-511.057576999227,-763.308405191959,764.947385345399,-1.63898015344068
0.774221453287197,1009.66242409031,507.290539436524,-502.371884653784,-758.476481763416,756.017154372046,2.45932739137027
0.776384083044983,1022.20600720383,512.676621872247,-509.529385331585,-767.441314538039,765.867696267708,1.573618270331
0.778546712802768,1030.1078802259,513.689994606993,-516.417885618908,-771.898937416447,773.262882922405,-1.36394550595742
0.780709342560554,1020.44968132307,508.852792100278,-511.59688922279,-764.651236711673,766.023285272929,-1.37204856125595
0.782871972318339,1018.41042600801,508.233695920775,-510.176730087232,-763.322060964392,764.29357804762,-0.971517083228605
0.785034602076125,1027.54996917258,512.175506246527,-515.374462926055,-769.862737709554,771.462216049318,-1.59947833976412
0.78719723183391,1026.76890169497,511.228768424714,-515.540133270252,-768.99883505984,771.154517482609,-2.15568242276913
0.789359861591696,1016.87329391121,506.833275283208,-510.040018628,-761.853284597208,763.456656269604,-1.60337167239601
0.791522491349481,1020.28448945856,507.635560768187,-512.64892869037,-763.960025113372,766.466709074463,-2.5066839610912
0.793685121107267,1029.46475365123,513.816282351515,-515.648471299711,-771.640518001371,772.556612475468,-0.91609447409769
0.795847750865052,1017.62564208253,512.440808941689,-505.184833140839,-765.033225512108,761.405237611684,3.62798790042478
0.798010380622837,1006.57975400764,507.852395018657,-498.727358988985,-757.21607451315,752.653556498314,4.56251801483586
0.800173010380623,1007.67863163195,509.335365542861,-498.343266089087,-758.506998587405,753.010948860518,5.49604972688689
0.802335640138408,1012.52201944787,512.711514585774,-499.8105048621,-762.616767016824,756.166262154986,6.45050486183715
0.804498269896194,1000.93290610827,509.853413962919,-491.079492145348,-755.393160035593,746.006199126807,9.38696090878574
0.806660899653979,990.293615366028,506.524733875237,-483.768881490792,-748.409174620632,737.03124842841,11.3779261922226
0.808823529411765,996.539659821834,510.320203549853,-486.219456271981,-753.429931685844,741.379558046907,12.0503736389363
0.81098615916955,1007.08998090856,514.257054032208,-492.832926876348,-760.673517470382,749.961453892452,10.7120635779302
0.813148788927336,1006.41068283798,510.862380383272,-495.54830245471,-758.636531610627,750.979492646346,7.65703896428113
0.815311418685121,1004.94425475922,507.514944544101,-497.429310215124,-756.229599651663,751.186782487174,5.04281716448884
0.817474048442907,1016.34558770625,510.653940891916,-505.691646814333,-763.499764299082,761.018617260291,2.48114703879139
0.819636678200692,1012.30516037871,512.589275020754,-499.715885357959,-762.447217699734,756.010522868337,6.43669483139752
0.821799307958478,1000.07206840385,508.416175961166,-491.655892442687,-754.24412218251,745.863980423271,8.38014175923951
0.823961937716263,1000.05682087912,506.949616701176,-493.107204177947,-753.50321879015,746.582012528535,6.92120626161449
0.826124567474048,1011.82182907443,511.006752560076,-500.815076514356,-761.414290817254,756.318452794394,5.09583802285977
0.828287197231834,1015.44607059038,512.923501395548,-502.522569194828,-764.184785992962,758.984319892602,5.2004661003599
0.830449826989619,1019.34411981943,509.316216173115,-510.027903646318,-764.330167996274,764.686011732876,-0.355843736601514
0.832612456747405,1018.68205876664,507.88558639254,-510.796472374104,-763.283822579592,764.739265570374,-1.45544299078159
0.83477508650519,1020.87989078856,511.852081492676,-509.027809295883,-766.365986140618,764.953850042221,1.41213609839667
0.836937716262976,1023.95371798249,511.803624960275,-512.150093022211,-767.878671471381,768.051905502349,-0.173234030967933
0.839100346020761,1015.77178208958,507.24136852587,-508.530413563712,-761.506575307726,762.151097826647,-0.644522518920894
0.841262975778547,1019.1376146243,508.043004906519,-511.094609717785,-763.590309765411,765.116112171044,-1.5258024056331
0.843425605536332,1029.51315852733,513.359924357716,-516.153234169617,-771.436541442525,772.833196348475,-1.39665490595075
0.845588235294118,1024.46050221535,512.905981810559,-511.554520404795,-768.683242012956,768.007511310074,0.675730702881992
0.847750865051903,1010.96895369937,508.111775389113,-502.857178310259,-759.540364544242,756.913066004816,2.6272985394267
0.849913494809689,1016.66449665175,508.837140942796,-507.82735570895,-762.750818797271,762.245926180348,0.5048926169232
0.852076124567474,1028.48984330454,512.63922293585,-515.850620368694,-770.564533120197,772.170231836619,-1.60569871642201
0.85423875432526,1022.36716731467,510.545069475656,-511.822097839019,-766.456118395165,767.094632576847,-0.638514181681956
0.856401384083045,1016.43949678489,506.631764696767,-509.807732088127,-761.53563074083,763.12361443651,-1.5879836956799
0.85856401384083,1022.18271535866,509.601920331706,-512.580795026959,-765.892317845186,767.381755192812,-1.48943734762611
0.860726643598616,1029.98905003771,514.090972947733,-515.898077089974,-772.04001149272,772.943563563841,-0.903552071120203
0.862889273356401,1026.59676360871,511.426981148899,-515.169782459809,-769.011872378803,770.883273034259,-1.87140065545498
0.865051903114187,1007.84976460573,507.509806531217,-500.339958074517,-757.679785568475,754.094861340125,3.58492422835019
0.867214532871972,1005.31165759332,510.129577234645,-495.182080358673,-757.720617413982,750.246868975995,7.47374843798622
0.869377162629758,1002.85723897447,512.806344297565,-490.050894676904,-757.831791636017,746.454066825686,11.3777248103308
0.871539792387543,997.63244347482,509.084301564803,-488.548141910017,-753.358372519812,743.090292692419,10.2680798273929
0.873702422145329,1004.78546549283,506.733222880125,-498.05224261271,-755.75934418648,751.418854052772,4.34049013370725
0.875865051903114,1025.38598674153,511.308278134322,-514.077708607207,-768.347132437925,769.731847674368,-1.38471523644256
0.8780276816609,1030.46090736344,514.061672306816,-516.399235056627,-772.26128983513,773.430071210035,-1.16878137490539
0.880190311418685,1021.96012712785,509.827406775178,-512.132720352668,-765.893766951512,767.046423740257,-1.15265678874482
0.882352941176471,1017.95412167128,507.616353468126,-510.337768203153,-762.785237569702,764.145944937216,-1.36070736751338
0.884515570934256,1025.21997369895,511.441644713357,-513.778328985596,-768.330809206155,769.499151342275,-1.16834213611986
0.886678200692042,1029.32332962788,512.294543769087,-517.028785858791,-770.808936698482,773.176057743334,-2.36712104485207
0.888840830449827,1019.1505735319,507.757745357576,-511.392828174325,-763.454159444738,765.271700853113,-1.81754140837455
0.891003460207612,1019.27070515584,507.549489189187,-511.721215966651,-763.410097172513,765.495960561244,-2.08586338873158
0.893166089965398,1028.25940440883,512.812820033373,-515.446584375456,-770.536112221102,771.852994392143,-1.31688217104147
0.895328719723183,1028.89975355189,513.292501315328,-515.607252236562,-771.096127433609,772.253502894226,-1.157375460617
0.897491349480969,1020.33070305946,508.457516516724,-511.873186542732,-764.39410978809,766.101944801094,-1.7078350130044
0.899653979238754,1018.65595723777,508.37664481062,-510.279312427145,-763.516301024192,764.467634832455,-0.951333808262632
0.90181660899654,1029.37411661958,512.449616225295,-516.924500394285,-770.911866422437,773.149308506932,-2.23744208449523
0.903979238754325,1028.13351778093,511.206442386715,-516.927075394214,-769.669980083822,772.530296587571,-2.86031650374946
0.906141868512111,1019.24293089883,506.876829320134,-512.366101578691,-763.05988010948,765.804516238758,-2.74463612927866
0.908304498269896,1021.86298812345,508.928097037012,-512.934891086436,-765.39554258023,767.398939604942,-2.003397024712
0.910467128027682,1032.16045344999,513.805206801197,-518.355246648788,-772.982830125591,775.257850049387,-2.27501992379575
0.912629757785467,1024.27295892868,511.964762183912,-512.308196744769,-768.118860556297,768.290577836725,-0.171717280428481
0.914792387543253,1015.78547425017,507.607240636995,-508.178233613172,-761.696357443581,761.98185393167,-0.285496488088825
0.916955017301038,1023.25265582443,509.590282147195,-513.66237367724,-766.421468985814,768.457514750837,-2.03604576502261
0.919117647058824,1030.32807477355,512.900663268673,-517.427411504875,-771.61436902111,773.877743139211,-2.26337411810107
0.921280276816609,1022.18241285901,509.783650933088,-512.398761925925,-765.98303189605,767.290587392469,-1.30755549641862
0.923442906574395,1016.64471730244,506.656704176517,-509.988013125921,-761.650710739478,763.31636521418,-1.66565447470231
0.92560553633218,1025.05380364269,510.59249780543,-514.461305837263,-767.823150724061,769.757554739978,-1.93440401591675
0.927768166089965,1029.65709057893,514.082825635467,-515.574264943468,-771.869958107201,772.615677761201,-0.745719654000368
0.929930795847751,1023.18233015656,510.379454974436,-512.802875182125,-766.780892565499,767.992602669344,-1.21171010384461
0.932093425605536,1018.60515965901,507.443300215548,-511.161859443465,-763.02422993728,764.883509551239,-1.85927961395873
0.934256055363322,1026.13285347074,510.957113345669,-515.175740125068,-768.544983408203,770.654296797902,-2.10931338969971
0.936418685121107,1028.91912418195,512.671765093298,-516.247359088647,-770.795444637622,772.583241635296,-1.78779699767438
0.938581314878893,1020.24710717399,508.350824640449,-511.89628253354,-764.298965907219,766.071694853765,-1.77272894654567
0.940743944636678,1016.5275624759,507.168061646887,-509.359500829011,-761.847812061392,762.943531652454,-1.09571959106216
0.942906574394464,1027.15143086101,512.200558909588,-514.950871951423,-769.675994885299,771.051151406217,-1.37515652091724
0.945069204152249,1029.65159418614,513.597383807586,-516.054210378549,-771.624488996861,772.852902282343,-1.22841328548157
0.947231833910035,1021.26643883544,508.888192416778,-512.37824641866,-765.077315626108,766.822342627049,-1.74502700094081
0.94939446366782,1018.81057635111,507.975469036207,-510.835107314898,-763.393022693656,764.822841833002,-1.42981913934545
0.951557093425606,1028.63558222101,511.144232905123,-517.491349315882,-769.889907563064,773.063465768444,-3.17355820537955
0.953719723183391,1027.1939775272,511.805401890785,-515.388575636419,-769.499689708994,771.291276581812,-1.79158687281716
0.955882352941177,1019.93280493726,507.24446322465,-512.688341712606,-763.588634080953,766.310573324931,-2.72193924397817
0.958044982698962,1020.69997054127,508.322168897947,-512.377801643318,-764.511069719606,766.538886092292,-2.02781637268578
0.960207612456747,1028.49865637891,513.414360018677,-515.084296360229,-770.956508198792,771.791476369568,-0.834968170776165
0.962370242214533,1027.40502387715,512.461814136095,-514.943209741055,-769.933419006623,771.174116809103,-1.2406978024801
0.964532871972318,1019.22701920903,506.809469994336,-512.417549214693,-763.018244601682,765.822284211861,-2.80403961017856
0.966695501730104,1021.12165962793,509.057653432605,-512.064006195321,-765.089656530265,766.592832911624,-1.5031763813584
0.968858131487889,1029.14817289801,511.859336910036,-517.288835987977,-770.503754904024,773.218504442995,-2.71474953897058
0.971020761245675,1026.50441313028,510.480805399483,-516.023607730797,-768.492609264881,771.264010430538,-2.77140116565704
0.97318339100346,1017.74528794909,506.718025660302,-511.027262288792,-762.231656804698,764.386275118943,-2.15461831424471
0.975346020761246,1022.71233929401,509.886192240377,-512.826147053637,-766.299265767196,767.769243173826,-1.46997740662999
0.977508650519031,1030.59631116372,513.986873664662,-516.609437499058,-772.291592414191,773.602874331388,-1.31128191719802
0.979671280276817,1025.41359418287,510.945758782368,-514.467835400505,-768.17967648262,769.940714791689,-1.76103830906868
0.981833910034602,1018.46858860488,507.373906750917,-511.094681853967,-762.9212476779,764.781635229425,-1.86038755152504
0.983996539792388,1023.98104034614,510.423564289998,-513.557476056144,-767.202302318069,768.769258201142,-1.56695588307309
0.986159169550173,1031.32472193742,511.928985646942,-519.395736290474,-771.626853792179,775.360229113945,-3.73337532176623
0.988321799307958,1022.46773301271,509.010942575803,-513.456790436907,-765.739337794256,767.962261724809,-2.22292393055216
0.990484429065744,1017.01386779655,506.915157684456,-510.098710112099,-761.964512740505,763.556288954327,-1.59177621382122
0.992647058823529,1025.92406918162,511.536462943522,-514.387606238095,-768.73026606257,770.155837709856,-1.42557164728629
0.994809688581315,1030.19499606947,513.7931516922,-516.401844377271,-771.994073880836,773.298420223372,-1.3043463425355
0.9969723183391,1021.34601750044,509.376009416694,-511.970008083742,-765.361013458565,766.658012792089,-1.29699933352379
0.999134948096886,1018.14689863112,507.648755221507,-510.498143409612,-762.897826926313,764.322521020366,-1.42469409405265
1.00129757785467,1026.71750131253,511.746151035722,-514.97135027681,-769.231826174127,770.844425794671,-1.6125996205443
1.00346020761246,1027.08412084316,512.318193551067,-514.765927292095,-769.701157197115,770.925024067629,-1.22386687051403
1.00562283737024,1018.81127192171,507.717755995522,-511.093515926192,-763.264513958617,764.952393923953,-1.68787996533507
1.00778546712803,1019.69149730607,507.803535504548,-511.88796180152,-763.747516405308,765.789729553793,-2.04221314848587
1.00994809688581,1028.63296227456,512.931795741543,-515.70116653302,-770.782379008053,772.167064403791,-1.38468539573819
1.0121107266436,1027.38556536013,512.900102316464,-514.485463043667,-770.142833838297,770.935514201899,-0.792680363601335
1.01427335640138,1018.88311128968,508.112166354537,-510.770944935144,-763.497638822109,764.827028112412,-1.32938929030337
1.01643598615917,1020.07125440969,508.555416751279,-511.515837658409,-764.313335580483,765.793546034048,-1.48021045356512
1.01859861591696,1029.70727649243,512.701123072541,-517.00615341989,-771.204199782486,773.35671495616,-2.15251517367426
1.02076124567474,1025.7233408385,511.146945744139,-514.576395094361,-768.435143291319,770.14986796643,-1.71472467511109
1.02292387543253,1017.10149703367,506.911359971525,-510.190137062141,-762.006428502596,763.645817047904,-1.63938854530829
1.02508650519031,1020.41412053631,508.213128305809,-512.200992230499,-764.313624421059,766.307556383404,-1.9939319623449
1.0272491349481,1030.27475599297,513.77742285762,-516.497333135352,-772.026089425296,773.386044564162,-1.35995513886587
1.02941176470588,1026.62228188529,511.507251561938,-515.115030323351,-769.064766723614,770.86865610432,-1.80388938070644
1.03157439446367,1016.56492789168,507.414756971717,-509.150170919959,-761.989842431696,762.857549405817,-0.867706974120949
1.03373702422145,1024.79464996806,508.863934233917,-515.930715734142,-766.829292100988,770.362682851101,-3.53339075011252
1.03589965397924,1028.46875773812,513.05741978116,-515.411337956959,-770.763088759639,771.940047847539,-1.17695908789972
1.03806228373702,1023.77472852396,509.68675175781,-514.087976766154,-766.730740140886,768.931352645058,-2.20061250417194
1.04022491349481,1016.76279549763,506.78639977615,-509.976395721481,-761.774597636891,763.369595609556,-1.59499797266551
1.0423875432526,1024.61080590911,510.852497423813,-513.758308485301,-767.731651666463,769.184557197207,-1.45290553074386
1.04455017301038,1030.47330847205,513.895420083434,-516.577888388621,-772.184364277744,773.525598430338,-1.34123415259342
1.04671280276817,1016.49277283596,509.927189257968,-506.565583577991,-763.209981046964,761.529178206975,1.68080283998864
1.04887543252595,1014.69567455905,507.419959654484,-507.275714904568,-761.057817106768,760.98569473181,0.0721223749580986
1.05103806228374,1024.65596717197,511.26122324028,-513.394743931692,-767.958595206126,769.025355551832,-1.06676034570592
1.05320069204152,1029.75417115165,512.717338109898,-517.036833041751,-771.235754630774,773.395502096701,-2.15974746592644
1.05536332179931,1018.8085607939,508.268587362839,-510.539973431064,-763.538574078371,764.674267112483,-1.13569303411225
1.05752595155709,1016.85535833986,507.385554646339,-509.46980369352,-762.120456493099,763.162581016689,-1.04212452359036
1.05968858131488,1022.62084681604,512.377625208961,-510.243221607082,-767.499236012502,766.432034211563,1.06720180093953
1.06185121107266,1019.28565645789,513.271108270537,-506.014548187355,-766.278382364214,762.650102322624,3.62828004159087
1.06401384083045,1002.86422987737,508.513752701844,-494.350477175526,-755.688991289607,748.607353526448,7.08163776315928
1.06617647058824,993.201280948892,508.107516154134,-485.093764794758,-750.654398551513,739.147522871825,11.5068756796877
1.06833910034602,990.846935103358,512.413872781896,-478.433062321462,-751.630403942627,734.63999871241,16.9904052302171
1.07050173010381,989.727461848439,511.748198961588,-477.979262886851,-750.737830405014,733.853362367645,16.8844680373685
1.07266435986159,1000.87908243027,506.220583016389,-494.658499413885,-753.549832723332,747.76879092208,5.78104180125223
1.07482698961938,1014.23319218131,508.595182569631,-505.638009611675,-761.414187375468,759.93560089649,1.47858647897783
1.07698961937716,1029.47068872226,513.459965778742,-516.010722943517,-771.465327250501,772.740705832889,-1.27537858238748
1.07915224913495,1027.40815925523,512.042275865774,-515.365883389455,-769.725217560502,771.387021322342,-1.66180376184059
1.08131487889273,1017.64460972476,507.566988789981,-510.077620934781,-762.605799257371,763.861115329771,-1.25531607239992
1.08347750865052,1020.64557764745,509.303042621784,-511.342535025663,-764.974310134616,765.994056336555,-1.01974620193948
1.0856401384083,1029.65642178711,513.05090240772,-516.605519379386,-771.353662097413,773.130970583247,-1.77730848583315
1.08780276816609,1026.43878491231,509.372324312228,-517.066460600079,-767.905554612267,771.752622756193,-3.84706814392564
1.08996539792388,1013.96975658893,506.798738263619,-507.171018325312,-760.384247426275,760.570387457122,-0.186140030846389
1.09212802768166,1017.21555982048,510.161427728258,-507.054132092218,-763.688493774367,762.134845956348,1.55364781801984
1.09429065743945,1023.22703378531,512.870311879676,-510.356721905637,-768.048672832495,766.791877845475,1.25679498701959
1.09645328719723,1012.42459571136,510.501044976869,-501.923550734487,-761.462820344112,757.174073222921,4.28874712119131
1.09861591695502,1002.33323218568,507.293763354093,-495.039468831584,-754.813497769886,748.686350508631,6.12714726125444
1.1007785467128,998.573711654389,510.721889719247,-487.851821935142,-754.647800686818,743.212766794765,11.4350338920526
1.10294117647059,1005.47146528971,513.005104106083,-492.466361183632,-759.238284697899,748.968913236673,10.2693714612259
1.10510380622837,1007.43439147328,508.889219360288,-498.545172112992,-758.161805416784,752.989781793136,5.17202362364804
1.10726643598616,1017.48116418127,507.084747481478,-510.396416699797,-762.282955831376,763.938790440536,-1.65583460915946
1.10942906574394,1028.2074415795,510.760926233615,-517.446515345881,-769.484183906556,772.826978462689,-3.34279455613284
1.11159169550173,1030.33106920908,513.547049536385,-516.784019672692,-771.939059372731,773.557544440884,-1.61848506815329
1.11375432525952,1020.23384463624,508.991078076138,-511.242766560104,-764.61246135619,765.738305598173,-1.12584424198297
1.1159169550173,1018.22692398284,507.733466263054,-510.493457719787,-762.980195122948,764.360190851314,-1.37999572836623
1.11807958477509,1025.4915603706,512.025310105435,-513.466250265164,-768.758435238017,769.478905317881,-0.720470079864299
1.12024221453287,1027.38805814522,512.274186582292,-515.113871562933,-769.831122363758,771.250964854079,-1.41984249032055
1.12240484429066,1018.97213821152,507.640433824494,-511.331704387024,-763.306286018006,765.151921299271,-1.84563528126529
1.12456747404844,1019.23091567718,508.050307334805,-511.18060834238,-763.640611505995,765.205762009782,-1.56515050378783
1.12673010380623,1028.61872434024,513.051411998402,-515.567312341842,-770.835068169323,772.093018341043,-1.2579501717197
1.12889273356401,1026.27525408669,511.541885391121,-514.733368695567,-768.908569738905,770.504311391128,-1.59574165222296
1.1310553633218,1015.04813210104,507.843762053387,-507.20437004765,-761.445947077213,761.126251074344,0.319696002868454
1.13321799307958,1020.49647962927,508.766491206861,-511.729988422413,-764.631485418067,766.113234025843,-1.48174860777584
1.13538062283737,1030.38813758424,512.900784138849,-517.487353445389,-771.644460861543,773.937745514813,-2.29328465327023
1.13754325259516,1025.84023514789,511.015645595702,-514.824589552188,-768.427940371796,770.332412350039,-1.90447197824267
1.13970588235294,1018.35115663946,506.915879720086,-511.435276919373,-762.633518179773,764.893216779416,-2.25969859964329
1.14186851211073,1022.93328479734,509.494789764634,-513.43849503271,-766.214037280989,768.185889915027,-1.97185263403793
1.14403114186851,1028.94565591493,513.762035509342,-515.183620405583,-771.353845712134,772.064638160254,-0.710792448120856
1.1461937716263,1025.46228118882,511.104951487179,-514.357329701638,-768.283616337998,769.909805445228,-1.62618910722961
1.14835640138408,1018.12909934169,507.29300825884,-510.836091082851,-762.711053800265,764.482595212271,-1.77154141200566
1.15051903114187,1023.4454954903,510.144261049056,-513.30123444124,-766.794878269676,768.373364965768,-1.57848669609189
1.15268166089965,1030.97195765643,513.146516570337,-517.825441086091,-772.059237113382,774.398699371259,-2.33946225787713
1.15484429065744,1020.79235003211,509.527736523303,-511.264613508809,-765.160043277708,766.028481770461,-0.868438492753
1.15700692041522,1017.15267766138,506.897788790646,-510.254888870734,-762.025233226013,763.703783266057,-1.6785500400436
1.15916955017301,1021.99998974138,511.112960469448,-510.887029271931,-766.556475105413,766.443509506655,0.11296559875808
1.1613321799308,1031.80430585331,513.731438355959,-518.072867497348,-772.767872104633,774.938586675328,-2.1707145706946
1.16349480968858,1017.37055399888,509.542245178074,-507.828308820805,-763.456399588477,762.599431409842,0.856968178634588
1.16565743944637,1009.63240852054,507.455707534114,-502.176700986426,-758.544058027327,755.904554753482,2.63950327384407
1.16782006920415,1017.39944296443,511.545604622066,-505.853838342363,-764.472523793247,761.626640653396,2.84588313985131
1.16998269896194,1031.096947116,512.689890984595,-518.407056131402,-771.893419050296,774.752001623699,-2.85858257340317
1.17214532871972,1019.89679090171,508.139711265458,-511.757079636254,-764.018251083585,765.826935268984,-1.80868418539808
1.17430795847751,1018.36121135427,507.594246808682,-510.766964545584,-762.977729081474,764.564087949925,-1.58635886845076
1.17647058823529,1027.76827897766,512.558233313715,-515.210045663941,-770.163256145686,771.489162320799,-1.32590617511289
1.17863321799308,1026.29631280193,512.979035960558,-513.31727684137,-769.637674381243,769.806794821649,-0.169120440406232
1.18079584775087,1019.86720776236,508.210928752466,-511.656279009897,-764.039068257415,765.76174338613,-1.72267512871514
1.18295847750865,1019.45849124669,508.279024016562,-511.179467230128,-763.868757631627,765.31897923841,-1.45022160678297
1.18512110726644,1028.726573095,512.641443085975,-516.085130009025,-770.684008090487,772.405851552012,-1.72184346152505
1.18728373702422,1027.94036440127,511.626609911594,-516.313754489679,-769.783487156434,772.127059445476,-2.34357228904253
1.18944636678201,1019.81763124213,507.170154907229,-512.647476334905,-763.493893074681,766.232553788519,-2.73866071383799
1.19160899653979,1019.74219509635,508.864553538833,-510.877641557512,-764.303374317589,765.309918326929,-1.00654400933928
1.19377162629758,1028.61160366354,513.520227784086,-515.091375879453,-771.065915723813,771.851489771496,-0.78557404768344
1.19593425605536,1026.74468189649,511.678520857595,-515.066161038896,-769.211601377042,770.905421467693,-1.69382009065049
1.19809688581315,1017.37608784082,507.400622375857,-509.975465464964,-762.388355108339,763.675776652892,-1.28742154455364
1.20025951557093,1022.19176752526,509.563474628669,-512.628292896593,-765.877621076966,767.410030210928,-1.53240913396195
1.20242214532872,1030.86578021821,513.171488158475,-517.694292059731,-772.01863418834,774.280036138968,-2.26140195062794
1.20458477508651,1024.00617675164,510.194563118696,-513.811613632948,-767.10036993517,768.908895192296,-1.80852525712572
1.20674740484429,1017.02079858648,506.844606716932,-510.176191869553,-761.932702651708,763.598495228019,-1.66579257631059
1.20891003460208,1024.75968488053,510.441352249983,-514.318332630549,-767.600518565258,769.53900875554,-1.93849019028266
1.21107266435986,1031.08792478202,513.792416539656,-517.295508242367,-772.440170660839,774.191716512195,-1.75154585135556
1.21323529411765,1022.66365059636,510.124587723259,-512.539062873105,-766.394119159811,767.601356734734,-1.20723757492306
1.21539792387543,1018.26875377743,507.279820763831,-510.988933013604,-762.774287270633,764.628843395519,-1.85455612488602
1.21756055363322,1025.23007867956,511.007735096564,-514.222343582999,-768.118906888064,769.726211131281,-1.6073042432173
1.219723183391,1031.59192759287,512.004299255619,-519.587628337256,-771.798113424246,775.589777965065,-3.79166454081849
1.22188581314879,1021.97965217752,508.727362929779,-513.25228924774,-765.353507553649,767.61597071263,-2.26246315898084
1.22404844290657,1017.68299276812,507.248914130125,-510.434078637995,-762.465953449123,764.058535703057,-1.59258225393467
1.22621107266436,1026.74044280559,511.984014591532,-514.756428214061,-769.362228698563,770.748435509827,-1.38620681126417
1.22837370242215,1031.11754197761,513.311276402655,-517.806265574956,-772.214409190134,774.461903776284,-2.24749458615054
1.23053633217993,1018.81766125632,508.657284695014,-510.160376561307,-763.737472975667,764.489018908814,-0.751545933146474
1.23269896193772,1018.57921304959,507.858831585365,-510.720381464227,-763.219022317478,764.649797256909,-1.43077493943093
1.2348615916955,1026.8819638649,512.279927008727,-514.602036856178,-769.580945436816,770.742000360541,-1.16105492372583
1.23702422145329,1027.92503378428,512.177856388068,-515.747177396209,-770.051445086172,771.836105590243,-1.78466050407076
1.23918685121107,1018.52497010338,507.543863420889,-510.981106682494,-763.034416762136,764.753038392938,-1.71862163080237
1.24134948096886,1019.65550814501,508.29698705603,-511.35852108898,-763.97624760052,765.507014616995,-1.53076701647518
1.24351211072664,1029.00336469089,513.165818573929,-515.837546116959,-771.084591632408,772.420455403923,-1.33586377151482
1.24567474048443,1027.88123813347,511.204796857265,-516.676441276203,-769.543017495367,772.278839704836,-2.73582220946878
1.24783737024221,1018.81992353933,507.622487041256,-511.197436498073,-763.221205290293,765.008680018701,-1.78747472840865
1.25,1022,509,-513,-765.5,767.5,-2
1.25216262975779,1029.57856117373,513.067283911376,-516.511277262357,-771.322922542555,773.044919218045,-1.72199667549046
1.25432525951557,1025.28270020871,510.849435990277,-514.433264218431,-768.066068099493,769.85798221357,-1.79191411407692
1.25648788927336,1018.19019046123,506.919126781326,-511.271063679901,-762.554658621276,764.730627070564,-2.17596844928721
1.25865051903114,1022.48757384589,509.774874624202,-512.712699221683,-766.131224235044,767.600136533785,-1.46891229874052
1.26081314878893,1031.0511345764,513.736637574902,-517.314497001498,-772.393886075651,774.182815788949,-1.78892971329765
1.26297577854671,1024.90790736601,510.726261467903,-514.181645898102,-767.817084416955,769.544776632054,-1.72769221509958
1.2651384083045,1017.1160012373,507.218031504368,-509.897969732932,-762.167016370834,763.506985485116,-1.3399691142821
1.26730103806228,1024.00137664505,510.42937646276,-513.572000182286,-767.215376553903,768.786688413666,-1.57131185976323
1.26946366782007,1030.90918713082,513.196031765757,-517.713155365067,-772.05260944829,774.311171247946,-2.25856179965513
1.27162629757785,1022.22303146436,509.346147095451,-512.876884368912,-765.784589279906,767.549957916637,-1.76536863673044
1.27378892733564,1018.25745334911,507.013742800458,-511.243710548649,-762.635598074782,764.750581948878,-2.11498387409557
1.27595155709343,1024.55644840509,510.366518046484,-514.189930358608,-767.461483225788,769.37318938185,-1.91170615606188
1.27811418685121,1029.6523678051,513.564325661139,-516.088042143957,-771.608346733117,772.870204974526,-1.26185824140896
1.280276816609,1014.8945303479,509.193815278214,-505.700715069683,-762.044172813055,760.29762270879,1.74655010426522
1.28243944636678,1009.89575128501,507.531820272394,-502.363931012619,-758.713785778704,756.129841148816,2.5839446298877
1.28460207612457,1014.85820566703,511.816180210876,-503.042025456149,-763.33719293895,758.950115561587,4.38707737736308
1.28676470588235,1018.7489367417,512.619074818864,-506.129861922836,-765.684005780281,762.439399332268,3.24460644801388
1.28892733564014,1018.5040797938,506.997235117107,-511.506844676694,-762.750657455454,765.005462235248,-2.25480477979391
1.29108996539792,1018.73773989154,507.809039297733,-510.928700593812,-763.273389594639,764.833220242678,-1.55983064803979
1.29325259515571,1029.14046453355,512.72447101224,-516.415993521305,-770.932467772893,772.778229027425,-1.8457612545327
1.29541522491349,1028.80691683044,512.684333515135,-516.122583315306,-770.745625172788,772.464750072873,-1.71912490008503
1.29757785467128,1017.41350786012,506.94527098692,-510.468236873198,-762.179389423519,763.940872366658,-1.76148294313896
1.29974048442907,1012.89425582967,508.477928040131,-504.41632778954,-760.686091934901,758.655291809606,2.0308001252954
1.30190311418685,1020.09317718505,512.840579352691,-507.252597832362,-766.466878268873,763.672887508708,2.79399076016455
1.30406574394464,1018.59869164797,511.467880256687,-507.130811391279,-765.033285952327,762.864751519623,2.16853443270389
1.30622837370242,1000.73810001691,506.11714708012,-494.620952936789,-753.427623548514,747.679526476849,5.74809707166565
1.30839100346021,1010.25456010229,509.135852999057,-501.118707103238,-759.695206550676,755.686633602766,4.00857294790967
1.31055363321799,1022.53315198534,513.558797021383,-508.974354963962,-768.045974503364,765.753753474653,2.2922210287108
1.31271626297578,1015.88310604125,511.316758197915,-504.56634784333,-763.59993211958,760.224726942287,3.37520517729274
1.31487889273356,1012.1124771801,507.270188729954,-504.842288450151,-759.691332955029,758.477382815128,1.21395013990133
1.31704152249135,1014.76701537665,509.83629007265,-504.930725304003,-762.301652724651,759.848870340328,2.45278238432371
1.31920415224914,1018.08473299613,513.265571286032,-504.8191617101,-765.675152141082,761.451947353116,4.22320478796604
1.32136678200692,1007.73975520392,510.004191123004,-497.735564080917,-758.871973163462,752.737659642419,6.13431352104328
1.32352941176471,1006.27381077503,506.908794527771,-499.365016247262,-756.591302651401,752.819413511147,3.77188914025436
1.32569204152249,1023.19219626489,510.712990906643,-512.479205358251,-766.952593585769,767.835700811573,-0.883107225804054
1.32785467128028,1028.56942323143,513.685576860901,-514.883846370525,-771.127500046164,771.726634800976,-0.599134754812098
1.33001730103806,1023.64845675563,508.76146359717,-514.886993158456,-766.204960176398,769.267724957041,-3.06276478064302
1.33217993079585,1010.19555046169,507.304098471464,-502.891451990226,-758.749824466577,756.543501225958,2.20632324061864
1.33434256055363,1010.93413719853,511.288633733772,-499.645503464757,-761.11138546615,755.289820331643,5.82156513450747
1.33650519031142,1007.87005400322,512.96781297969,-494.902241023527,-760.418933491453,751.386147513372,9.03278597808122
1.3386678200692,1001.13971097808,508.539587893937,-492.600123084146,-754.83964943601,746.869917031115,7.96973240489569
1.34083044982699,1000.23983886316,507.4158253073,-492.824013555856,-753.827832085228,746.531926209506,7.2959058757221
1.34299307958478,1005.75528748433,512.204103174321,-493.551184310012,-758.979695329327,749.653235897173,9.32645943215437
1.34515570934256,1007.94823824113,513.089638448148,-494.858599792979,-760.518938344637,751.403419017053,9.11551932758465
1.34731833910035,1000.82140342755,508.375018204915,-492.44638522264,-754.598210816235,746.633894325097,7.96431649113725
1.34948096885813,1000.85132717921,508.019080841225,-492.832246337988,-754.43520401022,746.841786758601,7.59341725161858
1.35164359861592,1023.54793545293,512.503511951542,-511.044423501389,-768.025723702236,767.29617947716,0.729544225076324
1.3538062283737,1026.98833730296,512.028545054888,-514.959792248073,-769.508441178924,770.974064775517,-1.46562359659254
1.35596885813149,1018.57136592829,507.43138075139,-511.139985176903,-763.001373339842,764.855675552598,-1.85430221275652
1.35813148788927,1019.16029445586,507.54662149327,-511.613672962589,-763.353457974564,765.386983709224,-2.03352573465975
1.36029411764706,1027.96344957482,513.277789149656,-514.685660425165,-770.620619362238,771.324554999993,-0.703935637754853
1.36245674740484,1024.89454912283,511.891420973216,-513.003128149617,-768.392985048025,768.948838636226,-0.555853588200478
1.36461937716263,1016.26706875773,506.44721433785,-509.819854419876,-761.357141547788,763.043461588801,-1.68632004101289
1.36678200692042,1020.54075615836,509.250316290261,-511.290439868094,-764.895536224308,765.915598013225,-1.02006178891662
1.3689446366782,1030.08190142833,513.191892984137,-516.890008444196,-771.636897206236,773.485954936265,-1.84905773002947
1.37110726643599,1025.17603132596,510.643314896976,-514.532716428985,-767.909673111468,769.854373877473,-1.9447007660047
1.37326989619377,1018.35898357597,506.919869812699,-511.439113763272,-762.639426694335,764.899048669621,-2.25962197528622
1.37543252595156,1022.97723140169,510.055827077175,-512.92140432452,-766.516529239435,767.949317863107,-1.43278862367271
1.37759515570934,1029.72644097453,513.708615197628,-516.017825776906,-771.717528086081,772.87213337572,-1.15460528963888
1.37975778546713,1021.92787892415,510.379335708769,-511.548543215383,-766.153607316461,766.738211069768,-0.584603753307192
1.38192041522491,1016.94257348428,507.190479022753,-509.752094461523,-762.066526253514,763.347333972899,-1.280807719385
1.3840830449827,1024.66850477144,510.712062574123,-513.956442197312,-767.69028367278,769.312473484374,-1.62218981159447
1.38624567474048,1030.16656031841,513.197252195935,-516.969308122476,-771.681906257174,773.567934220444,-1.88602796327052
1.38840830449827,1021.05990012447,509.137329461696,-511.922570662775,-765.098614793084,766.491235393624,-1.39262060053949
1.39057093425606,1017.59079217047,506.133336689619,-511.457455480854,-761.862064430046,764.524123825664,-2.66205939561735
1.39273356401384,1023.92352264739,511.615608650085,-512.307913997305,-767.769565648737,768.115718322347,-0.346152673609993
1.39489619377163,1030.04009182217,513.390059365606,-516.650032456568,-771.71507559389,773.345062139371,-1.62998654548107
1.39705882352941,1019.01990149294,508.876666543319,-510.14323494962,-763.948284018129,764.581568221279,-0.633284203150652
1.3992214532872,1018.04419219194,507.642255650051,-510.401936541884,-762.843223920993,764.22306436691,-1.37984044591667
1.40138408304498,1027.56037298222,512.07118251165,-515.489190470575,-769.815777746937,771.524781726399,-1.70900397946252
1.40354671280277,1029.82179987286,511.511262512597,-518.31053736026,-770.666531192727,774.066168616558,-3.39963742383179
1.40570934256055,1020.34732633947,507.858029044594,-512.489297294876,-764.102677692032,766.418311817173,-2.31563412514123
1.40787197231834,1021.18227502086,508.029117796845,-513.153157224011,-764.60569640885,767.167716122434,-2.56201971358308
1.41003460207612,1030.34161328889,512.882571489568,-517.459041799317,-771.612092389227,773.900327544101,-2.28823515487443
1.41219723183391,1026.06688000582,511.398689169526,-514.668190836298,-768.732784587675,770.367535421061,-1.63475083338608
1.4143598615917,1013.8769041901,507.731776745228,-506.14512744487,-760.804340467662,760.011015817483,0.793324650178988
1.41652249134948,1013.35708805826,508.69906954058,-504.658018517684,-761.028078799422,759.007553287974,2.02052551144828
1.41868512110727,1013.54060903921,513.010515511037,-500.530093528171,-763.275562275122,757.03535128369,6.24021099143272
1.42084775086505,1003.39536056983,511.277930781718,-492.117429788109,-757.336645675773,747.756395178968,9.58025049680475
1.42301038062284,986.838076941581,507.067589012161,-479.77048792942,-746.952832976871,733.304282435501,13.6485505413705
1.42517301038062,985.740772960374,509.410053124659,-476.330719835715,-747.575413042516,731.035746398044,16.539666644472
1.42733564013841,996.268197124355,513.595055997859,-482.673141126496,-754.931626561107,739.470669125426,15.4609574356815
1.42949826989619,998.017424699548,510.983580456469,-487.033844243079,-754.500502578008,742.525634471313,11.9748681066949
1.43166089965398,998.955068059012,507.189644922243,-491.765423136768,-753.072356490628,745.36024559789,7.71211089273748
1.43382352941176,1013.34288010888,510.113683422844,-503.229196686037,-761.728281765862,758.286038397459,3.44224336840307
1.43598615916955,1030.16280309705,513.311569883885,-516.851233213164,-771.737186490467,773.507018155107,-1.76983166463947
1.43814878892734,1023.15330270617,509.779997200252,-513.373305505922,-766.466649953213,768.263304106048,-1.79665415283512
1.44031141868512,1016.23113366406,506.974583832742,-509.256549831318,-761.602858748401,762.743841747689,-1.14098299928804
1.44247404844291,1025.79920549576,510.984340256656,-514.814865239106,-768.391772876209,770.307035367434,-1.91526249122501
1.44463667820069,1031.64182168556,513.580533028016,-518.061288657543,-772.611177356788,774.851555171551,-2.24037781476341
1.44679930795848,1020.29731125934,509.437060922941,-510.860250336402,-764.867186091143,765.578780797873,-0.711594706730466
1.44896193771626,1017.48487497744,507.362699729144,-510.122175248297,-762.423787353292,763.803525112869,-1.37973775957676
1.45112456747405,1023.38752295981,511.56189502769,-511.825627932117,-767.474708993748,767.606575445962,-0.131866452213615
1.45328719723183,1015.40281696262,512.898821838015,-502.503995124605,-764.150819400317,758.953406043612,5.19741335670494
1.45544982698962,1001.36773403685,508.357064918733,-493.010669118115,-754.862399477791,747.189201577482,7.67319790030911
1.4576124567474,1005.42871431986,507.597029475434,-497.831684844427,-756.512871897647,751.630199582144,4.88267231550321
1.45977508650519,1028.34958512267,512.407614014306,-515.941971108359,-770.378599568485,772.145778115512,-1.7671785470269
1.46193771626298,1029.80384436764,511.850973372975,-517.952870994669,-770.82740887031,773.878357681157,-3.05094881084699
1.46410034602076,1017.44075862165,508.123181475669,-509.317577145984,-762.781970048661,763.379167883819,-0.597197835157658
1.46626297577855,1017.25869161577,508.204248365086,-509.05444325068,-762.731469990426,763.156567433223,-0.425097442797039
1.46842560553633,1028.01977990052,512.705356311773,-515.314423588745,-770.362568106145,771.667101744631,-1.30453363848596
1.47058823529412,1028.67157116402,511.851170879701,-516.82040028432,-770.261371021861,772.745985724171,-2.48461470230978
1.4727508650519,1019.34335951843,507.32526508411,-512.018094434324,-763.334312301273,765.68072697638,-2.34641467510698
1.47491349480969,1019.63524780729,508.803135304422,-510.832112502869,-764.219191555856,765.23368015508,-1.01448859922328
1.47707612456747,1030.12310416883,513.374670215232,-516.748433953602,-771.748887192033,773.435769061218,-1.68688186918519
1.47923875432526,1024.25333238639,511.582417681831,-512.670914704561,-767.917875034111,768.462123545476,-0.544248511364685
1.48140138408305,1018.01701602586,507.31559984438,-510.701416181478,-762.666307935119,764.359216103668,-1.69290816854868
1.48356401384083,1023.10826875133,509.513084244621,-513.595184506714,-766.310676497978,768.351726629024,-2.0410501310464
1.48572664359862,1029.31579973187,513.288406161762,-516.027393570109,-771.302102946817,772.67159665099,-1.36949370417335
1.4878892733564,1020.75327059213,510.421471796088,-510.331798796046,-765.587371194111,765.54253469409,0.0448365000208923
1.49005190311419,1018.39523390507,506.934252799175,-511.4609811059,-762.664743352125,764.928107505487,-2.26336415336255
1.49221453287197,1024.48702878243,510.335308124772,-514.151720657662,-767.411168453602,769.319374720048,-1.90820626644506
1.49437716262976,1029.55319649778,513.661777148538,-515.891419349237,-771.607486823156,772.722307923506,-1.11482110034967
1.49653979238754,1022.19980614276,510.044681916559,-512.155124226197,-766.122244029658,767.177465184477,-1.05522115481892
1.49870242214533,1016.95043955333,507.196642046057,-509.753797507274,-762.073540799694,763.352118530303,-1.27857773060879
1.50086505190311,1025.29182390096,510.99302596245,-514.298797938512,-768.142424931706,769.795310919737,-1.6528859880309
1.5030276816609,1031.19394178083,513.167885763986,-518.026056016843,-772.180913772408,774.609998898836,-2.42908512642862
1.50519031141869,1021.68192561576,508.924204544306,-512.757721071455,-765.303065080034,767.219823343608,-1.91675826357425
1.50735294117647,1016.84657728242,507.267202483278,-509.579374799146,-762.056889882851,763.212976040785,-1.15608615793388
1.50951557093426,1024.34658576251,511.857756083475,-512.488829679033,-768.102170922991,768.41770772077,-0.315536797778918
1.51167820069204,1029.60663907196,513.212149018367,-516.394490053597,-771.409394045165,773.00056456278,-1.59117051761507
1.51384083044983,1019.40848312549,508.593083542925,-510.815399582563,-764.000783334207,765.111941354026,-1.11115801981924
1.51600346020761,1017.343081509,506.783907500947,-510.559174008057,-762.063494504975,763.95112775853,-1.88763325355507
1.5181660899654,1029.10016497094,512.304322420214,-516.795842550726,-770.702243695577,772.948003760833,-2.24576006525615
1.52032871972318,1027.60340801822,512.362980324335,-515.240427693886,-769.983194171278,771.421917856053,-1.43872368477503
1.52249134948097,1017.09629553983,506.697294200222,-510.399001339606,-761.896794870025,763.747648439718,-1.85085356969211
1.52465397923875,1018.62176887389,508.256558130977,-510.365210742908,-763.439163502431,764.493489808397,-1.05432630596567
1.52681660899654,1030.54034343264,513.033488156647,-517.506855275995,-771.786915794645,774.023599354319,-2.23668355967391
1.52897923875433,1026.38829049,511.123494914871,-515.264795575126,-768.755892702434,770.826543032562,-2.07065033012731
1.53114186851211,1019.44354443051,507.553466632811,-511.890077797695,-763.498505531659,765.6668111141,-2.16830558244186
1.5333044982699,1021.86593772268,508.938045562821,-512.927892159859,-765.40199164275,767.396914941269,-1.99492329851921
1.53546712802768,1030.96496972485,513.145871504424,-517.819098220426,-772.055420614638,774.392033972639,-2.33661335800093
1.53762975778547,1024.01054258314,511.055404006572,-512.955138576564,-767.532973294854,768.48284057985,-0.949867284995548
1.53979238754325,1016.61660033245,507.022037464173,-509.594562868279,-761.819318898313,763.105581600366,-1.28626270205331
1.54195501730104,1022.28146097003,508.687660485148,-513.593800484883,-765.484560727589,767.937630727457,-2.45306999986758
1.54411764705882,1031.5407936756,513.617717227598,-517.923076447998,-772.579255451597,774.731935061796,-2.15267961019993
1.54628027681661,1023.43565660634,510.663829462995,-512.771827143343,-767.049743034667,768.103741874841,-1.05399884017396
1.54844290657439,1016.7801543264,507.146409476354,-509.633744850042,-761.963281901375,763.206949588219,-1.24366768684411
1.55060553633218,1022.99863599083,510.393025824225,-512.605610166604,-766.695830907527,767.802123078716,-1.10629217118952
1.55276816608997,1029.45043638511,513.321474545431,-516.128961839676,-771.385955465269,772.789699112391,-1.40374364712272
1.55493079584775,1023.95477035617,509.541083882769,-514.413686473401,-766.74792711947,769.184228414785,-2.43630129531579
1.55709342560554,1018.49487791705,507.052919267672,-511.441958649375,-762.773898592359,764.96841828321,-2.19451969085151
1.55925605536332,1024.21611419735,511.251843922069,-512.964270275282,-767.733979059709,768.590192236316,-0.856213176606559
1.56141868512111,1030.14935686279,513.464598463979,-516.684758398811,-771.806977663384,773.417057630801,-1.61007996741614
1.56358131487889,1018.46697111109,509.136975790619,-509.32999532047,-763.801973450854,763.89848321578,-0.0965097649254858
1.56574394463668,1017.61477143322,507.457508281373,-510.157263151844,-762.536139857295,763.88601729253,-1.34987743523556
1.56790657439446,1028.03782405353,511.818399733549,-516.219424319984,-769.928111893541,772.128624186759,-2.20051229321723
1.57006920415225,1031.40602879573,511.785865313369,-519.620163482362,-771.59594705455,775.513096139046,-3.91714908449643
1.57223183391003,1020.03056153032,508.17174127418,-511.858820256143,-764.101151402251,765.944690893233,-1.84353949098136
1.57439446366782,1017.75122582168,507.789258046944,-509.961967774732,-762.77024193431,763.856596798204,-1.08635486389392
1.57655709342561,1029.77951341676,512.599746531298,-517.179766885458,-771.189629974027,773.479640151107,-2.29001017707992
1.57871972318339,1029.44391380372,512.608221005888,-516.835692797832,-771.026067404805,773.139803300777,-2.1137358959719
1.58088235294118,1020.11742291882,507.888013897615,-512.229409021201,-764.002718408216,766.173415970009,-2.17069756179302
1.58304498269896,1019.72490979878,508.409103419816,-511.315806378961,-764.067006609297,765.52035808887,-1.45335147957263
1.58520761245675,1030.34872678545,512.894183216833,-517.454543568619,-771.621455001142,773.901635177036,-2.28018017589329
1.58737024221453,1029.16237263143,511.664938616295,-517.497434015139,-770.413655623865,773.329903323287,-2.91624769942223
1.58953287197232,1017.03935137143,507.240423728392,-509.798927643041,-762.139887549912,763.419139507237,-1.27925195732456
1.5916955017301,1019.12431996877,509.066273351717,-510.058046617049,-764.095296660242,764.591183292908,-0.495886632665929
1.59385813148789,1030.32829413655,513.442439811869,-516.885854324679,-771.885366974208,773.607074230613,-1.7217072564049
1.59602076124567,1025.74009653631,511.260189082025,-514.479907454281,-768.500142809165,770.110001995294,-1.6098591861284
1.59818339100346,1018.89956585023,507.207342940105,-511.692222910121,-763.053454395166,765.295894380174,-2.24243998500799
1.60034602076125,1024.68156361538,509.78597253959,-514.895591075785,-767.233768077483,769.788577345581,-2.55480926809753
1.60250865051903,1031.40237155796,513.362187553292,-518.040184004665,-772.382279555624,774.721277781311,-2.33899822568662
1.60467128027682,1024.17233279629,510.194296698861,-513.978036097434,-767.183314747578,769.075184446864,-1.89186969928664
1.6068339100346,1019.34351320961,506.967948881762,-512.375564327848,-763.155731045686,765.859538768729,-2.70380772304321
1.60899653979239,1023.03997516734,510.610547746242,-512.4294274211,-766.825261456792,767.734701294221,-0.90943983742909
1.61115916955017,1029.53516285523,513.589786529917,-515.945376325308,-771.562474692571,772.740269590267,-1.17779489769543
1.61332179930796,1021.71171426689,509.716398161458,-511.99531610543,-765.714056214173,766.853515186159,-1.13945897198607
1.61548442906574,1019.12740558943,507.231573599432,-511.895831990003,-763.179489594433,765.511618789718,-2.3321291952854
1.61764705882353,1025.83221745248,511.271803685797,-514.560413766682,-768.552010569138,770.196315609581,-1.64430504044242
1.61980968858131,1028.95973600336,512.11527926613,-516.844456737232,-770.537507634746,772.902096370297,-2.36458873555068
1.6219723183391,1022.12553982773,508.724882746966,-513.400657080764,-765.425211287348,767.763098454247,-2.33788716689884
1.62413494809689,1018.06694197471,507.421225239509,-510.645716735202,-762.74408360711,764.356329354956,-1.61224574784632
1.62629757785467,1025.83465731939,511.0795379647,-514.755119354689,-768.457097642045,770.294888337039,-1.83779069499457
1.62846020761246,1029.32865501443,513.005689278683,-516.322965735751,-771.167172146558,772.825810375092,-1.65863822853419
1.63062283737024,1019.00902677335,508.320009885513,-510.689016887834,-763.66451832943,764.849021830591,-1.18450350116052
1.63278546712803,1018.73869122405,507.947262550719,-510.791428673335,-763.342976887386,764.765059948694,-1.42208306130806
1.63494809688581,1029.50024672072,512.531187673187,-516.969059047535,-771.015717196955,773.234652884129,-2.21893568717405
1.6371107266436,1028.15107017275,512.209343521154,-515.941726651598,-770.180206846953,772.046398412175,-1.86619156522204
1.63927335640138,1018.69115441966,507.569581293431,-511.121573126229,-763.130367856546,764.906363772945,-1.7759959163991
1.64143598615917,1019.05013914685,508.495732374392,-510.554406772459,-763.772935760622,764.802272959655,-1.02933719903331
1.64359861591696,1025.86850536216,513.158486534717,-512.710018827446,-769.51349594844,769.289262094804,0.22423385363561
1.64576124567474,1021.99101635379,511.830770171367,-510.160246182425,-766.910893262579,766.075631268108,0.835261994471125
1.64792387543253,1011.31663683275,507.388938696711,-503.927698136042,-759.352787764732,757.622167484398,1.73062028033456
1.65008650519031,1008.40284288049,509.191156048134,-499.211686832355,-758.796999464311,753.807264856422,4.98973460788909
1.6522491349481,1008.01832080533,513.271849101418,-494.746471703916,-760.645084953377,751.382396254626,9.26268869875099
1.65441176470588,1003.44796735006,510.839710248491,-492.608257101573,-757.143838799277,748.028112225818,9.11572657345909
1.65657439446367,998.599210781522,507.006172266694,-491.593038514827,-752.802691524108,745.096124648175,7.70656687593345
1.65873702422145,1002.76944111011,509.964178795829,-492.805262314282,-756.36680995297,747.787351712197,8.5794582407737
1.66089965397924,1000.35932528146,512.600549268215,-487.758776013244,-756.479937274838,744.059050647352,12.4208866274855
1.66306228373702,990.871097949997,510.335237668955,-480.535860281043,-750.603167809476,735.70347911552,14.8996886939561
1.66522491349481,986.980130159443,507.126169827687,-479.853960331756,-747.053149993565,733.4170452456,13.6361047479654
1.6673875432526,998.456653650023,510.676611549819,-487.780042100204,-754.566632599921,743.118347875114,11.448284724807
1.66955017301038,1012.02707891562,513.315782409774,-498.71129650585,-762.671430662699,755.369187710737,7.30224295196172
1.67171280276817,1004.1705638832,509.312936479952,-494.857627403252,-756.741750181578,749.514095643228,7.22765453835041
1.67387543252595,994.603423089152,507.155112131319,-487.448310957833,-750.879267610236,741.025867023492,9.85340058674325
1.67603806228374,1003.70997883244,511.506380339116,-492.203598493327,-757.608179585779,747.956788662885,9.65139092289439
1.67820069204152,1003.96114348091,513.317050409822,-490.644093071089,-758.639096945367,747.302618276,11.3364786693664
1.68036332179931,995.224802405577,508.841136056425,-486.383666349152,-752.032969231001,740.804234377364,11.2287348536364
1.68252595155709,977.057581395856,507.574677019697,-469.48290437616,-742.316129207776,723.270242886008,19.0458863217684
1.68468858131488,973.232584594219,512.069336525545,-461.163248068674,-742.650960559882,717.197916331447,25.4530442284353
1.68685121107266,970.749568693035,512.660858563549,-458.088710129485,-741.705213628292,714.41913941126,27.2860742170322
1.68901384083045,973.795547118377,507.989444408006,-465.806102710371,-740.892495763192,719.800824914374,21.0916708488178
1.69117647058824,988.231232395834,507.993841989279,-480.237390406555,-748.112537192556,734.234311401195,13.8782257913617
1.69333910034602,1010.74545478614,511.778462327881,-498.966992458258,-761.26195855701,754.856223622198,6.40573493481133
1.69550173010381,1015.44027638151,512.365517340318,-503.074759041192,-763.902896860914,759.257517711351,4.64537914956333
1.69766435986159,1010.45918555851,507.695597987291,-502.763587571217,-759.0773917729,756.611386564863,2.46600520803702
1.69982698961938,1011.19288436567,508.634593578221,-502.558290787445,-759.913738971943,756.875587576556,3.03815139538767
1.70198961937716,1015.8909182011,513.047782709053,-502.843135492043,-764.469350455075,759.36702684657,5.10232360850495
1.70415224913495,1001.1171738553,511.440444942609,-489.676728912694,-756.278809398956,745.396951383999,10.8818580149572
1.70631487889273,985.314855364807,507.156108998328,-478.158746366479,-746.235482181567,731.736800865643,14.4986813159242
1.70847750865052,980.580664654705,509.335257329772,-471.245407324933,-744.957960992239,725.913035989819,19.0449250024197
1.7106401384083,985.760046913586,513.503991281225,-472.25605563236,-749.632019097406,729.008051272973,20.6239678244325
1.71280276816609,979.606536020201,510.95799698127,-468.648539038932,-745.282266500736,724.127537529567,21.154728971169
1.71496539792388,978.746939247632,507.142009206022,-471.604930041611,-742.944474226827,725.175934644622,17.7685395822053
1.71712802768166,986.243540945685,510.062492872785,-476.1810480729,-748.153016909235,731.212294509293,16.9407223999425
1.71929065743945,995.406928790464,513.392742236683,-482.014186553781,-754.399835513573,738.710557672122,15.689277841451
1.72145328719723,998.860175498361,508.940806760262,-489.919368738099,-753.900491129311,744.38977211823,9.51071901108133
1.72361591695502,995.622176892761,507.014284932171,-488.607891960589,-751.318230912466,742.115034426675,9.2031964857909
1.7257785467128,1007.39631892625,510.883707444558,-496.512611481695,-759.140013185405,751.954465203974,7.18554798143163
1.72794117647059,1010.89973875159,513.505371634614,-497.394367116972,-762.2025551931,754.147052934279,8.05550225882081
1.73010380622837,1004.78956278069,509.409358026188,-495.380204754504,-757.09946040344,750.084883767598,7.01457663584233
1.73226643598616,999.221841302687,507.299850431649,-491.921990871038,-753.260845867168,745.571916086863,7.68892978030573
1.73442906574394,1006.44468247527,511.540677455125,-494.904005020148,-758.992679965199,750.67434374771,8.31833621748865
1.73659169550173,1007.97003442604,513.027298078014,-494.942736348028,-760.498666252028,751.456385387035,9.04228086499273
1.73875432525952,1004.02526873982,507.504200829854,-496.521067909963,-755.764734784835,750.27316832489,5.49156645994532
1.7409169550173,999.515090678519,507.584637515356,-491.930453163163,-753.549864096938,745.722771920841,7.82709217609676
1.74307958477509,1012.94033720289,512.296101438343,-500.644235764547,-762.618219320616,756.792286483719,5.82593283689761
1.74524221453287,1016.39160125842,512.792897683393,-503.598703575027,-764.592249470907,759.995152416724,4.59709705418277
1.74740484429066,1008.21350921596,508.077458580664,-500.136050635299,-758.145483898314,754.174779925631,3.97070397268254
1.74956747404844,1007.09695123831,508.135238483214,-498.961712755099,-757.616094860763,753.029331996706,4.58676286405711
1.75173010380623,1014.10764971185,512.733945580897,-501.373704130957,-763.420797646376,757.740676921405,5.68012072497038
1.75389273356401,1017.16409741704,511.023547936428,-506.140549480609,-764.093822676732,761.652323448823,2.44149922790967
1.7560553633218,997.793236171024,506.45315996365,-491.340076207374,-752.123198067337,744.566656189199,7.5565418781382
1.75821799307958,988.544940854587,508.74452087316,-479.800419981427,-748.644730863874,734.172680418007,14.4720504458665
1.76038062283737,1001.60091229548,513.253281674031,-488.347630621451,-757.427096984757,744.974271458467,12.4528255262903
1.76254325259516,1003.91238421672,511.518541304034,-492.393842912686,-757.715462760377,748.153113564703,9.56234919567379
1.76470588235294,996.873691738486,507.251335876885,-489.6223558616,-752.062513807685,743.248023800043,8.81449000764258
1.76686851211073,999.976162821421,509.457108341107,-490.519054480314,-754.716635581264,745.247608650867,9.46902693039675
1.76903114186851,1003.39801783468,513.376451191295,-490.021566643385,-758.387234512988,746.709792239033,11.6774422739553
1.7711937716263,998.235319699458,510.616846528869,-487.61847317059,-754.426083114163,742.926896435024,11.4991866791395
1.77335640138408,995.73885767682,507.009723559473,-488.729134117347,-751.374290618146,742.233995897083,9.14029472106307
1.77551903114187,1015.21607201791,510.23878313265,-504.977288885261,-762.727427575281,760.096680451586,2.63074712369456
1.77768166089965,1028.98563590404,513.558309401987,-515.427326502053,-771.271972653013,772.206481203046,-0.934508550033001
1.77984429065744,1021.68239319493,509.994570323418,-511.687822871511,-765.838481759174,766.68510803322,-0.846626274046514
1.78200692041522,1016.598512349,507.126961448673,-509.471550900329,-761.862736898837,763.035031624665,-1.17229472582801
1.78416955017301,1024.35752166167,510.965104696679,-513.392416964994,-767.661313179176,768.874969313333,-1.21365613415742
1.7863321799308,1030.84087229908,513.300450939024,-517.540421360053,-772.07066161905,774.190646829565,-2.11998521051464
1.78849480968858,1020.44485366535,509.102568744257,-511.342284921095,-764.773711204805,765.893569293224,-1.11985808841894
1.79065743944637,1014.05053386516,507.281753813031,-506.768780052132,-760.666143839097,760.409656958648,0.256486880449415
1.79282006920415,1017.93205273314,511.742657396853,-506.189395336291,-764.837355064998,762.060724034718,2.77663103028073
1.79498269896194,1014.04184781582,513.133037769063,-500.908810046759,-763.587442792442,757.47532893129,6.11211386115207
1.79714532871972,1001.06071505453,508.546998878826,-492.513716175707,-754.803856966679,746.78721561512,8.01664135155971
1.79930795847751,997.158948760897,507.712684676454,-489.446264084443,-752.435816718676,743.30260642267,9.1332102960057
1.80147058823529,1011.15228176894,512.316676865379,-498.835604903563,-761.734479317161,754.993943336252,6.74053598090813
1.80363321799308,1015.09676494774,512.530673779933,-502.566091167805,-763.813719363836,758.831428057772,4.98229130606376
1.80579584775087,1002.6245089362,506.840561949286,-495.783946986914,-754.732535442743,749.204227961557,5.52830748118612
1.80795847750865,999.60885558325,508.216770627543,-491.392084955707,-753.912813105396,745.500470269478,8.41234283591808
1.81012110726644,1013.04285853471,512.917233907701,-500.125624627004,-762.980046221203,756.584241580855,6.39580464034856
1.81228373702422,1018.94603311615,512.06533057261,-506.880702543544,-765.505681844382,762.913367829849,2.59231401453286
1.81444636678201,1018.14329579726,507.493813559361,-510.649482237895,-762.818554678308,764.396389017576,-1.57783433926738
1.81660899653979,1019.72272601807,508.873975541378,-510.848750476692,-764.298350779723,765.285738247381,-0.987387467657072
1.81877162629758,1031.2500032344,513.211276209921,-518.038727024476,-772.230639722159,774.644365129436,-2.41372540727752
1.82093425605536,1026.62080133797,511.247630836729,-515.37317050124,-768.934216087349,770.996985919604,-2.06276983225519
1.82309688581315,1016.95334185755,507.119950520189,-509.833391337365,-762.036646188872,763.39336659746,-1.35672040858805
1.82525951557093,1024.10573460909,509.60499320955,-514.500741399536,-766.855363909318,769.303238004311,-2.44787409499281
1.82742214532872,1029.1672412912,513.507849568416,-515.65939172278,-771.337545429806,772.413316506988,-1.07577107718214
1.82958477508651,1023.1477537873,510.611675716863,-512.536078070432,-766.87971475208,767.841915928864,-0.962201176784561
1.83174740484429,1017.53630568311,506.080024572829,-511.456281110283,-761.80816512797,764.496293396697,-2.68812826872716
1.83391003460208,1023.94597038948,510.350210862794,-513.595759526688,-767.148090626138,768.770864958085,-1.62277433194703
1.83607266435986,1030.83101367647,513.429761709803,-517.401251966662,-772.130387693134,774.116132821564,-1.9857451284297
1.83823529411765,1023.49811462848,509.721369186022,-513.776745442462,-766.609741907253,768.637430035473,-2.02768812821984
1.84039792387543,1017.66438642082,507.088648454892,-510.575737965925,-762.376517437855,764.120062193371,-1.74354475551667
1.84256055363322,1026.94495013799,511.144775711419,-515.800174426571,-769.044862924705,771.372562282281,-2.32769935757585
1.844723183391,1028.79883378104,513.382577910642,-515.416255870397,-771.090705845841,772.107544825718,-1.01683897987721
1.84688581314879,1020.20261459056,509.09759509182,-511.105019498737,-764.650104841189,765.653817044647,-1.00371220345841
1.84904844290657,1018.39296255228,507.388646571139,-511.004315981146,-762.890804561712,764.698639266716,-1.80783470500381
1.85121107266436,1027.10574100862,511.808764816212,-515.296976192403,-769.457252912414,771.201358600509,-1.74410568809537
1.85337370242215,1030.90784585242,512.932132526915,-517.975713325509,-771.91998918967,774.441779588966,-2.52179039929695
1.85553633217993,1022.53856848964,507.315420422546,-515.223148067097,-764.926994456095,768.88085827837,-3.95386382227537
1.85769896193772,1018.76791748816,507.768474679771,-510.999442808391,-763.268196083967,764.883680148277,-1.61548406431007
1.8598615916955,1027.44821205507,512.487619374785,-514.960592680284,-769.967915714927,771.204402367677,-1.23648665274982
1.86202422145329,1027.13859103737,512.551860171036,-514.586730866334,-769.845225604203,770.862660951852,-1.01743534764921
1.86418685121107,1017.88817018749,507.846702474941,-510.041467712545,-762.867436331213,763.964818950015,-1.09738261880193
1.86634948096886,1020.56169692328,508.341600286872,-512.220096636408,-764.451648605076,766.390896779844,-1.93924817476835
1.86851211072664,1030.50809134837,512.926152401298,-517.581938947071,-771.717121874834,774.04501514772,-2.32789327288617
1.87067474048443,1027.65768865316,511.833066373569,-515.824622279589,-769.745377513364,771.741155466373,-1.99577795300974
1.87283737024221,1019.38775810727,507.3468452437,-512.040912863572,-763.367301675486,765.714335485422,-2.34703380993585
1.875,1021,509,-512,-765,766.5,-1.5
1.87716262975779,1029.01373542625,512.341465148537,-516.672270277718,-770.677600287395,772.843002851986,-2.16540256459052
1.87932525951557,1024.51225237266,511.230697837588,-513.281554535077,-767.871475105126,768.89690345387,-1.02542834874436
1.88148788927336,1017.7004286563,507.161489056553,-510.53893959975,-762.430958856428,764.119684128026,-1.68872527159857
1.88365051903114,1022.57835428811,509.729951246546,-512.848403041569,-766.15415276733,767.713378664842,-1.55922589751162
1.88581314878893,1030.66328558362,513.433710091785,-517.229575491835,-772.048497837703,773.946430537728,-1.89793270002497
1.88797577854671,1025.65965978277,510.358168550016,-515.301491232751,-768.008914166391,770.480575507759,-2.47166134136774
1.8901384083045,1017.5281967666,507.016201418111,-510.511995348485,-762.272199092353,764.02009605754,-1.74789696518718
1.89230103806228,1025.82268286189,510.51687324306,-515.305809618835,-768.169778052477,770.564246240365,-2.39446818788764
1.89446366782007,1028.2494183346,513.517067920628,-514.732350413973,-770.883243127614,771.490884374287,-0.607641246672756
1.89662629757785,1022.52010292945,509.696271964755,-512.823830964696,-766.108187447103,767.671966947074,-1.56377949997017
1.89878892733564,1017.93192211721,507.173789591995,-510.758132525219,-762.552855854604,764.345027321216,-1.79217146661199
1.90095155709343,1024.81518143031,511.239312462212,-513.575868968102,-768.027246946264,769.195525199208,-1.1682782529449
1.90311418685121,1018.33123207823,513.227325283425,-505.103906794803,-765.779278680826,761.717569436515,4.06170924431098
1.905276816609,1007.66245488178,508.862804134023,-498.799650747759,-758.262629507902,753.231052814771,5.03157669313163
1.90743944636678,1008.19549512873,507.413034572652,-500.78246055608,-757.804264850692,754.488977842406,3.31528700828574
1.90960207612457,1016.43835984873,511.981354994814,-504.45700485392,-764.209857421774,760.447682351327,3.76217507044714
1.91176470588235,1013.86459929119,512.963505487857,-500.901093803336,-763.414052389525,757.382846547265,6.03120584226014
1.91392733564014,997.754911285929,508.30188729402,-489.453023991909,-753.028399289975,743.603967638919,9.42443165105584
1.91608996539792,998.58798042128,507.883151507253,-490.704828914027,-753.235565964267,744.646404667654,8.58916129661304
1.91825259515571,1016.50680802562,512.531159521162,-503.975648504457,-764.518983773391,760.241228265039,4.27775550835247
1.92041522491349,1024.5199044121,512.346240177143,-512.173664234961,-768.433072294624,768.346784323533,0.0862879710908828
1.92257785467128,1019.01837057269,507.676981281422,-511.341389291264,-763.347675927054,765.179879931975,-1.8322040049211
1.92474048442907,1017.96766895325,508.444249362062,-509.52341959119,-763.205959157657,763.745544272221,-0.53958511456392
1.92690311418685,1022.60229689902,513.06724649962,-509.535050399397,-767.834771699319,766.068673649207,1.76609805011185
1.92906574394464,1020.83612805117,511.810897778818,-509.025230272348,-766.323512914992,764.930679161758,1.39283375323487
1.93122837370242,1014.17817626277,507.359400166319,-506.818776096454,-760.768788214546,760.498476179613,0.270312034932658
1.93339100346021,1017.27371864203,509.128657625742,-508.145061016292,-763.201188133888,762.709389829163,0.491798304725023
1.93555363321799,1022.18651091345,513.312990540081,-508.873520373367,-767.749750726764,765.530015643407,2.21973508335708
1.93771626297578,1008.76250505214,510.988695741996,-497.773809310142,-759.875600397066,753.268157181139,6.60744321592693
1.93987889273356,987.707428111957,507.06680431243,-480.640623799527,-747.387116212193,734.174025955742,13.2130902564512
1.94204152249135,986.611293002324,509.882011506001,-476.729281496322,-748.246652254162,731.670287249323,16.5763650048394
1.94420415224914,1001.21359040026,513.530809223813,-487.682781176442,-757.372199812034,744.448185788349,12.9240140236855
1.94636678200692,1003.83038362777,510.320078624405,-493.510305003362,-757.075231126086,748.670344315565,8.4048868105217
1.94852941176471,1010.80540731544,507.076878796378,-503.728528519066,-758.941143055911,757.266967917255,1.67417513865581
1.95069204152249,1026.42786044371,509.6308603579,-516.79700008581,-768.029360400805,771.61243026476,-3.58306986395485
1.95285467128028,1029.36620818623,512.40778860943,-516.958419576797,-770.886998397828,773.162313881512,-2.2753154836837
1.95501730103806,1022.50093032555,509.472613107264,-513.028317218282,-765.986771716405,767.764623771914,-1.77785205550902
1.95717993079585,1018.57853223134,507.17304110335,-511.405491127989,-762.875786667345,764.992011679664,-2.11622501231983
1.95934256055363,1018.60962963347,511.403963639102,-507.205665994366,-765.006796636285,762.907647813917,2.09914882236774
1.96150519031142,1015.03042467552,513.256392485118,-501.774032190407,-764.143408580321,758.402228432966,5.74118014735507
1.9636678200692,1001.26313672076,508.817720248779,-492.445416471982,-755.04042848477,746.854276596371,8.18615188839897
1.96583044982699,993.939061693765,507.510370341832,-486.428691351933,-750.724716017799,740.183876522849,10.5408394949494
1.96799307958478,1008.21104600633,512.058038226099,-496.153007780229,-760.134542116213,752.182026893278,7.95251522293506
1.97015570934256,1014.85655284347,512.795561372233,-502.060991471239,-763.826057107853,758.458772157356,5.36728495049709
1.97231833910035,1007.56023511245,508.119887088945,-499.440348023508,-757.840061100699,753.500291567981,4.33976953271838
1.97448096885813,1014.00975117791,507.960961016779,-506.048790161135,-760.985356097346,760.029270669525,0.956085427821733
1.97664359861592,1022.08959341356,512.677045248904,-509.412548164653,-767.38331933123,765.751070789105,1.63224854212518
1.9788062283737,1027.21474852703,512.323612637304,-514.891135889727,-769.769180582168,771.052942208379,-1.28376162621112
1.98096885813149,1017.96221354413,507.660787933714,-510.301425610417,-762.811500738923,764.131819577274,-1.32031883835162
1.98313148788927,1020.10112842041,507.56890346053,-512.532224959884,-763.835015940472,766.316676690149,-2.48166074967685
1.98529411764706,1031.48826217759,513.080337258501,-518.407924919086,-772.284299718044,774.948093548337,-2.66379383029243
1.98745674740484,1026.64970769847,511.599702306533,-515.050005391936,-769.124705002501,770.849856545202,-1.72515154270172
1.98961937716263,1019.78157222393,506.245767193797,-513.535805030133,-763.013669708864,766.658688627032,-3.64501891816769
1.99178200692042,1022.50975445762,509.262810703225,-513.246943754392,-765.886282580421,767.878349106004,-1.99206652558331
1.9939446366782,1029.54133204498,513.409489881845,-516.131842163136,-771.475410963413,772.836587104058,-1.36117614064563
1.99610726643599,1024.46985179443,510.927575308344,-513.542276486091,-767.698713551389,769.006064140263,-1.30735058887353
1.99826989619377,1015.93232623607,507.09161337866,-508.840712857411,-761.511969807366,762.386519546741,-0.874549739375254
2.00043252595156,1023.08895305072,510.010062199937,-513.078890850788,-766.549507625331,768.083921950756,-1.53441432542525
2.00259515570934,1030.29721312251,513.47480807511,-516.8224050474,-771.88601059881,773.559809084955,-1.67379848614473
2.00475778546713,1024.59427517564,510.106357795306,-514.487917380334,-767.350316485473,769.541096277987,-2.19077979251421
2.00692041522491,1017.27636039385,507.049691324702,-510.226669069152,-762.163025859278,763.751514731503,-1.58848887222484
2.0090830449827,1024.48566864082,510.789180870891,-513.696487769925,-767.637424755853,769.09107820537,-1.45365344951693
2.01124567474048,1031.58336287333,513.443238552638,-518.140124320691,-772.513300712984,774.86174359701,-2.34844288402644
2.01340830449827,1021.43096770719,509.39553225635,-512.035435450844,-765.413249981772,766.733201579019,-1.31995159724681
2.01557093425606,1016.32135347267,507.242400058495,-509.078953414176,-761.781876765582,762.700153443423,-0.918276677840481
2.01773356401384,1028.18426819821,511.510999436711,-516.673268761501,-769.847633817461,772.428768479856,-2.58113466239513
2.01989619377163,1018.64939945579,513.139715634609,-505.509683821182,-765.8945575452,762.079541638487,3.81501590671371
2.02205882352941,1004.69690321242,508.639918816413,-496.056984396005,-756.668411014415,750.376943804211,6.29146721020413
2.0242214532872,1000.30008705574,507.566353890441,-492.733733165299,-753.933220473091,746.51691011052,7.4163103625711
2.02638408304498,1022.09392306462,512.201838736864,-509.892084327756,-767.147880900742,765.993003696188,1.15487720455377
2.02854671280277,1028.93791077872,512.765637592938,-516.17227318578,-770.851774185828,772.555091982249,-1.70331779642106
2.03070934256055,1017.59529355662,508.066328298164,-509.52896525846,-762.830810927394,763.562129407542,-0.731318480147706
2.03287197231834,1020.0305076853,508.071955606581,-511.958552078715,-764.051231645938,765.994529882005,-1.94329823606699
2.03503460207612,1028.86511792514,512.734514963434,-516.130602961701,-770.799816444284,772.497860443418,-1.6980439991338
2.03719723183391,1027.94496652529,512.153712623114,-515.791253902178,-770.049339574203,771.868110213735,-1.81877063953209
2.0393598615917,1019.53798745456,507.537632572284,-512.00035488228,-763.537810013424,765.769171168422,-2.23136115499784
2.04152249134948,1020.40173987495,508.685346849397,-511.716393025549,-764.543543362171,766.059066450247,-1.51552308807595
2.04368512110727,1020.97644865111,513.18470295132,-507.791745699786,-767.080575801212,764.384097175446,2.69647862576699
2.04584775086505,1011.52600013027,511.529317113186,-499.99668301708,-761.527658621726,755.761341573673,5.76631704805305
2.04801038062284,998.19000976454,507.237245223515,-490.952764541025,-752.713627494027,744.571387152782,8.14224034124533
2.05017301038062,1005.80777919284,509.393907463109,-496.413871729728,-757.600843327973,751.110825461282,6.49001786669078
2.05233564013841,1025.05081828554,513.404055562964,-511.646762722575,-769.227436924252,768.348790504057,0.878646420194514
2.05449826989619,1023.80428680893,510.739265601705,-513.065021207229,-767.271776205319,768.434654008081,-1.1628778027619
2.05666089965398,1017.27176725287,507.045907121833,-510.225860131033,-762.158837187349,763.74881369195,-1.58997650460003
2.05882352941176,1023.26401300736,510.158328114687,-513.105684892673,-766.711170561023,768.184848950016,-1.47367838899299
2.06098615916955,1031.78627323777,513.515960850789,-518.27031238698,-772.651117044279,775.028292812374,-2.37717576809541
2.06314878892734,1021.70592464663,510.013982450804,-511.691942195827,-765.859953548717,766.698933421229,-0.838979872511402
2.06531141868512,1009.01253229516,507.091396841683,-501.92113545348,-758.051964568423,755.466833874321,2.58513069410174
2.06747404844291,1012.92260944026,510.912915848596,-502.009693591659,-761.917762644426,757.466151515957,4.45161112846876
2.06963667820069,1017.04711880113,513.366246852077,-503.680871949053,-765.206682826603,760.363995375091,4.84268745151206
2.07179930795848,1011.84086274263,509.216370110932,-502.624492631701,-760.528616426783,757.232677687167,3.29593873961585
2.07396193771626,1009.73689075809,507.273401098757,-502.463489659338,-758.505145928425,756.100190208716,2.40495571970939
2.07612456747405,1020.10356952612,511.658062542862,-508.445506983253,-765.880816034489,764.274538254684,1.60627777980454
2.07828719723183,1026.76291360873,513.119492107984,-513.643421500746,-769.941202858357,770.203167554738,-0.261964696381028
2.08044982698962,1009.673533978,508.561820685544,-501.111713292453,-759.117677331771,755.392623635225,3.72505369654561
2.0826124567474,1012.19848007279,507.658629449954,-504.53985062284,-759.928554761374,758.369165347817,1.55938941355686
2.08477508650519,1028.80255179538,512.289021157408,-516.513530637977,-770.545786476396,772.658041216681,-2.1122547402847
2.08693771626298,1028.65782484081,512.62738963018,-516.030435210625,-770.642607235493,772.344130025715,-1.70152279022227
2.08910034602076,1020.1693023755,507.928603848096,-512.2406985274,-764.048953111796,766.205000451448,-2.15604733965188
2.09126297577855,1017.38941236912,508.168668971931,-509.220743397187,-762.779040670525,763.305077883153,-0.526037212627841
2.09342560553633,1015.48911881916,512.849790908128,-502.639327911028,-764.169454863642,759.064223365092,5.10523149855021
2.09558823529412,1006.88998433157,512.083921610466,-494.806062721107,-759.486952971019,750.84802352634,8.63892944467955
2.0977508650519,1005.91738256368,507.498813577862,-498.418568985814,-756.708098070769,752.167975774745,4.54012229602415
2.09991349480969,1017.62000885751,508.810638864492,-508.809369993016,-763.215323861,763.214689425262,0.000634435737708827
2.10207612456747,1029.45222036196,513.212389102373,-516.239831259588,-771.332304732166,772.846025810774,-1.51372107860743
2.10423875432526,1026.7245999168,511.35352021217,-515.37107970463,-769.039060064485,771.047839810715,-2.00877974623006
2.10640138408304,1018.31437495647,507.164707276174,-511.149667680294,-762.739541116321,764.732021318381,-1.99248020206016
2.10856401384083,1023.06963926008,509.532686491414,-513.536952768664,-766.301162875746,768.303296014371,-2.00213313862469
2.11072664359862,1029.96681152608,513.465497620011,-516.501313906073,-771.716154573047,773.234062716079,-1.51790814303138
2.1128892733564,1024.30827189637,510.643343820554,-513.664928075817,-767.475807858462,768.986599986093,-1.51079212763153
2.11505190311419,1016.11788869122,507.061252385364,-509.056636305852,-761.58957053829,762.587262498534,-0.997691960243912
2.11721453287197,1024.58382002684,510.289912297314,-514.293907729524,-767.436866162076,769.438863878181,-2.00199771610534
2.11937716262976,1031.95565628444,512.473020457306,-519.482635827133,-772.214338370872,775.719146055786,-3.50480768491366
2.12153979238754,1023.6351813096,509.840997791394,-513.794183518208,-766.738089550498,768.714682413905,-1.97659286340701
2.12370242214533,1017.15599091916,507.098356895569,-510.057634023587,-762.127173907362,763.606812471372,-1.47963856400935
2.12586505190311,1025.15199257919,511.059886829311,-514.092105749877,-768.105939704249,769.622049164532,-1.51610946028319
2.1280276816609,1030.79749929821,512.357446212332,-518.440053085879,-771.577472755271,774.618776192045,-3.04130343677366
2.13019031141869,1022.28130676825,509.124185489621,-513.157121278624,-765.702746128933,767.719214023434,-2.01646789450115
2.13235294117647,1017.6883632579,507.344509139109,-510.343854118794,-762.516436198506,764.016108688349,-1.49967248984262
2.13451557093426,1025.53669942023,510.765623510826,-514.771075909403,-768.151161465528,770.153887664816,-2.00272619928842
2.13667820069204,1029.02177049082,513.013084653788,-516.008685837029,-771.017427572302,772.515228163923,-1.49780059162094
2.13884083044983,1019.79472918118,508.411866112875,-511.382863068306,-764.103297647028,765.588796124744,-1.48549847771579
