t,leadI,leadII,leadIII,aVR,aVL,aVF
0,-1.23633142500215,-0.00981981152926603,1.22651161347288,0.623075618265707,-1.23142151923752,0.608345900971808
0.00216262975778547,0.272133274603078,-0.0107936478773016,-0.28292692248038,-0.130669813362888,0.277530098541729,-0.146860285178841
0.00432525951557093,1.29079183686137,-0.0233248673041231,-1.3141167041655,-0.633733484778625,1.30245427051344,-0.66872078573481
0.0064878892733564,1.91343659073827,-0.0506051296857314,-1.964041720424,-0.93141573052627,1.93873915558114,-1.00732342505487
0.00865051903114187,2.27393942316324,-0.0888413352905535,-2.3627807584538,-1.09254904393634,2.31836009080852,-1.22581104687217
0.0108131487889273,2.45509469980318,-0.124983619672341,-2.58007831947552,-1.16505554006542,2.51758650963935,-1.35253096957393
0.0129757785467128,2.48129126924182,-0.139702653220025,-2.62099392246185,-1.1707943080109,2.55114259585184,-1.38034828784094
0.0151384083044983,2.37654331034339,-0.12231116753624,-2.49885447787963,-1.12711607140358,2.43769889411151,-1.31058282270794
0.0173010380622837,2.19684522400212,-0.0814266666061343,-2.27827189060825,-1.05770927869799,2.23755855730519,-1.17984927860719
0.0194636678200692,1.99858452999842,-0.0346430566695406,-2.03322758666797,-0.981970736664442,2.0159060583332,-1.03393532166875
0.0216262975778547,1.80237895301285,0.00588827857680818,-1.79649067443604,-0.904133615794828,1.79943481372444,-0.895301197929616
0.0237889273356401,1.61194511051895,0.0356372900014404,-1.5763078205175,-0.823791200260193,1.59412646551823,-0.770335265258032
0.0259515570934256,1.46223195474312,0.0542953932654856,-1.40793656147763,-0.758263674004302,1.43508425811037,-0.676820584106073
0.0281141868512111,1.40826609829087,0.063101984472385,-1.34516411381848,-0.735684041381626,1.37671510605467,-0.641031064673048
0.0302768166089965,1.45220133834441,0.0630872875364644,-1.38911405080794,-0.757644312940437,1.42065769457618,-0.66301338163574
0.032439446366782,1.52171101604765,0.0542250297791357,-1.46748598626851,-0.787968022913391,1.49459850115808,-0.706630478244688
0.0346020761245675,1.552015248758,0.0354524140381434,-1.51656283471985,-0.79373383139807,1.53428904173892,-0.740555210340855
0.0367647058823529,1.57080358893664,0.00555856983146286,-1.56524501910518,-0.788181079384052,1.56802430402091,-0.779843224636858
0.0389273356401384,1.67307768898011,-0.0350155101187032,-1.70809319909882,-0.819031089430706,1.69058544403947,-0.871554354608761
0.0410899653979239,1.93040859353087,-0.0814642346494052,-2.01187282818028,-0.924472179440733,1.97114071085557,-1.04666853141484
0.0432525951557093,2.3394970704547,-0.121196263604924,-2.46069333405962,-1.10915040342489,2.40009520225716,-1.29094479883227
0.0454152249134948,2.82369285268784,-0.136036393941325,-2.95972924662917,-1.34382822937326,2.8917110496585,-1.54788282028525
0.0475778546712803,3.2649343358103,-0.116750586720406,-3.3816849225307,-1.57409187454495,3.3233096291705,-1.74921775462555
0.0497404844290657,3.525662114216,-0.0736099867367941,-3.5992721009528,-1.72602606373961,3.5624671075844,-1.8364410438448
0.0519031141868512,3.41895143710273,-0.026135294192952,-3.44508673129569,-1.69640807145489,3.43201908419921,-1.73561101274432
0.0540657439446367,2.66963281816297,0.0112329893729181,-2.65839982879005,-1.34043290376794,2.66401632347651,-1.32358341970857
0.0562283737024221,0.931271529363599,0.0313886491099193,-0.89988288025368,-0.481330089236759,0.915577204808639,-0.43424711557188
0.0583910034602076,-2.12264840271223,0.0316035280511466,2.15425193076338,1.04552243733054,-2.1384501667378,1.09292772940726
0.0605536332179931,-6.61867860534551,0.0118738094424292,6.63055241478794,3.30340239795154,-6.62461551006672,3.32121311211518
0.0627162629757786,-12.2582157208742,-0.0250826207960057,12.2331331000782,6.1416491708351,-12.2456744104762,6.10402523964109
0.064878892733564,-18.2596801879074,-0.0721772252517199,18.1875029626557,9.16592870657958,-18.2235915752816,9.057662868702
0.0670415224913495,-23.623865755158,-0.114997626839049,23.508868128319,11.8694316909985,-23.5663669417385,11.69693525074
0.069204152249135,-27.4932404947568,-0.134061217310049,27.3591792774468,13.8136508560334,-27.4262098861018,13.6125590300684
0.0713667820069204,-29.3161850876144,-0.11913838144113,29.1970467061732,14.7176617345277,-29.2566158968938,14.538954162366
0.0735294117647059,-28.8900087136106,-0.0794924733671969,28.8105162402434,14.4847505934889,-28.850262476927,14.3655118834381
0.0756920415224914,-26.3986152744471,-0.0332881902772417,26.3653270841699,13.2159517323622,-26.3819711793085,13.1660194469463
0.0778546712802768,-22.3529518403171,0.00697401243609364,22.3599258527532,11.1729889139405,-22.3564388465352,11.1834499325947
0.0800173010380623,-17.4267828427687,0.0367099021941131,17.4634927449628,8.69503647028727,-17.4451377938657,8.75010132357844
0.0821799307958478,-12.3445470039693,0.0558786388955956,12.4004256428649,6.14433418253685,-12.3724863234171,6.22815214088024
0.0843425605536332,-7.90320621690689,0.0662934983320249,7.96949971523891,3.91845635928743,-7.9363529660729,4.01789660678547
0.0865051903114187,-4.98117479498446,0.0697826677442762,5.05095746272874,2.45569606362009,-5.0160661288566,2.56037006523651
0.0886678200692042,-4.33041461581894,0.0671463128101579,4.3975609286291,2.13163415150439,-4.36398777222402,2.23235362071963
0.0908304498269896,-6.24919826768858,0.0578065536779017,6.30700482136649,3.09569585700534,-6.27810154452753,3.18240568752219
0.0929930795847751,-10.3882631034489,0.0400986654724194,10.4283617689213,5.17408221898824,-10.4083124361851,5.23423021719687
0.0951557093425606,-15.7488542482989,0.0122385028006387,15.7610927510996,7.86830787274914,-15.7549734996992,7.8866656269501
0.097318339100346,-20.9045829041516,-0.0259408071628598,20.8786420969887,10.4652618556572,-20.8916125005702,10.4263506449129
0.0994809688581315,-24.4905069287855,-0.0704255515235584,24.4200813772619,12.2804662401545,-24.4552941530237,12.1748279128692
0.101643598615917,-25.7583342568697,-0.109771476493755,25.648562780376,12.9340528666817,-25.7034485186229,12.7693956519411
0.103806228373702,-24.8676301797735,-0.127416160281945,24.7402140194916,12.4975231700277,-24.8039220996326,12.3063989296048
0.105968858131488,-22.7360795529332,-0.11614266188299,22.6199368910502,11.4261111074081,-22.6780082219917,11.2518971145836
0.108131487889273,-20.5570705156135,-0.0882671333719114,20.4688033822416,10.3226688244927,-20.5129369489276,10.1902681244348
0.110294117647059,-19.2998640691564,-0.0645308397654574,19.2353332293909,9.68219745446091,-19.2675986492736,9.58540119481273
0.112456747404844,-19.4323791897187,-0.0583074636475905,19.3740717260711,9.74534332668316,-19.4032254578949,9.65788213121177
0.11461937716263,-20.8804037461081,-0.0712528882600207,20.8091508578481,10.4758283171841,-20.8447773019781,10.3689489847941
0.116782006920415,-23.1205327897223,-0.0937561600413254,23.0267766296809,11.6071444748818,-23.0736547097016,11.4665102348198
0.118944636678201,-25.3567863147579,-0.110013526690586,25.2467727880673,12.7333999207242,-25.3017795514126,12.5683796306883
0.121107266435986,-26.7382680461422,-0.113980353569307,26.6242876925729,13.4261241998558,-26.6812778693576,13.2551536695018
0.123269896193772,-26.5122657752344,-0.119614417358347,26.3926513578761,13.3159400962964,-26.4524585665553,13.1365184702589
0.125432525951557,-24.1525839746092,-0.148280885546344,24.0043030890629,12.1504324300778,-24.078443531836,11.9280111017583
0.127595155709343,-19.6148776388091,-0.209870372867884,19.4050072659412,9.9123740058385,-19.5099424523752,9.59756844653668
0.129757785467128,-13.5808509629581,-0.293887460945435,13.2869635020126,6.93736921195176,-13.4339072324854,6.49653802053361
0.131920415224913,-7.2995682357525,-0.37014840628281,6.92941982946969,3.83485832101765,-7.11449403261109,3.27963571159344
0.134083044982699,-1.98477376954026,-0.405688318077238,1.57908545146303,1.19523104380875,-1.78192961050165,0.586698566692895
0.136245674740484,1.71763170626208,-0.388229770730207,-2.10586147699229,-0.664700967765938,1.91174659162719,-1.24704562386125
0.13840830449827,3.79257503473028,-0.329360811455228,-4.12193584618551,-1.73160711163753,3.9572554404579,-2.22564832882037
0.140570934256055,4.61231169385505,-0.254034786553369,-4.86634648040842,-2.17913845365084,4.73932908713173,-2.56019063348089
0.142733564013841,4.67551817100948,-0.193032378655166,-4.86855054966464,-2.24124289617716,4.77203436033706,-2.5307914641599
0.144896193771626,4.4189151951771,-0.170882958276441,-4.58979815345354,-2.12401611845033,4.50435667431532,-2.38034055586499
0.147058823529412,4.12996370965524,-0.192859914997672,-4.32282362465291,-1.96855189732879,4.22639366715408,-2.25784176982529
0.149221453287197,3.95457910343755,-0.24097670247651,-4.19555580591406,-1.85680120048052,4.0750674546758,-2.21826625419528
0.151384083044983,3.92772345437367,-0.278745737676794,-4.20646919205046,-1.82448885834844,4.06709632321206,-2.24260746486363
0.153546712802768,3.98898818257416,-0.271736818121941,-4.2607250006961,-1.85862568222611,4.12485659163513,-2.26623090940902
0.155709342560554,4.01884652432211,-0.214640092480546,-4.23348661680266,-1.90210321592078,4.12616657056238,-2.2240633546416
0.157871972318339,3.89888268065604,-0.132210713455592,-4.03109339411163,-1.88333598360022,3.96498803738383,-2.08165205378361
0.160034602076125,3.52931002025864,-0.054521567062656,-3.58383158732129,-1.73739422659799,3.55657080378997,-1.81917657719198
0.16219723183391,2.78506874132643,0.000112106669574827,-2.78495663465686,-1.392590423998,2.78501268799164,-1.39242226399364
0.164359861591696,1.5018622695613,0.0248678873748882,-1.47699438218641,-0.763365078468094,1.48942832587386,-0.726063247405762
0.166522491349481,-0.421705741767767,0.0198685502750064,0.441574292042773,0.20091859574638,-0.43164001690527,0.23072142115889
0.168685121107266,-2.83123420028939,-0.0100650345735945,2.8211691657158,1.42064961743149,-2.8262016830026,1.4055520655711
0.170847750865052,-5.17747754208558,-0.055235629000926,5.12224191308465,2.61635658554325,-5.14985972758512,2.53350314204186
0.173010380622837,-6.66403545552879,-0.0989158189767621,6.56511963655203,3.38147563725278,-6.61457754604041,3.23310190878763
0.175173010380623,-6.70011222272005,-0.119918895770762,6.58019332694929,3.41001555924541,-6.64015277483467,3.23013721558926
0.177335640138408,-5.27696394119876,-0.106948872911174,5.17001506828759,2.69195640705497,-5.22348950474318,2.53153309768821
0.179498269896194,-2.94647399623512,-0.0687303486513823,2.87774364758374,1.50760217244325,-2.91210882190943,1.40450664946618
0.181660899653979,-0.489250486180978,-0.0232736408296815,0.465976845351297,0.25626206350533,-0.477613665766138,0.221351602260808
0.183823529411765,1.42809435813614,0.01680942596066,-1.41128493217548,-0.722451892048398,1.41968964515581,-0.697237753107408
0.18598615916955,2.3952383980054,0.0466302785860833,-2.34860811941931,-1.22093433829574,2.37192325871236,-1.15098892041662
0.188148788927336,2.21799239597455,0.0656834294999206,-2.15230896647463,-1.14183791273723,2.18515068122459,-1.04331276848735
0.190311418685121,0.843538188239691,0.0751754925654286,-0.768362695674263,-0.45935684040256,0.805950441956977,-0.346593601554417
0.192474048442907,-1.63573967677942,0.0762311091883216,1.71197078596774,0.779754283795549,-1.67385523137358,0.894100947578032
0.194636678200692,-4.88956380740916,0.0689745031565138,4.95853831056567,2.41029465212632,-4.92405105898741,2.51375640686109
0.196799307958478,-8.29597391337189,0.0524398403177479,8.34841375368964,4.12176703652707,-8.32219383353076,4.20042679700369
0.198961937716263,-11.1133124834034,0.0253045063993435,11.1386169898027,5.54400398850202,-11.125964736603,5.58196074810103
0.201124567474048,-12.8389167357345,-0.0125111264440937,12.8264056092904,6.42571393108928,-12.8326611725124,6.40694724142314
0.203287197231834,-13.4250242697524,-0.0573538353766845,13.3676704343757,6.74118905256453,-13.396347352064,6.6551582994995
0.205449826989619,-13.1685056041782,-0.0986010611177808,13.0699045430605,6.63355333264801,-13.1192050736194,6.48565174097134
0.207612456747405,-12.4560492537863,-0.120893123622842,12.3351561301634,6.28847118870455,-12.3956026919748,6.10713150327029
0.20977508650519,-11.5977164223821,-0.118353104832941,11.4793633175492,5.85803476360753,-11.5385398699657,5.68050510635812
0.211937716262976,-10.8147121947213,-0.104272305388214,10.7104398893331,5.45949225005476,-10.7625760420272,5.30308379197244
0.214100346020761,-10.2913220979994,-0.099150078204177,10.1921720197952,5.1952360881018,-10.2417470588973,5.04651097079553
0.216262975778547,-10.148303865848,-0.113661694582406,10.0346421712656,5.13098278021521,-10.0914730185568,4.9604902383416
0.218425605536332,-10.3566822194728,-0.142778498473322,10.2139037209995,5.24973035897307,-10.2852929702362,5.03556261126309
0.220588235294118,-10.7681419263271,-0.170424087481614,10.5977178388455,5.46928300690434,-10.6829298825863,5.21364687568192
0.222750865051903,-11.2912514892591,-0.1848426082378,11.1064088810213,5.73804704874848,-11.1988301851402,5.46078313639177
0.224913494809689,-12.0002622162125,-0.188152825315544,11.8121093908969,6.09420752076402,-11.9061858035547,5.8119782827907
0.227076124567474,-13.0189955551671,-0.183520128182465,12.8354754269846,6.60125784167476,-12.9272354910758,6.32597764940106
0.22923875432526,-14.2938194667679,-0.163276864803781,14.1305426019641,7.22854816578583,-14.212181034366,6.98363286858016
0.231401384083045,-15.4799616406738,-0.12116866341699,15.3587929772568,7.80056515204538,-15.4193773089653,7.61881215691989
0.23356401384083,-16.0495999315307,-0.0659369154153163,15.9836630161153,8.05776842347299,-16.016631473823,7.95886305035001
0.235726643598616,-15.601091753239,-0.013237994823839,15.5878537584151,7.8071648740314,-15.594472755827,7.78730788179564
0.237889273356401,-14.2110309717354,0.0273476049391966,14.2383785766745,7.09184168339808,-14.2247047742049,7.13286309080687
0.240051903114187,-12.4918227552288,0.053795545830146,12.545618301059,6.21901360469933,-12.5187205281439,6.29970692344455
0.242214532871972,-11.2078347831426,0.068076914368654,11.2759116975112,5.56987893438696,-11.2418732403269,5.67199430593994
0.244377162629758,-10.7815378468081,0.0736430912447127,10.8551809380528,5.35394737778169,-10.8183593924304,5.46441201464876
0.246539792387543,-11.0536761174812,0.0739289681899902,11.1276050856712,5.48987357464561,-11.0906406015762,5.6007670269306
0.248702422145329,-11.3588112986613,0.0716507978257243,11.430462096487,5.64358025041778,-11.3946366975741,5.75105644715636
0.250865051903114,-10.857930878043,0.0686283594155506,10.9265592374585,5.39465125931372,-10.8922450577508,5.49759379843705
0.2530276816609,-9.02642041331264,0.0658948311736585,9.09231524448629,4.48026279106949,-9.05936782889946,4.57910503782998
0.255190311418685,-6.02012793846545,0.0639219868170392,6.08404992528249,2.97810297582421,-6.05208893187397,3.07398595604977
0.257352941176471,-2.58118912118147,0.0628529902255698,2.64404211140704,1.25916806547795,-2.61261561629426,1.35344755081631
0.259515570934256,0.468011787261272,0.0626857304740723,-0.4053260567872,-0.265348758867672,0.436668922024236,-0.171320163156564
0.261678200692042,2.65083543407136,0.0633825608516747,-2.58745287321969,-1.35710899746152,2.61914415364552,-1.26203515618401
0.263840830449827,3.86180703544591,0.0648999912359981,-3.79690704420991,-1.96335351334095,3.82935703982791,-1.86600352648696
0.266003460207612,4.1811853718537,0.0671399652611517,-4.11404540659255,-2.12416266855743,4.14761538922313,-2.0234527206657
0.268166089965398,3.76110007420786,0.0698296328763526,-3.69127044133151,-1.91546485354211,3.72618525776968,-1.81072040422758
0.270328719723183,2.79990084341975,0.0723458270035866,-2.72755501641616,-1.43612333521167,2.76372792991795,-1.32760459470629
0.272491349480969,1.52417637406315,0.0735197192775634,-1.45065665478559,-0.798848046670356,1.48741651442437,-0.688568467754011
0.274653979238754,0.201274323687237,0.0714902338954298,-0.129784089791807,-0.136382278791333,0.165529206739522,-0.0291469279481886
0.27681660899654,-0.827697960728621,0.0637215415434557,0.891419502272076,0.381988209592583,-0.859558731500349,0.477570521907766
0.278979238754325,-1.22878456459774,0.0473530670285256,1.27613763162627,0.590715748784608,-1.252461098112,0.661745349327397
0.281141868512111,-0.856363998035658,0.0200917662753982,0.876455764311056,0.41813611588013,-0.866409881173357,0.448273765293227
0.283304498269896,0.162044896265076,-0.0181468235183991,-0.180191719783475,-0.0719490363733386,0.171118308024276,-0.0991692716509372
0.285467128027682,1.50883988040959,-0.0627392713897288,-1.57157915179932,-0.72305030450993,1.54020951610445,-0.817159211594523
0.287629757785467,2.84285329903755,-0.101140285473357,-2.9439935845109,-1.37085650678209,2.89342344177423,-1.52256693499213
0.289792387543253,3.93169433610612,-0.115256409884823,-4.04695074599095,-1.90821896311065,3.98932254104853,-2.08110357793788
0.291955017301038,4.68198736077913,-0.0960928939121953,-4.77808025469132,-2.29294723343347,4.73003380773523,-2.43708657430176
0.294117647058824,5.10389998358075,-0.0543747630769853,-5.15827474665773,-2.52476261025188,5.13108736511924,-2.60632475486736
0.296280276816609,5.26041884635041,-0.0102582038968625,-5.27067705024727,-2.62508032122677,5.26554794829884,-2.64046762707207
0.298442906574394,5.22057790894522,0.0211615558234333,-5.19941635312178,-2.62086973238433,5.2099971310335,-2.58912739864917
0.30060553633218,5.04785449738268,0.0324441268224988,-5.01541037056018,-2.54014931210259,5.03163243397143,-2.49148312186884
0.302768166089965,4.81814852956281,0.0214040064297973,-4.79674452313301,-2.4197762679963,4.80744652634791,-2.38767025835161
0.304930795847751,4.61498197738335,-0.00977361701439927,-4.62475559439775,-2.30260418018448,4.61986878589055,-2.31726460570607
0.307093425605536,4.49529687851074,-0.0536487381091845,-4.54894561661992,-2.22082407020078,4.52212124756533,-2.30129717736455
0.309256055363322,4.46012282686958,-0.0951266185412585,-4.55524944541084,-2.18249810416416,4.50768613614021,-2.32518803197605
0.311418685121107,4.46082407954376,-0.114051631848488,-4.57487571139225,-2.17338622384764,4.517849895468,-2.34446367162037
0.313581314878893,4.45182776472161,-0.0996992338448555,-4.55152699856647,-2.17606426543838,4.50167738164404,-2.32561311620566
0.315743944636678,4.43420360062825,-0.0610642717946412,-4.49526787242289,-2.18656966441681,4.46473573652557,-2.27816607210877
0.317906574394464,4.44042711425085,-0.0162394246080687,-4.45666653885892,-2.21209384482139,4.44854682655489,-2.23645298173349
0.320069204152249,4.49527153651648,0.0222323175734336,-4.47303921894305,-2.25875192704496,4.48415537772977,-2.22540345068481
0.322231833910035,4.59773187566383,0.0497320543714836,-4.54799982129235,-2.32373196501766,4.57286584847809,-2.24913388346043
0.32439446366782,4.73419272526957,0.0663515133784799,-4.66784121189109,-2.40027211932403,4.70101696858033,-2.30074484925631
0.326557093425606,4.89370074327663,0.0743936016311534,-4.81930714164548,-2.48404717245389,4.85650394246106,-2.37245677000716
0.328719723183391,5.05722377321238,0.0767299252497551,-4.98049384796262,-2.56697684923107,5.0188588105875,-2.45188196135643
0.330882352941176,5.19097785010273,0.075904976991144,-5.11507287311159,-2.63344141354694,5.15302536160716,-2.51958394806022
0.333044982698962,5.26870612922088,0.0737796979271692,-5.19492643129372,-2.67124291357403,5.2318162802573,-2.56057336668327
0.335207612456747,5.29051763850194,0.071504258470463,-5.21901338003147,-2.6810109484862,5.25476550926671,-2.57375456078051
0.337370242214533,5.27110320251432,0.0696522267013628,-5.20145097581296,-2.67037771460784,5.23627708916364,-2.5658993745558
0.339532871972318,5.2264654666125,0.0684032535730668,-5.15806221303943,-2.64743436009278,5.19226383982597,-2.54482947973318
0.341695501730104,5.17568853734803,0.0677109799854229,-5.10797755736261,-2.62169975866673,5.14183304735532,-2.52013328868859
0.343858131487889,5.13343598094792,0.0674296402472039,-5.06600634070071,-2.60043281059756,5.09972116082431,-2.49928835022675
0.346020761245675,5.09758003439367,0.0673959200642185,-5.03018411432946,-2.58248797722895,5.06388207436157,-2.48139409713262
0.34818339100346,5.05412229372916,0.0674743891034097,-4.98664790462576,-2.56079834141629,5.02038509917746,-2.45958675776117
0.350346020761246,4.9936151103421,0.0675786314353694,-4.92603647890673,-2.53059687088873,4.95982579462441,-2.42922892373568
0.352508650519031,4.91661770054026,0.0676791288588591,-4.8489385716814,-2.49214841469956,4.88277813611083,-2.39062972141127
0.354671280276817,4.83440380221944,0.067805290181431,-4.76659851203801,-2.45110454620044,4.80050115712873,-2.34939661092829
0.356833910034602,4.77620052226292,0.0680441920962276,-4.7081563301667,-2.42212235717958,4.74217842621481,-2.32005606903523
0.358996539792388,4.77306000429161,0.0685334297344372,-4.70452657455717,-2.42079671701302,4.73879328942439,-2.31799657241137
0.361159169550173,4.8280519442492,0.0694405795951369,-4.75861136465406,-2.44874626192217,4.79333165445163,-2.34458539252946
0.363321799307958,4.92293371483341,0.0709179871545489,-4.85201572767886,-2.49692585099398,4.88747472125613,-2.39054887026216
0.365484429065744,5.03786799092396,0.0730203547344222,-4.96484763618954,-2.55544417282919,5.00135781355675,-2.44591364072756
0.367647058823529,5.14484876700185,0.0755762442686681,-5.06927252273318,-2.61021250563526,5.10706064486751,-2.49684813923226
0.369809688581315,5.20547382531826,0.0780162920164485,-5.12745753330181,-2.64174505866735,5.16646567931003,-2.52472062064268
0.3719723183391,5.19280914040676,0.0791841478885597,-5.1136249925182,-2.63599664414766,5.15321706646248,-2.51722042231482
0.374134948096886,5.11108549433902,0.0771934378261972,-5.03389205651282,-2.59413946608261,5.07248877542592,-2.47834930934331
0.376297577854671,4.99742776528803,0.0694447197479484,-4.92798304554008,-2.53343624251799,4.96270540541406,-2.42926916289607
0.378460207612457,4.9051269065268,0.0529732030183617,-4.85215370350844,-2.47905005477258,4.87864030501762,-2.39959025024504
0.380622837370242,4.87745966968922,0.025342918763017,-4.8521167509262,-2.45140129422612,4.86478821030771,-2.41338691608159
0.382785467128028,4.9315344584629,-0.0136967788708025,-4.94523123733371,-2.45891883979605,4.9383828478983,-2.47946400810225
0.384948096885813,5.0548866694112,-0.0596708104164317,-5.11455747982763,-2.49760792949738,5.08472207461941,-2.58711414512203
0.387110726643599,5.2077848549659,-0.100085028438138,-5.30786988340404,-2.55384991326388,5.25782736918497,-2.70397745592109
0.389273356401384,5.34361665092697,-0.116673547834586,-5.46029019876155,-2.61347155154619,5.40195342484426,-2.78848187329807
0.39143598615917,5.43836536166202,-0.0998752495797314,-5.53824061124175,-2.66924505604115,5.48830298645189,-2.81905793041074
0.393598615916955,5.48614427302083,-0.0592665045613837,-5.54541077758222,-2.71343888422973,5.51577752530153,-2.8023386410718
0.395761245674741,5.48030634249189,-0.0131292119328226,-5.49343555442472,-2.73358856527954,5.48687094845831,-2.75328238317877
0.397923875432526,5.42161579432746,0.0260263776808351,-5.39558941664663,-2.72382108600415,5.40860260548705,-2.6847815194829
0.400086505190311,5.31947213429175,0.0537125185541222,-5.26575961573763,-2.68659232642294,5.29261587501469,-2.60602354859175
0.402249134948097,5.18035619515574,0.0701782594729702,-5.11017793568277,-2.62526722731436,5.14526706541926,-2.5199998381049
0.404411764705882,5.01746179185315,0.0778814714854476,-4.9395803203677,-2.5476716316693,4.97852105611043,-2.43084942444113
0.406574394463668,4.85759293120363,0.0798489675313438,-4.77774396367229,-2.46872094936749,4.81766844743796,-2.34894749807047
0.408737024221453,4.72664739089432,0.0788001430851496,-4.64784724780917,-2.40272376698973,4.68724731935174,-2.28452355236201
0.410899653979239,4.62918447220483,0.0768115310652272,-4.5523729411396,-2.35299800163503,4.59077870667222,-2.23778070503719
0.413062283737024,4.52664202115563,0.0752949162868896,-4.45134710486874,-2.30096846872126,4.48899456301218,-2.18802609429092
0.41522491349481,4.33216630315355,0.075101219809783,-4.25706508334377,-2.20363376148167,4.29461569324866,-2.09098193176699
0.417387543252595,3.92587968741944,0.0766152899345858,-3.84926439748486,-2.00124748867702,3.88757204245215,-1.88632455377514
0.419550173010381,3.1918851526846,0.0797583662019791,-3.11212678648262,-1.63582175944329,3.15200596958361,-1.51618421014032
0.421712802768166,2.1027450417986,0.0838630182046112,-2.01888202359399,-1.09330403000161,2.0608135326963,-0.967509502694689
0.423875432525952,0.80569469232959,0.0874353028608098,-0.71825938946878,-0.4465649975952,0.761977040899185,-0.315412043303985
0.426038062283737,-0.354682974165392,0.0878793227102201,0.442562296875612,0.133401825727586,-0.398622635520502,0.265220809792916
0.428200692041523,-0.92053690424746,0.0813369162738918,1.00187382052135,0.419599993986784,-0.961205362384406,0.541605368397622
0.430363321799308,-0.583366560452649,0.0628885992693717,0.646255159722021,0.260238980591639,-0.614810860087335,0.354571879495696
0.432525951557093,0.50256218088682,0.0274549637614553,-0.475107217125365,-0.265008572324138,0.488834699006093,-0.223826126681955
0.434688581314879,1.71083014336648,-0.0282080040289345,-1.73903814739541,-0.841311069668773,1.72493414538095,-0.883623075712175
0.436851211072664,2.2862446667417,-0.102077884166692,-2.38832255090839,-1.09208339128751,2.33728360882505,-1.24520021753754
0.43901384083045,1.6621191500731,-0.181911325972781,-1.84403047604588,-0.740103912050158,1.75307481305949,-1.01297090100933
0.441176470588235,-0.437819505804897,-0.24493689852119,0.192882607283707,0.341378202163043,-0.315351056544302,-0.0260271456187416
0.443339100346021,-3.91960163162287,-0.269015588437067,3.6505860431858,2.09430861002997,-3.78509383740434,1.69078522737437
0.445501730103806,-8.16700854538211,-0.245293751691419,7.92171479369069,4.20615114853676,-8.0443616695364,3.83821052099963
0.447664359861592,-12.0341833865111,-0.182225382114729,11.8519580043964,6.10820438431294,-11.9430706954538,5.83486631114084
0.449826989619377,-14.2157135208929,-0.101526509775526,14.1141870111174,7.15862001533423,-14.1649502660052,7.00633025067094
0.451989619377163,-13.9169078065217,-0.0255367256625344,13.8913710808592,6.97122226609212,-13.9041394436904,6.93291717759832
0.454152249134948,-11.3964616377232,0.0338513843358777,11.430313022059,5.68130512669364,-11.4133873298911,5.73208220319746
0.456314878892734,-7.92060262458779,0.0746858183556259,7.99528844294342,3.92295840311608,-7.95794553376561,4.03498713064952
0.458477508650519,-5.11361963206629,0.0996721684313308,5.21329180049762,2.50697373181748,-5.16345571628196,2.65648198446448
0.460640138408305,-4.20313133906841,0.112298339046522,4.31542967811494,2.04541650001095,-4.25928050859167,2.21386400858073
0.46280276816609,-5.61515348296989,0.114355166833066,5.72950864980296,2.75039915806841,-5.67233106638642,2.92193190831801
0.464965397923875,-8.93972455592747,0.104685383665189,9.04440993959266,4.41751958613114,-8.99206724776007,4.57454766162893
0.467128027681661,-13.1336991328957,0.0790735613307914,13.2127726942265,6.52731278578247,-13.1732359135611,6.64592312777865
0.469290657439446,-16.9289008912972,0.0313890952568328,16.9602899865541,8.4487558980202,-16.9445954389256,8.49583954090545
0.471453287197232,-19.3339530986329,-0.0437030565425237,19.2902500420904,9.68882807758771,-19.3121015703616,9.62327349277393
0.473615916955017,-19.933892979115,-0.146069650425832,19.7878233286892,10.0399813147704,-19.8608581539021,9.82087683913167
0.475778546712803,-18.8493103107285,-0.263271446864733,18.5860388638638,9.55629087879661,-18.7176745872961,9.16138370849952
0.477941176470588,-16.5772491590451,-0.367673269762553,16.2095758892826,8.47246121440383,-16.3934125241638,7.92095130976
0.480103806228374,-13.8774358587589,-0.430183018252687,13.4472528405062,7.15380943850579,-13.6623443496326,6.50853491112676
0.482266435986159,-11.6313339702719,-0.440931281624815,11.1904026886471,6.03613262594837,-11.4108683294595,5.37473570351115
0.484429065743945,-10.6588627676464,-0.409855650001961,10.2490071176444,5.53435920882418,-10.4539349426454,4.91957573382124
0.48659169550173,-11.4804653900925,-0.353739854087647,11.1267255360049,5.91710262209008,-11.3035954630487,5.38649284095861
0.488754325259516,-13.9870060175666,-0.2866473982459,13.7003586193207,7.13682670790625,-13.8436823184436,6.7068556105374
0.490916955017301,-17.2516700741272,-0.212800297380444,17.0388697767467,8.7322351857538,-17.1452699254369,8.41303473968314
0.493079584775087,-19.7895283736608,-0.132426625832073,19.6571017478288,9.96097749974645,-19.7233150607448,9.76233756099834
0.495242214532872,-20.2026642345515,-0.0541516884495808,20.1485125461019,10.1284079615005,-20.1755883903267,10.0471804288262
0.497404844290657,-17.8748550958145,0.00958485035187723,17.8844399461664,8.93263512273131,-17.8796475209904,8.94701239825913
0.499567474048443,-13.323382382179,0.0532205682401979,13.3766029504192,6.63508090696941,-13.3499926662991,6.71491175932971
0.501730103806228,-7.91296411762295,0.0782961829848499,7.9912603006078,3.91733396731905,-7.95211220911537,4.03477824179632
0.503892733564014,-3.08967967996954,0.0893953308984576,3.179075010868,1.50014217453554,-3.13437734541877,1.63423517088323
0.506055363321799,0.260620306584265,0.0915903916764119,-0.169029914907853,-0.176105349130338,0.214825110746059,-0.0387197616157205
0.508217993079585,1.95027926459321,0.0891315394528089,-1.8611477251404,-1.01970540202301,1.90571349486681,-0.886008092843796
0.51038062283737,2.31591890406244,0.0849964280980695,-2.23092247596437,-1.20045766608026,2.27342069001341,-1.07296302393315
0.512543252595156,2.00478843551189,0.0809406989317251,-1.92384773658017,-1.04286456722181,1.96431808604603,-0.921453518824222
0.514705882352941,1.70365572110972,0.0777750721710864,-1.62588064893863,-0.890715396640401,1.66476818502417,-0.774052788383771
0.516868512110727,1.81888668358566,0.0756923582367545,-1.74319432534891,-0.947289520911207,1.78104050446728,-0.833750983556075
0.519031141868512,2.36024304856846,0.0745507591394587,-2.285692289429,-1.21739690385396,2.32296766899873,-1.10557076514477
0.521193771626298,3.12921845797499,0.0740787506546349,-3.05513970732036,-1.60164860431481,3.09217908264768,-1.49053047833286
0.523356401384083,3.94940793100509,0.0740020567610993,-3.87540587424399,-2.01170499388309,3.91240690262454,-1.90070190874144
0.525519031141868,4.72694851094004,0.0741097585439437,-4.65283875239609,-2.40052913474199,4.68989363166807,-2.28936449692607
0.527681660899654,5.41030449220934,0.074280514957661,-5.33602397725168,-2.7422925035835,5.37316423473051,-2.63087173114701
0.529844290657439,5.95705372159508,0.0744865174517401,-5.88256720414334,-3.01577011952341,5.91981046286921,-2.9040403433458
0.532006920415225,6.32006575929618,0.0747859903051043,-6.24527976899107,-3.19742587480064,6.28267276414363,-3.08524688934298
0.53416955017301,6.44071198836782,0.0753072236896922,-6.36540476467812,-3.25800960602875,6.40305837652297,-3.14504877049422
0.536332179930796,6.23675087678952,0.0762198038445486,-6.16053107294497,-3.15648534031703,6.19864097486725,-3.04215563455021
0.538494809688581,5.57958785228905,0.0776830987118978,-5.50190475357715,-2.82863547550047,5.5407463029331,-2.71211082743263
0.540657439446367,4.29252317447477,0.0797596733244734,-4.2127635011503,-2.18614142389962,4.25264333781254,-2.06650191391291
0.542820069204152,2.21592552584968,0.0822843628586685,-2.13364116299101,-1.14910494435417,2.17478334442035,-1.02567840006617
0.544982698961938,-0.659894943960005,0.0846912316513042,0.744586175611309,0.28760185615435,-0.702240559785657,0.414638703631307
0.547145328719723,-4.03311331327624,0.0858239357804238,4.11893724905666,1.97364468874791,-4.07602528116645,2.10238059241854
0.549307958477509,-7.19431519047041,0.0837925105955237,7.27810770106593,3.55526133993744,-7.23621144576817,3.68095010583073
0.551470588235294,-9.18845145969567,0.0759905639696053,9.26444202366527,4.55623044786303,-9.22644674168047,4.67021629381744
0.55363321799308,-9.29531187419105,0.0594439580960891,9.35475583228714,4.61793395804748,-9.3250338532391,4.70709989519162
0.555795847750865,-7.48265300866719,0.0317072420863872,7.51436025075357,3.7254728832904,-7.49850662971038,3.77303374641998
0.557958477508651,-4.4152042641882,-0.00747556998655738,4.40772869420164,2.21133991708738,-4.41146647919492,2.20012656210754
0.560121107266436,-1.05606326005406,-0.0536237006332711,1.00243955942079,0.554843480343666,-1.02925140973742,0.474407929393759
0.562283737024222,1.78923151543364,-0.0942166816776589,-1.8834481971113,-0.847507416877991,1.83633985627247,-0.98883243939448
0.564446366782007,3.72191908707909,-0.110930510404869,-3.83284959748396,-1.80549428833711,3.77738434228153,-1.97189005394442
0.566608996539792,4.73137914061737,-0.0941044629233843,-4.82548360354076,-2.31863733884699,4.77843137207907,-2.45979403323207
0.568771626297578,5.01432403393571,-0.0531714907050979,-5.06749552464081,-2.48057627161531,5.04090977928826,-2.56033350767295
0.570934256055363,4.79727309365783,-0.00624050662491149,-4.80351360028274,-2.39551629351646,4.80039334697028,-2.40487705345382
0.573096885813149,4.27456168754885,0.034337770355738,-4.24022391719311,-2.15444972895229,4.25739280237098,-2.10294307341869
0.575259515570934,3.64500827787209,0.0641367266392168,-3.58087155123288,-1.85457250225566,3.61293991455249,-1.75836741229683
0.57742214532872,3.1363341429513,0.0832318888313267,-3.05310225411997,-1.60978301589131,3.09471819853564,-1.48493518264432
0.579584775086505,2.94088381233634,0.0934880680580114,-2.84739574427833,-1.51718594019718,2.89413977830734,-1.37695383811016
0.581747404844291,3.10835228709231,0.0967129630040387,-3.01163932408827,-1.60253262504818,3.05999580559029,-1.45746318054212
0.583910034602076,3.53803673797437,0.0936191641629738,-3.4444175738114,-1.81582795106867,3.49122715589289,-1.67539920482421
0.586072664359862,4.08930276295946,0.083492765189744,-4.00580999776972,-2.0863977640746,4.04755638036459,-1.96115861628999
0.588235294117647,4.65352163384192,0.0645237455492058,-4.58899788829272,-2.35902268969556,4.62125976106732,-2.26223707137176
0.590397923875433,5.1390644917619,0.0348431414816651,-5.10422135028023,-2.58695381662178,5.12164292102106,-2.53468910439928
0.592560553633218,5.46545528141296,-0.00563093874314158,-5.47108622015611,-2.72991217133491,5.46827075078454,-2.73835857944962
0.594723183391003,5.59812794410574,-0.0524799959990065,-5.65060794010475,-2.77282397405337,5.62436794210524,-2.85154396805188
0.596885813148789,5.57783258476973,-0.0933613150221855,-5.67119389979191,-2.74223563487377,5.62451324228082,-2.88227760740705
0.599048442906574,5.50625155257345,-0.110169991889709,-5.61642154446316,-2.69804078034187,5.5613365485183,-2.86329576817643
0.60121107266436,5.48498502903116,-0.0934666872439394,-5.5784517162751,-2.69575917089361,5.53171837265313,-2.83595920175952
0.603373702422145,5.54783298612634,-0.0528864420219587,-5.6007194281483,-2.74747327205219,5.57427620713732,-2.82680293508513
0.605536332179931,5.64946045992361,-0.00669800649790783,-5.65615846642151,-2.82138122671285,5.65280946317256,-2.83142823645971
0.607698961937716,5.72511420210072,0.0326716631752001,-5.69244253892552,-2.87889293263796,5.70877837051312,-2.82988543787516
0.609861591695502,5.74797734446455,0.0608751093292533,-5.6871022351353,-2.9044262268969,5.71753978979993,-2.81311356290302
0.612024221453287,5.72972023318098,0.0783272422468827,-5.65139299093409,-2.90402373771393,5.69055661205754,-2.78653287434361
0.614186851211073,5.70077652049578,0.0876168055187406,-5.61315971497704,-2.89419666300726,5.65696811773641,-2.76277145472915
0.616349480968858,5.68753583381326,0.0917653520657479,-5.59577048174752,-2.88965059293951,5.64165315778039,-2.75200256484088
0.618512110726644,5.68506212898484,0.0932033641690134,-5.59185876481582,-2.88913274657692,5.63846044690033,-2.7493277003234
0.620674740484429,5.67007952246242,0.0932503203780465,-5.57682920208437,-2.88166492142023,5.62345436227339,-2.74178944085316
0.622837370242215,5.63682895584003,0.0919088350111796,-5.54492012082885,-2.8643688954256,5.59087453833444,-2.72650564290883
0.625,5.59887789027522,0.087865164650764,-5.51101272562445,-2.84337152746299,5.55494530794983,-2.71157378048684
0.627162629757785,5.57435806669627,0.078695813047115,-5.49566225364916,-2.82652693987169,5.53501016017272,-2.70848322030102
0.629325259515571,5.58272288636409,0.0613873729882268,-5.52133551337586,-2.82205512967616,5.55202919986997,-2.72997407019382
0.631487889273356,5.64019607213825,0.03335884904471,-5.60683722309354,-2.83677746059148,5.6235166476159,-2.78673918702442
0.633650519031142,5.74104212861776,-0.00580098892482202,-5.74684311754258,-2.86762056984647,5.74394262308017,-2.8763220532337
0.635813148788927,5.84137502864628,-0.0517513379602747,-5.89312636660656,-2.894811845343,5.86725069762642,-2.97243885228342
0.637975778546713,5.86975444856924,-0.0920910501031341,-5.96184549867238,-2.88883169923305,5.91579997362081,-3.02696827438775
0.640138408304498,5.76223818386523,-0.108606566960533,-5.87084475082577,-2.82681580845235,5.8165414673455,-2.98972565889315
0.642301038062284,5.50352818882075,-0.0917560948793317,-5.59528428370009,-2.70588604697071,5.54940623626042,-2.84352018928971
0.644463667820069,5.14910923458516,-0.0511118373946716,-5.20022107197983,-2.54899869859524,5.17466515328249,-2.62566645468725
0.646626297577855,4.82274651479501,-0.00493704366402828,-4.82768355845904,-2.40890473556549,4.82521503662703,-2.41631030106154
0.64878892733564,4.69012732322091,0.034282822759284,-4.65584450046162,-2.3622050729901,4.67298591184126,-2.31078083885117
0.650951557093426,4.8648508733467,0.0620820660371433,-4.80276880730956,-2.46346646969192,4.83380984032813,-2.37034337063621
0.653114186851211,5.29992167921463,0.0787179245821926,-5.22120375463243,-2.68931980189841,5.26056271692353,-2.57124291502512
0.655276816608997,5.79745022648611,0.0866278922100264,-5.71082233427608,-2.94203905934807,5.7541362803811,-2.81209722103303
0.657439446366782,6.09476011599836,0.0887716921593768,-6.00598842383898,-3.09176590407887,6.05037426991867,-2.9586083658398
0.659602076124568,5.92597723613821,0.0877362874595276,-5.83824094867868,-3.00685676179887,5.88210909240845,-2.87525233060958
0.661764705882353,5.06223482137299,0.0853885587909884,-4.976846262582,-2.57381169008199,5.01954054197749,-2.4457288518955
0.663927335640138,3.34658747296124,0.0828610751021148,-3.26372639785912,-1.71472427403167,3.30515693541018,-1.5904326613785
0.666089965397924,0.736677283362426,0.0807017974203396,-0.655975485942086,-0.408689540391383,0.696326384652256,-0.287636844260873
0.668252595155709,-2.6217639340341,0.0790755077363973,2.7008394417705,1.27134421314885,-2.6613016879023,1.38995747475345
0.670415224913495,-6.2911680525864,0.0779548651243637,6.36912291771076,3.10660659373102,-6.33014548514858,3.22353889141756
0.67257785467128,-9.51867901075871,0.0772745161588154,9.59595352691753,4.72070224729995,-9.55731626883812,4.83661402153817
0.674740484429066,-11.4821194825588,0.0770414203139226,11.5591609028727,5.70253903112243,-11.5206401927157,5.81810116159331
0.676903114186851,-11.7225683148153,0.0774006634981039,11.7999689783134,5.82258382565858,-11.7612686465643,5.93868482090573
0.679065743944637,-10.3459293172908,0.0786521417639274,10.4245814590547,5.13363858776342,-10.3852553881727,5.25161680040931
0.681228373702422,-7.82973579502864,0.0812038918876045,7.91093968691624,3.87426595157052,-7.87033774097244,3.99607178940192
0.683391003460208,-4.73863626436418,0.0854375817758696,4.82407384614005,2.32659934129415,-4.78135505525211,2.45475571395796
0.685553633217993,-1.59525685474823,0.0914571425758929,1.68671399732412,0.751899856086168,-1.64098542603618,0.889085569950007
0.687716262975779,1.14285179896549,0.098701000036084,-1.04415079892941,-0.620776399500789,1.09350129894745,-0.472724899446663
0.689878892733564,3.12031069768978,0.105431914015716,-3.01487878367406,-1.61287130585275,3.06759474068192,-1.45472343482917
0.69204152249135,4.14035533016317,0.108186453305938,-4.03216887685723,-2.12427089173455,4.0862621035102,-1.96199121177565
0.694204152249135,4.15583909812939,0.10137564700537,-4.05446345112402,-2.12860737256738,4.10515127462671,-1.97654390205933
0.69636678200692,3.2075746809521,0.0773764100725708,-3.13019827087953,-1.64247554551233,3.16888647591581,-1.52641093040348
0.698529411764706,1.40333999320412,0.027617208519753,-1.37572278468437,-0.715478600861938,1.38953138894425,-0.674052788082308
0.700692041522491,-1.08764395744524,-0.0547135069154058,1.03293045052983,0.571178732180322,-1.06028720398753,0.489108471807213
0.702854671280277,-4.11385803345311,-0.169719429457066,3.94413860399605,2.14178873145509,-4.02899831872458,1.88720958726949
0.705017301038062,-7.65937883235812,-0.303288272145521,7.3560905602126,3.98133355225182,-7.50773469628536,3.52640114403354
0.707179930795848,-11.8479556206332,-0.423155154150037,11.4248004664832,6.13555538739162,-11.6363780435582,5.50082265616657
0.709342560553633,-16.7434860035511,-0.491434411012331,16.2520515925388,8.61746020728172,-16.4977687980449,7.88030859076322
0.711505190311419,-22.0614322142394,-0.490112886965571,21.5713193272738,11.2757725506025,-21.8163757707566,10.5406032201541
0.713667820069204,-27.0302959631504,-0.43297823432696,26.5973177288235,13.7316370987387,-26.8138068459869,13.0821697472483
0.71583044982699,-30.5739310445829,-0.347840509916262,30.2260905346666,15.4608857772496,-30.4000107896248,14.9391250123752
0.717993079584775,-31.7431238417304,-0.251614440272061,31.4915094014583,15.9973691410012,-31.6173166215944,15.6199474805931
0.720155709342561,-30.0929988641917,-0.15135827281987,29.9416405913718,15.1221785685058,-30.0173197277818,14.895141159276
0.722318339100346,-25.8082601903503,-0.0582924959499712,25.7499676944004,12.9332763431502,-25.7791139423754,12.8458375992252
0.724480968858132,-19.6319491622784,0.0151264913055849,19.647075653584,9.8084113354864,-19.6395124079312,9.83110107244478
0.726643598615917,-12.6705104819852,0.0645490792069641,12.7350595611922,6.30298070138914,-12.7027850215887,6.39980432019958
0.728806228373702,-6.08753840507491,0.0930002644069771,6.18053866948189,2.99726907033397,-6.1340385372784,3.13676946694443
0.730968858131488,-0.763205347139774,0.106199713517985,0.869405060657759,0.328502816810894,-0.816305203898767,0.487802387087872
0.733131487889273,2.92145146575188,0.109628577752271,-2.8118228879996,-1.51554002175207,2.86663717687574,-1.35109715512367
0.735294117647059,5.07188359960865,0.106999721404363,-4.96488387820428,-2.5894416605065,5.01838373890647,-2.42894207839996
0.737456747404844,6.09155183577173,0.0997247910216566,-5.99182704475008,-3.09563831339669,6.0416894402609,-2.94605112686421
0.73961937716263,6.44452650846495,0.0870722485367461,-6.3574542599282,-3.26579937850085,6.40099038419658,-3.13519100569573
0.741782006920415,6.4775890291199,0.066878240045635,-6.41071078907427,-3.27223363458277,6.44414990909708,-3.17191627451432
0.743944636678201,6.37270066049053,0.036833889724375,-6.33586677076616,-3.20476727510745,6.35428371562834,-3.14951644052089
0.746107266435986,6.20682049628182,-0.00353184227248401,-6.21035233855431,-3.10164432700467,6.20858641741806,-3.10694209041339
0.748269896193772,6.01926607314647,-0.0500834987784531,-6.06934957192492,-2.98459128718401,6.04430782253569,-3.05971653535169
0.750432525951557,5.8357230737941,-0.0906493681179356,-5.92637244191204,-2.87253685283808,5.88104775785307,-3.00851090501499
0.752595155709343,5.67230339745177,-0.107201571121499,-5.77950496857327,-2.78255091316513,5.72590418301252,-2.94335326984738
0.754757785467128,5.54550021620848,-0.090309198610287,-5.63580941481876,-2.7275955087991,5.59065481551362,-2.86305930671453
0.756920415224913,5.46891002648942,-0.0495712845291881,-5.51848131101861,-2.70966937098012,5.49369566875402,-2.7840262977739
0.759083044982699,5.42404477924785,-0.00319683529152054,-5.42724161453937,-2.71042397197817,5.42564319689361,-2.71521922491545
0.761245674740484,5.35125642888246,0.0364514044477119,-5.31480502443475,-2.69385391666509,5.33303072665861,-2.63917680999352
0.76340830449827,5.18006721081241,0.065072543561179,-5.11499466725123,-2.62256987718679,5.14753093903182,-2.52496106184502
0.765570934256055,4.85700831830878,0.0830809487730871,-4.77392736953569,-2.47004463354093,4.81546784392224,-2.3454232103813
0.767733564013841,4.35864022978043,0.0929784352067483,-4.26566179457369,-2.22580933249359,4.31215101217706,-2.08634167968347
0.769896193771626,3.72226951677378,0.0975665850767241,-3.62470293169705,-1.90991805092525,3.67348622423542,-1.76356817331017
0.772058823529412,3.09463737901195,0.0988795691973411,-2.99575780981461,-1.59675847410465,3.04519759441328,-1.44843912030864
0.774221453287197,2.72399463006245,0.0976469286330263,-2.62634770142942,-1.41082077934774,2.67517116574593,-1.2643503863982
0.776384083044983,2.8144387422591,0.0931335816532763,-2.72130516060582,-1.45378616195619,2.76787195143246,-1.31408578947627
0.778546712802768,3.34814311424115,0.0833003007456508,-3.2648428134955,-1.7157217074934,3.30649296386832,-1.59077125637492
0.780709342560554,4.10080738609278,0.0653418907345878,-4.03546549535819,-2.08307463841368,4.06813644072549,-1.9850618023118
0.782871972318339,4.80552347586601,0.0367562057649073,-4.76876727010111,-2.42113984081546,4.78714537298356,-2.3660055321681
0.785034602076125,5.23103689319061,-0.00286523393318555,-5.23390212712379,-2.61408582962871,5.2324695101572,-2.61838368052849
0.78719723183391,5.159853170114,-0.049205547253872,-5.20905871736787,-2.55532381143006,5.18445594374093,-2.62913213231087
0.789359861591696,4.39093603324741,-0.0898718321670737,-4.48080786541448,-2.15053210054017,4.43587194933094,-2.28533984879078
0.791522491349481,2.78664166850763,-0.106608215870044,-2.89324988437768,-1.34001672631879,2.83994577644265,-1.49992905012386
0.793685121107267,0.339549809523248,-0.089753970014949,-0.429303779538197,-0.12489791975415,0.384426794530723,-0.259528874776573
0.795847750865052,-2.77212530896615,-0.0486739388446125,2.72345137012154,1.41039962390538,-2.74778833954385,1.33738871563846
0.798010380622837,-6.22852283680575,-0.00134958510945116,6.2271732516963,3.1149362109576,-6.22784804425102,3.11291183329342
0.800173010380623,-9.69096874335373,0.040032004645254,9.73100074799899,4.82546836935424,-9.71098474567636,4.88551637632212
0.802335640138408,-12.8433743020325,0.0711962650344717,12.914570567067,6.38608901849903,-12.8789724345498,6.49288341605073
0.804498269896194,-15.340729647017,0.0922748034765423,15.4330044504935,7.62422742177021,-15.3868670487552,7.76263962698502
0.806660899653979,-16.8273905889029,0.104962805455099,16.932353394358,8.36121389172392,-16.8798719916305,8.51865809990657
0.808823529411765,-17.0895919172622,0.110500289148826,17.200092206411,8.48954581405668,-17.1448420618366,8.65529624777991
0.81098615916955,-16.2231757269078,0.10844503344847,16.3316207603562,8.05736534672965,-16.277398243632,8.22003289690236
0.813148788927336,-14.6609343974231,0.096198531185526,14.7571329286086,7.28236793311877,-14.7090336630158,7.42666572989706
0.815311418685121,-13.003690711846,0.069353939055857,13.0730446509019,6.46716838639509,-13.038367681374,6.57119929497887
0.817474048442907,-11.7169130861864,0.0230816125860777,11.7399946987725,5.84691573680016,-11.7284538924794,5.88153815567928
0.819636678200692,-10.861235264788,-0.0451303082386343,10.8161049565494,5.45318278651333,-10.8386701106687,5.38548732415538
0.821799307958478,-10.0923912533299,-0.131106321919984,9.96128493140991,5.11174878762494,-10.0268380923699,4.91508930474496
0.823961937716263,-8.96485440694631,-0.218020755855052,8.74683365109126,4.59143758140068,-8.85584402901878,4.2644064476181
0.826124567474048,-7.23938397019117,-0.275269654881399,6.96411431530977,3.75732681253628,-7.10174914275047,3.34442233021419
0.828287197231834,-4.98896818620379,-0.275151377825332,4.71381680837846,2.63205978201456,-4.85139249729113,2.21933271527656
0.830449826989619,-2.56403219809576,-0.217759852204903,2.34627234589086,1.39089602515033,-2.45515227199331,1.06425624684298
0.832612456747405,-0.406683417310731,-0.130986177880452,0.275697239430279,0.268834797595592,-0.341190328370505,0.0723555307749134
0.83477508650519,1.2213735373621,-0.0456199281487379,-1.26699346551084,-0.58787680460668,1.24418350143647,-0.656306696829787
0.836937716262976,2.30258927834517,0.0213624678346558,-2.28122681051051,-1.16197587308991,2.29190804442784,-1.12993217133793
0.839100346020761,2.90484349630469,0.0657412386741999,-2.83910225763049,-1.48529236748945,2.87197287696759,-1.38668050947815
0.841262975778547,3.09009512876524,0.0902120845211587,-2.99988304424408,-1.5901536066432,3.04498908650466,-1.45483547986146
0.843425605536332,2.96937061416406,0.100184891248775,-2.86918572291528,-1.53477775270642,2.91927816853967,-1.38450041583325
0.845588235294118,2.76432462979459,0.101231173838204,-2.66309345595639,-1.4327779018164,2.71370904287549,-1.28093114105909
0.847750865051903,2.74211459302539,0.0978420821223448,-2.64427251090305,-1.41997833757387,2.69319355196422,-1.27321521439035
0.849913494809689,3.02440510657912,0.0930647449691211,-2.93134036161,-1.55873492577412,2.97787273409456,-1.41913780832044
0.852076124567474,3.4681420033558,0.0886299485560326,-3.37951205479977,-1.77838597595592,3.42382702907778,-1.64544105312187
0.85423875432526,3.75071415825983,0.0852859108818745,-3.66542824737795,-1.91800003457085,3.70807120281889,-1.79007116824804
0.856401384083045,3.51952182067279,0.0831603205648518,-3.43636150010793,-1.80134107061882,3.47794166039036,-1.67660058977154
0.85856401384083,2.47842375981526,0.0820605816393432,-2.39636317817591,-1.2802421707273,2.43739346899559,-1.15715129826829
0.860726643598616,0.466375360289724,0.0816824598659587,-0.384692900423766,-0.274028910077842,0.425534130356745,-0.151505220278904
0.862889273356401,-2.41541245620635,0.0817320401643601,2.49714449637071,1.16684020802099,-2.45627847628853,1.28943826826753
0.865051903114187,-5.66631806687376,0.0819813197702013,5.74829938664397,2.79216837355178,-5.70730872675886,2.91514035320708
0.867214532871972,-8.40453193560148,0.0822808393858732,8.48681277498736,4.1611255481078,-8.44567235529442,4.28454680718662
0.869377162629758,-9.68750670116086,0.0825493525723343,9.77005605373319,4.80247867429426,-9.72878137744702,4.92630270315276
0.871539792387543,-9.00219511916764,0.082754770510454,9.08494988967809,4.45972017432859,-9.04357250442287,4.58385233009427
0.873702422145329,-6.5831684376312,0.0828949351045195,6.66606337273572,3.25013675126334,-6.62461590518346,3.37447915392012
0.875865051903114,-3.27899947868322,0.0829823068797078,3.36198178556293,1.59800858590176,-3.32049063212307,1.72248204622132
0.8780276816609,-0.0389369181004255,0.0830336912611163,0.121970609361542,-0.0220483865803454,-0.0804537637309837,0.102502150311329
0.880190311418685,2.53727879985187,0.0830644904472566,-2.45421430940461,-1.31017164514956,2.49574655462824,-1.18557490947868
0.882352941176471,4.28170578418332,0.0830862984096599,-4.19861948577366,-2.18239604129649,4.24016263497849,-2.057766593682
0.884515570934256,5.29616162793281,0.0831065819465999,-5.21305504598621,-2.68963410493971,5.25460833695951,-2.56497423201981
0.886678200692042,5.77567986247951,0.0831294112430942,-5.69255045123641,-2.9294046368613,5.73411515685796,-2.80471051999666
0.888840830449827,5.90986367865025,0.0831565157098487,-5.82670716294041,-2.99651009718005,5.86828542079533,-2.87177532361528
0.891003460207612,5.85603324293002,0.0831882305028792,-5.77284501242715,-2.96961073671645,5.81443912767859,-2.84482839096213
0.893166089965398,5.74009115087639,0.0832241189061168,-5.65686703197027,-2.91165763489125,5.69847909142333,-2.78682145653208
0.895328719723183,5.65366607487949,0.0832632023425369,-5.57040287253695,-2.86846463861101,5.61203447370822,-2.74356983509721
0.897491349480969,5.64761473906318,0.0833038238114756,-5.5643109152517,-2.86545928143733,5.60596282715744,-2.74050354572011
0.899653979238754,5.73099092803594,0.083343242072581,-5.64764768596336,-2.90716708505426,5.68931930699965,-2.78215222194539
0.90181660899654,5.86522570068792,0.0833771319652272,-5.7818485687227,-2.97430141632657,5.82353713470531,-2.84923571837873
0.903979238754325,5.96442003402173,0.0833992706617257,-5.88102076336,-3.02390965234173,5.92272039869087,-2.89881074634914
0.906141868512111,5.93936493543074,0.083401822631142,-5.8559631127996,-3.01138337903094,5.89766402411517,-2.88628064508423
0.908304498269896,5.75632701919125,0.0833767726544678,-5.67295024653679,-2.91985189592286,5.71463863286402,-2.79478673694116
0.910467128027682,5.45829835046651,0.0833191335882707,-5.37497921687824,-2.77080874202739,5.41663878367237,-2.64583004164498
0.912629757785467,5.1504963625523,0.083232464484192,-5.0672638980681,-2.61686441351824,5.1088801303102,-2.49201571679196
0.914792387543253,4.94138969187357,0.0831368190197158,-4.85825287285386,-2.51226325544664,4.89982128236371,-2.38755802691707
0.916955017301038,4.86167134155629,0.0830783187343453,-4.77859302282195,-2.47237483014532,4.82013218218912,-2.3477573520438
0.919117647058824,4.86425319279121,0.0831379449851366,-4.78111524780607,-2.47369556888817,4.82268422029864,-2.34898865141047
0.921280276816609,4.90248701640916,0.0834348167555782,-4.81905219965358,-2.49296091658237,4.86076960803137,-2.367808691449
0.923442906574395,4.9610578922772,0.084116380480655,-4.87694151179655,-2.52258713637893,4.91899970203687,-2.39641256565795
0.92560553633218,5.03055482344447,0.0853252570574197,-4.94522956638705,-2.55794004025095,4.98789219491576,-2.42995215466482
0.927768166089965,5.1025797970892,0.0871313244452994,-5.0154484726439,-2.59485556076725,5.05901413486654,-2.4641585740993
0.929930795847751,5.16948844271411,0.0894201582387237,-5.08006828447538,-2.62945430047642,5.12477836359475,-2.49532406311833
0.932093425605536,5.20679609762758,0.0917382193858738,-5.11505787824171,-2.64926715850673,5.16092698793465,-2.51165982942792
0.934256055363322,5.18550414721363,0.0931145814286467,-5.09238956578499,-2.63930936432114,5.13894685649931,-2.49963749217817
0.936418685121107,5.1101436418151,0.0919112937797476,-5.01823234803536,-2.60102746779743,5.06418799492523,-2.4631605271278
0.938581314878893,5.02600718772546,0.0857998636459584,-4.9402073240795,-2.55590352568571,4.98310725590248,-2.42720373021677
0.940743944636678,4.98903201334674,0.0720144517790947,-4.91701756156765,-2.53052323256292,4.9530247874572,-2.42250155489428
0.942906574394464,5.03015275910737,0.0480785151177221,-4.98207424398964,-2.53911563711254,5.00611350154851,-2.46699786443596
0.945069204152249,5.13962121737676,0.0132127985841055,-5.12640841879266,-2.57641700798043,5.13301481808471,-2.55659781010428
0.947231833910035,5.28079843410338,-0.029435015203695,-5.31023344930708,-2.62568170944984,5.29551594170523,-2.66983423225539
0.94939446366782,5.41641197387418,-0.0698030058761084,-5.48621497975028,-2.67330448399903,5.45131347681223,-2.7780089928132
0.951557093425606,5.52059213087093,-0.0933242628391652,-5.6139163937101,-2.71363393401588,5.56725426229051,-2.85362032827463
0.953719723183391,5.57366624063789,-0.0951898709804735,-5.66885611161836,-2.73923818482871,5.62126117612813,-2.88202299129942
0.955882352941177,5.55944234043653,-0.0898687333860361,-5.64931107382257,-2.73478680352525,5.60437670712955,-2.8695899036043
0.958044982698962,5.48399834932357,-0.098685796017927,-5.5826841453415,-2.69265627665282,5.53334124733253,-2.84068497067971
0.960207612456747,5.39356720195846,-0.131953027950032,-5.52552022990849,-2.63080708700421,5.45954371593347,-2.82873662892926
0.962370242214533,5.34438818352164,-0.181852887032324,-5.52624107055396,-2.58126764824466,5.4353146270378,-2.85404697879314
0.964532871972318,5.35625928664772,-0.225565961951216,-5.58182524859893,-2.56534666234825,5.46904226762333,-2.90369560527507
0.966695501730104,5.41572097334043,-0.239165401757866,-5.6548863750983,-2.58827778579128,5.53530367421936,-2.94702588842808
0.968858131487889,5.49844214934388,-0.212141806265101,-5.71058395560898,-2.64315017153939,5.60451305247643,-2.96136288093704
0.971020761245675,5.57087212445895,-0.152484941691806,-5.72335706615075,-2.70919359138357,5.64711459530485,-2.93792100392128
0.97318339100346,5.60739460217934,-0.0829717529591011,-5.69036635513844,-2.76221142461012,5.64888047865889,-2.88666905404877
0.975346020761246,5.61931408126175,-0.0281577516855386,-5.64747183294729,-2.79557816478811,5.63339295710452,-2.83781479231641
0.977508650519031,5.63938591918612,-0.00215835005162861,-5.64154426923775,-2.81861378456724,5.64046509421193,-2.82185130964469
0.979671280276817,5.67885715805205,-0.00709691186228496,-5.68595406991434,-2.83588012309488,5.68240561398319,-2.84652549088831
0.981833910034602,5.71918932565955,-0.0353412721134071,-5.75453059777295,-2.84192402677307,5.73685996171625,-2.89493593494318
0.983996539792388,5.7322533463454,-0.0695132645379998,-5.8017666108834,-2.8313700409037,5.7670099786144,-2.9356399377107
0.986159169550173,5.68965551693609,-0.0866524486228417,-5.77630796555893,-2.80150153415662,5.73298174124751,-2.93148020709089
0.988321799307958,5.57456514260442,-0.0735513230193764,-5.64811646562379,-2.75050690979252,5.6113408041141,-2.86083389432158
0.990484429065744,5.40360039465354,-0.0373646324726885,-5.44096502712623,-2.68311788109043,5.42228271088989,-2.73916482979946
0.992647058823529,5.21917346003151,0.00500674265123523,-5.21416671738027,-2.61209010134137,5.21667008870589,-2.60457998736452
0.994809688581315,5.05693168157451,0.0417061530261345,-5.01522552854837,-2.54931891730032,5.03607860506144,-2.48675968776112
0.9969723183391,4.93189676827724,0.0684695355181132,-4.86342723275913,-2.50018315189768,4.89766200051819,-2.39747884862051
0.999134948096886,4.84658145657045,0.0855439758037208,-4.76103748076673,-2.46606271618709,4.80380946866859,-2.3377467524815
1.00129757785467,4.80216417122905,0.0952380459100881,-4.70692612531896,-2.44870110856957,4.75454514827401,-2.30584403970444
1.00346020761246,4.80044300889289,0.100229708433738,-4.70021330045915,-2.45033635866331,4.75032815467602,-2.29999179601271
1.00562283737024,4.83065677735469,0.102523974366049,-4.72813280298864,-2.46659037586037,4.77939479017166,-2.31280441431129
1.00778546712803,4.8645539611714,0.102879526262307,-4.76167443490909,-2.48371674371685,4.81311419804024,-2.32939745432339
1.00994809688581,4.88373495692124,0.100556416084512,-4.78317854083673,-2.49214568650287,4.83345674887898,-2.34131106237611
1.0121107266436,4.900378420446,0.0933310161793424,-4.80704740426666,-2.49685471831267,4.85371291235633,-2.35685819404366
1.01427335640138,4.93196584895931,0.0778447068903328,-4.85412114206898,-2.50490527792482,4.89304349551415,-2.38813821758932
1.01643598615917,4.97023224538639,0.0504677030299955,-4.91976454235639,-2.51034997420819,4.94499839387139,-2.4346484196632
1.01859861591696,4.99012400648222,0.00893160290258557,-4.98119240357963,-2.4995278046924,4.98565820503092,-2.48613040033852
1.02076124567474,4.98191438196678,-0.0450375967172441,-5.02695197868403,-2.46843839262477,5.0044331803254,-2.53599478770064
1.02292387543253,4.96700713225147,-0.102038825443189,-5.06904595769466,-2.43248415340414,5.01802654497306,-2.58554239156892
1.02508650519031,4.98029742140444,-0.14633430016459,-5.12663172156903,-2.41698156061993,5.05346457148674,-2.63648301086681
1.0272491349481,5.03526858765877,-0.168668755169611,-5.20393734282838,-2.43329991624458,5.11960296524358,-2.686303048999
1.02941176470588,5.11056665173469,-0.1741666743142,-5.28473332604889,-2.46819998871024,5.19764998889179,-2.72945000018154
1.03157439446367,5.16901075262498,-0.168612255441141,-5.33762300806612,-2.50019924859192,5.25331688034555,-2.75311763175363
1.03373702422145,5.17571325151207,-0.14622275979243,-5.3219360113045,-2.51474524585982,5.24882463140828,-2.73407938554846
1.03589965397924,5.10622528950911,-0.101875412880319,-5.20810070238943,-2.50217493831439,5.15716299594927,-2.65498805763487
1.03806228373702,4.95307865668226,-0.0448275425929083,-4.99790619927517,-2.45412555704468,4.97549242797871,-2.52136687093404
1.04022491349481,4.72686786171972,0.00918085981678106,-4.71768700190293,-2.36802436076825,4.72227743181133,-2.35425307104308
1.0423875432526,4.46386043828959,0.0507470610733266,-4.41311337721626,-2.25730374968146,4.43848690775292,-2.18118315807147
1.04455017301038,4.23870993333106,0.0781452813445644,-4.16056465198649,-2.15842760733781,4.19963729265878,-2.04120968532097
1.04671280276817,4.13839219436443,0.0936480674149994,-4.04474412694943,-2.11602013088972,4.09156816065693,-1.97554802976722
1.04887543252595,4.15233717837222,0.100895895727618,-4.05144128264461,-2.12661653704992,4.10188923050841,-1.97527269345849
1.05103806228374,4.05710020010123,0.10326727482354,-3.95383292527769,-2.08018373746238,4.00546656268946,-1.92528282522707
1.05320069204152,3.45137110122575,0.103016469311692,-3.34835463191406,-1.77719378526872,3.3998628665699,-1.62266908130118
1.05536332179931,1.92543141879317,0.100923356218355,-1.82450806257481,-1.01317738750576,1.87496974068399,-0.861792353178229
1.05752595155709,-0.773564925590695,0.0962713091826697,0.869836234773365,0.338646808204013,-0.82170058018203,0.483053771978017
1.05968858131488,-4.62141945761033,0.0870834240354056,4.70850288164574,2.26716801678746,-4.66496116962804,2.39779315284057
1.06185121107266,-9.22607299049386,0.0706680500945188,9.29674104058838,4.57770247019967,-9.26140701554112,4.68370454534145
1.06401384083045,-13.8022800858556,0.0446206434967815,13.8469007293524,6.87882972117941,-13.824590407604,6.94576068642458
1.06617647058824,-17.2717590299744,0.00846642821878336,17.2802254581932,8.63164630087781,-17.2759922440838,8.64434594320598
1.06833910034602,-18.5542675463783,-0.0339365894270036,18.5203309569513,9.29410206790266,-18.5372992516648,9.24319718376215
1.07050173010381,-17.0619432486199,-0.0713364846649514,16.9906067639549,8.5666398666424,-17.0262750062874,8.45963513964497
1.07266435986159,-13.1241600686726,-0.0875915147463661,13.0365685539262,6.60587579170946,-13.0803643112994,6.47448851958991
1.07482698961938,-7.8873493999548,-0.0762992807052554,7.81105011924954,3.98182434033003,-7.84919975960217,3.86737541927214
1.07698961937716,-2.69997426488879,-0.0510753053934615,2.64889895949533,1.37552478514112,-2.67443661219206,1.29891182705093
1.07915224913495,1.46466866883721,-0.0343817821261316,-1.49905045096334,-0.715143443355538,1.48185955990027,-0.766716116544735
1.08131487889273,4.18074768944459,-0.0414028639541342,-4.22215055339873,-2.06967241274523,4.20144912142166,-2.13177670867643
1.08347750865052,5.42119052086611,-0.0749570567781504,-5.49614757764426,-2.67311673204398,5.45866904925519,-2.78555231721121
1.0856401384083,5.31773187766823,-0.124685172042632,-5.44241704971086,-2.5965233528128,5.38007446368954,-2.78355111087675
1.08780276816609,4.02299293524288,-0.170306310104576,-4.19329924534746,-1.92634331256915,4.10814609029517,-2.18180277772602
1.08996539792388,1.73349822909696,-0.195374878828795,-1.92887310792576,-0.769061675134084,1.83118566851136,-1.06212399337728
1.09212802768166,-1.24971008371459,-0.19549276139116,1.05421732232343,0.722601422552876,-1.15196370301901,0.429362280466136
1.09429065743945,-4.52404145836688,-0.170603827101889,4.35343763126499,2.34732264273439,-4.43873954481594,2.09141690208155
1.09645328719723,-7.58815903377289,-0.124984568439912,7.46317446533298,3.8565718011064,-7.52566674955293,3.66909494844653
1.09861591695502,-9.81855555922891,-0.0749365430721865,9.74361901615672,4.94674605115055,-9.78108728769281,4.83434123654227
1.1007785467128,-10.557965520495,-0.0405787041467766,10.5173868163482,5.29927211232086,-10.5376761684216,5.2384040561007
1.10294117647059,-9.42391160917897,-0.0321252703364143,9.39178633884255,4.72801843975769,-9.40784897401076,4.67983053425307
1.10510380622837,-6.65109709733805,-0.0467076584854473,6.6043894388526,3.34890237791175,-6.62774326809533,3.27884089018358
1.10726643598616,-3.07799399827007,-0.0693159603090571,3.00867803796101,1.57365497928956,-3.04333601811554,1.46968103882598
1.10942906574394,0.305489396453531,-0.0780642175142645,-0.383553613967796,-0.113712589469633,0.344521505210663,-0.23080891574103
1.11159169550173,2.84899042920163,-0.0605144153349104,-2.90950484453654,-1.39423800693336,2.87924763686909,-1.48500962993573
1.11375432525952,4.38819064681545,-0.025004088359591,-4.41319473517504,-2.18159327922793,4.40069269099525,-2.21909941176732
1.1159169550173,5.09150483872206,0.00963553482846571,-5.0818693038936,-2.55057018677526,5.08668707130783,-2.53611688453256
1.11807958477509,5.25298708866208,0.0290476412659834,-5.22393944739609,-2.64101736496403,5.23846326802908,-2.59744590306505
1.12024221453287,5.14238665380947,0.026752971221277,-5.11563368258819,-2.58456981251537,5.12901016819883,-2.54444035568346
1.12240484429066,4.92877093996105,0.00277615285620693,-4.92599478710484,-2.46577354640863,4.92738286353294,-2.46160931712432
1.12456747404844,4.69189277311075,-0.0361448382928756,-4.72803761140363,-2.32787396740894,4.70996519225719,-2.38209122484825
1.12673010380623,4.48246971044215,-0.0747810177856909,-4.55725072822784,-2.20384434632823,4.51986021933499,-2.31601587300676
1.12889273356401,4.36359602212235,-0.0924744745831713,-4.45607049670553,-2.13556077376959,4.40983325941394,-2.27427248564435
1.1310553633218,4.39772794947388,-0.0779284429169849,-4.47565639239086,-2.15989975327845,4.43669217093237,-2.27679241765392
1.13321799307958,4.59134412073355,-0.03965127507115,-4.6309953958047,-2.2758464228312,4.61116975826912,-2.33532333543792
1.13538062283737,4.87455698378358,0.00460920235011757,-4.86994778143346,-2.43958309306685,4.87225238260852,-2.43266928954167
1.13754325259516,5.1561263684464,0.0425161189230336,-5.11361024952337,-2.59932124368472,5.13486830898488,-2.53554706530017
1.13970588235294,5.37729585195928,0.0695481148384607,-5.30774773712082,-2.72342198339887,5.34252179454005,-2.61909981114118
1.14186851211073,5.51832192967739,0.0858226785634049,-5.43249925111399,-2.8020723041204,5.47541059039569,-2.67333828627529
1.14403114186851,5.58539851722599,0.0936290326586763,-5.49176948456731,-2.83951377494233,5.53858400089665,-2.69907022595432
1.1461937716263,5.58056641182419,0.0958092189671625,-5.48475719285703,-2.83818781539568,5.53266180234061,-2.69447398694493
1.14835640138408,5.47861200634406,0.0948769024427843,-5.38373510390127,-2.78674445439342,5.43117355512266,-2.64442910072924
1.15051903114187,5.2462880553226,0.0926684073182142,-5.15361964800439,-2.66947823132041,5.19995385166349,-2.53047562034309
1.15268166089965,4.87086901827863,0.0903181857284844,-4.78055083255015,-2.48059360200356,4.82570992541439,-2.34511632341083
1.15484429065744,4.36522006168149,0.0883929657713352,-4.27682709591016,-2.22680651372641,4.32102357879582,-2.09421706506941
1.15700692041522,3.75591853501278,0.0870731411176267,-3.66884539389515,-1.9214958380652,3.71238196445396,-1.79088612638876
1.15916955017301,3.07103552533242,0.0863188083322441,-2.98471671700017,-1.57867716683233,3.02787612116629,-1.44919895433396
1.1613321799308,2.36001696758971,0.0859939717754448,-2.27402299581427,-1.22300546968258,2.31701998170199,-1.09401451201941
1.16349480968858,1.75896442528743,0.0859450312894386,-1.67301939399799,-0.922454728288434,1.71599190964271,-0.793537181354276
1.16565743944637,1.50187345709649,0.086041186761213,-1.41583227033527,-0.79395732192885,1.45885286371588,-0.664895541787031
1.16782006920415,1.75670716167192,0.0861883023450238,-1.6705188593269,-0.921447732008472,1.71361301049941,-0.792165278490937
1.16998269896194,2.43414575177212,0.086327303323422,-2.3478184484487,-1.26023652754777,2.39098210011041,-1.13074557256264
1.17214532871972,3.24962800796629,0.0864257758134446,-3.16320223215285,-1.66802689188987,3.20641512005957,-1.5383882281697
1.17430795847751,3.96344953676559,0.0864686578881376,-3.87698087887745,-2.02495909732686,3.92021520782152,-1.89525611049466
1.17647058823529,4.49753010868149,0.0864515376062715,-4.41107857107522,-2.29199082314388,4.45430433987836,-2.16231351673448
1.17863321799308,4.88105778257894,0.0863783353300743,-4.79467944724887,-2.48371805895451,4.8378686149139,-2.3541505559594
1.18079584775087,5.16051843764547,0.0862639123646591,-5.07425452528081,-2.62339117500506,5.11738648146314,-2.49399530645808
1.18295847750865,5.3565127483034,0.0861410908703057,-5.2703716574331,-2.72132691958685,5.31344220286825,-2.5921152832814
1.18512110726644,5.47142788216495,0.0860703065208934,-5.38535757564406,-2.77874909434292,5.42839272890451,-2.64964363456158
1.18728373702422,5.50012974688558,0.0861483202507752,-5.4139814266348,-2.79313903356818,5.45705558676019,-2.66391655319201
1.18944636678201,5.44281103210449,0.0865099575493781,-5.35630107455511,-2.76466049482693,5.3995560533298,-2.63489555850287
1.19160899653979,5.33674484722563,0.087313957610887,-5.24943088961474,-2.71202940241826,5.29308786842019,-2.58105846600193
1.19377162629758,5.24813715868321,0.0887015099406309,-5.15943564874258,-2.66841933431192,5.20378640371289,-2.53536706940097
1.19593425605536,5.2154900322304,0.090715531538304,-5.12477450069209,-2.65310278188435,5.17013226646125,-2.5170294845769
1.19809688581315,5.23286192366163,0.0931727126863796,-5.13968921097525,-2.663017318174,5.18627556731844,-2.52325824914443
1.20025951557093,5.28190533329873,0.0954921684866698,-5.18641316481206,-2.6886987508927,5.23415924905539,-2.5454604981627
1.20242214532872,5.34872981245878,0.0965077631940517,-5.25222204926473,-2.72261878782642,5.30047593086176,-2.57785714303534
1.20458477508651,5.42624038295695,0.0943283708447536,-5.3319120121122,-2.76028437690085,5.37907619753458,-2.61879182063372
1.20674740484429,5.51444819250918,0.0863607338723063,-5.42808745863688,-2.80040446319074,5.47126782557303,-2.67086336238229
1.20891003460208,5.60800734472422,0.0696657647400874,-5.53834157998413,-2.83883655473215,5.57317446235417,-2.73433790762202
1.21107266435986,5.69447811994187,0.0418628947750822,-5.65261522516678,-2.86817050735847,5.67354667255433,-2.80537616519585
1.21323529411765,5.76959524425539,0.00279539291844452,-5.76679985133695,-2.88619531858692,5.76819754779617,-2.88200222920925
1.21539792387543,5.83562961654356,-0.0429273550929329,-5.87855697163649,-2.89635113072531,5.85709329409003,-2.96074216336471
1.21756055363322,5.88333108100659,-0.0826502348292348,-5.96598131583583,-2.90034042308868,5.92465619842121,-3.02431577533253
1.219723183391,5.88677200505536,-0.0979604726023286,-5.98473247765769,-2.89440576622652,5.93575224135653,-3.04134647513001
1.22188581314879,5.82361960193589,-0.0792440805164969,-5.90286368245239,-2.8721877607097,5.86324164219414,-2.99105388148444
1.22404844290657,5.69922422828179,-0.0362462622761417,-5.73547049055793,-2.83148898300283,5.71734735941986,-2.88585837641704
1.22621107266436,5.53529241954583,0.0121880400003388,-5.52310437954549,-2.77374022977308,5.52919839954566,-2.75545816977258
1.22837370242215,5.34608986114454,0.0523998063035057,-5.29369005484104,-2.69924483372402,5.31988995799279,-2.62064512426877
1.23053633217993,5.1528182825192,0.0780191419864215,-5.07479914053278,-2.61541871225281,5.11380871152599,-2.49838999927318
1.23269896193772,4.99987656745301,0.0866893364681866,-4.91318723098482,-2.5432829519606,4.95653189921892,-2.41324894725832
1.2348615916955,4.93028393779945,0.0778769020519193,-4.85240703574753,-2.50408041992569,4.89134548677349,-2.38726506684781
1.23702422145329,4.95751639091707,0.0521147965132916,-4.90540159440378,-2.50481559371518,4.93145899266043,-2.42664339894524
1.23918685121107,5.06566365917651,0.011773227850208,-5.05389043132631,-2.53871844351336,5.05977704525141,-2.52105860173805
1.24134948096886,5.22529649894092,-0.0367371588178041,-5.26203365775872,-2.59427967006156,5.24366507834982,-2.64938540828826
1.24351211072664,5.40278590465884,-0.0796789464513774,-5.48246485111022,-2.66155347910373,5.44262537788453,-2.7810718987808
1.24567474048443,5.55950351404532,-0.0980879291979107,-5.65759144324324,-2.73070779242371,5.60854747864428,-2.87783968622057
1.24783737024221,5.66107428219806,-0.082070061567513,-5.74314434376557,-2.78950211031527,5.70210931298181,-2.91260720266654
1.25,5.69963917733332,-0.0410968880254689,-5.74073606535879,-2.82927114465392,5.72018762134605,-2.89091647669213
1.25216262975779,5.70247723189025,0.00648282047742979,-5.69599441141282,-2.85448002618384,5.69923582165153,-2.84475579546769
1.25432525951557,5.71012058737004,0.0478827911326959,-5.66223779623734,-2.87900168925137,5.68617919180369,-2.80717750255232
1.25648788927336,5.74554976828545,0.0780071564829208,-5.66754261180253,-2.91177846238419,5.70654619004399,-2.79476772765981
1.25865051903114,5.80676280833035,0.0959888783654682,-5.71077392996488,-2.95137584334791,5.75876836914762,-2.80739252579971
1.26081314878893,5.87538845946611,0.102499022425611,-5.7728894370405,-2.98894374094586,5.82413894825331,-2.83519520730745
1.26297577854671,5.92394425013125,0.0980687336293193,-5.82587551650193,-3.01100649188029,5.87490988331659,-2.86390339143631
1.2651384083045,5.92297305027781,0.082464379018936,-5.84050867125887,-3.00271871464837,5.88174086076834,-2.87902214611997
1.26730103806228,5.83306886553522,0.0551053115606123,-5.77796355397461,-2.94408708854791,5.80551620975491,-2.861429121207
1.26946366782007,5.58495728349932,0.0165202421297478,-5.56843704136958,-2.80073876281454,5.57669716243445,-2.77595839961991
1.27162629757785,5.08654536931749,-0.0291930638894643,-5.11573843320695,-2.52867615271401,5.10114190126222,-2.57246574854821
1.27378892733564,4.26282317169588,-0.0711018186270764,-4.33392499032295,-2.0958606765344,4.29837408100942,-2.20251340447502
1.27595155709343,3.106154917449,-0.0936235660907933,-3.19977848353979,-1.5062656756791,3.15296670049439,-1.64670102481529
1.27811418685121,1.72937332379171,-0.0907129150611611,-1.82008623885287,-0.819330204365276,1.77472978132229,-0.955399576957017
1.280276816609,0.402098210295811,-0.0755498534300545,-0.477648063725866,-0.163274178432879,0.439873137010839,-0.27659895857796
1.28243944636678,-0.493375244502246,-0.0686336176515798,0.424741626850667,0.281004431076913,-0.459058435676456,0.178054004599543
1.28460207612457,-0.625562873048448,-0.0808626398622687,0.544700233186179,0.353212756455358,-0.585131553117314,0.231918796661955
1.28676470588235,0.0694155165349777,-0.107818054420985,-0.177233570955963,0.0192012689430038,0.12332454374547,-0.142525812688474
1.28892733564014,1.27695947595062,-0.134604290435544,-1.41156376638617,-0.571177592757539,1.34426162116839,-0.773084028410856
1.29108996539792,2.43640272067053,-0.151356139794581,-2.58775886046511,-1.14252329043797,2.51208079056782,-1.36955750012985
1.29325259515571,3.02362055618117,-0.162770018606771,-3.18639057478794,-1.4304252687872,3.10500556548456,-1.67458029669736
1.29541522491349,2.75050763854889,-0.174920782447302,-2.92542842099619,-1.28779342805079,2.83796802977254,-1.55017460172174
1.29757785467128,1.62599583014475,-0.182481234177156,-1.8084770643219,-0.721757297983795,1.71723644723332,-0.995479149249529
1.29974048442907,-0.0704101020775916,-0.179311547788085,-0.108901445710493,0.124860824932838,0.0192456718164508,-0.144106496749289
1.30190311418685,-1.91316364640813,-0.169515934401755,1.74364771200638,1.04133979040494,-1.82840567920726,0.787065888802312
1.30406574394464,-3.49157689883792,-0.156109599169335,3.33546729966859,1.82384324900363,-3.41352209925326,1.58967885024963
1.30622837370242,-4.51099741956029,-0.130355059681619,4.38064235987867,2.32067623962095,-4.44581988971948,2.12514365009852
1.30839100346021,-4.88259850841244,-0.0848855537664509,4.79771295464599,2.48374203108945,-4.84015573152921,2.35641370043977
1.31055363321799,-4.77200129953307,-0.0278700460356167,4.74413125349745,2.39993567278434,-4.75806627651526,2.35813060373092
1.31271626297578,-4.46970739927388,0.0247135470332046,4.49442094630708,2.22249692612034,-4.48206417279048,2.25956724667014
1.31487889273356,-4.18414951780594,0.0619130304598509,4.24606254826579,2.06111824367304,-4.21510603303586,2.15398778936282
1.31704152249135,-3.92540608126908,0.0793625697409112,4.00476865101,1.92302175576409,-3.96508736613954,2.04206561037545
1.31920415224914,-3.50744411142211,0.0761589368492052,3.58360304827131,1.71564258728645,-3.54552357984671,1.82988099256026
1.32136678200692,-2.71901704629264,0.0533267610232035,2.77234380731584,1.33284514263472,-2.74568042680424,1.41283528416952
1.32352941176471,-1.61863388170812,0.0140479520002408,1.63268183370837,0.802292964853942,-1.62565785770824,0.823364892854303
1.32569204152249,-0.676333563821391,-0.034451908169963,0.641881655651428,0.355392735995677,-0.659107609736409,0.303714873740732
1.32785467128028,-0.560692653756746,-0.0777641844369244,0.482928469319822,0.319228419096835,-0.521810561538284,0.202582142441449
1.33001730103806,-1.7345007765683,-0.0964396066927296,1.63806116987557,0.915470191630513,-1.68628097322193,0.770810781591419
1.33217993079585,-4.16389403615074,-0.0802816946593478,4.08361234149139,2.12208786540504,-4.12375318882107,2.00166532341602
1.33434256055363,-7.30406865342984,-0.038637092985034,7.26543156044481,3.67135287320744,-7.28475010693733,3.61339723372989
1.33650519031142,-10.3712102647586,0.0100716054343993,10.381281870193,5.18056932966212,-10.3762460674758,5.19567673781372
1.3386678200692,-12.7120117604271,0.0527280240048084,12.7647397844319,6.32964186821116,-12.7383757724295,6.40873390421837
1.34083044982699,-13.9785912584568,0.0835661842347996,14.0621574426916,6.94751253711099,-14.0203743505742,7.07286181346319
1.34299307958478,-14.0439846902826,0.100634171030756,14.1446188613134,6.97167525962594,-14.094301775798,7.12262651617207
1.34515570934256,-12.8826717365549,0.103103169819634,12.9857749063746,6.38978428336764,-12.9342233214647,6.54443903809709
1.34731833910035,-10.5770978944626,0.0897625428263694,10.6668604372889,5.24366767581811,-10.6219791658758,5.37831149005766
1.34948096885813,-7.39525516403174,0.0588675296139393,7.45412269364568,3.6681938172089,-7.42468892883871,3.75649511162981
1.35164359861592,-3.83612943559413,0.00945904706986325,3.84558848266399,1.91333519426213,-3.84085895912906,1.92752376486693
1.3538062283737,-0.51918336793177,-0.0557654082783792,0.463417959653391,0.287474388105075,-0.491300663792581,0.203826275687506
1.35596885813149,2.08107094115864,-0.126116204781594,-2.20718714594023,-0.977477368188522,2.14412904354943,-1.16665167536091
1.35813148788927,3.81142144863967,-0.183306184036975,-3.99472763267665,-1.81405763230135,3.90307454065816,-2.08901690835681
1.36029411764706,4.78916531797898,-0.213211750016034,-5.00237706799501,-2.28797678398147,4.89577119298699,-2.60779440900552
1.36245674740484,5.24925246077738,-0.212893805351508,-5.46214626612889,-2.51817932771294,5.35569936345313,-2.8375200357402
1.36461937716263,5.42441486680556,-0.18236637234135,-5.60678123914691,-2.6210242472321,5.51559805297623,-2.89457380574413
1.36678200692042,5.48394771155341,-0.124625641251796,-5.6085733528052,-2.6796610351508,5.5462605321793,-2.8665994970285
1.3689446366782,5.51365278159916,-0.0539364103693226,-5.56758919196848,-2.72985818561492,5.54062098678382,-2.8107628011689
1.37110726643599,5.52842692320364,0.011145357613215,-5.51728156559043,-2.76978614040843,5.52285424439704,-2.75306810398861
1.37326989619377,5.50891919853218,0.0595171929850634,-5.44940200554711,-2.78421819575862,5.47916060203964,-2.69494240628102
1.37543252595156,5.44162075703423,0.087960831956466,-5.35365992507777,-2.76479079449535,5.397640341056,-2.63284954656065
1.37759515570934,5.33897595679134,0.0969307145411516,-5.24204524225019,-2.71795333566625,5.29051059952077,-2.57255726385452
1.37975778546713,5.22815409792573,0.0879350021085145,-5.14021909581721,-2.65804455001712,5.18418659687147,-2.52614204685435
1.38192041522491,5.12508822326291,0.0626262723977858,-5.06246195086513,-2.59385724783035,5.09377508706402,-2.49991783923367
1.3840830449827,5.02699839873302,0.0235195867500199,-5.003478811983,-2.52525899274152,5.01523860535801,-2.48997961261649
1.38624567474048,4.93377440823534,-0.0238560437731246,-4.95763045200847,-2.45495918223111,4.94570243012191,-2.4907432478908
1.38840830449827,4.86874308178519,-0.0677320883032567,-4.93647517008844,-2.40050549674097,4.90260912593682,-2.50210362919585
1.39057093425606,4.8748262793176,-0.0921863165648144,-4.96701259588241,-2.39131998137639,4.92091943760001,-2.52959945622361
1.39273356401384,4.99557104641805,-0.0911722039237392,-5.08674325034179,-2.45219942124716,5.04115714837992,-2.58895772713276
1.39489619377163,5.25535139875492,-0.0780325916269826,-5.3333839903819,-2.58865940356397,5.29436769456841,-2.70570829100444
1.39705882352941,5.65303438734582,-0.0734122516163823,-5.72644663896221,-2.78981106786472,5.68974051315401,-2.89992944528929
1.3992214532872,6.16158733179999,-0.0881460221437254,-6.24973335394371,-3.03672065482813,6.20566034287185,-3.16893968804372
1.40138408304498,6.70531962730029,-0.117338352835764,-6.82265798013606,-3.29399063723227,6.76398880371818,-3.46999816648591
1.40354671280277,7.12997206027077,-0.145005924078485,-7.27497798434926,-3.49248306809614,7.20247502231001,-3.70999195421387
1.40570934256055,7.19710432125128,-0.159448127145297,-7.35655244839658,-3.51882809705299,7.27682838482393,-3.75800028777094
1.40787197231834,6.60579569937754,-0.16281045479717,-6.76860615417471,-3.22149262229018,6.68720092677612,-3.46570830448594
1.41003460207612,5.05068702775539,-0.158267371355091,-5.20895439911049,-2.44620982820015,5.12982071343294,-2.68361088523279
1.41219723183391,2.31750882064984,-0.138151959126565,-2.45566077977641,-1.08967843076164,2.38658480021312,-1.29690636945149
1.4143598615917,-1.6244313014519,-0.0962086125511417,1.52822268890076,0.860319957001522,-1.57632699517633,0.71600703817481
1.41652249134948,-6.55300682339566,-0.0411785004490892,6.51182832294657,3.29709266192237,-6.53241757317111,3.23532491124874
1.41868512110727,-11.9372988785964,0.0112816960468386,11.9485805746432,5.96300859127478,-11.9429397266198,5.97993113534504
1.42084775086505,-16.9526286488695,0.0515945396653923,17.0042231885349,8.45051705460206,-16.9784259187022,8.52790886410015
1.42301038062284,-20.6367833885591,0.0777492082918617,20.714532596851,10.2795170901336,-20.6756579927051,10.3961409025714
1.42517301038062,-22.1620956456618,0.091750356237846,22.2538460018996,11.035172644712,-22.2079708237807,11.1727981790687
1.42733564013841,-21.1296202668732,0.09711325977136,21.2267335266446,10.5162535035509,-21.1781768967589,10.661923393208
1.42949826989619,-17.7382560866448,0.0973743144702362,17.8356304011151,8.8204408860873,-17.7869432438799,8.96650235779265
1.43166089965398,-12.7184258959192,0.0953869101371941,12.8138128060564,6.31151949289102,-12.7661193509878,6.45459985809682
1.43382352941176,-7.09014267723205,0.0931232414482754,7.18326591868033,3.49850971789189,-7.13670429795619,3.6381945800643
1.43598615916955,-1.86987533374178,0.0917341876899159,1.9616095214317,0.889070573025935,-1.91574242758674,1.02667185456081
1.43814878892734,2.20108000634962,0.0916840247047452,-2.10939598164488,-1.14638201552718,2.15523799399725,-1.00885597847007
1.44031141868512,4.78950254294067,0.092847001103986,-4.69665554183669,-2.44117477202233,4.74307904238868,-2.30190427036635
1.44247404844291,5.88172064694359,0.0945176499269477,-5.78720299701664,-2.98811914843527,5.83446182198011,-2.84634267354485
1.44463667820069,5.62309638866333,0.0953456641965438,-5.52775072446679,-2.85922102642994,5.57542355656506,-2.71620253013512
1.44679930795848,4.26139672582958,0.0932635274634748,-4.1681331983661,-2.17733012664653,4.21476496209784,-2.03743483545131
1.44896193771626,2.16718079699405,0.0855342560421856,-2.08164654095186,-1.12635752651812,2.12441366897295,-0.998056142454837
1.45112456747405,-0.126715755540467,0.06910465634765,0.195820411888117,0.0288055495964083,-0.161268083714292,0.132462534117883
1.45328719723183,-1.92548398930871,0.0414919757440071,1.96697596505272,0.941996006782351,-1.94622997718071,1.00423397039836
1.45544982698962,-2.58036072623636,0.00242833336634867,2.58278905960271,1.28896619643501,-2.58157489291954,1.29260869648453
1.4576124567474,-1.88112069884063,-0.0436105074868907,1.83751019135373,0.962365603163758,-1.85931544509718,0.896949841933422
1.45977508650519,-0.230489645625475,-0.0841207123131442,0.146368933312331,0.15730517896931,-0.188429289468903,0.0311241104995934
1.46193771626298,1.66958262418648,-0.100823429486452,-1.77040605367293,-0.784379597350011,1.7199943389297,-0.93561474157969
1.46410034602076,3.30195879347522,-0.0841443615800481,-3.38610315505527,-1.60890721594759,3.34403097426524,-1.73512375831766
1.46626297577855,4.50579622435209,-0.0436478956953156,-4.5494441200474,-2.23107416432839,4.52762017219975,-2.29654600787136
1.46842560553633,5.3210096893777,0.00239399782689071,-5.31861569155081,-2.6617018436023,5.31981269046425,-2.65811084686196
1.47058823529412,5.81411314694971,0.0414775887422707,-5.77263555820744,-2.92779536784599,5.79337435257858,-2.86557898473258
1.4727508650519,6.04020243702193,0.0691155744888861,-5.97108686253304,-3.05465900575541,6.00564464977748,-2.95098564402208
1.47491349480969,6.0690823561185,0.085546953490969,-5.98353540262753,-3.07731465480473,6.02630887937302,-2.94899422456828
1.47707612456747,5.97795151545124,0.0932031161372374,-5.884748399314,-3.03557731579424,5.93134995738262,-2.89577264158838
1.47923875432526,5.82179052481831,0.0950617819411624,-5.72672874287715,-2.95842615337974,5.77425963384773,-2.81583348046799
1.48140138408305,5.6273956709813,0.0937669980002443,-5.53362867298105,-2.86058133449077,5.58051217198117,-2.7199308374904
1.48356401384083,5.41778542749792,0.091297283601811,-5.32648814389611,-2.75454135554987,5.37213678569702,-2.61759543014715
1.48572664359862,5.25168845881092,0.0889612111482487,-5.16272724766267,-2.67032483497958,5.2072078532368,-2.53688301825721
1.4878892733564,5.21107261716018,0.0875405027659429,-5.12353211439423,-2.64930655996306,5.16730236577721,-2.51799580581415
1.49005190311419,5.31506128627575,0.0874528054102749,-5.22760848086548,-2.70125704584301,5.27133488357062,-2.5700778377276
1.49221453287197,5.48877733689421,0.0888530974367581,-5.39992423945745,-2.78881521716549,5.44435078817583,-2.65553557101035
1.49437716262976,5.64412609728687,0.0916295517889004,-5.55249654549797,-2.86787782453788,5.59831132139242,-2.73043349685453
1.49653979238754,5.74365212331089,0.0952799920077033,-5.64837213130319,-2.9194660576593,5.69601212730704,-2.77654606964774
1.49870242214533,5.78338657159134,0.0986866043392814,-5.68469996725206,-2.94103658796531,5.7340432694217,-2.79300668145639
1.50086505190311,5.76168823942099,0.0998482784428425,-5.66183996097815,-2.93076825893192,5.71176410019957,-2.78099584126765
1.5030276816609,5.67613281243367,0.0956885816895917,-5.58044423074408,-2.88591069706163,5.62828852158887,-2.74237782452724
1.50519031141869,5.54310136005567,0.0821332372358439,-5.46096812281982,-2.81261729864575,5.50203474143774,-2.68941744279199
1.50735294117647,5.41066950111482,0.0547325932001417,-5.35593690791468,-2.73270104715748,5.38330320451475,-2.65060215735727
1.50951557093426,5.32840490455538,0.0101624542234699,-5.31824245033191,-2.66928367938943,5.32332367744365,-2.65403999805422
1.51167820069204,5.29995661484374,-0.0510823402320521,-5.35103895507579,-2.62443713730584,5.32549778495977,-2.70106064765392
1.51384083044983,5.29071908930812,-0.120661909330553,-5.41138099863868,-2.58502858998878,5.3510500439734,-2.76602145398461
1.51600346020761,5.27840122714707,-0.183008373094698,-5.46140960024177,-2.54769642702619,5.36990541369442,-2.82220898666823
1.5181660899654,5.27266358104835,-0.226994797853432,-5.49965837890178,-2.52283439159746,5.38616097997507,-2.86332658837761
1.52032871972318,5.31035166875138,-0.252307338595621,-5.562659007347,-2.52902216507788,5.43650533804919,-2.90748317297131
1.52249134948097,5.44279415589178,-0.259774778866107,-5.70256893475789,-2.59150968851284,5.57268154532484,-2.981171856812
1.52465397923875,5.68414574732076,-0.249016240390773,-5.93316198771154,-2.71756475346499,5.80865386751615,-3.09108911405115
1.52681660899654,5.97040756960187,-0.22347398316905,-6.19388155277092,-2.87346679321641,6.08214456118639,-3.20867776796998
1.52897923875433,6.19855699145035,-0.185501232156634,-6.38405822360698,-3.00652787964686,6.29130760752866,-3.28477972788181
1.53114186851211,6.29237951758697,-0.138548985026323,-6.4309285026133,-3.07691526628032,6.36165401010013,-3.28473874381981
1.5333044982699,6.23215947053823,-0.0961051052442245,-6.32826457578245,-3.068027182647,6.28021202316034,-3.21218484051334
1.53546712802768,6.06474631407588,-0.0737834951481631,-6.13852980922405,-2.99548140946386,6.10163806164996,-3.1061566521861
1.53762975778547,5.88949598781058,-0.0751872799770679,-5.96468326778765,-2.90715435391676,5.92708962779912,-3.01993527388236
1.53979238754325,5.7939248421469,-0.0880399144536379,-5.88196475660054,-2.85294246384663,5.83794479937372,-2.98500233552709
1.54195501730104,5.78510321016554,-0.0904902903792244,-5.87559350054477,-2.84730645989316,5.83034835535516,-2.983041895462
1.54411764705882,5.7982719692564,-0.0683281939085215,-5.86660016316493,-2.86497188767394,5.83243606621067,-2.96746417853672
1.54628027681661,5.77582979857412,-0.0269978660746094,-5.80282766464872,-2.87441596624975,5.78932873161142,-2.91491276536167
1.54844290657439,5.72113329057695,0.0180835343306459,-5.7030497562463,-2.8696084124538,5.71209152341163,-2.84248311095783
1.55060553633218,5.67791851367438,0.0557522012433223,-5.62216631243106,-2.86683535745885,5.65004241305272,-2.78320705559387
1.55276816608997,5.67609088665112,0.0813514405180726,-5.59473944613304,-2.87872116358459,5.63541516639208,-2.75669400280749
1.55493079584775,5.7000488748806,0.0935798722519285,-5.60646900262867,-2.89681437356626,5.65325893875464,-2.75644456518837
1.55709342560554,5.71285567045246,0.092235661263644,-5.62062000918881,-2.90254566585805,5.66673783982063,-2.76419217396258
1.55925605536332,5.70778286598431,0.0771118525006382,-5.63067101348367,-2.89244735924247,5.66922693973399,-2.77677958049151
1.56141868512111,5.71922927791253,0.0481280660099341,-5.67110121190259,-2.88367867196123,5.69516524490756,-2.81148657294633
1.56358131487889,5.79296658998114,0.00670942724249918,-5.78625716273864,-2.89983800861182,5.78961187635989,-2.88977386774807
1.56574394463668,5.94850038877914,-0.0416634225486443,-5.99016381132779,-2.95341848311525,5.96933210005347,-3.01591361693822
1.56790657439446,6.15440335165446,-0.0840173941800051,-6.23842074583446,-3.03519297873723,6.19641204874446,-3.16121907000723
1.57006920415225,6.35614419626767,-0.10195698095947,-6.45810117722714,-3.1270936076541,6.40712268674741,-3.28002907909331
1.57223183391003,6.53484293522324,-0.0859841033596492,-6.62082703858289,-3.22442941593179,6.57783498690306,-3.35340557097127
1.57439446366782,6.70737457579796,-0.0458161029193285,-6.75319067871729,-3.33077923643931,6.73028262725762,-3.39950339081831
1.57655709342561,6.86384760917093,0.000117816224621259,-6.8637297929463,-3.43198271269777,6.86378870105861,-3.43180598836084
1.57871972318339,6.94706571752042,0.0391907323461412,-6.90787498517428,-3.49312822493328,6.92747035134735,-3.43434212641407
1.58088235294118,6.91023691868094,0.0668423798058122,-6.84339453887512,-3.48853964924337,6.87681572877803,-3.38827607953466
1.58304498269896,6.76365833549348,0.0832933124904146,-6.68036502300307,-3.42347582399195,6.72201167924827,-3.29853585525633
1.58520761245675,6.55494478634171,0.091009774329063,-6.46393501201264,-3.32297728033538,6.50943989917718,-3.18646261884179
1.58737024221453,6.33992716213366,0.0930526592166952,-6.24687450291696,-3.21648991067518,6.29340083252531,-3.07691092185013
1.58953287197232,6.19282611764704,0.092185902731865,-6.10064021491517,-3.14250601018945,6.1467331662811,-3.00422715609165
1.5916955017301,6.19313356675721,0.0905195184066211,-6.10261404835059,-3.14182654258192,6.1478738075539,-3.00604726497198
1.59385813148789,6.35480320669192,0.0894571703378708,-6.26534603635405,-3.22213018851489,6.31007462152298,-3.08794443300809
1.59602076124567,6.59715763213099,0.0897592924472794,-6.50739833968371,-3.34345846228913,6.55227798590735,-3.20881952361821
1.59818339100346,6.80349591098332,0.0915900987076371,-6.71190581227569,-3.44754300484548,6.7577008616295,-3.31015785678402
1.60034602076125,6.89158726526849,0.0944763842513018,-6.79711088101719,-3.4930318247599,6.84434907314284,-3.35131724838294
1.60250865051903,6.8455444158496,0.0971656562475476,-6.74837875960205,-3.47135503604857,6.79696158772582,-3.32560655167725
1.60467128027682,6.70326243192733,0.0974352788377809,-6.60582715308955,-3.40034885538255,6.65454479250844,-3.25419593712588
1.6068339100346,6.51869035878209,0.0919782533653156,-6.42671210541677,-3.3053343060737,6.47270123209943,-3.16736692602573
1.60899653979239,6.34326188476514,0.0765749689914303,-6.26668691577371,-3.20991842687829,6.30497440026943,-3.09505597339114
1.61115916955017,6.2170091770477,0.0468417024416247,-6.17016747460608,-3.13192543974466,6.19358832582689,-3.06166288608223
1.61332179930796,6.1424668242617,-0.000105155224493073,-6.14257197948619,-3.0711808345186,6.14251940187394,-3.07133856735534
1.61548442906574,6.08479333070717,-0.0627706559446746,-6.14756398665185,-3.01101133738125,6.11617865867951,-3.10516732129826
1.61764705882353,6.02061864530478,-0.131100270657858,-6.15171891596264,-2.94475918732346,6.08616878063371,-3.14140959331025
1.61980968858131,5.96759326415316,-0.187072227221466,-6.15466549137463,-2.89026051846585,6.06112937776389,-3.17086885929805
1.6219723183391,5.95517146518324,-0.216629716887713,-6.17180118207095,-2.86927087414776,6.0634863236271,-3.19421544947933
1.62413494809689,5.99934343674258,-0.216811807389993,-6.21615524413258,-2.8912658146763,6.10774934043758,-3.21648352576129
1.62629757785467,6.10859685962549,-0.187558159954139,-6.29615501957962,-2.96051934983567,6.20237593960255,-3.24185658976688
1.62846020761246,6.27379713266589,-0.131700096094267,-6.40549722876016,-3.07104851828581,6.33964718071302,-3.26859866242721
1.63062283737024,6.45319913616334,-0.0631440500057809,-6.51634318616912,-3.19502754307878,6.48477116116623,-3.28974361808745
1.63278546712803,6.57707642712828,0.000252619500084608,-6.57682380762819,-3.28866452331418,6.57695011737823,-3.28828559406405
1.63494809688581,6.5470558382312,0.0485752673205002,-6.4984805709107,-3.29781555277585,6.52276820457095,-3.2249526517951
1.6371107266436,6.23654775230968,0.0803612503154179,-6.15618650199426,-3.15845450131255,6.19636712715197,-3.03791262583942
1.63927335640138,5.50689161948515,0.0982836604673515,-5.40860795901779,-2.80258763997625,5.45774978925147,-2.65516214927522
1.64143598615917,4.22702122174317,0.10609069158656,-4.12093053015661,-2.16655595666487,4.17397587594989,-2.00741991928503
1.64359861591696,2.29671387475021,0.106742475933275,-2.18997139881694,-1.20172817534174,2.24334263678357,-1.04161446144183
1.64576124567474,-0.321734067040012,0.10151682427942,0.423250891319432,0.110108621380296,-0.372492479179722,0.262383857799426
1.64792387543253,-3.55050865477554,0.0898684192463354,3.64037707402188,1.7303201177646,-3.59544286439871,1.86512274663411
1.65008650519031,-7.1331045583015,0.0699336129862748,7.20303817128778,3.53158547265761,-7.16807136479464,3.63648589213703
1.6522491349481,-10.6685605276506,0.0396999339063471,10.7082604615569,5.31443029687211,-10.6884104946037,5.37398019773163
1.65441176470588,-13.8041983448809,-0.00106076883749888,13.8031375760434,6.90262955685918,-13.8036679604621,6.90103840360293
1.65657439446367,-16.3956186954236,-0.0480292887612128,16.3475894066623,8.22182399209238,-16.3716040510429,8.14978005895056
1.65873702422145,-18.411858932315,-0.088892620144303,18.3229663121707,9.25037577622965,-18.3674126222428,9.1170368460132
1.66089965397924,-19.7240251233324,-0.105502796374268,19.6185223269581,9.91476395985331,-19.6712737251452,9.75650976529191
1.66306228373702,-20.117155117921,-0.0883183689140976,20.0288367490069,10.1027367434175,-20.0729959334639,9.97025919004639
1.66522491349481,-19.5533928947008,-0.0468469545969924,19.5065459401038,9.80011992464888,-19.5299694174023,9.72984949275339
1.6673875432526,-18.3830375820819,0.000734440586043231,18.3837720226679,9.19115157074793,-18.3834048023749,9.19225323162699
1.66955017301038,-17.2894172879105,0.0419587545960933,17.3313760425066,8.62372926665719,-17.3103966652085,8.68666739855133
1.67171280276817,-17.007262949007,0.072172694191541,17.0794356431985,8.46754512740771,-17.0433492961027,8.57580416869502
1.67387543252595,-18.0309873298074,0.0910597728186592,18.122047102626,8.96996377849435,-18.0765172162167,9.10655343772233
1.67603806228374,-20.5138306533238,0.0999035211050898,20.6137341744289,10.2069635661094,-20.5637824138764,10.356818847767
1.67820069204152,-24.2848311573853,0.0997853695077449,24.3846165268931,12.0925228939388,-24.3347238421392,12.2422009482004
1.68036332179931,-28.7809763596387,0.0907094034984481,28.8716857631372,14.3451334780701,-28.8263310613879,14.4811975833178
1.68252595155709,-32.9369587472934,0.0716084875687873,33.0085672348622,16.4326751298623,-32.9727629910778,16.5400878612155
1.68468858131488,-35.3406985007712,0.0412310154036666,35.3819295161749,17.6497337426838,-35.3613140084731,17.7115802657893
1.68685121107266,-34.8218509420484,-4.82081282924401e-05,34.8218027339201,17.4109495750884,-34.8218268379843,17.4108772628959
1.68901384083045,-31.1340833021779,-0.0474885912530227,31.0865947109248,15.5907859467154,-31.1103390065513,15.5195530598359
1.69117647058824,-25.1822395983058,-0.0885158528318002,25.093723745474,12.6353777255688,-25.1379816718899,12.5026039463211
1.69333910034602,-18.6381615685949,-0.104853954455997,18.5333076141389,9.37150776152546,-18.5857345913669,9.21422682984146
1.69550173010381,-13.2670262375265,-0.0869596512720341,13.1800665862545,6.67699294439926,-13.2235464118905,6.54655346749121
1.69766435986159,-10.3702144385037,-0.0444901724826402,10.325724266021,5.20735230549315,-10.3479693522623,5.14061704676919
1.69982698961938,-10.5077022154072,0.00402061814989501,10.5117228335571,5.25184079862863,-10.5097125244821,5.25787172585348
1.70198961937716,-13.4494427881153,0.0454720208495998,13.4949148089649,6.70198538363283,-13.4721787985401,6.77019341490723
1.70415224913495,-18.301997980359,0.0742538014505756,18.3762517818096,9.11387208945422,-18.3391248810843,9.22525279163008
1.70631487889273,-23.8009571261352,0.0888062405465183,23.8897633666817,11.8560754427943,-23.8453602464085,11.9892848036141
1.70847750865052,-28.6849537267584,0.0890887999122137,28.7740425266706,14.2979324634231,-28.7294981267145,14.4315656632914
1.7106401384083,-32.0049481893245,0.0752526921064158,32.0802008814309,15.964847748609,-32.0425745353777,16.0777267867686
1.71280276816609,-33.2886401110403,0.0476014035568875,33.3362415145972,16.6205193537417,-33.3124408128188,16.691921459077
1.71496539792388,-32.5455000036687,0.00782778978058306,32.5533277934492,16.268836106944,-32.549413898559,16.2805777916149
1.71712802768166,-30.1323819224176,-0.0385747860147139,30.0938071364029,15.0854783542161,-30.1130945294102,15.0276161751941
1.71929065743945,-26.5950370205708,-0.0790274054150102,26.5160096151558,13.3370322129929,-26.5555233178633,13.2184911048704
1.72145328719723,-22.5877304294209,-0.0960924868367446,22.4916379425842,11.3419114581288,-22.5396841860025,11.1977727278737
1.72361591695502,-18.7863186024162,-0.0819100750692933,18.7044085273469,9.43411433874275,-18.7453635648816,9.31124922613881
1.7257785467128,-15.7234045248903,-0.0484975738655948,15.6749069510247,7.88595104937794,-15.6991557379575,7.81320468857955
1.72794117647059,-13.6532266230533,-0.0169451379355151,13.6362814851178,6.8350858804944,-13.6447540540855,6.80966817359112
1.73010380622837,-12.5310634073454,-0.00212644300697194,12.5289369643385,6.26659492517621,-12.530000185842,6.26340526066575
1.73226643598616,-12.0738738275209,-0.00898977428358724,12.0648840532373,6.04143180090222,-12.0693789403791,6.02794713947684
1.73442906574394,-11.8627687172436,-0.0336127029465452,11.829156014297,5.94819071009506,-11.8459623657703,5.89777165567524
1.73659169550173,-11.4955138681187,-0.0628191627927497,11.432694705326,5.77916651545574,-11.4641042867224,5.68493777126662
1.73875432525952,-10.7497413784486,-0.078426021836113,10.6713153566125,5.41408370014236,-10.7105283675306,5.29644466738819
1.7409169550173,-9.65282720506645,-0.0727487256179952,9.58007847944846,4.86278796534222,-9.61645284225745,4.75366487691523
1.74307958477509,-8.45170946306659,-0.059023221510556,8.39268624155604,4.25536634228857,-8.42219785231131,4.16683151002274
1.74524221453287,-7.53316178104649,-0.0597530090696913,7.4734087719768,3.79645739505809,-7.50328527651165,3.70682788145356
1.74740484429066,-7.2825459264312,-0.0895414153107545,7.19300451112045,3.68604367087098,-7.23777521877582,3.55173154790485
1.74956747404844,-7.92829746149815,-0.148459036527598,7.77983842497055,4.03837824901287,-7.85406794323435,3.81568969422148
1.75173010380623,-9.48294400417707,-0.219331225419175,9.26361277875789,4.85113761479812,-9.37327839146748,4.52214077666936
1.75389273356401,-11.7577359364693,-0.269103400506958,11.4886325359623,6.01341966848811,-11.6231842362158,5.60976456772767
1.7560553633218,-14.3408156238747,-0.267139026018383,14.0736765978564,7.30397732494656,-14.2072461108656,6.90326878591899
1.75821799307958,-16.6484232942385,-0.210979485284266,16.4374438089542,8.42970138976137,-16.5429335515963,8.11323216183497
1.76038062283737,-18.2143418077573,-0.126676363560794,18.0876654441965,9.17050908565904,-18.1510036259769,8.98049454031785
1.76254325259516,-18.9404534755082,-0.0438999363829148,18.8965535391253,9.49217670594557,-18.9185035073168,9.4263268013712
1.76470588235294,-18.9546912148611,0.0209216591397518,18.9756128740008,9.46688477786066,-18.9651520444309,9.49826726657029
1.76686851211073,-18.2702063419294,0.0637405778627016,18.3339469197921,9.10323288203334,-18.3020766308607,9.19884374882739
1.76903114186851,-16.6584902475003,0.0872264321903965,16.7457166796907,8.28563190765494,-16.7021034635955,8.41647155594054
1.7711937716263,-13.850980362845,0.0967006155204818,13.9476809783655,6.87713987366225,-13.8993306706052,7.02219079694297
1.77335640138408,-9.88440884026925,0.0976707790411013,9.98207961931035,4.89336903061408,-9.9332442297898,5.03987519917573
1.77551903114187,-5.28636453869679,0.094630085661268,5.38099462435806,2.59586722651776,-5.33367958152742,2.73781235500966
1.77768166089965,-0.898829051643673,0.0906923364857641,0.989521388129438,0.404068357578955,-0.944175219886556,0.540106862307601
1.77984429065744,2.52707758390278,0.0876758560064398,-2.43940172789634,-1.30737671995461,2.48323965589956,-1.17586293594495
1.78200692041522,4.59647313498062,0.0863474773931138,-4.51012565758751,-2.34141030618687,4.55329939628406,-2.2118890900972
1.78416955017301,5.23814367996587,0.0866462593046249,-5.15149742066124,-2.66239496963525,5.19482055031355,-2.53242558067831
1.7863321799308,4.54844287281114,0.0878035543042573,-4.46063931850689,-2.3181232135577,4.50454109565902,-2.18641788210131
1.78849480968858,2.70388279345615,0.0883577107764049,-2.61552508267975,-1.39612025211628,2.65970393806795,-1.26358368595167
1.79065743944637,-0.0326337158785392,0.0861325211601279,0.118766237038667,-0.0267494026407943,-0.0756999764586032,0.102449379099398
1.79282006920415,-3.27957188604308,0.0783138374354435,3.35788572347852,1.60062902430382,-3.3187288047608,1.71809978045698
1.79498269896194,-6.54421642334709,0.061817908286642,6.60603433163373,3.24119925753022,-6.57512537749041,3.33392611996019
1.79714532871972,-9.30979768968862,0.034185431163603,9.34398312085223,4.63780612926251,-9.32689040527042,4.68908427600791
1.79930795847751,-11.1850232173731,-0.00477195921722737,11.1802512581559,5.59489758829517,-11.1826372377645,5.58773964946933
1.80147058823529,-12.0175441834313,-0.0504484643872271,11.9670957190441,6.03399632390926,-11.9923199512377,5.95832362732842
1.80363321799308,-11.8522690309943,-0.0901797503442453,11.76208928065,5.97122439066927,-11.8071791558222,5.8359547651529
1.80579584775087,-10.7566088693878,-0.105541194595715,10.6510676747921,5.43107503199176,-10.70383827209,5.27276324009819
1.80795847750865,-8.74092484254763,-0.0869096691973388,8.65401517335029,4.41391725587248,-8.69747000794896,4.28355275207648
1.81012110726644,-5.90933471401047,-0.0440252002382535,5.86530951377222,2.97667995712436,-5.88732211389134,2.91064215676698
1.81228373702422,-2.63177137553538,0.00427056011140373,2.63604193564678,1.31375040771199,-2.63390665559108,1.32015624787909
1.81444636678201,0.532819236551575,0.0443248008430764,-0.488494435708498,-0.288572018697326,0.510656836130037,-0.222084817432711
1.81660899653979,3.11156779973925,0.0697837040779881,-3.04178409566126,-1.59067575190862,3.07667594770025,-1.48600019579164
1.81877162629758,4.90685449237561,0.0783246090095779,-4.82852988336604,-2.4925895506926,4.86769218787083,-2.37510263717823
1.82093425605536,5.97195021303966,0.0694733583233139,-5.90247685471635,-3.02071178568149,5.937213533878,-2.91650174819652
1.82309688581315,6.48358507625325,0.0438504880342239,-6.43973458821903,-3.26371778214374,6.46165983223614,-3.1979420500924
1.82525951557093,6.62804075922963,0.0039350768070035,-6.62410568242263,-3.31598791801832,6.62607322082613,-3.31008530280781
1.82742214532872,6.55412077503921,-0.0437564994869065,-6.59787727452612,-3.25518213777615,6.57599902478266,-3.32081688700651
1.82958477508651,6.3788806692595,-0.085434577613662,-6.46431524687316,-3.14672304582292,6.42159795806633,-3.27487491224341
1.83174740484429,6.18672588851024,-0.102219027808053,-6.28894491631829,-3.04225343035109,6.23783540241427,-3.19558197206317
1.83391003460208,6.02833157916051,-0.0845512765522092,-6.11288285571272,-2.97189015130415,6.07060721743662,-3.09871706613247
1.83607266435986,5.93450958784724,-0.0426224218117581,-5.977132009659,-2.94594358301774,5.95582079875312,-3.00987721573538
1.83823529411765,5.91682143112781,0.00400341795487613,-5.91281801317293,-2.96041242454134,5.91481972215037,-2.95440729760903
1.84039792387543,5.9577808261278,0.0408103838446699,-5.91697044228313,-2.99929560498624,5.93737563420547,-2.93808002921923
1.84256055363322,6.01861952938593,0.0606454087255399,-5.95797412066039,-3.03963246905573,5.98829682502316,-2.94866435596743
1.844723183391,6.07142564194152,0.0607945560970329,-6.01063108584448,-3.06611009901927,6.041028363893,-2.97491826487373
1.84688581314879,6.11743272128671,0.0413362903339899,-6.07609643095272,-3.07938450581035,6.09676457611972,-3.01738007030937
1.84904844290657,6.16446111823497,0.00511853056751305,-6.15934258766746,-3.08478982440124,6.16190185295122,-3.07711202854997
1.85121107266436,6.20457177146528,-0.040646268325019,-6.24521803979029,-3.08196275157013,6.22489490562779,-3.14293215405766
1.85337370242215,6.21531988685269,-0.0815239346955318,-6.29684382154822,-3.06689797607858,6.25608185420046,-3.18918387812188
1.85553633217993,6.17388232239232,-0.0982558072587163,-6.27213812965103,-3.0378132575668,6.22301022602167,-3.18519696845487
1.85769896193772,6.08524758886716,-0.0812664787055554,-6.16651406757272,-3.0019905550808,6.12588082821994,-3.12389027313914
1.8598615916955,5.99072036341377,-0.0410976253770369,-6.03181798879081,-2.97481136901837,6.01126917610229,-3.03645780708392
1.86202422145329,5.93302466906113,0.00205174855603835,-5.93097292050509,-2.96753820880858,5.93199879478311,-2.96446058597453
1.86418685121107,5.92185023268102,0.0329454123393405,-5.88890482034168,-2.97739782251018,5.90537752651135,-2.92797970400117
1.86634948096886,5.9321570617886,0.043984762944038,-5.88817229884457,-2.98807091236632,5.91016468031659,-2.92209376795026
1.86851211072664,5.92877180536452,0.0328507801280284,-5.89592102523649,-2.98081129274627,5.91234641530051,-2.93153512255423
1.87067474048443,5.89532062305645,0.00163454243916117,-5.89368608061729,-2.94847758274781,5.89450335183687,-2.94602576908906
1.87283737024221,5.84051693290046,-0.0422798613670096,-5.88279679426747,-2.89911853576673,5.86165686358397,-2.96253832781724
1.875,5.78860134471414,-0.0838239129454939,-5.87242525765964,-2.85238871588432,5.83051330118689,-2.97812458530256
1.87716262975779,5.77077912557333,-0.102848680576427,-5.87362780614976,-2.83396522249845,5.82220346586155,-2.98823824336309
1.87932525951557,5.81027930044001,-0.0886256323132772,-5.89890493275329,-2.86082683406337,5.85459211659665,-2.99376528253328
1.88148788927336,5.91047141009114,-0.0501413140896096,-5.96061272418075,-2.93016504800077,5.93554206713595,-3.00537701913518
1.88365051903114,6.06170393743009,-0.00547966263098704,-6.06718360006108,-3.02811213739955,6.06444376874559,-3.03633163134603
1.88581314878893,6.24339683139722,0.0328236169237542,-6.21057321447347,-3.13811022416049,6.22698502293534,-3.08887479877486
1.88797577854671,6.40508040460031,0.0601548474323137,-6.344925557168,-3.23261762601631,6.37500298088416,-3.14238535486784
1.8901384083045,6.45214955040814,0.076608980000326,-6.37554057040781,-3.26437926520423,6.41384506040797,-3.14946579520374
1.89230103806228,6.25316549838801,0.0844903947151674,-6.16867510367284,-3.16882794655159,6.21092030103043,-3.04209235447884
1.89446366782007,5.6598189331538,0.0866705481339773,-5.57314838501983,-2.87324474064389,5.61648365908682,-2.74323891844293
1.89662629757785,4.5275696588262,0.0856920254123177,-4.44187763341388,-2.30663084211926,4.48472364612004,-2.17809280400078
1.89878892733564,2.76059366420058,0.0834117251335914,-2.67718193906699,-1.42200269466709,2.71888780163379,-1.2968851069667
1.90095155709343,0.419913786075153,0.0809732186314156,-0.338940567443737,-0.250443502353284,0.379427176759445,-0.128983674406161
1.90311418685121,-2.19977866388769,0.0789408454709313,2.27871950935862,1.06041890920838,-2.23924908662316,1.17883017741478
1.905276816609,-4.69404639339368,0.0774832800920564,4.77152967348573,2.30828155665081,-4.73278803343971,2.42450647678889
1.90743944636678,-6.77897449579414,0.0765440617284079,6.85551855752255,3.35121521703287,-6.81724652665834,3.46603130962548
1.90960207612457,-8.32084892621958,0.0759734030181071,8.39682232923769,4.12243776160074,-8.35883562772864,4.2363978661279
1.91176470588235,-9.14949778111784,0.0756184403397074,9.22511622145755,4.53693967038907,-9.18730700128769,4.65036733089863
1.91392733564014,-8.98016723431079,0.0753801041558061,9.05554733846659,4.45239356507749,-9.01785728638869,4.5654637213112
1.91608996539792,-7.62338657708579,0.0752470885077752,7.69863366559357,3.77406974428901,-7.66101012133968,3.88694037705067
1.91825259515571,-5.27426942035374,0.0753138859823469,5.34958330633609,2.5994777671857,-5.31192636334492,2.71244859615922
1.92041522491349,-2.54547788448677,0.075782826251306,2.62126071073807,1.23484752911773,-2.58336929761242,1.34852176849469
1.92257785467128,-0.184278097637051,0.0769413893280152,0.261219486965066,0.053668354154518,-0.222748792301059,0.169080438146541
1.92474048442907,1.26358542099093,0.0790977404887158,-1.18448768050222,-0.671341580739824,1.22403655074657,-0.55269497000675
1.92690311418685,1.56676125354729,0.082452208079317,-1.48430904546798,-0.824606730813306,1.52553514950764,-0.70092841869433
1.92906574394464,0.672536860826884,0.0868844193654666,-0.585652441461418,-0.379710640096176,0.629094651144151,-0.249384011047976
1.93122837370242,-1.44353261817272,0.0916507363050265,1.53518335447774,0.675940940933846,-1.48935798632523,0.813417045391385
1.93339100346021,-4.72398773538271,0.0950212702259645,4.81900900560867,2.31448323257837,-4.77149837049569,2.45701513791732
1.93555363321799,-8.81833439523326,0.0939461742521015,8.91228056948537,4.36219411049058,-8.86530748235932,4.50311337186873
1.93771626297578,-12.9314680323822,0.0839289600009574,13.0153969923831,6.42376953619061,-12.9734325123827,6.54966297619204
1.93987889273356,-15.9262887577348,0.0593922640753008,15.9856810218101,7.93344824682977,-15.9559848897725,8.02253664294272
1.94204152249135,-16.7523930821118,0.0149234274830264,16.7673165095948,8.36873482731439,-16.7598547958533,8.39111996853893
1.94420415224914,-14.9997993086164,-0.0521675721345788,14.9476317364818,7.52598344037548,-14.9737155225491,7.44773208217361
1.94636678200692,-11.167851405959,-0.137639741112694,11.0302116648463,5.65274557353586,-11.0990315354027,5.44628596186682
1.94852941176471,-6.45426574380792,-0.224472018174122,6.2297937256338,3.33936888099102,-6.34202973472086,3.00266085372984
1.95069204152249,-2.23633627676795,-0.281800559395483,1.95453571737247,1.25906841808172,-2.09543599707021,0.836367578988492
1.95285467128028,0.440991051949894,-0.281630205293332,-0.722621257243226,-0.0796804233282809,0.58180615459656,-0.502125731268279
1.95501730103806,1.10066759553878,-0.223745880130734,-1.32441347566951,-0.438460857704023,1.21254053560415,-0.774079677900124
1.95717993079585,-0.200307007841786,-0.135745247290038,0.0645617605517484,0.168026127565912,-0.132434384196767,-0.0355917433691448
1.95934256055363,-2.94666341783427,-0.0482102311541957,2.89845318668007,1.49743682449423,-2.92255830225717,1.42512147776294
1.96150519031142,-6.2604275808708,0.021872737541131,6.28230031841194,3.11927742166484,-6.27136394964137,3.15208652797653
1.9636678200692,-9.13702682532377,0.0698518016573285,9.2068786269811,4.53358751183322,-9.17195272615244,4.63836521431922
1.96583044982699,-10.7624947907893,0.0973047735512426,10.8597995643406,5.33259500861905,-10.811147177565,5.47855216894591
1.96799307958478,-10.7622790671785,0.107570162694731,10.8698492298732,5.32735445224188,-10.8160641485258,5.48870969628397
1.97015570934256,-9.25874407153218,0.103040977184854,9.36178504871704,4.57785154717367,-9.31026456012461,4.73241301295095
1.97231833910035,-6.71113205378432,0.0840810781158169,6.79521313190014,3.31352548783425,-6.75317259284223,3.43964710500798
1.97448096885813,-3.68438066511997,0.0494117507211744,3.73379241584114,1.8174844571994,-3.70908654048055,1.89160208328116
1.97664359861592,-0.683882594712692,-0.0020880468851625,0.68179454782753,0.342985320798927,-0.682838571270111,0.339853250471184
1.9788062283737,1.92270541467671,-0.0681602828339553,-1.99086569751066,-0.927272565921375,1.95678555609368,-1.02951299017231
1.98096885813149,3.92652395104557,-0.13861821545825,-4.06514216650382,-1.89395286779366,3.99583305877469,-2.10188019098103
1.98313148788927,5.27365051008586,-0.195636275517499,-5.46928678560336,-2.53900711728418,5.37146864784461,-2.83246153056043
1.98529411764706,6.02713838208028,-0.225476323770468,-6.25261470585075,-2.90083102915491,6.13987654396552,-3.23904551481061
1.98745674740484,6.30785017972944,-0.225503720637487,-6.53335390036692,-3.04117322954597,6.42060204004818,-3.3794288105022
1.98961937716263,6.25173210138276,-0.195946235418987,-6.44767833680174,-3.02789293298189,6.34970521909225,-3.32181228611037
1.99178200692042,5.99216825167685,-0.139881397631032,-6.13204964930788,-2.92614342702291,6.06210895049237,-3.13596552346946
1.9939446366782,5.66178904135145,-0.071432312398001,-5.73322135374945,-2.79517836447673,5.69750519755045,-2.90232683307373
1.99610726643599,5.38441660521899,-0.00864874257024459,-5.39306534778923,-2.68788393132437,5.38874097650411,-2.70085704517974
1.99826989619377,5.24555602495263,0.0384084041279127,-5.20714762082471,-2.64198221454027,5.22635182288867,-2.5843696083484
2.00043252595156,5.26606230267414,0.0682415811953281,-5.19782072147881,-2.66715194193473,5.23194151207647,-2.56478957014174
2.00259515570934,5.39553700886497,0.0837182702127545,-5.31181873865222,-2.73962763953886,5.35367787375859,-2.61405023421973
2.00475778546713,5.52964185081088,0.0891770366621293,-5.44046481414875,-2.8094094437365,5.48505333247981,-2.67564388874331
2.00692041522491,5.53781092763574,0.0887520169182662,-5.44905891071747,-2.813281472277,5.49343491917661,-2.6801534468996
2.0090830449827,5.27506625111996,0.0856221438688489,-5.18944410725111,-2.6803441974944,5.23225517918554,-2.55191098169113
2.01124567474048,4.58911223173065,0.081854055799523,-4.50725817593113,-2.33548314376509,4.54818520383089,-2.2127020600658
2.01340830449827,3.3696033433162,0.0785586860819355,-3.29104465723426,-1.72408101469907,3.33032400027523,-1.60624298557616
2.01557093425606,1.62772564809253,0.0761638411718418,-1.55156180692069,-0.851944744632185,1.58964372750661,-0.737698982874423
2.01773356401384,-0.422796091521228,0.0746850910677759,0.497481182589004,0.174055500226726,-0.460138637055116,0.28608313682839
2.01989619377163,-2.29487490375557,0.0739396124369541,2.36881451619252,1.11046764565931,-2.33184470997405,1.22137706431474
2.02205882352941,-3.3276538205088,0.0736886213637065,3.40134244187251,1.62698259957255,-3.36449813119065,1.73751553161811
2.0242214532872,-3.06308453713968,0.0737164237385246,3.13680096087821,1.49468405670058,-3.09994274900894,1.60525869230836
2.02638408304498,-1.60136547317234,0.0738630447063498,1.67522851787869,0.763751214232997,-1.63829699552552,0.874545781292521
2.02854671280277,0.454005037459851,0.0740281059072221,-0.379976931552629,-0.264016571683536,0.41699098450624,-0.152974412822703
2.03070934256055,2.39343236184146,0.0741602853124608,-2.319272076529,-1.23379632357696,2.35635221918523,-1.12255589560827
2.03287197231834,3.71097960370324,0.0742421396388423,-3.6367374640644,-1.89261087167104,3.67385853388382,-1.78124766221278
2.03503460207612,4.13938969075092,0.0742758823712435,-4.06511380837968,-2.10683278656108,4.1022517495653,-1.99541896300422
2.03719723183391,3.57943902848602,0.0742725671456815,-3.50516646134034,-1.82685579781585,3.54230274491318,-1.71544694709733
2.0393598615917,2.07165960096555,0.0742451298939051,-1.99741447107164,-1.07295236542973,2.03453703601859,-0.961584670588868
2.04152249134948,-0.150388603143654,0.0742047044462895,0.224593307589943,0.0380919493486821,-0.187490955366798,0.149399006018116
2.04368512110727,-2.57770457075176,0.0741592566853369,2.65186382743709,1.25177265703321,-2.61478419909442,1.36301154206121
2.04584775086505,-4.48271957121261,0.0741136060909772,4.55683317730358,2.20430298256081,-4.51977637425809,2.31547339169728
2.04801038062284,-5.19817595778678,0.0740701080277888,5.27224606581457,2.5620529248795,-5.23521101180067,2.67315808692118
2.05017301038062,-4.47404179785224,0.0740295166599917,4.54807131451223,2.20000614059612,-4.51105655618223,2.31105041558611
2.05233564013841,-2.65022778424872,0.0739917618428846,2.7242195460916,1.28811801120292,-2.68722366517016,1.39910565396724
2.05449826989619,-0.475447023883376,0.073956524356796,0.549403548240172,0.20074524976329,-0.512425286061774,0.311680036298484
2.05666089965398,1.28285864287723,0.0739235811138735,-1.20893506176336,-0.678391111995552,1.24589685232029,-0.567505740324741
2.05882352941176,2.11246306093413,0.073892928561829,-2.0385701323723,-1.09317799474798,2.07551659665321,-0.982338601905234
2.06098615916955,1.82531172222225,0.0738646971659473,-1.75144702505631,-0.9495882096941,1.78837937363928,-0.838791163945179
2.06314878892734,0.566324519775769,0.073838862489402,-0.492485657286367,-0.320081691132585,0.529405088531068,-0.209323397398482
2.06531141868512,-1.20430107416461,0.0738147584848206,1.27811583264943,0.565243157839895,-1.24120845340702,0.675965295567126
2.06747404844291,-2.86408684672205,0.0737904246757309,2.93787727139778,1.39514821102316,-2.90098205905992,1.50583384803676
2.06963667820069,-3.89803915402216,0.073761887380133,3.9718010414023,1.91213863332102,-3.93492009771223,2.02278146439122
2.07179930795848,-4.09807391288484,0.0737225969928341,4.17179650987767,2.012175657946,-4.13493521138125,2.12275955343525
2.07396193771626,-3.56770224273206,0.0736634172280183,3.64136565996008,1.74701941275202,-3.60453395134607,1.85751453859405
2.07612456747405,-2.58476365130664,0.0735737633897822,2.65833741469643,1.25559494395843,-2.62155053300154,1.3659555890431
2.07828719723183,-1.43482343430408,0.0734446527398169,1.5082680870439,0.680689390782131,-1.47154576067399,0.790856369891856
2.08044982698962,-0.308063880906644,0.0732744461743045,0.381338327080949,0.11739471736617,-0.344701103993796,0.227306386627627
2.0826124567474,0.640675108504972,0.073077751590193,-0.567597356914779,-0.356876430047583,0.604136232709875,-0.247259802662293
2.08477508650519,1.15790125967357,0.0728970991063454,-1.08500416056722,-0.615399179389955,1.12145271012039,-0.506053530730437
2.08693771626298,0.950262064754213,0.0728153508399911,-0.877446713914222,-0.511538707797102,0.913854389334217,-0.402315681537115
