t,leadI,leadII,leadIII,aVR,aVL,aVF
0,1022,509,-513,-765.5,767.5,-2
0.00216262975778547,1021,509,-512,-765,766.5,-1.5
0.00432525951557093,1021,509,-512,-765,766.5,-1.5
0.0064878892733564,1020,509,-511,-764.5,765.5,-1
0.00865051903114187,1020,509,-511,-764.5,765.5,-1
0.0108131487889273,1022,509,-513,-765.5,767.5,-2
0.0129757785467128,1023,508,-515,-765.5,769,-3.5
0.0151384083044983,1021,509,-512,-765,766.5,-1.5
0.0173010380622837,1021,509,-512,-765,766.5,-1.5
0.0194636678200692,1020,509,-511,-764.5,765.5,-1
0.0216262975778547,1022,509,-513,-765.5,767.5,-2
0.0237889273356401,1022,509,-513,-765.5,767.5,-2
0.0259515570934256,1019,509,-510,-764,764.5,-0.5
0.0281141868512111,1019,509,-510,-764,764.5,-0.5
0.0302768166089965,1020,509,-511,-764.5,765.5,-1
0.032439446366782,1023,509,-514,-766,768.5,-2.5
0.0346020761245675,1022,509,-513,-765.5,767.5,-2
0.0367647058823529,1019,509,-510,-764,764.5,-0.5
0.0389273356401384,1020,509,-511,-764.5,765.5,-1
0.0410899653979239,1020,509,-511,-764.5,765.5,-1
0.0432525951557093,1020,509,-511,-764.5,765.5,-1
0.0454152249134948,1023,508,-515,-765.5,769,-3.5
0.0475778546712803,1021,509,-512,-765,766.5,-1.5
0.0497404844290657,1021,509,-512,-765,766.5,-1.5
0.0519031141868512,1021,509,-512,-765,766.5,-1.5
0.0540657439446367,1021,509,-512,-765,766.5,-1.5
0.0562283737024221,1021,509,-512,-765,766.5,-1.5
0.0583910034602076,1021,509,-512,-765,766.5,-1.5
0.0605536332179931,1021,509,-512,-765,766.5,-1.5
0.0627162629757786,1010,509,-501,-759.5,755.5,4
0.064878892733564,995,509,-486,-752,740.5,11.5
0.0670415224913495,992,509,-483,-750.5,737.5,13
0.069204152249135,989,508,-481,-748.5,735,13.5
0.0713667820069204,984,509,-475,-746.5,729.5,17
0.0735294117647059,985,509,-476,-747,730.5,16.5
0.0756920415224914,992,509,-483,-750.5,737.5,13
0.0778546712802768,996,509,-487,-752.5,741.5,11
0.0800173010380623,1002,509,-493,-755.5,747.5,8
0.0821799307958478,1002,509,-493,-755.5,747.5,8
0.0843425605536332,1010,509,-501,-759.5,755.5,4
0.0865051903114187,1021,509,-512,-765,766.5,-1.5
0.0886678200692042,1021,509,-512,-765,766.5,-1.5
0.0908304498269896,1019,509,-510,-764,764.5,-0.5
0.0929930795847751,1016,509,-507,-762.5,761.5,1
0.0951557093425606,1002,509,-493,-755.5,747.5,8
0.097318339100346,989,509,-480,-749,734.5,14.5
0.0994809688581315,982,509,-473,-745.5,727.5,18
0.101643598615917,981,509,-472,-745,726.5,18.5
0.103806228373702,992,508,-484,-750,738,12
0.105968858131488,999,509,-490,-754,744.5,9.5
0.108131487889273,1005,509,-496,-757,750.5,6.5
0.110294117647059,1005,509,-496,-757,750.5,6.5
0.112456747404844,1003,509,-494,-756,748.5,7.5
0.11461937716263,1002,509,-493,-755.5,747.5,8
0.116782006920415,994,509,-485,-751.5,739.5,12
0.118944636678201,991,508,-483,-749.5,737,12.5
0.121107266435986,991,509,-482,-750,736.5,13.5
0.123269896193772,988,509,-479,-748.5,733.5,15
0.125432525951557,983,509,-474,-746,728.5,17.5
0.127595155709343,988,509,-479,-748.5,733.5,15
0.129757785467128,1005,509,-496,-757,750.5,6.5
0.131920415224913,1023,508,-515,-765.5,769,-3.5
0.134083044982699,1023,508,-515,-765.5,769,-3.5
0.136245674740484,1023,509,-514,-766,768.5,-2.5
0.13840830449827,1023,508,-515,-765.5,769,-3.5
0.140570934256055,1021,509,-512,-765,766.5,-1.5
0.142733564013841,1020,509,-511,-764.5,765.5,-1
0.144896193771626,1021,509,-512,-765,766.5,-1.5
0.147058823529412,1021,509,-512,-765,766.5,-1.5
0.149221453287197,1021,509,-512,-765,766.5,-1.5
0.151384083044983,1020,508,-512,-764,766,-2
0.153546712802768,1023,508,-515,-765.5,769,-3.5
0.155709342560554,1022,509,-513,-765.5,767.5,-2
0.157871972318339,1022,509,-513,-765.5,767.5,-2
0.160034602076125,1019,509,-510,-764,764.5,-0.5
0.16219723183391,1021,509,-512,-765,766.5,-1.5
0.164359861591696,1022,509,-513,-765.5,767.5,-2
0.166522491349481,1022,509,-513,-765.5,767.5,-2
0.168685121107266,1023,509,-514,-766,768.5,-2.5
0.170847750865052,1008,509,-499,-758.5,753.5,5
0.173010380622837,1002,509,-493,-755.5,747.5,8
0.175173010380623,1003,508,-495,-755.5,749,6.5
0.177335640138408,1010,509,-501,-759.5,755.5,4
0.179498269896194,1018,509,-509,-763.5,763.5,0
0.181660899653979,1021,509,-512,-765,766.5,-1.5
0.183823529411765,1021,509,-512,-765,766.5,-1.5
0.18598615916955,1021,509,-512,-765,766.5,-1.5
0.188148788927336,1020,509,-511,-764.5,765.5,-1
0.190311418685121,1021,509,-512,-765,766.5,-1.5
0.192474048442907,1020,509,-511,-764.5,765.5,-1
0.194636678200692,1017,509,-508,-763,762.5,0.5
0.196799307958478,1005,509,-496,-757,750.5,6.5
0.198961937716263,998,509,-489,-753.5,743.5,10
0.201124567474048,1001,509,-492,-755,746.5,8.5
0.203287197231834,1004,509,-495,-756.5,749.5,7
0.205449826989619,1006,509,-497,-757.5,751.5,6
0.207612456747405,1007,508,-499,-757.5,753,4.5
0.20977508650519,1005,509,-496,-757,750.5,6.5
0.211937716262976,1006,509,-497,-757.5,751.5,6
0.214100346020761,1010,509,-501,-759.5,755.5,4
0.216262975778547,1010,509,-501,-759.5,755.5,4
0.218425605536332,1006,509,-497,-757.5,751.5,6
0.220588235294118,1002,508,-494,-755,748,7
0.222750865051903,1005,509,-496,-757,750.5,6.5
0.224913494809689,1008,509,-499,-758.5,753.5,5
0.227076124567474,1009,509,-500,-759,754.5,4.5
0.22923875432526,1006,508,-498,-757,752,5
0.231401384083045,1001,509,-492,-755,746.5,8.5
0.23356401384083,996,509,-487,-752.5,741.5,11
0.235726643598616,989,509,-480,-749,734.5,14.5
0.237889273356401,1003,509,-494,-756,748.5,7.5
0.240051903114187,1010,509,-501,-759.5,755.5,4
0.242214532871972,1014,509,-505,-761.5,759.5,2
0.244377162629758,1013,509,-504,-761,758.5,2.5
0.246539792387543,1009,509,-500,-759,754.5,4.5
0.248702422145329,1003,509,-494,-756,748.5,7.5
0.250865051903114,995,509,-486,-752,740.5,11.5
0.2530276816609,998,509,-489,-753.5,743.5,10
0.255190311418685,1011,509,-502,-760,756.5,3.5
0.257352941176471,1023,509,-514,-766,768.5,-2.5
0.259515570934256,1022,509,-513,-765.5,767.5,-2
0.261678200692042,1020,509,-511,-764.5,765.5,-1
0.263840830449827,1021,509,-512,-765,766.5,-1.5
0.266003460207612,1022,509,-513,-765.5,767.5,-2
0.268166089965398,1021,509,-512,-765,766.5,-1.5
0.270328719723183,1019,509,-510,-764,764.5,-0.5
0.272491349480969,1020,509,-511,-764.5,765.5,-1
0.274653979238754,1020,509,-511,-764.5,765.5,-1
0.27681660899654,1011,509,-502,-760,756.5,3.5
0.278979238754325,1013,509,-504,-761,758.5,2.5
0.281141868512111,1013,509,-504,-761,758.5,2.5
0.283304498269896,1017,509,-508,-763,762.5,0.5
0.285467128027682,1021,509,-512,-765,766.5,-1.5
0.287629757785467,1021,509,-512,-765,766.5,-1.5
0.289792387543253,1022,508,-514,-765,768,-3
0.291955017301038,1022,509,-513,-765.5,767.5,-2
0.294117647058824,1022,509,-513,-765.5,767.5,-2
0.296280276816609,1021,509,-512,-765,766.5,-1.5
0.298442906574394,1023,509,-514,-766,768.5,-2.5
0.30060553633218,1022,509,-513,-765.5,767.5,-2
0.302768166089965,1021,509,-512,-765,766.5,-1.5
0.304930795847751,1021,509,-512,-765,766.5,-1.5
0.307093425605536,1020,509,-511,-764.5,765.5,-1
0.309256055363322,1021,509,-512,-765,766.5,-1.5
0.311418685121107,1023,508,-515,-765.5,769,-3.5
0.313581314878893,1021,509,-512,-765,766.5,-1.5
0.315743944636678,1021,509,-512,-765,766.5,-1.5
0.317906574394464,1021,509,-512,-765,766.5,-1.5
0.320069204152249,1020,509,-511,-764.5,765.5,-1
0.322231833910035,1023,509,-514,-766,768.5,-2.5
0.32439446366782,1020,509,-511,-764.5,765.5,-1
0.326557093425606,1022,509,-513,-765.5,767.5,-2
0.328719723183391,1021,509,-512,-765,766.5,-1.5
0.330882352941176,1023,509,-514,-766,768.5,-2.5
0.333044982698962,1022,509,-513,-765.5,767.5,-2
0.335207612456747,1021,509,-512,-765,766.5,-1.5
0.337370242214533,1023,509,-514,-766,768.5,-2.5
0.339532871972318,1021,509,-512,-765,766.5,-1.5
0.341695501730104,1022,509,-513,-765.5,767.5,-2
0.343858131487889,1021,509,-512,-765,766.5,-1.5
0.346020761245675,1022,509,-513,-765.5,767.5,-2
0.34818339100346,1022,509,-513,-765.5,767.5,-2
0.350346020761246,1021,509,-512,-765,766.5,-1.5
0.352508650519031,1022,509,-513,-765.5,767.5,-2
0.354671280276817,1022,509,-513,-765.5,767.5,-2
0.356833910034602,1020,509,-511,-764.5,765.5,-1
0.358996539792388,1021,509,-512,-765,766.5,-1.5
0.361159169550173,1022,509,-513,-765.5,767.5,-2
0.363321799307958,1021,509,-512,-765,766.5,-1.5
0.365484429065744,1021,509,-512,-765,766.5,-1.5
0.367647058823529,1022,509,-513,-765.5,767.5,-2
0.369809688581315,1022,509,-513,-765.5,767.5,-2
0.3719723183391,1022,509,-513,-765.5,767.5,-2
0.374134948096886,1022,509,-513,-765.5,767.5,-2
0.376297577854671,1021,509,-512,-765,766.5,-1.5
0.378460207612457,1021,509,-512,-765,766.5,-1.5
0.380622837370242,1021,509,-512,-765,766.5,-1.5
0.382785467128028,1021,509,-512,-765,766.5,-1.5
0.384948096885813,1021,509,-512,-765,766.5,-1.5
0.387110726643599,1022,509,-513,-765.5,767.5,-2
0.389273356401384,1023,508,-515,-765.5,769,-3.5
0.39143598615917,1020,509,-511,-764.5,765.5,-1
0.393598615916955,1023,509,-514,-766,768.5,-2.5
0.395761245674741,1022,509,-513,-765.5,767.5,-2
0.397923875432526,1021,509,-512,-765,766.5,-1.5
0.400086505190311,1022,509,-513,-765.5,767.5,-2
0.402249134948097,1022,509,-513,-765.5,767.5,-2
0.404411764705882,1021,509,-512,-765,766.5,-1.5
0.406574394463668,1021,509,-512,-765,766.5,-1.5
0.408737024221453,1021,509,-512,-765,766.5,-1.5
0.410899653979239,1019,509,-510,-764,764.5,-0.5
0.413062283737024,1022,509,-513,-765.5,767.5,-2
0.41522491349481,1019,509,-510,-764,764.5,-0.5
0.417387543252595,1021,509,-512,-765,766.5,-1.5
0.419550173010381,1023,509,-514,-766,768.5,-2.5
0.421712802768166,1019,509,-510,-764,764.5,-0.5
0.423875432525952,1021,509,-512,-765,766.5,-1.5
0.426038062283737,1015,509,-506,-762,760.5,1.5
0.428200692041523,1009,509,-500,-759,754.5,4.5
0.430363321799308,1005,509,-496,-757,750.5,6.5
0.432525951557093,1018,509,-509,-763.5,763.5,0
0.434688581314879,1022,509,-513,-765.5,767.5,-2
0.436851211072664,1021,509,-512,-765,766.5,-1.5
0.43901384083045,1020,509,-511,-764.5,765.5,-1
0.441176470588235,1022,508,-514,-765,768,-3
0.443339100346021,1021,509,-512,-765,766.5,-1.5
0.445501730103806,1012,508,-504,-760,758,2
0.447664359861592,999,509,-490,-754,744.5,9.5
0.449826989619377,986,509,-477,-747.5,731.5,16
0.451989619377163,987,509,-478,-748,732.5,15.5
0.454152249134948,1000,509,-491,-754.5,745.5,9
0.456314878892734,1017,509,-508,-763,762.5,0.5
0.458477508650519,1021,509,-512,-765,766.5,-1.5
0.460640138408305,1021,509,-512,-765,766.5,-1.5
0.46280276816609,1019,509,-510,-764,764.5,-0.5
0.464965397923875,1010,509,-501,-759.5,755.5,4
0.467128027681661,1000,509,-491,-754.5,745.5,9
0.469290657439446,988,509,-479,-748.5,733.5,15
0.471453287197232,992,509,-483,-750.5,737.5,13
0.473615916955017,994,509,-485,-751.5,739.5,12
0.475778546712803,993,509,-484,-751,738.5,12.5
0.477941176470588,998,508,-490,-753,744,9
0.480103806228374,1004,508,-496,-756,750,6
0.482266435986159,1005,509,-496,-757,750.5,6.5
0.484429065743945,1012,508,-504,-760,758,2
0.48659169550173,1018,509,-509,-763.5,763.5,0
0.488754325259516,1010,509,-501,-759.5,755.5,4
0.490916955017301,998,508,-490,-753,744,9
0.493079584775087,987,509,-478,-748,732.5,15.5
0.495242214532872,979,509,-470,-744,724.5,19.5
0.497404844290657,985,509,-476,-747,730.5,16.5
0.499567474048443,1003,509,-494,-756,748.5,7.5
0.501730103806228,1020,509,-511,-764.5,765.5,-1
0.503892733564014,1021,509,-512,-765,766.5,-1.5
0.506055363321799,1021,509,-512,-765,766.5,-1.5
0.508217993079585,1021,509,-512,-765,766.5,-1.5
0.51038062283737,1021,509,-512,-765,766.5,-1.5
0.512543252595156,1013,509,-504,-761,758.5,2.5
0.514705882352941,1010,509,-501,-759.5,755.5,4
0.516868512110727,1016,509,-507,-762.5,761.5,1
0.519031141868512,1021,509,-512,-765,766.5,-1.5
0.521193771626298,1020,509,-511,-764.5,765.5,-1
0.523356401384083,1020,509,-511,-764.5,765.5,-1
0.525519031141868,1021,509,-512,-765,766.5,-1.5
0.527681660899654,1021,509,-512,-765,766.5,-1.5
0.529844290657439,1022,509,-513,-765.5,767.5,-2
0.532006920415225,1022,509,-513,-765.5,767.5,-2
0.53416955017301,1022,509,-513,-765.5,767.5,-2
0.536332179930796,1021,509,-512,-765,766.5,-1.5
0.538494809688581,1021,509,-512,-765,766.5,-1.5
0.540657439446367,1022,509,-513,-765.5,767.5,-2
0.542820069204152,1021,509,-512,-765,766.5,-1.5
0.544982698961938,1021,509,-512,-765,766.5,-1.5
0.547145328719723,1018,509,-509,-763.5,763.5,0
0.549307958477509,1007,509,-498,-758,752.5,5.5
0.551470588235294,995,509,-486,-752,740.5,11.5
0.55363321799308,996,509,-487,-752.5,741.5,11
0.555795847750865,1007,509,-498,-758,752.5,5.5
0.557958477508651,1013,509,-504,-761,758.5,2.5
0.560121107266436,1023,509,-514,-766,768.5,-2.5
0.562283737024222,1021,509,-512,-765,766.5,-1.5
0.564446366782007,1023,508,-515,-765.5,769,-3.5
0.566608996539792,1019,509,-510,-764,764.5,-0.5
0.568771626297578,1020,509,-511,-764.5,765.5,-1
0.570934256055363,1021,509,-512,-765,766.5,-1.5
0.573096885813149,1021,509,-512,-765,766.5,-1.5
0.575259515570934,1020,509,-511,-764.5,765.5,-1
0.57742214532872,1017,509,-508,-763,762.5,0.5
0.579584775086505,1015,509,-506,-762,760.5,1.5
0.581747404844291,1020,509,-511,-764.5,765.5,-1
0.583910034602076,1021,509,-512,-765,766.5,-1.5
0.586072664359862,1019,509,-510,-764,764.5,-0.5
0.588235294117647,1021,509,-512,-765,766.5,-1.5
0.590397923875433,1021,509,-512,-765,766.5,-1.5
0.592560553633218,1023,509,-514,-766,768.5,-2.5
0.594723183391003,1022,509,-513,-765.5,767.5,-2
0.596885813148789,1022,509,-513,-765.5,767.5,-2
0.599048442906574,1020,508,-512,-764,766,-2
0.60121107266436,1020,509,-511,-764.5,765.5,-1
0.603373702422145,1021,509,-512,-765,766.5,-1.5
0.605536332179931,1023,509,-514,-766,768.5,-2.5
0.607698961937716,1022,509,-513,-765.5,767.5,-2
0.609861591695502,1021,509,-512,-765,766.5,-1.5
0.612024221453287,1023,509,-514,-766,768.5,-2.5
0.614186851211073,1020,509,-511,-764.5,765.5,-1
0.616349480968858,1021,509,-512,-765,766.5,-1.5
0.618512110726644,1023,509,-514,-766,768.5,-2.5
0.620674740484429,1021,509,-512,-765,766.5,-1.5
0.622837370242215,1022,509,-513,-765.5,767.5,-2
0.625,1021,509,-512,-765,766.5,-1.5
0.627162629757785,1022,509,-513,-765.5,767.5,-2
0.629325259515571,1021,509,-512,-765,766.5,-1.5
0.631487889273356,1021,509,-512,-765,766.5,-1.5
0.633650519031142,1021,509,-512,-765,766.5,-1.5
0.635813148788927,1022,509,-513,-765.5,767.5,-2
0.637975778546713,1022,509,-513,-765.5,767.5,-2
0.640138408304498,1023,508,-515,-765.5,769,-3.5
0.642301038062284,1022,509,-513,-765.5,767.5,-2
0.644463667820069,1021,509,-512,-765,766.5,-1.5
0.646626297577855,1023,509,-514,-766,768.5,-2.5
0.64878892733564,1015,509,-506,-762,760.5,1.5
0.650951557093426,1020,509,-511,-764.5,765.5,-1
0.653114186851211,1021,509,-512,-765,766.5,-1.5
0.655276816608997,1021,509,-512,-765,766.5,-1.5
0.657439446366782,1023,509,-514,-766,768.5,-2.5
0.659602076124568,1022,509,-513,-765.5,767.5,-2
0.661764705882353,1022,509,-513,-765.5,767.5,-2
0.663927335640138,1021,509,-512,-765,766.5,-1.5
0.666089965397924,1019,509,-510,-764,764.5,-0.5
0.668252595155709,1019,509,-510,-764,764.5,-0.5
0.670415224913495,1013,509,-504,-761,758.5,2.5
0.67257785467128,1001,509,-492,-755,746.5,8.5
0.674740484429066,993,509,-484,-751,738.5,12.5
0.676903114186851,1002,509,-493,-755.5,747.5,8
0.679065743944637,1006,509,-497,-757.5,751.5,6
0.681228373702422,1009,509,-500,-759,754.5,4.5
0.683391003460208,1012,509,-503,-760.5,757.5,3
0.685553633217993,1014,509,-505,-761.5,759.5,2
0.687716262975779,1020,509,-511,-764.5,765.5,-1
0.689878892733564,1021,509,-512,-765,766.5,-1.5
0.69204152249135,1020,509,-511,-764.5,765.5,-1
0.694204152249135,1020,509,-511,-764.5,765.5,-1
0.69636678200692,1021,509,-512,-765,766.5,-1.5
0.698529411764706,1017,509,-508,-763,762.5,0.5
0.700692041522491,1013,509,-504,-761,758.5,2.5
0.702854671280277,1008,509,-499,-758.5,753.5,5
0.705017301038062,1008,509,-499,-758.5,753.5,5
0.707179930795848,1009,508,-501,-758.5,755,3.5
0.709342560553633,1006,508,-498,-757,752,5
0.711505190311419,1000,508,-492,-754,746,8
0.713667820069204,987,509,-478,-748,732.5,15.5
0.71583044982699,977,509,-468,-743,722.5,20.5
0.717993079584775,978,508,-470,-743,724,19
0.720155709342561,979,509,-470,-744,724.5,19.5
0.722318339100346,986,509,-477,-747.5,731.5,16
0.724480968858132,995,509,-486,-752,740.5,11.5
0.726643598615917,1007,509,-498,-758,752.5,5.5
0.728806228373702,1017,509,-508,-763,762.5,0.5
0.730968858131488,1021,509,-512,-765,766.5,-1.5
0.733131487889273,1022,509,-513,-765.5,767.5,-2
0.735294117647059,1021,509,-512,-765,766.5,-1.5
0.737456747404844,1020,509,-511,-764.5,765.5,-1
0.73961937716263,1019,509,-510,-764,764.5,-0.5
0.741782006920415,1022,509,-513,-765.5,767.5,-2
0.743944636678201,1022,509,-513,-765.5,767.5,-2
0.746107266435986,1022,509,-513,-765.5,767.5,-2
0.748269896193772,1022,509,-513,-765.5,767.5,-2
0.750432525951557,1021,509,-512,-765,766.5,-1.5
0.752595155709343,1023,508,-515,-765.5,769,-3.5
0.754757785467128,1020,509,-511,-764.5,765.5,-1
0.756920415224913,1021,509,-512,-765,766.5,-1.5
0.759083044982699,1021,509,-512,-765,766.5,-1.5
0.761245674740484,1022,509,-513,-765.5,767.5,-2
0.76340830449827,1021,509,-512,-765,766.5,-1.5
0.765570934256055,1021,509,-512,-765,766.5,-1.5
0.767733564013841,1022,509,-513,-765.5,767.5,-2
0.769896193771626,1021,509,-512,-765,766.5,-1.5
0.772058823529412,1021,509,-512,-765,766.5,-1.5
0.774221453287197,1013,509,-504,-761,758.5,2.5
0.776384083044983,1015,509,-506,-762,760.5,1.5
0.778546712802768,1021,509,-512,-765,766.5,-1.5
0.780709342560554,1021,509,-512,-765,766.5,-1.5
0.782871972318339,1020,509,-511,-764.5,765.5,-1
0.785034602076125,1021,509,-512,-765,766.5,-1.5
0.78719723183391,1022,509,-513,-765.5,767.5,-2
0.789359861591696,1021,509,-512,-765,766.5,-1.5
0.791522491349481,1021,508,-513,-764.5,767,-2.5
0.793685121107267,1020,509,-511,-764.5,765.5,-1
0.795847750865052,1011,509,-502,-760,756.5,3.5
0.798010380622837,1009,509,-500,-759,754.5,4.5
0.800173010380623,1007,509,-498,-758,752.5,5.5
0.802335640138408,1005,509,-496,-757,750.5,6.5
0.804498269896194,999,509,-490,-754,744.5,9.5
0.806660899653979,995,509,-486,-752,740.5,11.5
0.808823529411765,994,509,-485,-751.5,739.5,12
0.81098615916955,997,509,-488,-753,742.5,10.5
0.813148788927336,1003,509,-494,-756,748.5,7.5
0.815311418685121,1008,509,-499,-758.5,753.5,5
0.817474048442907,1013,509,-504,-761,758.5,2.5
0.819636678200692,1005,509,-496,-757,750.5,6.5
0.821799307958478,1001,509,-492,-755,746.5,8.5
0.823961937716263,1004,509,-495,-756.5,749.5,7
0.826124567474048,1006,508,-498,-757,752,5
0.828287197231834,1006,508,-498,-757,752,5
0.830449826989619,1019,509,-510,-764,764.5,-0.5
0.832612456747405,1021,509,-512,-765,766.5,-1.5
0.83477508650519,1015,509,-506,-762,760.5,1.5
0.836937716262976,1018,509,-509,-763.5,763.5,0
0.839100346020761,1019,509,-510,-764,764.5,-0.5
0.841262975778547,1021,509,-512,-765,766.5,-1.5
0.843425605536332,1021,509,-512,-765,766.5,-1.5
0.845588235294118,1017,509,-508,-763,762.5,0.5
0.847750865051903,1013,509,-504,-761,758.5,2.5
0.849913494809689,1017,509,-508,-763,762.5,0.5
0.852076124567474,1021,509,-512,-765,766.5,-1.5
0.85423875432526,1019,509,-510,-764,764.5,-0.5
0.856401384083045,1021,509,-512,-765,766.5,-1.5
0.85856401384083,1021,509,-512,-765,766.5,-1.5
0.860726643598616,1020,509,-511,-764.5,765.5,-1
0.862889273356401,1022,509,-513,-765.5,767.5,-2
0.865051903114187,1011,509,-502,-760,756.5,3.5
0.867214532871972,1003,509,-494,-756,748.5,7.5
0.869377162629758,995,509,-486,-752,740.5,11.5
0.871539792387543,997,509,-488,-753,742.5,10.5
0.873702422145329,1009,509,-500,-759,754.5,4.5
0.875865051903114,1021,509,-512,-765,766.5,-1.5
0.8780276816609,1021,509,-512,-765,766.5,-1.5
0.880190311418685,1021,509,-512,-765,766.5,-1.5
0.882352941176471,1021,509,-512,-765,766.5,-1.5
0.884515570934256,1020,509,-511,-764.5,765.5,-1
0.886678200692042,1022,509,-513,-765.5,767.5,-2
0.888840830449827,1021,509,-512,-765,766.5,-1.5
0.891003460207612,1022,509,-513,-765.5,767.5,-2
0.893166089965398,1021,509,-512,-765,766.5,-1.5
0.895328719723183,1021,509,-512,-765,766.5,-1.5
0.897491349480969,1022,509,-513,-765.5,767.5,-2
0.899653979238754,1020,509,-511,-764.5,765.5,-1
0.90181660899654,1022,509,-513,-765.5,767.5,-2
0.903979238754325,1023,509,-514,-766,768.5,-2.5
0.906141868512111,1023,509,-514,-766,768.5,-2.5
0.908304498269896,1022,509,-513,-765.5,767.5,-2
0.910467128027682,1023,509,-514,-766,768.5,-2.5
0.912629757785467,1019,509,-510,-764,764.5,-0.5
0.914792387543253,1019,509,-510,-764,764.5,-0.5
0.916955017301038,1022,509,-513,-765.5,767.5,-2
0.919117647058824,1022,509,-513,-765.5,767.5,-2
0.921280276816609,1020,509,-511,-764.5,765.5,-1
0.923442906574395,1021,509,-512,-765,766.5,-1.5
0.92560553633218,1022,509,-513,-765.5,767.5,-2
0.927768166089965,1020,509,-511,-764.5,765.5,-1
0.929930795847751,1021,509,-512,-765,766.5,-1.5
0.932093425605536,1022,509,-513,-765.5,767.5,-2
0.934256055363322,1022,509,-513,-765.5,767.5,-2
0.936418685121107,1021,509,-512,-765,766.5,-1.5
0.938581314878893,1021,509,-512,-765,766.5,-1.5
0.940743944636678,1020,509,-511,-764.5,765.5,-1
0.942906574394464,1021,509,-512,-765,766.5,-1.5
0.945069204152249,1021,509,-512,-765,766.5,-1.5
0.947231833910035,1022,509,-513,-765.5,767.5,-2
0.94939446366782,1021,509,-512,-765,766.5,-1.5
0.951557093425606,1022,508,-514,-765,768,-3
0.953719723183391,1021,509,-512,-765,766.5,-1.5
0.955882352941177,1023,509,-514,-766,768.5,-2.5
0.958044982698962,1022,509,-513,-765.5,767.5,-2
0.960207612456747,1020,509,-511,-764.5,765.5,-1
0.962370242214533,1021,509,-512,-765,766.5,-1.5
0.964532871972318,1022,508,-514,-765,768,-3
0.966695501730104,1021,509,-512,-765,766.5,-1.5
0.968858131487889,1021,508,-513,-764.5,767,-2.5
0.971020761245675,1023,509,-514,-766,768.5,-2.5
0.97318339100346,1022,509,-513,-765.5,767.5,-2
0.975346020761246,1021,509,-512,-765,766.5,-1.5
0.977508650519031,1021,509,-512,-765,766.5,-1.5
0.979671280276817,1022,509,-513,-765.5,767.5,-2
0.981833910034602,1022,509,-513,-765.5,767.5,-2
0.983996539792388,1021,509,-512,-765,766.5,-1.5
0.986159169550173,1023,508,-515,-765.5,769,-3.5
0.988321799307958,1022,509,-513,-765.5,767.5,-2
0.990484429065744,1021,509,-512,-765,766.5,-1.5
0.992647058823529,1021,509,-512,-765,766.5,-1.5
0.994809688581315,1021,509,-512,-765,766.5,-1.5
0.9969723183391,1021,509,-512,-765,766.5,-1.5
0.999134948096886,1021,509,-512,-765,766.5,-1.5
1.00129757785467,1021,509,-512,-765,766.5,-1.5
1.00346020761246,1020,509,-511,-764.5,765.5,-1
1.00562283737024,1021,509,-512,-765,766.5,-1.5
1.00778546712803,1022,509,-513,-765.5,767.5,-2
1.00994809688581,1021,509,-512,-765,766.5,-1.5
1.0121107266436,1020,509,-511,-764.5,765.5,-1
1.01427335640138,1021,509,-512,-765,766.5,-1.5
1.01643598615917,1021,509,-512,-765,766.5,-1.5
1.01859861591696,1022,509,-513,-765.5,767.5,-2
1.02076124567474,1021,509,-512,-765,766.5,-1.5
1.02292387543253,1021,509,-512,-765,766.5,-1.5
1.02508650519031,1020,508,-512,-764,766,-2
1.0272491349481,1021,509,-512,-765,766.5,-1.5
1.02941176470588,1022,509,-513,-765.5,767.5,-2
1.03157439446367,1020,509,-511,-764.5,765.5,-1
1.03373702422145,1023,508,-515,-765.5,769,-3.5
1.03589965397924,1020,509,-511,-764.5,765.5,-1
1.03806228373702,1022,509,-513,-765.5,767.5,-2
1.04022491349481,1021,509,-512,-765,766.5,-1.5
1.0423875432526,1021,509,-512,-765,766.5,-1.5
1.04455017301038,1021,509,-512,-765,766.5,-1.5
1.04671280276817,1015,509,-506,-762,760.5,1.5
1.04887543252595,1018,509,-509,-763.5,763.5,0
1.05103806228374,1020,509,-511,-764.5,765.5,-1
1.05320069204152,1022,509,-513,-765.5,767.5,-2
1.05536332179931,1020,509,-511,-764.5,765.5,-1
1.05752595155709,1020,509,-511,-764.5,765.5,-1
1.05968858131488,1016,509,-507,-762.5,761.5,1
1.06185121107266,1011,509,-502,-760,756.5,3.5
1.06401384083045,1004,509,-495,-756.5,749.5,7
1.06617647058824,995,509,-486,-752,740.5,11.5
1.06833910034602,984,509,-475,-746.5,729.5,17
1.07050173010381,984,509,-475,-746.5,729.5,17
1.07266435986159,1004,508,-496,-756,750,6
1.07482698961938,1015,509,-506,-762,760.5,1.5
1.07698961937716,1021,509,-512,-765,766.5,-1.5
1.07915224913495,1022,509,-513,-765.5,767.5,-2
1.08131487889273,1021,509,-512,-765,766.5,-1.5
1.08347750865052,1020,509,-511,-764.5,765.5,-1
1.0856401384083,1021,509,-512,-765,766.5,-1.5
1.08780276816609,1023,508,-515,-765.5,769,-3.5
1.08996539792388,1018,509,-509,-763.5,763.5,0
1.09212802768166,1015,509,-506,-762,760.5,1.5
1.09429065743945,1014,508,-506,-761,760,1
1.09645328719723,1010,509,-501,-759.5,755.5,4
1.09861591695502,1006,509,-497,-757.5,751.5,6
1.1007785467128,995,509,-486,-752,740.5,11.5
1.10294117647059,997,509,-488,-753,742.5,10.5
1.10510380622837,1007,509,-498,-758,752.5,5.5
1.10726643598616,1021,509,-512,-765,766.5,-1.5
1.10942906574394,1023,508,-515,-765.5,769,-3.5
1.11159169550173,1022,509,-513,-765.5,767.5,-2
1.11375432525952,1021,509,-512,-765,766.5,-1.5
1.1159169550173,1021,509,-512,-765,766.5,-1.5
1.11807958477509,1019,509,-510,-764,764.5,-0.5
1.12024221453287,1020,509,-511,-764.5,765.5,-1
1.12240484429066,1021,509,-512,-765,766.5,-1.5
1.12456747404844,1021,509,-512,-765,766.5,-1.5
1.12673010380623,1021,509,-512,-765,766.5,-1.5
1.12889273356401,1020,508,-512,-764,766,-2
1.1310553633218,1018,509,-509,-763.5,763.5,0
1.13321799307958,1021,509,-512,-765,766.5,-1.5
1.13538062283737,1022,509,-513,-765.5,767.5,-2
1.13754325259516,1021,509,-512,-765,766.5,-1.5
1.13970588235294,1022,509,-513,-765.5,767.5,-2
1.14186851211073,1022,509,-513,-765.5,767.5,-2
1.14403114186851,1020,509,-511,-764.5,765.5,-1
1.1461937716263,1022,509,-513,-765.5,767.5,-2
1.14835640138408,1022,509,-513,-765.5,767.5,-2
1.15051903114187,1021,509,-512,-765,766.5,-1.5
1.15268166089965,1022,509,-513,-765.5,767.5,-2
1.15484429065744,1019,509,-510,-764,764.5,-0.5
1.15700692041522,1021,509,-512,-765,766.5,-1.5
1.15916955017301,1018,509,-509,-763.5,763.5,0
1.1613321799308,1023,509,-514,-766,768.5,-2.5
1.16349480968858,1017,509,-508,-763,762.5,0.5
1.16565743944637,1013,509,-504,-761,758.5,2.5
1.16782006920415,1012,509,-503,-760.5,757.5,3
1.16998269896194,1023,509,-514,-766,768.5,-2.5
1.17214532871972,1021,509,-512,-765,766.5,-1.5
1.17430795847751,1021,509,-512,-765,766.5,-1.5
1.17647058823529,1021,509,-512,-765,766.5,-1.5
1.17863321799308,1019,509,-510,-764,764.5,-0.5
1.18079584775087,1022,509,-513,-765.5,767.5,-2
1.18295847750865,1021,509,-512,-765,766.5,-1.5
1.18512110726644,1021,509,-512,-765,766.5,-1.5
1.18728373702422,1022,509,-513,-765.5,767.5,-2
1.18944636678201,1023,509,-514,-766,768.5,-2.5
1.19160899653979,1020,509,-511,-764.5,765.5,-1
1.19377162629758,1020,509,-511,-764.5,765.5,-1
1.19593425605536,1022,509,-513,-765.5,767.5,-2
1.19809688581315,1021,509,-512,-765,766.5,-1.5
1.20025951557093,1021,509,-512,-765,766.5,-1.5
1.20242214532872,1022,509,-513,-765.5,767.5,-2
1.20458477508651,1021,509,-512,-765,766.5,-1.5
1.20674740484429,1021,509,-512,-765,766.5,-1.5
1.20891003460208,1022,509,-513,-765.5,767.5,-2
1.21107266435986,1022,509,-513,-765.5,767.5,-2
1.21323529411765,1021,509,-512,-765,766.5,-1.5
1.21539792387543,1022,509,-513,-765.5,767.5,-2
1.21756055363322,1021,509,-512,-765,766.5,-1.5
1.219723183391,1023,508,-515,-765.5,769,-3.5
1.22188581314879,1022,509,-513,-765.5,767.5,-2
1.22404844290657,1021,509,-512,-765,766.5,-1.5
1.22621107266436,1021,509,-512,-765,766.5,-1.5
1.22837370242215,1023,509,-514,-766,768.5,-2.5
1.23053633217993,1020,509,-511,-764.5,765.5,-1
1.23269896193772,1021,509,-512,-765,766.5,-1.5
1.2348615916955,1020,509,-511,-764.5,765.5,-1
1.23702422145329,1021,509,-512,-765,766.5,-1.5
1.23918685121107,1021,509,-512,-765,766.5,-1.5
1.24134948096886,1021,509,-512,-765,766.5,-1.5
1.24351211072664,1021,509,-512,-765,766.5,-1.5
1.24567474048443,1022,508,-514,-765,768,-3
1.24783737024221,1022,509,-513,-765.5,767.5,-2
1.25,1022,509,-513,-765.5,767.5,-2
1.25216262975779,1021,509,-512,-765,766.5,-1.5
1.25432525951557,1021,509,-512,-765,766.5,-1.5
1.25648788927336,1022,509,-513,-765.5,767.5,-2
1.25865051903114,1021,509,-512,-765,766.5,-1.5
1.26081314878893,1022,509,-513,-765.5,767.5,-2
1.26297577854671,1022,509,-513,-765.5,767.5,-2
1.2651384083045,1021,509,-512,-765,766.5,-1.5
1.26730103806228,1021,509,-512,-765,766.5,-1.5
1.26946366782007,1022,509,-513,-765.5,767.5,-2
1.27162629757785,1021,509,-512,-765,766.5,-1.5
1.27378892733564,1022,509,-513,-765.5,767.5,-2
1.27595155709343,1020,508,-512,-764,766,-2
1.27811418685121,1021,509,-512,-765,766.5,-1.5
1.280276816609,1015,509,-506,-762,760.5,1.5
1.28243944636678,1013,509,-504,-761,758.5,2.5
1.28460207612457,1009,509,-500,-759,754.5,4.5
1.28676470588235,1011,509,-502,-760,756.5,3.5
1.28892733564014,1020,508,-512,-764,766,-2
1.29108996539792,1021,509,-512,-765,766.5,-1.5
1.29325259515571,1022,509,-513,-765.5,767.5,-2
1.29541522491349,1022,509,-513,-765.5,767.5,-2
1.29757785467128,1020,508,-512,-764,766,-2
1.29974048442907,1014,509,-505,-761.5,759.5,2
1.30190311418685,1012,509,-503,-760.5,757.5,3
1.30406574394464,1013,509,-504,-761,758.5,2.5
1.30622837370242,1004,508,-496,-756,750,6
1.30839100346021,1010,509,-501,-759.5,755.5,4
1.31055363321799,1014,509,-505,-761.5,759.5,2
1.31271626297578,1012,509,-503,-760.5,757.5,3
1.31487889273356,1016,509,-507,-762.5,761.5,1
1.31704152249135,1013,509,-504,-761,758.5,2.5
1.31920415224914,1009,509,-500,-759,754.5,4.5
1.32136678200692,1005,509,-496,-757,750.5,6.5
1.32352941176471,1010,509,-501,-759.5,755.5,4
1.32569204152249,1020,509,-511,-764.5,765.5,-1
1.32785467128028,1020,509,-511,-764.5,765.5,-1
1.33001730103806,1023,508,-515,-765.5,769,-3.5
1.33217993079585,1014,509,-505,-761.5,759.5,2
1.33434256055363,1006,509,-497,-757.5,751.5,6
1.33650519031142,999,509,-490,-754,744.5,9.5
1.3386678200692,1001,509,-492,-755,746.5,8.5
1.34083044982699,1003,509,-494,-756,748.5,7.5
1.34299307958478,1000,509,-491,-754.5,745.5,9
1.34515570934256,1001,509,-492,-755,746.5,8.5
1.34731833910035,1003,509,-494,-756,748.5,7.5
1.34948096885813,1003,509,-494,-756,748.5,7.5
1.35164359861592,1016,509,-507,-762.5,761.5,1
1.3538062283737,1020,509,-511,-764.5,765.5,-1
1.35596885813149,1021,509,-512,-765,766.5,-1.5
1.35813148788927,1020,508,-512,-764,766,-2
1.36029411764706,1020,509,-511,-764.5,765.5,-1
1.36245674740484,1020,509,-511,-764.5,765.5,-1
1.36461937716263,1020,508,-512,-764,766,-2
1.36678200692042,1020,509,-511,-764.5,765.5,-1
1.3689446366782,1021,509,-512,-765,766.5,-1.5
1.37110726643599,1021,509,-512,-765,766.5,-1.5
1.37326989619377,1022,509,-513,-765.5,767.5,-2
1.37543252595156,1021,509,-512,-765,766.5,-1.5
1.37759515570934,1021,509,-512,-765,766.5,-1.5
1.37975778546713,1020,509,-511,-764.5,765.5,-1
1.38192041522491,1021,509,-512,-765,766.5,-1.5
1.3840830449827,1021,509,-512,-765,766.5,-1.5
1.38624567474048,1021,509,-512,-765,766.5,-1.5
1.38840830449827,1020,509,-511,-764.5,765.5,-1
1.39057093425606,1021,508,-513,-764.5,767,-2.5
1.39273356401384,1019,509,-510,-764,764.5,-0.5
1.39489619377163,1022,509,-513,-765.5,767.5,-2
1.39705882352941,1020,509,-511,-764.5,765.5,-1
1.3992214532872,1021,509,-512,-765,766.5,-1.5
1.40138408304498,1021,509,-512,-765,766.5,-1.5
1.40354671280277,1022,508,-514,-765,768,-3
1.40570934256055,1022,509,-513,-765.5,767.5,-2
1.40787197231834,1023,509,-514,-766,768.5,-2.5
1.41003460207612,1023,509,-514,-766,768.5,-2.5
1.41219723183391,1020,508,-512,-764,766,-2
1.4143598615917,1017,509,-508,-763,762.5,0.5
1.41652249134948,1014,509,-505,-761.5,759.5,2
1.41868512110727,1005,509,-496,-757,750.5,6.5
1.42084775086505,998,509,-489,-753.5,743.5,10
1.42301038062284,990,509,-481,-749.5,735.5,14
1.42517301038062,985,509,-476,-747,730.5,16.5
1.42733564013841,988,509,-479,-748.5,733.5,15
1.42949826989619,995,509,-486,-752,740.5,11.5
1.43166089965398,1003,509,-494,-756,748.5,7.5
1.43382352941176,1011,509,-502,-760,756.5,3.5
1.43598615916955,1021,509,-512,-765,766.5,-1.5
1.43814878892734,1021,509,-512,-765,766.5,-1.5
1.44031141868512,1020,509,-511,-764.5,765.5,-1
1.44247404844291,1022,509,-513,-765.5,767.5,-2
1.44463667820069,1023,509,-514,-766,768.5,-2.5
1.44679930795848,1020,509,-511,-764.5,765.5,-1
1.44896193771626,1021,509,-512,-765,766.5,-1.5
1.45112456747405,1018,509,-509,-763.5,763.5,0
1.45328719723183,1007,509,-498,-758,752.5,5.5
1.45544982698962,1002,509,-493,-755.5,747.5,8
1.4576124567474,1008,509,-499,-758.5,753.5,5
1.45977508650519,1022,509,-513,-765.5,767.5,-2
1.46193771626298,1023,508,-515,-765.5,769,-3.5
1.46410034602076,1020,509,-511,-764.5,765.5,-1
1.46626297577855,1019,509,-510,-764,764.5,-0.5
1.46842560553633,1020,509,-511,-764.5,765.5,-1
1.47058823529412,1022,509,-513,-765.5,767.5,-2
1.4727508650519,1022,509,-513,-765.5,767.5,-2
1.47491349480969,1020,509,-511,-764.5,765.5,-1
1.47707612456747,1022,509,-513,-765.5,767.5,-2
1.47923875432526,1020,509,-511,-764.5,765.5,-1
1.48140138408305,1022,509,-513,-765.5,767.5,-2
1.48356401384083,1022,509,-513,-765.5,767.5,-2
1.48572664359862,1020,509,-511,-764.5,765.5,-1
1.4878892733564,1017,509,-508,-763,762.5,0.5
1.49005190311419,1022,509,-513,-765.5,767.5,-2
1.49221453287197,1022,509,-513,-765.5,767.5,-2
1.49437716262976,1021,509,-512,-765,766.5,-1.5
1.49653979238754,1021,509,-512,-765,766.5,-1.5
1.49870242214533,1021,509,-512,-765,766.5,-1.5
1.50086505190311,1021,509,-512,-765,766.5,-1.5
1.5030276816609,1022,509,-513,-765.5,767.5,-2
1.50519031141869,1021,509,-512,-765,766.5,-1.5
1.50735294117647,1020,509,-511,-764.5,765.5,-1
1.50951557093426,1019,509,-510,-764,764.5,-0.5
1.51167820069204,1022,509,-513,-765.5,767.5,-2
1.51384083044983,1021,509,-512,-765,766.5,-1.5
1.51600346020761,1020,508,-512,-764,766,-2
1.5181660899654,1022,509,-513,-765.5,767.5,-2
1.52032871972318,1020,509,-511,-764.5,765.5,-1
1.52249134948097,1019,508,-511,-763.5,765,-1.5
1.52465397923875,1020,509,-511,-764.5,765.5,-1
1.52681660899654,1023,509,-514,-766,768.5,-2.5
1.52897923875433,1021,508,-513,-764.5,767,-2.5
1.53114186851211,1023,509,-514,-766,768.5,-2.5
1.5333044982699,1022,509,-513,-765.5,767.5,-2
1.53546712802768,1022,509,-513,-765.5,767.5,-2
1.53762975778547,1019,509,-510,-764,764.5,-0.5
1.53979238754325,1020,509,-511,-764.5,765.5,-1
1.54195501730104,1021,508,-513,-764.5,767,-2.5
1.54411764705882,1023,509,-514,-766,768.5,-2.5
1.54628027681661,1021,509,-512,-765,766.5,-1.5
1.54844290657439,1021,509,-512,-765,766.5,-1.5
1.55060553633218,1020,509,-511,-764.5,765.5,-1
1.55276816608997,1020,509,-511,-764.5,765.5,-1
1.55493079584775,1022,509,-513,-765.5,767.5,-2
1.55709342560554,1022,509,-513,-765.5,767.5,-2
1.55925605536332,1020,509,-511,-764.5,765.5,-1
1.56141868512111,1022,509,-513,-765.5,767.5,-2
1.56358131487889,1019,509,-510,-764,764.5,-0.5
1.56574394463668,1021,509,-512,-765,766.5,-1.5
1.56790657439446,1022,509,-513,-765.5,767.5,-2
1.57006920415225,1023,508,-515,-765.5,769,-3.5
1.57223183391003,1021,509,-512,-765,766.5,-1.5
1.57439446366782,1020,509,-511,-764.5,765.5,-1
1.57655709342561,1023,509,-514,-766,768.5,-2.5
1.57871972318339,1023,509,-514,-766,768.5,-2.5
1.58088235294118,1023,509,-514,-766,768.5,-2.5
1.58304498269896,1021,509,-512,-765,766.5,-1.5
1.58520761245675,1022,509,-513,-765.5,767.5,-2
1.58737024221453,1023,509,-514,-766,768.5,-2.5
1.58953287197232,1020,509,-511,-764.5,765.5,-1
1.5916955017301,1019,509,-510,-764,764.5,-0.5
1.59385813148789,1022,509,-513,-765.5,767.5,-2
1.59602076124567,1022,509,-513,-765.5,767.5,-2
1.59818339100346,1023,509,-514,-766,768.5,-2.5
1.60034602076125,1023,509,-514,-766,768.5,-2.5
1.60250865051903,1022,509,-513,-765.5,767.5,-2
1.60467128027682,1021,509,-512,-765,766.5,-1.5
1.6068339100346,1023,509,-514,-766,768.5,-2.5
1.60899653979239,1020,509,-511,-764.5,765.5,-1
1.61115916955017,1021,509,-512,-765,766.5,-1.5
1.61332179930796,1021,509,-512,-765,766.5,-1.5
1.61548442906574,1023,509,-514,-766,768.5,-2.5
1.61764705882353,1021,509,-512,-765,766.5,-1.5
1.61980968858131,1020,508,-512,-764,766,-2
1.6219723183391,1022,509,-513,-765.5,767.5,-2
1.62413494809689,1021,509,-512,-765,766.5,-1.5
1.62629757785467,1020,508,-512,-764,766,-2
1.62846020761246,1022,509,-513,-765.5,767.5,-2
1.63062283737024,1021,509,-512,-765,766.5,-1.5
1.63278546712803,1021,509,-512,-765,766.5,-1.5
1.63494809688581,1022,509,-513,-765.5,767.5,-2
1.6371107266436,1021,509,-512,-765,766.5,-1.5
1.63927335640138,1021,509,-512,-765,766.5,-1.5
1.64143598615917,1020,509,-511,-764.5,765.5,-1
1.64359861591696,1018,509,-509,-763.5,763.5,0
1.64576124567474,1017,509,-508,-763,762.5,0.5
1.64792387543253,1015,509,-506,-762,760.5,1.5
1.65008650519031,1008,509,-499,-758.5,753.5,5
1.6522491349481,999,509,-490,-754,744.5,9.5
1.65441176470588,999,509,-490,-754,744.5,9.5
1.65657439446367,1002,509,-493,-755.5,747.5,8
1.65873702422145,1001,509,-492,-755,746.5,8.5
1.66089965397924,992,508,-484,-750,738,12
1.66306228373702,989,509,-480,-749,734.5,14.5
1.66522491349481,991,509,-482,-750,736.5,13.5
1.6673875432526,995,509,-486,-752,740.5,11.5
1.66955017301038,1003,509,-494,-756,748.5,7.5
1.67171280276817,1003,509,-494,-756,748.5,7.5
1.67387543252595,998,509,-489,-753.5,743.5,10
1.67603806228374,999,509,-490,-754,744.5,9.5
1.67820069204152,996,509,-487,-752.5,741.5,11
1.68036332179931,996,509,-487,-752.5,741.5,11
1.68252595155709,980,509,-471,-744.5,725.5,19
1.68468858131488,967,509,-458,-738,712.5,25.5
1.68685121107266,963,509,-454,-736,708.5,27.5
1.68901384083045,975,509,-466,-742,720.5,21.5
1.69117647058824,990,509,-481,-749.5,735.5,14
1.69333910034602,1004,508,-496,-756,750,6
1.69550173010381,1010,509,-501,-759.5,755.5,4
1.69766435986159,1014,509,-505,-761.5,759.5,2
1.69982698961938,1012,509,-503,-760.5,757.5,3
1.70198961937716,1007,509,-498,-758,752.5,5.5
1.70415224913495,995,509,-486,-752,740.5,11.5
1.70631487889273,988,509,-479,-748.5,733.5,15
1.70847750865052,980,509,-471,-744.5,725.5,19
1.7106401384083,978,509,-469,-743.5,723.5,20
1.71280276816609,977,509,-468,-743,722.5,20.5
1.71496539792388,983,509,-474,-746,728.5,17.5
1.71712802768166,984,509,-475,-746.5,729.5,17
1.71929065743945,986,509,-477,-747.5,731.5,16
1.72145328719723,996,508,-488,-752,742,10
1.72361591695502,999,509,-490,-754,744.5,9.5
1.7257785467128,1004,509,-495,-756.5,749.5,7
1.72794117647059,1003,509,-494,-756,748.5,7.5
1.73010380622837,1005,509,-496,-757,750.5,6.5
1.73226643598616,1003,509,-494,-756,748.5,7.5
1.73442906574394,1001,509,-492,-755,746.5,8.5
1.73659169550173,999,509,-490,-754,744.5,9.5
1.73875432525952,1004,508,-496,-756,750,6
1.7409169550173,1002,509,-493,-755.5,747.5,8
1.74307958477509,1007,509,-498,-758,752.5,5.5
1.74524221453287,1010,509,-501,-759.5,755.5,4
1.74740484429066,1011,509,-502,-760,756.5,3.5
1.74956747404844,1009,509,-500,-759,754.5,4.5
1.75173010380623,1006,509,-497,-757.5,751.5,6
1.75389273356401,1010,508,-502,-759,756,3
1.7560553633218,1000,508,-492,-754,746,8
1.75821799307958,989,509,-480,-749,734.5,14.5
1.76038062283737,994,509,-485,-751.5,739.5,12
1.76254325259516,1000,509,-491,-754.5,745.5,9
1.76470588235294,1001,509,-492,-755,746.5,8.5
1.76686851211073,999,509,-490,-754,744.5,9.5
1.76903114186851,994,509,-485,-751.5,739.5,12
1.7711937716263,994,509,-485,-751.5,739.5,12
1.77335640138408,999,509,-490,-754,744.5,9.5
1.77551903114187,1013,509,-504,-761,758.5,2.5
1.77768166089965,1021,509,-512,-765,766.5,-1.5
1.77984429065744,1021,509,-512,-765,766.5,-1.5
1.78200692041522,1021,509,-512,-765,766.5,-1.5
1.78416955017301,1020,509,-511,-764.5,765.5,-1
1.7863321799308,1021,509,-512,-765,766.5,-1.5
1.78849480968858,1019,509,-510,-764,764.5,-0.5
1.79065743944637,1017,509,-508,-763,762.5,0.5
1.79282006920415,1013,509,-504,-761,758.5,2.5
1.79498269896194,1007,509,-498,-758,752.5,5.5
1.79714532871972,1003,509,-494,-756,748.5,7.5
1.79930795847751,1000,509,-491,-754.5,745.5,9
1.80147058823529,1004,509,-495,-756.5,749.5,7
1.80363321799308,1007,509,-498,-758,752.5,5.5
1.80579584775087,1004,508,-496,-756,750,6
1.80795847750865,1001,509,-492,-755,746.5,8.5
1.81012110726644,1006,509,-497,-757.5,751.5,6
1.81228373702422,1014,509,-505,-761.5,759.5,2
1.81444636678201,1022,509,-513,-765.5,767.5,-2
1.81660899653979,1020,509,-511,-764.5,765.5,-1
1.81877162629758,1022,509,-513,-765.5,767.5,-2
1.82093425605536,1021,509,-512,-765,766.5,-1.5
1.82309688581315,1020,509,-511,-764.5,765.5,-1
1.82525951557093,1023,509,-514,-766,768.5,-2.5
1.82742214532872,1021,509,-512,-765,766.5,-1.5
1.82958477508651,1021,509,-512,-765,766.5,-1.5
1.83174740484429,1022,508,-514,-765,768,-3
1.83391003460208,1021,509,-512,-765,766.5,-1.5
1.83607266435986,1021,509,-512,-765,766.5,-1.5
1.83823529411765,1021,509,-512,-765,766.5,-1.5
1.84039792387543,1021,509,-512,-765,766.5,-1.5
1.84256055363322,1023,509,-514,-766,768.5,-2.5
1.844723183391,1021,509,-512,-765,766.5,-1.5
1.84688581314879,1021,509,-512,-765,766.5,-1.5
1.84904844290657,1022,509,-513,-765.5,767.5,-2
1.85121107266436,1021,509,-512,-765,766.5,-1.5
1.85337370242215,1022,509,-513,-765.5,767.5,-2
1.85553633217993,1023,508,-515,-765.5,769,-3.5
1.85769896193772,1021,509,-512,-765,766.5,-1.5
1.8598615916955,1021,509,-512,-765,766.5,-1.5
1.86202422145329,1021,509,-512,-765,766.5,-1.5
1.86418685121107,1021,509,-512,-765,766.5,-1.5
1.86634948096886,1022,509,-513,-765.5,767.5,-2
1.86851211072664,1022,509,-513,-765.5,767.5,-2
1.87067474048443,1021,509,-512,-765,766.5,-1.5
1.87283737024221,1022,509,-513,-765.5,767.5,-2
1.875,1021,509,-512,-765,766.5,-1.5
1.87716262975779,1021,508,-513,-764.5,767,-2.5
1.87932525951557,1021,509,-512,-765,766.5,-1.5
1.88148788927336,1022,509,-513,-765.5,767.5,-2
1.88365051903114,1021,509,-512,-765,766.5,-1.5
1.88581314878893,1021,509,-512,-765,766.5,-1.5
1.88797577854671,1022,509,-513,-765.5,767.5,-2
1.8901384083045,1021,509,-512,-765,766.5,-1.5
1.89230103806228,1023,509,-514,-766,768.5,-2.5
1.89446366782007,1020,509,-511,-764.5,765.5,-1
1.89662629757785,1022,509,-513,-765.5,767.5,-2
1.89878892733564,1022,509,-513,-765.5,767.5,-2
1.90095155709343,1020,509,-511,-764.5,765.5,-1
1.90311418685121,1009,509,-500,-759,754.5,4.5
1.905276816609,1007,509,-498,-758,752.5,5.5
1.90743944636678,1011,509,-502,-760,756.5,3.5
1.90960207612457,1011,509,-502,-760,756.5,3.5
1.91176470588235,1007,509,-498,-758,752.5,5.5
1.91392733564014,1000,509,-491,-754.5,745.5,9
1.91608996539792,1001,509,-492,-755,746.5,8.5
1.91825259515571,1009,509,-500,-759,754.5,4.5
1.92041522491349,1017,509,-508,-763,762.5,0.5
1.92257785467128,1021,509,-512,-765,766.5,-1.5
1.92474048442907,1019,509,-510,-764,764.5,-0.5
1.92690311418685,1015,509,-506,-762,760.5,1.5
1.92906574394464,1016,509,-507,-762.5,761.5,1
1.93122837370242,1018,509,-509,-763.5,763.5,0
1.93339100346021,1017,509,-508,-763,762.5,0.5
1.93555363321799,1013,509,-504,-761,758.5,2.5
1.93771626297578,1004,509,-495,-756.5,749.5,7
1.93987889273356,991,509,-482,-750,736.5,13.5
1.94204152249135,985,509,-476,-747,730.5,16.5
1.94420415224914,993,509,-484,-751,738.5,12.5
1.94636678200692,1002,509,-493,-755.5,747.5,8
1.94852941176471,1015,509,-506,-762,760.5,1.5
1.95069204152249,1023,508,-515,-765.5,769,-3.5
1.95285467128028,1020,508,-512,-764,766,-2
1.95501730103806,1021,509,-512,-765,766.5,-1.5
1.95717993079585,1022,509,-513,-765.5,767.5,-2
1.95934256055363,1014,509,-505,-761.5,759.5,2
1.96150519031142,1007,509,-498,-758,752.5,5.5
1.9636678200692,1002,509,-493,-755.5,747.5,8
1.96583044982699,997,509,-488,-753,742.5,10.5
1.96799307958478,1002,509,-493,-755.5,747.5,8
1.97015570934256,1007,509,-498,-758,752.5,5.5
1.97231833910035,1009,509,-500,-759,754.5,4.5
1.97448096885813,1016,509,-507,-762.5,761.5,1
1.97664359861592,1015,509,-506,-762,760.5,1.5
1.9788062283737,1021,509,-512,-765,766.5,-1.5
1.98096885813149,1021,509,-512,-765,766.5,-1.5
1.98313148788927,1021,508,-513,-764.5,767,-2.5
1.98529411764706,1023,509,-514,-766,768.5,-2.5
1.98745674740484,1021,509,-512,-765,766.5,-1.5
1.98961937716263,1023,508,-515,-765.5,769,-3.5
1.99178200692042,1022,509,-513,-765.5,767.5,-2
1.9939446366782,1021,509,-512,-765,766.5,-1.5
1.99610726643599,1021,509,-512,-765,766.5,-1.5
1.99826989619377,1020,509,-511,-764.5,765.5,-1
2.00043252595156,1021,509,-512,-765,766.5,-1.5
2.00259515570934,1021,509,-512,-765,766.5,-1.5
2.00475778546713,1022,509,-513,-765.5,767.5,-2
2.00692041522491,1021,509,-512,-765,766.5,-1.5
2.0090830449827,1021,509,-512,-765,766.5,-1.5
2.01124567474048,1023,509,-514,-766,768.5,-2.5
2.01340830449827,1021,509,-512,-765,766.5,-1.5
2.01557093425606,1020,509,-511,-764.5,765.5,-1
2.01773356401384,1023,509,-514,-766,768.5,-2.5
2.01989619377163,1010,509,-501,-759.5,755.5,4
2.02205882352941,1005,509,-496,-757,750.5,6.5
2.0242214532872,1003,509,-494,-756,748.5,7.5
2.02638408304498,1016,509,-507,-762.5,761.5,1
2.02854671280277,1022,509,-513,-765.5,767.5,-2
2.03070934256055,1020,509,-511,-764.5,765.5,-1
2.03287197231834,1022,509,-513,-765.5,767.5,-2
2.03503460207612,1021,509,-512,-765,766.5,-1.5
2.03719723183391,1021,509,-512,-765,766.5,-1.5
2.0393598615917,1022,509,-513,-765.5,767.5,-2
2.04152249134948,1021,509,-512,-765,766.5,-1.5
2.04368512110727,1013,509,-504,-761,758.5,2.5
2.04584775086505,1007,509,-498,-758,752.5,5.5
2.04801038062284,1002,509,-493,-755.5,747.5,8
2.05017301038062,1005,509,-496,-757,750.5,6.5
2.05233564013841,1016,509,-507,-762.5,761.5,1
2.05449826989619,1020,509,-511,-764.5,765.5,-1
2.05666089965398,1021,509,-512,-765,766.5,-1.5
2.05882352941176,1021,509,-512,-765,766.5,-1.5
2.06098615916955,1023,509,-514,-766,768.5,-2.5
2.06314878892734,1020,509,-511,-764.5,765.5,-1
2.06531141868512,1013,509,-504,-761,758.5,2.5
2.06747404844291,1009,509,-500,-759,754.5,4.5
2.06963667820069,1008,509,-499,-758.5,753.5,5
2.07179930795848,1011,509,-502,-760,756.5,3.5
2.07396193771626,1013,509,-504,-761,758.5,2.5
2.07612456747405,1015,509,-506,-762,760.5,1.5
2.07828719723183,1019,509,-510,-764,764.5,-0.5
2.08044982698962,1011,509,-502,-760,756.5,3.5
2.0826124567474,1015,509,-506,-762,760.5,1.5
2.08477508650519,1022,509,-513,-765.5,767.5,-2
2.08693771626298,1021,509,-512,-765,766.5,-1.5
2.08910034602076,1022,509,-513,-765.5,767.5,-2
2.09126297577855,1019,509,-510,-764,764.5,-0.5
2.09342560553633,1008,509,-499,-758.5,753.5,5
2.09558823529412,1001,509,-492,-755,746.5,8.5
2.0977508650519,1009,509,-500,-759,754.5,4.5
2.09991349480969,1018,509,-509,-763.5,763.5,0
2.10207612456747,1021,509,-512,-765,766.5,-1.5
2.10423875432526,1022,509,-513,-765.5,767.5,-2
2.10640138408304,1022,509,-513,-765.5,767.5,-2
2.10856401384083,1022,509,-513,-765.5,767.5,-2
2.11072664359862,1021,509,-512,-765,766.5,-1.5
2.1128892733564,1021,509,-512,-765,766.5,-1.5
2.11505190311419,1020,509,-511,-764.5,765.5,-1
2.11721453287197,1022,509,-513,-765.5,767.5,-2
2.11937716262976,1023,508,-515,-765.5,769,-3.5
2.12153979238754,1022,509,-513,-765.5,767.5,-2
2.12370242214533,1021,509,-512,-765,766.5,-1.5
2.12586505190311,1021,509,-512,-765,766.5,-1.5
2.1280276816609,1022,508,-514,-765,768,-3
2.13019031141869,1022,509,-513,-765.5,767.5,-2
2.13235294117647,1021,509,-512,-765,766.5,-1.5
2.13451557093426,1020,508,-512,-764,766,-2
2.13667820069204,1021,509,-512,-765,766.5,-1.5
2.13884083044983,1021,509,-512,-765,766.5,-1.5
2.14100346020761,1023,509,-514,-766,768.5,-2.5
2.1431660899654,1019,509,-510,-764,764.5,-0.5
2.14532871972318,1022,509,-513,-765.5,767.5,-2
2.14749134948097,1019,509,-510,-764,764.5,-0.5
2.14965397923875,1020,509,-511,-764.5,765.5,-1
2.15181660899654,1022,509,-513,-765.5,767.5,-2
2.15397923875433,1023,509,-514,-766,768.5,-2.5
2.15614186851211,1022,509,-513,-765.5,767.5,-2
2.1583044982699,1021,509,-512,-765,766.5,-1.5
2.16046712802768,1021,509,-512,-765,766.5,-1.5
2.16262975778547,1022,509,-513,-765.5,767.5,-2
2.16479238754325,1021,509,-512,-765,766.5,-1.5
2.16695501730104,1022,509,-513,-765.5,767.5,-2
2.16911764705882,1021,509,-512,-765,766.5,-1.5
2.17128027681661,1022,509,-513,-765.5,767.5,-2
2.17344290657439,1021,509,-512,-765,766.5,-1.5
2.17560553633218,1021,509,-512,-765,766.5,-1.5
2.17776816608997,1022,509,-513,-765.5,767.5,-2
2.17993079584775,1020,509,-511,-764.5,765.5,-1
2.18209342560554,1021,508,-513,-764.5,767,-2.5
2.18425605536332,1020,508,-512,-764,766,-2
2.18641868512111,1021,509,-512,-765,766.5,-1.5
2.18858131487889,1021,509,-512,-765,766.5,-1.5
2.19074394463668,1021,509,-512,-765,766.5,-1.5
2.19290657439446,1022,509,-513,-765.5,767.5,-2
2.19506920415225,1023,508,-515,-765.5,769,-3.5
2.19723183391003,1022,509,-513,-765.5,767.5,-2
2.19939446366782,1022,509,-513,-765.5,767.5,-2
2.20155709342561,1023,509,-514,-766,768.5,-2.5
2.20371972318339,1020,508,-512,-764,766,-2
2.20588235294118,1023,509,-514,-766,768.5,-2.5
2.20804498269896,1023,509,-514,-766,768.5,-2.5
2.21020761245675,1021,509,-512,-765,766.5,-1.5
2.21237024221453,1022,509,-513,-765.5,767.5,-2
2.21453287197232,1022,509,-513,-765.5,767.5,-2
2.2166955017301,1021,509,-512,-765,766.5,-1.5
2.21885813148789,1022,509,-513,-765.5,767.5,-2
2.22102076124567,1021,509,-512,-765,766.5,-1.5
2.22318339100346,1021,509,-512,-765,766.5,-1.5
2.22534602076125,1022,509,-513,-765.5,767.5,-2
2.22750865051903,1023,509,-514,-766,768.5,-2.5
2.22967128027682,1020,509,-511,-764.5,765.5,-1
2.2318339100346,1022,509,-513,-765.5,767.5,-2
2.23399653979239,1021,509,-512,-765,766.5,-1.5
2.23615916955017,1021,509,-512,-765,766.5,-1.5
2.23832179930796,1021,509,-512,-765,766.5,-1.5
2.24048442906574,1020,509,-511,-764.5,765.5,-1
2.24264705882353,1020,509,-511,-764.5,765.5,-1
2.24480968858132,1022,509,-513,-765.5,767.5,-2
2.2469723183391,1023,509,-514,-766,768.5,-2.5
2.24913494809689,1022,509,-513,-765.5,767.5,-2
2.25129757785467,1021,509,-512,-765,766.5,-1.5
2.25346020761246,1022,509,-513,-765.5,767.5,-2
2.25562283737024,1022,509,-513,-765.5,767.5,-2
2.25778546712803,1020,508,-512,-764,766,-2
2.25994809688581,1023,509,-514,-766,768.5,-2.5
2.2621107266436,1021,509,-512,-765,766.5,-1.5
2.26427335640138,1021,509,-512,-765,766.5,-1.5
2.26643598615917,1022,509,-513,-765.5,767.5,-2
2.26859861591696,1021,509,-512,-765,766.5,-1.5
2.27076124567474,1021,509,-512,-765,766.5,-1.5
2.27292387543253,1021,509,-512,-765,766.5,-1.5
2.27508650519031,1021,509,-512,-765,766.5,-1.5
2.2772491349481,1022,509,-513,-765.5,767.5,-2
2.27941176470588,1022,509,-513,-765.5,767.5,-2
2.28157439446367,1021,509,-512,-765,766.5,-1.5
2.28373702422145,1022,509,-513,-765.5,767.5,-2
2.28589965397924,1021,509,-512,-765,766.5,-1.5
2.28806228373702,1022,509,-513,-765.5,767.5,-2
2.29022491349481,1021,509,-512,-765,766.5,-1.5
2.2923875432526,1023,509,-514,-766,768.5,-2.5
2.29455017301038,1022,509,-513,-765.5,767.5,-2
2.29671280276817,1021,509,-512,-765,766.5,-1.5
2.29887543252595,1021,509,-512,-765,766.5,-1.5
2.30103806228374,1022,509,-513,-765.5,767.5,-2
2.30320069204152,1018,509,-509,-763.5,763.5,0
2.30536332179931,1017,509,-508,-763,762.5,0.5
2.30752595155709,1018,509,-509,-763.5,763.5,0
2.30968858131488,1022,509,-513,-765.5,767.5,-2
2.31185121107266,1020,509,-511,-764.5,765.5,-1
2.31401384083045,1022,509,-513,-765.5,767.5,-2
2.31617647058824,1021,509,-512,-765,766.5,-1.5
2.31833910034602,1021,509,-512,-765,766.5,-1.5
2.32050173010381,1018,508,-510,-763,764,-1
2.32266435986159,1005,509,-496,-757,750.5,6.5
2.32482698961938,1003,509,-494,-756,748.5,7.5
2.32698961937716,1011,509,-502,-760,756.5,3.5
2.32915224913495,1011,509,-502,-760,756.5,3.5
2.33131487889273,1007,509,-498,-758,752.5,5.5
2.33347750865052,1012,509,-503,-760.5,757.5,3
2.3356401384083,1016,509,-507,-762.5,761.5,1
2.33780276816609,1019,509,-510,-764,764.5,-0.5
2.33996539792388,1019,509,-510,-764,764.5,-0.5
2.34212802768166,1019,509,-510,-764,764.5,-0.5
2.34429065743945,1019,509,-510,-764,764.5,-0.5
2.34645328719723,1017,509,-508,-763,762.5,0.5
2.34861591695502,1018,509,-509,-763.5,763.5,0
2.3507785467128,1016,509,-507,-762.5,761.5,1
2.35294117647059,1022,508,-514,-765,768,-3
2.35510380622837,1023,509,-514,-766,768.5,-2.5
2.35726643598616,1022,509,-513,-765.5,767.5,-2
2.35942906574394,1020,509,-511,-764.5,765.5,-1
2.36159169550173,1021,509,-512,-765,766.5,-1.5
2.36375432525952,1023,509,-514,-766,768.5,-2.5
2.3659169550173,1021,509,-512,-765,766.5,-1.5
2.36807958477509,1020,509,-511,-764.5,765.5,-1
2.37024221453287,1018,509,-509,-763.5,763.5,0
2.37240484429066,1023,509,-514,-766,768.5,-2.5
2.37456747404844,1019,509,-510,-764,764.5,-0.5
2.37673010380623,1019,509,-510,-764,764.5,-0.5
2.37889273356401,1020,509,-511,-764.5,765.5,-1
2.3810553633218,1021,509,-512,-765,766.5,-1.5
2.38321799307958,1021,509,-512,-765,766.5,-1.5
2.38538062283737,1021,509,-512,-765,766.5,-1.5
2.38754325259516,1021,509,-512,-765,766.5,-1.5
2.38970588235294,1021,509,-512,-765,766.5,-1.5
2.39186851211073,1022,509,-513,-765.5,767.5,-2
2.39403114186851,1019,509,-510,-764,764.5,-0.5
2.3961937716263,1023,509,-514,-766,768.5,-2.5
2.39835640138408,1017,509,-508,-763,762.5,0.5
2.40051903114187,1019,509,-510,-764,764.5,-0.5
2.40268166089965,1019,509,-510,-764,764.5,-0.5
2.40484429065744,1020,509,-511,-764.5,765.5,-1
2.40700692041522,1021,509,-512,-765,766.5,-1.5
2.40916955017301,1021,509,-512,-765,766.5,-1.5
2.4113321799308,1022,509,-513,-765.5,767.5,-2
2.41349480968858,1022,509,-513,-765.5,767.5,-2
2.41565743944637,1021,508,-513,-764.5,767,-2.5
2.41782006920415,1022,509,-513,-765.5,767.5,-2
2.41998269896194,1016,508,-508,-762,762,0
2.42214532871972,1006,509,-497,-757.5,751.5,6
2.42430795847751,1005,509,-496,-757,750.5,6.5
2.42647058823529,1008,509,-499,-758.5,753.5,5
2.42863321799308,1020,509,-511,-764.5,765.5,-1
2.43079584775087,1021,509,-512,-765,766.5,-1.5
2.43295847750865,1022,509,-513,-765.5,767.5,-2
2.43512110726644,1021,509,-512,-765,766.5,-1.5
2.43728373702422,1021,509,-512,-765,766.5,-1.5
2.43944636678201,1022,509,-513,-765.5,767.5,-2
2.44160899653979,1021,509,-512,-765,766.5,-1.5
2.44377162629758,1022,509,-513,-765.5,767.5,-2
2.44593425605536,1022,509,-513,-765.5,767.5,-2
2.44809688581315,1023,509,-514,-766,768.5,-2.5
2.45025951557093,1022,509,-513,-765.5,767.5,-2
2.45242214532872,1021,509,-512,-765,766.5,-1.5
2.45458477508651,1022,509,-513,-765.5,767.5,-2
2.45674740484429,1023,508,-515,-765.5,769,-3.5
2.45891003460208,1021,509,-512,-765,766.5,-1.5
2.46107266435986,1022,509,-513,-765.5,767.5,-2
2.46323529411765,1023,509,-514,-766,768.5,-2.5
2.46539792387543,1021,509,-512,-765,766.5,-1.5
2.46756055363322,1022,509,-513,-765.5,767.5,-2
2.469723183391,1020,509,-511,-764.5,765.5,-1
2.47188581314879,1023,509,-514,-766,768.5,-2.5
2.47404844290657,1022,509,-513,-765.5,767.5,-2
2.47621107266436,1021,509,-512,-765,766.5,-1.5
2.47837370242215,1022,509,-513,-765.5,767.5,-2
2.48053633217993,1022,509,-513,-765.5,767.5,-2
2.48269896193772,1021,509,-512,-765,766.5,-1.5
2.4848615916955,1023,509,-514,-766,768.5,-2.5
2.48702422145329,1021,509,-512,-765,766.5,-1.5
2.48918685121107,1019,509,-510,-764,764.5,-0.5
2.49134948096886,1021,509,-512,-765,766.5,-1.5
2.49351211072664,1021,509,-512,-765,766.5,-1.5
2.49567474048443,1022,509,-513,-765.5,767.5,-2
2.49783737024221,1021,509,-512,-765,766.5,-1.5
2.5,1021,509,-512,-765,766.5,-1.5
2.50216262975779,1022,509,-513,-765.5,767.5,-2
2.50432525951557,1021,509,-512,-765,766.5,-1.5
2.50648788927336,1021,509,-512,-765,766.5,-1.5
2.50865051903114,1021,509,-512,-765,766.5,-1.5
2.51081314878893,1021,509,-512,-765,766.5,-1.5
2.51297577854671,1020,509,-511,-764.5,765.5,-1
2.5151384083045,1021,509,-512,-765,766.5,-1.5
2.51730103806228,1021,509,-512,-765,766.5,-1.5
2.51946366782007,1021,509,-512,-765,766.5,-1.5
2.52162629757785,1022,509,-513,-765.5,767.5,-2
2.52378892733564,1020,509,-511,-764.5,765.5,-1
2.52595155709343,1021,508,-513,-764.5,767,-2.5
2.52811418685121,1021,509,-512,-765,766.5,-1.5
2.530276816609,1020,509,-511,-764.5,765.5,-1
2.53243944636678,1021,509,-512,-765,766.5,-1.5
2.53460207612457,1021,509,-512,-765,766.5,-1.5
2.53676470588235,1022,509,-513,-765.5,767.5,-2
2.53892733564014,1021,509,-512,-765,766.5,-1.5
2.54108996539792,1022,508,-514,-765,768,-3
2.54325259515571,1021,509,-512,-765,766.5,-1.5
2.5454152249135,1019,509,-510,-764,764.5,-0.5
2.54757785467128,1008,509,-499,-758.5,753.5,5
2.54974048442907,1004,509,-495,-756.5,749.5,7
2.55190311418685,1005,509,-496,-757,750.5,6.5
2.55406574394464,1010,508,-502,-759,756,3
2.55622837370242,1011,509,-502,-760,756.5,3.5
2.55839100346021,1018,508,-510,-763,764,-1
2.56055363321799,1016,509,-507,-762.5,761.5,1
2.56271626297578,1005,509,-496,-757,750.5,6.5
2.56487889273356,995,509,-486,-752,740.5,11.5
2.56704152249135,1001,509,-492,-755,746.5,8.5
2.56920415224914,1015,509,-506,-762,760.5,1.5
2.57136678200692,1022,509,-513,-765.5,767.5,-2
2.57352941176471,1021,509,-512,-765,766.5,-1.5
2.57569204152249,1021,509,-512,-765,766.5,-1.5
2.57785467128028,1022,509,-513,-765.5,767.5,-2
2.58001730103806,1021,509,-512,-765,766.5,-1.5
2.58217993079585,1018,509,-509,-763.5,763.5,0
2.58434256055363,1001,509,-492,-755,746.5,8.5
2.58650519031142,994,509,-485,-751.5,739.5,12
2.5886678200692,994,509,-485,-751.5,739.5,12
2.59083044982699,995,509,-486,-752,740.5,11.5
2.59299307958478,991,509,-482,-750,736.5,13.5
2.59515570934256,992,509,-483,-750.5,737.5,13
2.59731833910035,1003,509,-494,-756,748.5,7.5
2.59948096885813,1013,509,-504,-761,758.5,2.5
2.60164359861592,1022,509,-513,-765.5,767.5,-2
2.6038062283737,1013,508,-505,-760.5,759,1.5
2.60596885813149,1011,509,-502,-760,756.5,3.5
2.60813148788927,1020,509,-511,-764.5,765.5,-1
2.61029411764706,1021,509,-512,-765,766.5,-1.5
2.61245674740484,1020,509,-511,-764.5,765.5,-1
2.61461937716263,1021,509,-512,-765,766.5,-1.5
2.61678200692042,1020,508,-512,-764,766,-2
2.6189446366782,1022,509,-513,-765.5,767.5,-2
2.62110726643599,1021,509,-512,-765,766.5,-1.5
2.62326989619377,1023,509,-514,-766,768.5,-2.5
2.62543252595156,1022,509,-513,-765.5,767.5,-2
2.62759515570934,1022,509,-513,-765.5,767.5,-2
2.62975778546713,1021,509,-512,-765,766.5,-1.5
2.63192041522491,1022,509,-513,-765.5,767.5,-2
2.6340830449827,1021,509,-512,-765,766.5,-1.5
2.63624567474048,1021,509,-512,-765,766.5,-1.5
2.63840830449827,1023,509,-514,-766,768.5,-2.5
2.64057093425606,1021,509,-512,-765,766.5,-1.5
2.64273356401384,1019,509,-510,-764,764.5,-0.5
2.64489619377163,1022,509,-513,-765.5,767.5,-2
2.64705882352941,1019,509,-510,-764,764.5,-0.5
2.6492214532872,1021,509,-512,-765,766.5,-1.5
2.65138408304498,1013,509,-504,-761,758.5,2.5
2.65354671280277,1015,509,-506,-762,760.5,1.5
2.65570934256055,1019,509,-510,-764,764.5,-0.5
2.65787197231834,1023,509,-514,-766,768.5,-2.5
2.66003460207612,1022,509,-513,-765.5,767.5,-2
2.66219723183391,1022,509,-513,-765.5,767.5,-2
2.6643598615917,1020,509,-511,-764.5,765.5,-1
2.66652249134948,1021,509,-512,-765,766.5,-1.5
2.66868512110727,1015,509,-506,-762,760.5,1.5
2.67084775086505,1017,509,-508,-763,762.5,0.5
2.67301038062284,1019,509,-510,-764,764.5,-0.5
2.67517301038062,1016,509,-507,-762.5,761.5,1
2.67733564013841,1012,508,-504,-760,758,2
2.67949826989619,1015,509,-506,-762,760.5,1.5
2.68166089965398,1020,509,-511,-764.5,765.5,-1
2.68382352941176,1022,509,-513,-765.5,767.5,-2
2.68598615916955,1021,508,-513,-764.5,767,-2.5
2.68814878892734,1021,509,-512,-765,766.5,-1.5
2.69031141868512,1020,509,-511,-764.5,765.5,-1
2.69247404844291,1021,509,-512,-765,766.5,-1.5
2.69463667820069,1018,509,-509,-763.5,763.5,0
2.69679930795848,1013,509,-504,-761,758.5,2.5
2.69896193771626,1006,508,-498,-757,752,5
2.70112456747405,999,509,-490,-754,744.5,9.5
2.70328719723183,984,509,-475,-746.5,729.5,17
2.70544982698962,981,509,-472,-745,726.5,18.5
2.7076124567474,991,509,-482,-750,736.5,13.5
2.70977508650519,1004,509,-495,-756.5,749.5,7
2.71193771626298,1011,509,-502,-760,756.5,3.5
2.71410034602076,1021,508,-513,-764.5,767,-2.5
2.71626297577855,1022,509,-513,-765.5,767.5,-2
2.71842560553633,1022,509,-513,-765.5,767.5,-2
2.72058823529412,1022,509,-513,-765.5,767.5,-2
2.7227508650519,1022,509,-513,-765.5,767.5,-2
2.72491349480969,1022,509,-513,-765.5,767.5,-2
2.72707612456747,1023,509,-514,-766,768.5,-2.5
2.72923875432526,1022,509,-513,-765.5,767.5,-2
2.73140138408305,1020,509,-511,-764.5,765.5,-1
2.73356401384083,1022,509,-513,-765.5,767.5,-2
2.73572664359862,1022,509,-513,-765.5,767.5,-2
2.7378892733564,1022,509,-513,-765.5,767.5,-2
2.74005190311419,1022,509,-513,-765.5,767.5,-2
2.74221453287197,1021,509,-512,-765,766.5,-1.5
2.74437716262976,1022,509,-513,-765.5,767.5,-2
2.74653979238754,1021,509,-512,-765,766.5,-1.5
2.74870242214533,1021,509,-512,-765,766.5,-1.5
2.75086505190311,1022,509,-513,-765.5,767.5,-2
2.7530276816609,1020,509,-511,-764.5,765.5,-1
2.75519031141869,1023,508,-515,-765.5,769,-3.5
2.75735294117647,1023,509,-514,-766,768.5,-2.5
2.75951557093426,1021,509,-512,-765,766.5,-1.5
2.76167820069204,1021,509,-512,-765,766.5,-1.5
2.76384083044983,1022,509,-513,-765.5,767.5,-2
2.76600346020761,1020,509,-511,-764.5,765.5,-1
2.7681660899654,1023,508,-515,-765.5,769,-3.5
2.77032871972318,1020,509,-511,-764.5,765.5,-1
2.77249134948097,1021,509,-512,-765,766.5,-1.5
2.77465397923875,1021,509,-512,-765,766.5,-1.5
2.77681660899654,1021,509,-512,-765,766.5,-1.5
2.77897923875433,1021,509,-512,-765,766.5,-1.5
2.78114186851211,1022,509,-513,-765.5,767.5,-2
2.7833044982699,1021,509,-512,-765,766.5,-1.5
2.78546712802768,1022,509,-513,-765.5,767.5,-2
2.78762975778547,1022,509,-513,-765.5,767.5,-2
2.78979238754325,1021,509,-512,-765,766.5,-1.5
2.79195501730104,1022,509,-513,-765.5,767.5,-2
2.79411764705882,1021,509,-512,-765,766.5,-1.5
2.79628027681661,1023,509,-514,-766,768.5,-2.5
2.79844290657439,1020,509,-511,-764.5,765.5,-1
2.80060553633218,1022,509,-513,-765.5,767.5,-2
2.80276816608997,1021,509,-512,-765,766.5,-1.5
2.80493079584775,1022,509,-513,-765.5,767.5,-2
2.80709342560554,1022,509,-513,-765.5,767.5,-2
2.80925605536332,1023,508,-515,-765.5,769,-3.5
2.81141868512111,1021,509,-512,-765,766.5,-1.5
2.81358131487889,1023,509,-514,-766,768.5,-2.5
2.81574394463668,1022,509,-513,-765.5,767.5,-2
2.81790657439446,1020,509,-511,-764.5,765.5,-1
2.82006920415225,1022,509,-513,-765.5,767.5,-2
2.82223183391003,1021,509,-512,-765,766.5,-1.5
2.82439446366782,1021,509,-512,-765,766.5,-1.5
2.82655709342561,1022,509,-513,-765.5,767.5,-2
2.82871972318339,1021,509,-512,-765,766.5,-1.5
2.83088235294118,1020,509,-511,-764.5,765.5,-1
2.83304498269896,1021,509,-512,-765,766.5,-1.5
2.83520761245675,1020,509,-511,-764.5,765.5,-1
2.83737024221453,1021,509,-512,-765,766.5,-1.5
2.83953287197232,1020,509,-511,-764.5,765.5,-1
2.8416955017301,1021,509,-512,-765,766.5,-1.5
2.84385813148789,1022,509,-513,-765.5,767.5,-2
2.84602076124567,1022,509,-513,-765.5,767.5,-2
2.84818339100346,1022,509,-513,-765.5,767.5,-2
2.85034602076125,1020,509,-511,-764.5,765.5,-1
2.85250865051903,1023,508,-515,-765.5,769,-3.5
2.85467128027682,1022,509,-513,-765.5,767.5,-2
2.8568339100346,1021,509,-512,-765,766.5,-1.5
2.85899653979239,1021,509,-512,-765,766.5,-1.5
2.86115916955017,1020,509,-511,-764.5,765.5,-1
2.86332179930796,1022,509,-513,-765.5,767.5,-2
2.86548442906574,1023,508,-515,-765.5,769,-3.5
2.86764705882353,1019,509,-510,-764,764.5,-0.5
2.86980968858132,1021,509,-512,-765,766.5,-1.5
2.8719723183391,1021,509,-512,-765,766.5,-1.5
2.87413494809689,1020,509,-511,-764.5,765.5,-1
2.87629757785467,1022,509,-513,-765.5,767.5,-2
2.87846020761246,1020,509,-511,-764.5,765.5,-1
2.88062283737024,1022,509,-513,-765.5,767.5,-2
2.88278546712803,1022,509,-513,-765.5,767.5,-2
2.88494809688581,1021,509,-512,-765,766.5,-1.5
2.8871107266436,1022,509,-513,-765.5,767.5,-2
2.88927335640138,1021,509,-512,-765,766.5,-1.5
2.89143598615917,1019,509,-510,-764,764.5,-0.5
2.89359861591696,1023,509,-514,-766,768.5,-2.5
2.89576124567474,1023,509,-514,-766,768.5,-2.5
2.89792387543253,1022,509,-513,-765.5,767.5,-2
2.90008650519031,1020,509,-511,-764.5,765.5,-1
2.9022491349481,1020,509,-511,-764.5,765.5,-1
2.90441176470588,1020,509,-511,-764.5,765.5,-1
2.90657439446367,1021,509,-512,-765,766.5,-1.5
2.90873702422145,1021,509,-512,-765,766.5,-1.5
2.91089965397924,1022,509,-513,-765.5,767.5,-2
2.91306228373702,1021,509,-512,-765,766.5,-1.5
2.91522491349481,1021,509,-512,-765,766.5,-1.5
2.9173875432526,1021,509,-512,-765,766.5,-1.5
2.91955017301038,1021,509,-512,-765,766.5,-1.5
2.92171280276817,1021,509,-512,-765,766.5,-1.5
2.92387543252595,1021,509,-512,-765,766.5,-1.5
2.92603806228374,1019,509,-510,-764,764.5,-0.5
2.92820069204152,1020,509,-511,-764.5,765.5,-1
2.93036332179931,1017,509,-508,-763,762.5,0.5
2.93252595155709,1014,509,-505,-761.5,759.5,2
2.93468858131488,1013,509,-504,-761,758.5,2.5
2.93685121107266,1006,509,-497,-757.5,751.5,6
2.93901384083045,998,509,-489,-753.5,743.5,10
2.94117647058824,996,509,-487,-752.5,741.5,11
2.94333910034602,1004,509,-495,-756.5,749.5,7
2.94550173010381,1004,509,-495,-756.5,749.5,7
2.94766435986159,1011,509,-502,-760,756.5,3.5
2.94982698961938,1011,508,-503,-759.5,757,2.5
2.95198961937716,1011,509,-502,-760,756.5,3.5
2.95415224913495,1021,509,-512,-765,766.5,-1.5
2.95631487889273,1021,509,-512,-765,766.5,-1.5
2.95847750865052,1022,509,-513,-765.5,767.5,-2
2.9606401384083,1019,509,-510,-764,764.5,-0.5
2.96280276816609,1005,509,-496,-757,750.5,6.5
2.96496539792388,997,509,-488,-753,742.5,10.5
2.96712802768166,988,509,-479,-748.5,733.5,15
2.96929065743945,987,509,-478,-748,732.5,15.5
2.97145328719723,988,509,-479,-748.5,733.5,15
2.97361591695502,994,509,-485,-751.5,739.5,12
2.9757785467128,1007,509,-498,-758,752.5,5.5
2.97794117647059,1021,509,-512,-765,766.5,-1.5
2.98010380622837,1022,509,-513,-765.5,767.5,-2
2.98226643598616,1021,509,-512,-765,766.5,-1.5
2.98442906574394,1019,509,-510,-764,764.5,-0.5
2.98659169550173,1020,509,-511,-764.5,765.5,-1
2.98875432525952,1019,509,-510,-764,764.5,-0.5
2.9909169550173,1016,509,-507,-762.5,761.5,1
2.99307958477509,1018,509,-509,-763.5,763.5,0
2.99524221453287,1014,508,-506,-761,760,1
2.99740484429066,1013,509,-504,-761,758.5,2.5
2.99956747404844,1008,509,-499,-758.5,753.5,5
3.00173010380623,1006,509,-497,-757.5,751.5,6
3.00389273356401,1007,509,-498,-758,752.5,5.5
3.0060553633218,1015,509,-506,-762,760.5,1.5
3.00821799307958,1015,509,-506,-762,760.5,1.5
3.01038062283737,1011,509,-502,-760,756.5,3.5
3.01254325259516,1011,509,-502,-760,756.5,3.5
3.01470588235294,1006,509,-497,-757.5,751.5,6
3.01686851211073,1006,509,-497,-757.5,751.5,6
3.01903114186851,1012,509,-503,-760.5,757.5,3
3.0211937716263,1015,509,-506,-762,760.5,1.5
3.02335640138408,1021,509,-512,-765,766.5,-1.5
3.02551903114187,1023,508,-515,-765.5,769,-3.5
3.02768166089965,1023,509,-514,-766,768.5,-2.5
3.02984429065744,1019,508,-511,-763.5,765,-1.5
3.03200692041522,1021,509,-512,-765,766.5,-1.5
3.03416955017301,1021,509,-512,-765,766.5,-1.5
3.0363321799308,1014,509,-505,-761.5,759.5,2
3.03849480968858,1010,509,-501,-759.5,755.5,4
3.04065743944637,1016,509,-507,-762.5,761.5,1
3.04282006920415,1023,509,-514,-766,768.5,-2.5
3.04498269896194,1023,509,-514,-766,768.5,-2.5
3.04714532871972,1020,509,-511,-764.5,765.5,-1
3.04930795847751,1022,509,-513,-765.5,767.5,-2
3.05147058823529,1023,508,-515,-765.5,769,-3.5
3.05363321799308,1021,509,-512,-765,766.5,-1.5
3.05579584775087,1022,509,-513,-765.5,767.5,-2
3.05795847750865,1020,509,-511,-764.5,765.5,-1
3.06012110726644,1018,508,-510,-763,764,-1
3.06228373702422,1002,509,-493,-755.5,747.5,8
3.06444636678201,1007,509,-498,-758,752.5,5.5
3.06660899653979,1019,509,-510,-764,764.5,-0.5
3.06877162629758,1022,509,-513,-765.5,767.5,-2
3.07093425605536,1021,509,-512,-765,766.5,-1.5
3.07309688581315,1023,508,-515,-765.5,769,-3.5
3.07525951557093,1021,509,-512,-765,766.5,-1.5
3.07742214532872,1021,509,-512,-765,766.5,-1.5
3.07958477508651,1023,508,-515,-765.5,769,-3.5
3.08174740484429,1019,509,-510,-764,764.5,-0.5
3.08391003460208,1023,509,-514,-766,768.5,-2.5
3.08607266435986,1021,509,-512,-765,766.5,-1.5
3.08823529411765,1022,509,-513,-765.5,767.5,-2
3.09039792387543,1022,509,-513,-765.5,767.5,-2
3.09256055363322,1022,509,-513,-765.5,767.5,-2
3.094723183391,1021,509,-512,-765,766.5,-1.5
3.09688581314879,1022,509,-513,-765.5,767.5,-2
3.09904844290657,1022,509,-513,-765.5,767.5,-2
3.10121107266436,1023,509,-514,-766,768.5,-2.5
3.10337370242215,1022,509,-513,-765.5,767.5,-2
3.10553633217993,1021,509,-512,-765,766.5,-1.5
3.10769896193772,1021,509,-512,-765,766.5,-1.5
3.1098615916955,1022,509,-513,-765.5,767.5,-2
3.11202422145329,1022,509,-513,-765.5,767.5,-2
3.11418685121107,1021,509,-512,-765,766.5,-1.5
3.11634948096886,1022,508,-514,-765,768,-3
3.11851211072664,1022,509,-513,-765.5,767.5,-2
3.12067474048443,1021,509,-512,-765,766.5,-1.5
3.12283737024221,1022,509,-513,-765.5,767.5,-2
3.125,1023,509,-514,-766,768.5,-2.5
3.12716262975779,1023,508,-515,-765.5,769,-3.5
3.12932525951557,1022,509,-513,-765.5,767.5,-2
3.13148788927336,1021,509,-512,-765,766.5,-1.5
3.13365051903114,1021,509,-512,-765,766.5,-1.5
3.13581314878893,1019,509,-510,-764,764.5,-0.5
3.13797577854671,1021,509,-512,-765,766.5,-1.5
3.1401384083045,1023,509,-514,-766,768.5,-2.5
3.14230103806228,1019,508,-511,-763.5,765,-1.5
3.14446366782007,1021,509,-512,-765,766.5,-1.5
3.14662629757785,1023,509,-514,-766,768.5,-2.5
3.14878892733564,1023,509,-514,-766,768.5,-2.5
3.15095155709343,1019,509,-510,-764,764.5,-0.5
3.15311418685121,1018,509,-509,-763.5,763.5,0
3.155276816609,1014,509,-505,-761.5,759.5,2
3.15743944636678,1016,509,-507,-762.5,761.5,1
3.15960207612457,1021,509,-512,-765,766.5,-1.5
3.16176470588235,1020,509,-511,-764.5,765.5,-1
3.16392733564014,1021,509,-512,-765,766.5,-1.5
3.16608996539792,1023,509,-514,-766,768.5,-2.5
3.16825259515571,1021,509,-512,-765,766.5,-1.5
3.1704152249135,1021,509,-512,-765,766.5,-1.5
3.17257785467128,1015,509,-506,-762,760.5,1.5
3.17474048442907,1004,509,-495,-756.5,749.5,7
3.17690311418685,1000,509,-491,-754.5,745.5,9
3.17906574394464,1001,508,-493,-754.5,747,7.5
3.18122837370242,1004,509,-495,-756.5,749.5,7
3.18339100346021,1002,508,-494,-755,748,7
3.18555363321799,999,509,-490,-754,744.5,9.5
3.18771626297578,995,509,-486,-752,740.5,11.5
3.18987889273356,1002,509,-493,-755.5,747.5,8
3.19204152249135,1009,509,-500,-759,754.5,4.5
3.19420415224914,1009,509,-500,-759,754.5,4.5
3.19636678200692,1014,509,-505,-761.5,759.5,2
3.19852941176471,1020,509,-511,-764.5,765.5,-1
3.20069204152249,1021,509,-512,-765,766.5,-1.5
3.20285467128028,1022,509,-513,-765.5,767.5,-2
3.20501730103806,1021,509,-512,-765,766.5,-1.5
3.20717993079585,1015,509,-506,-762,760.5,1.5
3.20934256055363,1005,509,-496,-757,750.5,6.5
3.21150519031142,1006,509,-497,-757.5,751.5,6
3.2136678200692,1019,509,-510,-764,764.5,-0.5
3.21583044982699,1021,509,-512,-765,766.5,-1.5
3.21799307958478,1019,509,-510,-764,764.5,-0.5
3.22015570934256,1015,509,-506,-762,760.5,1.5
3.22231833910035,1005,509,-496,-757,750.5,6.5
3.22448096885813,995,509,-486,-752,740.5,11.5
3.22664359861592,995,509,-486,-752,740.5,11.5
3.2288062283737,995,509,-486,-752,740.5,11.5
3.23096885813149,999,509,-490,-754,744.5,9.5
3.23313148788927,1000,509,-491,-754.5,745.5,9
3.23529411764706,1000,509,-491,-754.5,745.5,9
3.23745674740484,1009,509,-500,-759,754.5,4.5
3.23961937716263,1022,509,-513,-765.5,767.5,-2
3.24178200692042,1020,509,-511,-764.5,765.5,-1
3.2439446366782,1021,509,-512,-765,766.5,-1.5
3.24610726643599,1021,508,-513,-764.5,767,-2.5
3.24826989619377,1023,509,-514,-766,768.5,-2.5
3.25043252595156,1021,509,-512,-765,766.5,-1.5
3.25259515570934,1021,509,-512,-765,766.5,-1.5
3.25475778546713,1020,509,-511,-764.5,765.5,-1
3.25692041522491,1020,509,-511,-764.5,765.5,-1
3.2590830449827,1021,509,-512,-765,766.5,-1.5
3.26124567474048,1022,509,-513,-765.5,767.5,-2
3.26340830449827,1021,509,-512,-765,766.5,-1.5
3.26557093425606,1022,508,-514,-765,768,-3
3.26773356401384,1021,509,-512,-765,766.5,-1.5
3.26989619377163,1022,509,-513,-765.5,767.5,-2
3.27205882352941,1021,509,-512,-765,766.5,-1.5
3.2742214532872,1023,509,-514,-766,768.5,-2.5
3.27638408304498,1022,509,-513,-765.5,767.5,-2
3.27854671280277,1010,509,-501,-759.5,755.5,4
3.28070934256055,999,509,-490,-754,744.5,9.5
3.28287197231834,1002,509,-493,-755.5,747.5,8
3.28503460207612,1013,509,-504,-761,758.5,2.5
3.28719723183391,1021,509,-512,-765,766.5,-1.5
3.2893598615917,1022,509,-513,-765.5,767.5,-2
3.29152249134948,1022,509,-513,-765.5,767.5,-2
3.29368512110727,1021,509,-512,-765,766.5,-1.5
3.29584775086505,1022,509,-513,-765.5,767.5,-2
3.29801038062284,1021,509,-512,-765,766.5,-1.5
3.30017301038062,1009,509,-500,-759,754.5,4.5
3.30233564013841,1006,509,-497,-757.5,751.5,6
3.30449826989619,1009,509,-500,-759,754.5,4.5
3.30666089965398,1014,508,-506,-761,760,1
3.30882352941176,1021,509,-512,-765,766.5,-1.5
3.31098615916955,1020,509,-511,-764.5,765.5,-1
3.31314878892734,1021,509,-512,-765,766.5,-1.5
3.31531141868512,1021,509,-512,-765,766.5,-1.5
3.31747404844291,1021,509,-512,-765,766.5,-1.5
3.31963667820069,1022,509,-513,-765.5,767.5,-2
3.32179930795848,1016,509,-507,-762.5,761.5,1
3.32396193771626,1017,509,-508,-763,762.5,0.5
3.32612456747405,1014,509,-505,-761.5,759.5,2
3.32828719723183,1005,509,-496,-757,750.5,6.5
3.33044982698962,1000,509,-491,-754.5,745.5,9
3.3326124567474,1000,509,-491,-754.5,745.5,9
3.33477508650519,998,508,-490,-753,744,9
3.33693771626298,997,509,-488,-753,742.5,10.5
3.33910034602076,992,508,-484,-750,738,12
3.34126297577855,995,509,-486,-752,740.5,11.5
3.34342560553633,996,509,-487,-752.5,741.5,11
3.34558823529412,1000,509,-491,-754.5,745.5,9
3.3477508650519,1008,509,-499,-758.5,753.5,5
3.34991349480969,1011,509,-502,-760,756.5,3.5
3.35207612456747,1016,509,-507,-762.5,761.5,1
3.35423875432526,1018,509,-509,-763.5,763.5,0
3.35640138408305,1023,508,-515,-765.5,769,-3.5
3.35856401384083,1020,509,-511,-764.5,765.5,-1
3.36072664359862,1018,509,-509,-763.5,763.5,0
3.3628892733564,1011,509,-502,-760,756.5,3.5
3.36505190311419,1011,509,-502,-760,756.5,3.5
3.36721453287197,1017,509,-508,-763,762.5,0.5
3.36937716262976,1016,509,-507,-762.5,761.5,1
3.37153979238754,1008,509,-499,-758.5,753.5,5
3.37370242214533,1010,509,-501,-759.5,755.5,4
3.37586505190311,1014,508,-506,-761,760,1
3.3780276816609,1016,509,-507,-762.5,761.5,1
3.38019031141869,1016,509,-507,-762.5,761.5,1
3.38235294117647,1017,509,-508,-763,762.5,0.5
3.38451557093426,1021,509,-512,-765,766.5,-1.5
3.38667820069204,1021,509,-512,-765,766.5,-1.5
3.38884083044983,1022,509,-513,-765.5,767.5,-2
3.39100346020761,1023,509,-514,-766,768.5,-2.5
3.3931660899654,1023,509,-514,-766,768.5,-2.5
3.39532871972318,1022,509,-513,-765.5,767.5,-2
3.39749134948097,1023,509,-514,-766,768.5,-2.5
3.39965397923875,1021,509,-512,-765,766.5,-1.5
3.40181660899654,1021,509,-512,-765,766.5,-1.5
3.40397923875433,1021,509,-512,-765,766.5,-1.5
3.40614186851211,1021,509,-512,-765,766.5,-1.5
3.4083044982699,1022,509,-513,-765.5,767.5,-2
3.41046712802768,1021,509,-512,-765,766.5,-1.5
3.41262975778547,1017,509,-508,-763,762.5,0.5
3.41479238754325,1021,509,-512,-765,766.5,-1.5
3.41695501730104,1021,509,-512,-765,766.5,-1.5
3.41911764705882,1022,509,-513,-765.5,767.5,-2
3.42128027681661,1022,509,-513,-765.5,767.5,-2
3.42344290657439,1021,509,-512,-765,766.5,-1.5
3.42560553633218,1021,509,-512,-765,766.5,-1.5
3.42776816608997,1022,509,-513,-765.5,767.5,-2
3.42993079584775,1022,509,-513,-765.5,767.5,-2
3.43209342560554,1021,509,-512,-765,766.5,-1.5
3.43425605536332,1021,509,-512,-765,766.5,-1.5
3.43641868512111,1020,509,-511,-764.5,765.5,-1
3.43858131487889,1023,509,-514,-766,768.5,-2.5
3.44074394463668,1021,509,-512,-765,766.5,-1.5
3.44290657439446,1022,509,-513,-765.5,767.5,-2
3.44506920415225,1021,509,-512,-765,766.5,-1.5
3.44723183391003,1021,509,-512,-765,766.5,-1.5
3.44939446366782,1022,509,-513,-765.5,767.5,-2
3.45155709342561,1021,509,-512,-765,766.5,-1.5
3.45371972318339,1023,509,-514,-766,768.5,-2.5
3.45588235294118,1020,509,-511,-764.5,765.5,-1
3.45804498269896,1022,509,-513,-765.5,767.5,-2
3.46020761245675,1021,509,-512,-765,766.5,-1.5
3.46237024221453,1021,509,-512,-765,766.5,-1.5
3.46453287197232,1022,508,-514,-765,768,-3
3.4666955017301,1022,508,-514,-765,768,-3
3.46885813148789,1023,509,-514,-766,768.5,-2.5
3.47102076124567,1021,509,-512,-765,766.5,-1.5
3.47318339100346,1022,509,-513,-765.5,767.5,-2
3.47534602076125,1022,509,-513,-765.5,767.5,-2
3.47750865051903,1022,509,-513,-765.5,767.5,-2
3.47967128027682,1020,509,-511,-764.5,765.5,-1
3.4818339100346,1019,509,-510,-764,764.5,-0.5
3.48399653979239,1022,509,-513,-765.5,767.5,-2
3.48615916955017,1021,509,-512,-765,766.5,-1.5
3.48832179930796,1021,509,-512,-765,766.5,-1.5
3.49048442906574,1023,509,-514,-766,768.5,-2.5
3.49264705882353,1020,509,-511,-764.5,765.5,-1
3.49480968858132,1021,509,-512,-765,766.5,-1.5
3.4969723183391,1023,509,-514,-766,768.5,-2.5
3.49913494809689,1023,509,-514,-766,768.5,-2.5
3.50129757785467,1019,509,-510,-764,764.5,-0.5
3.50346020761246,1021,509,-512,-765,766.5,-1.5
3.50562283737024,1021,509,-512,-765,766.5,-1.5
3.50778546712803,1021,509,-512,-765,766.5,-1.5
3.50994809688581,1022,509,-513,-765.5,767.5,-2
3.5121107266436,1021,509,-512,-765,766.5,-1.5
3.51427335640138,1021,509,-512,-765,766.5,-1.5
3.51643598615917,1019,509,-510,-764,764.5,-0.5
3.51859861591696,1020,509,-511,-764.5,765.5,-1
3.52076124567474,1023,509,-514,-766,768.5,-2.5
3.52292387543253,1023,508,-515,-765.5,769,-3.5
3.52508650519031,1020,508,-512,-764,766,-2
3.5272491349481,1021,509,-512,-765,766.5,-1.5
3.52941176470588,1021,509,-512,-765,766.5,-1.5
3.53157439446367,1022,509,-513,-765.5,767.5,-2
3.53373702422145,1021,509,-512,-765,766.5,-1.5
3.53589965397924,1020,509,-511,-764.5,765.5,-1
3.53806228373702,1020,509,-511,-764.5,765.5,-1
3.54022491349481,1020,509,-511,-764.5,765.5,-1
3.5423875432526,1020,509,-511,-764.5,765.5,-1
3.54455017301038,1022,509,-513,-765.5,767.5,-2
3.54671280276817,1019,509,-510,-764,764.5,-0.5
3.54887543252595,1008,509,-499,-758.5,753.5,5
3.55103806228374,1002,509,-493,-755.5,747.5,8
3.55320069204152,996,509,-487,-752.5,741.5,11
3.55536332179931,1003,509,-494,-756,748.5,7.5
3.55752595155709,1012,509,-503,-760.5,757.5,3
3.55968858131488,1023,508,-515,-765.5,769,-3.5
3.56185121107266,1022,509,-513,-765.5,767.5,-2
3.56401384083045,1021,509,-512,-765,766.5,-1.5
3.56617647058824,1016,509,-507,-762.5,761.5,1
3.56833910034602,1007,508,-499,-757.5,753,4.5
3.57050173010381,1005,509,-496,-757,750.5,6.5
3.57266435986159,1001,509,-492,-755,746.5,8.5
3.57482698961938,997,509,-488,-753,742.5,10.5
3.57698961937716,993,509,-484,-751,738.5,12.5
3.57915224913495,996,509,-487,-752.5,741.5,11
3.58131487889273,1004,509,-495,-756.5,749.5,7
3.58347750865052,1007,509,-498,-758,752.5,5.5
3.5856401384083,1013,509,-504,-761,758.5,2.5
3.58780276816609,1016,509,-507,-762.5,761.5,1
3.58996539792388,1019,509,-510,-764,764.5,-0.5
3.59212802768166,1022,509,-513,-765.5,767.5,-2
3.59429065743945,1021,509,-512,-765,766.5,-1.5
3.59645328719723,1021,509,-512,-765,766.5,-1.5
3.59861591695502,1012,509,-503,-760.5,757.5,3
3.6007785467128,1003,509,-494,-756,748.5,7.5
3.60294117647059,1003,509,-494,-756,748.5,7.5
3.60510380622837,1012,509,-503,-760.5,757.5,3
3.60726643598616,1009,509,-500,-759,754.5,4.5
3.60942906574394,1006,509,-497,-757.5,751.5,6
3.61159169550173,1004,509,-495,-756.5,749.5,7
3.61375432525952,1002,509,-493,-755.5,747.5,8
3.6159169550173,1003,509,-494,-756,748.5,7.5
3.61807958477509,1006,509,-497,-757.5,751.5,6
3.62024221453287,1009,508,-501,-758.5,755,3.5
3.62240484429066,1012,509,-503,-760.5,757.5,3
3.62456747404844,1011,509,-502,-760,756.5,3.5
3.62673010380623,1020,509,-511,-764.5,765.5,-1
3.62889273356401,1021,509,-512,-765,766.5,-1.5
3.6310553633218,1022,508,-514,-765,768,-3
3.63321799307958,1023,509,-514,-766,768.5,-2.5
3.63538062283737,1023,509,-514,-766,768.5,-2.5
3.63754325259516,1019,509,-510,-764,764.5,-0.5
3.63970588235294,1019,509,-510,-764,764.5,-0.5
3.64186851211073,1010,509,-501,-759.5,755.5,4
3.64403114186851,997,509,-488,-753,742.5,10.5
3.6461937716263,1001,509,-492,-755,746.5,8.5
3.64835640138408,1010,509,-501,-759.5,755.5,4
3.65051903114187,1016,508,-508,-762,762,0
3.65268166089965,1021,509,-512,-765,766.5,-1.5
3.65484429065744,1022,509,-513,-765.5,767.5,-2
3.65700692041522,1022,509,-513,-765.5,767.5,-2
3.65916955017301,1021,509,-512,-765,766.5,-1.5
3.6613321799308,1021,509,-512,-765,766.5,-1.5
3.66349480968858,1022,509,-513,-765.5,767.5,-2
3.66565743944637,1023,508,-515,-765.5,769,-3.5
3.66782006920415,1021,509,-512,-765,766.5,-1.5
3.66998269896194,1020,509,-511,-764.5,765.5,-1
3.67214532871972,1022,509,-513,-765.5,767.5,-2
3.67430795847751,1020,509,-511,-764.5,765.5,-1
3.67647058823529,1022,509,-513,-765.5,767.5,-2
3.67863321799308,1021,509,-512,-765,766.5,-1.5
3.68079584775087,1021,509,-512,-765,766.5,-1.5
3.68295847750865,1021,509,-512,-765,766.5,-1.5
3.68512110726644,1022,509,-513,-765.5,767.5,-2
3.68728373702422,1021,509,-512,-765,766.5,-1.5
3.68944636678201,1020,509,-511,-764.5,765.5,-1
3.69160899653979,1021,509,-512,-765,766.5,-1.5
3.69377162629758,1021,509,-512,-765,766.5,-1.5
3.69593425605536,1021,509,-512,-765,766.5,-1.5
3.69809688581315,1022,509,-513,-765.5,767.5,-2
3.70025951557093,1020,509,-511,-764.5,765.5,-1
3.70242214532872,1023,509,-514,-766,768.5,-2.5
3.70458477508651,1020,509,-511,-764.5,765.5,-1
3.70674740484429,1021,509,-512,-765,766.5,-1.5
3.70891003460208,1020,509,-511,-764.5,765.5,-1
3.71107266435986,1023,509,-514,-766,768.5,-2.5
3.71323529411765,1021,509,-512,-765,766.5,-1.5
3.71539792387543,1023,509,-514,-766,768.5,-2.5
3.71756055363322,1018,509,-509,-763.5,763.5,0
3.719723183391,1021,509,-512,-765,766.5,-1.5
3.72188581314879,1021,509,-512,-765,766.5,-1.5
3.72404844290657,1022,509,-513,-765.5,767.5,-2
3.72621107266436,1022,509,-513,-765.5,767.5,-2
3.72837370242215,1022,509,-513,-765.5,767.5,-2
3.73053633217993,1023,509,-514,-766,768.5,-2.5
3.73269896193772,1023,509,-514,-766,768.5,-2.5
3.7348615916955,1021,509,-512,-765,766.5,-1.5
3.73702422145329,1022,509,-513,-765.5,767.5,-2
3.73918685121107,1021,509,-512,-765,766.5,-1.5
3.74134948096886,1022,509,-513,-765.5,767.5,-2
3.74351211072664,1022,509,-513,-765.5,767.5,-2
3.74567474048443,1022,509,-513,-765.5,767.5,-2
3.74783737024221,1023,509,-514,-766,768.5,-2.5
3.75,1021,509,-512,-765,766.5,-1.5
3.75216262975779,1022,509,-513,-765.5,767.5,-2
3.75432525951557,1021,509,-512,-765,766.5,-1.5
3.75648788927336,1019,509,-510,-764,764.5,-0.5
3.75865051903114,1021,509,-512,-765,766.5,-1.5
3.76081314878893,1020,509,-511,-764.5,765.5,-1
3.76297577854671,1022,509,-513,-765.5,767.5,-2
3.7651384083045,1020,509,-511,-764.5,765.5,-1
3.76730103806228,1021,509,-512,-765,766.5,-1.5
3.76946366782007,1021,509,-512,-765,766.5,-1.5
3.77162629757785,1020,509,-511,-764.5,765.5,-1
3.77378892733564,1020,509,-511,-764.5,765.5,-1
3.77595155709343,1021,509,-512,-765,766.5,-1.5
3.77811418685121,1022,509,-513,-765.5,767.5,-2
3.780276816609,1021,509,-512,-765,766.5,-1.5
3.78243944636678,1021,509,-512,-765,766.5,-1.5
3.78460207612457,1022,509,-513,-765.5,767.5,-2
3.78676470588235,1020,509,-511,-764.5,765.5,-1
3.78892733564014,1020,509,-511,-764.5,765.5,-1
3.79108996539792,1020,509,-511,-764.5,765.5,-1
3.79325259515571,1022,509,-513,-765.5,767.5,-2
3.7954152249135,1021,509,-512,-765,766.5,-1.5
3.79757785467128,1021,509,-512,-765,766.5,-1.5
3.79974048442907,1019,509,-510,-764,764.5,-0.5
3.80190311418685,1013,509,-504,-761,758.5,2.5
3.80406574394464,1018,509,-509,-763.5,763.5,0
3.80622837370242,1020,509,-511,-764.5,765.5,-1
3.80839100346021,1020,509,-511,-764.5,765.5,-1
3.81055363321799,1021,509,-512,-765,766.5,-1.5
3.81271626297578,1022,509,-513,-765.5,767.5,-2
3.81487889273356,1021,509,-512,-765,766.5,-1.5
3.81704152249135,1020,509,-511,-764.5,765.5,-1
3.81920415224914,1015,509,-506,-762,760.5,1.5
3.82136678200692,1015,509,-506,-762,760.5,1.5
3.82352941176471,1016,509,-507,-762.5,761.5,1
3.82569204152249,1015,509,-506,-762,760.5,1.5
3.82785467128028,1011,509,-502,-760,756.5,3.5
3.83001730103806,1011,509,-502,-760,756.5,3.5
3.83217993079585,1006,508,-498,-757,752,5
3.83434256055363,997,509,-488,-753,742.5,10.5
3.83650519031142,1003,509,-494,-756,748.5,7.5
3.8386678200692,1012,509,-503,-760.5,757.5,3
3.84083044982699,1017,509,-508,-763,762.5,0.5
3.84299307958478,1023,508,-515,-765.5,769,-3.5
3.84515570934256,1023,508,-515,-765.5,769,-3.5
3.84731833910035,1020,509,-511,-764.5,765.5,-1
3.84948096885813,1021,509,-512,-765,766.5,-1.5
3.85164359861592,1017,509,-508,-763,762.5,0.5
3.8538062283737,1020,508,-512,-764,766,-2
3.85596885813149,1014,509,-505,-761.5,759.5,2
3.85813148788927,1006,509,-497,-757.5,751.5,6
3.86029411764706,999,509,-490,-754,744.5,9.5
3.86245674740484,987,509,-478,-748,732.5,15.5
3.86461937716263,977,509,-468,-743,722.5,20.5
3.86678200692042,984,509,-475,-746.5,729.5,17
3.8689446366782,993,509,-484,-751,738.5,12.5
3.87110726643599,998,508,-490,-753,744,9
3.87326989619377,1003,509,-494,-756,748.5,7.5
3.87543252595156,1001,509,-492,-755,746.5,8.5
3.87759515570934,1003,509,-494,-756,748.5,7.5
3.87975778546713,1021,509,-512,-765,766.5,-1.5
3.88192041522491,1021,508,-513,-764.5,767,-2.5
3.8840830449827,1019,509,-510,-764,764.5,-0.5
3.88624567474048,1023,509,-514,-766,768.5,-2.5
3.88840830449827,1023,509,-514,-766,768.5,-2.5
3.89057093425606,1019,509,-510,-764,764.5,-0.5
3.89273356401384,1019,509,-510,-764,764.5,-0.5
3.89489619377163,1020,509,-511,-764.5,765.5,-1
3.89705882352941,1022,509,-513,-765.5,767.5,-2
3.8992214532872,1021,509,-512,-765,766.5,-1.5
3.90138408304498,1022,509,-513,-765.5,767.5,-2
3.90354671280277,1020,509,-511,-764.5,765.5,-1
3.90570934256055,1022,509,-513,-765.5,767.5,-2
3.90787197231834,1021,509,-512,-765,766.5,-1.5
3.91003460207612,1021,509,-512,-765,766.5,-1.5
3.91219723183391,1021,509,-512,-765,766.5,-1.5
3.9143598615917,1023,509,-514,-766,768.5,-2.5
3.91652249134948,1022,509,-513,-765.5,767.5,-2
3.91868512110727,1020,509,-511,-764.5,765.5,-1
3.92084775086505,1011,509,-502,-760,756.5,3.5
3.92301038062284,1013,509,-504,-761,758.5,2.5
3.92517301038062,1019,509,-510,-764,764.5,-0.5
3.92733564013841,1021,509,-512,-765,766.5,-1.5
3.92949826989619,1021,509,-512,-765,766.5,-1.5
3.93166089965398,1021,509,-512,-765,766.5,-1.5
3.93382352941176,1022,509,-513,-765.5,767.5,-2
3.93598615916955,1019,509,-510,-764,764.5,-0.5
3.93814878892734,1022,509,-513,-765.5,767.5,-2
3.94031141868512,1022,509,-513,-765.5,767.5,-2
3.94247404844291,1022,509,-513,-765.5,767.5,-2
3.94463667820069,1022,509,-513,-765.5,767.5,-2
3.94679930795848,1021,509,-512,-765,766.5,-1.5
3.94896193771626,1017,509,-508,-763,762.5,0.5
3.95112456747405,1014,509,-505,-761.5,759.5,2
3.95328719723183,1005,509,-496,-757,750.5,6.5
3.95544982698962,1000,508,-492,-754,746,8
3.9576124567474,997,509,-488,-753,742.5,10.5
3.95977508650519,999,509,-490,-754,744.5,9.5
3.96193771626298,1004,509,-495,-756.5,749.5,7
3.96410034602076,1011,509,-502,-760,756.5,3.5
3.96626297577855,1006,509,-497,-757.5,751.5,6
3.96842560553633,1009,509,-500,-759,754.5,4.5
3.97058823529412,1014,509,-505,-761.5,759.5,2
3.9727508650519,1021,509,-512,-765,766.5,-1.5
3.97491349480969,1021,509,-512,-765,766.5,-1.5
3.97707612456747,1021,509,-512,-765,766.5,-1.5
3.97923875432526,1013,509,-504,-761,758.5,2.5
3.98140138408305,1005,509,-496,-757,750.5,6.5
3.98356401384083,1000,509,-491,-754.5,745.5,9
3.98572664359862,998,509,-489,-753.5,743.5,10
3.9878892733564,1002,508,-494,-755,748,7
3.99005190311419,1013,509,-504,-761,758.5,2.5
3.99221453287197,1021,509,-512,-765,766.5,-1.5
3.99437716262976,1022,509,-513,-765.5,767.5,-2
3.99653979238754,1023,508,-515,-765.5,769,-3.5
3.99870242214533,1021,509,-512,-765,766.5,-1.5
4.00086505190311,1021,509,-512,-765,766.5,-1.5
4.0030276816609,1021,509,-512,-765,766.5,-1.5
4.00519031141869,1019,509,-510,-764,764.5,-0.5
4.00735294117647,1007,509,-498,-758,752.5,5.5
4.00951557093426,1003,509,-494,-756,748.5,7.5
4.01167820069204,1012,509,-503,-760.5,757.5,3
4.01384083044983,1022,509,-513,-765.5,767.5,-2
4.01600346020761,1021,509,-512,-765,766.5,-1.5
4.0181660899654,1021,509,-512,-765,766.5,-1.5
4.02032871972318,1021,509,-512,-765,766.5,-1.5
4.02249134948097,1020,509,-511,-764.5,765.5,-1
4.02465397923875,1021,509,-512,-765,766.5,-1.5
4.02681660899654,1020,509,-511,-764.5,765.5,-1
4.02897923875433,1022,509,-513,-765.5,767.5,-2
4.03114186851211,1021,509,-512,-765,766.5,-1.5
4.0333044982699,1022,509,-513,-765.5,767.5,-2
4.03546712802768,1021,509,-512,-765,766.5,-1.5
4.03762975778547,1020,509,-511,-764.5,765.5,-1
4.03979238754325,1019,509,-510,-764,764.5,-0.5
4.04195501730104,1022,509,-513,-765.5,767.5,-2
4.04411764705882,1023,508,-515,-765.5,769,-3.5
4.04628027681661,1021,509,-512,-765,766.5,-1.5
4.04844290657439,1022,508,-514,-765,768,-3
4.05060553633218,1020,509,-511,-764.5,765.5,-1
4.05276816608997,1021,509,-512,-765,766.5,-1.5
4.05493079584775,1021,509,-512,-765,766.5,-1.5
4.05709342560554,1022,509,-513,-765.5,767.5,-2
4.05925605536332,1020,509,-511,-764.5,765.5,-1
4.06141868512111,1021,509,-512,-765,766.5,-1.5
4.06358131487889,1021,509,-512,-765,766.5,-1.5
4.06574394463668,1021,509,-512,-765,766.5,-1.5
4.06790657439446,1022,509,-513,-765.5,767.5,-2
4.07006920415225,1021,509,-512,-765,766.5,-1.5
4.07223183391003,1021,509,-512,-765,766.5,-1.5
4.07439446366782,1020,509,-511,-764.5,765.5,-1
4.07655709342561,1023,509,-514,-766,768.5,-2.5
4.07871972318339,1022,509,-513,-765.5,767.5,-2
4.08088235294118,1023,509,-514,-766,768.5,-2.5
4.08304498269896,1022,509,-513,-765.5,767.5,-2
4.08520761245675,1021,509,-512,-765,766.5,-1.5
4.08737024221453,1023,509,-514,-766,768.5,-2.5
4.08953287197232,1022,509,-513,-765.5,767.5,-2
4.0916955017301,1021,509,-512,-765,766.5,-1.5
4.09385813148789,1021,509,-512,-765,766.5,-1.5
4.09602076124567,1022,509,-513,-765.5,767.5,-2
4.09818339100346,1021,509,-512,-765,766.5,-1.5
4.10034602076125,1022,509,-513,-765.5,767.5,-2
4.10250865051903,1022,509,-513,-765.5,767.5,-2
4.10467128027682,1020,509,-511,-764.5,765.5,-1
4.1068339100346,1021,509,-512,-765,766.5,-1.5
4.10899653979239,1022,509,-513,-765.5,767.5,-2
4.11115916955017,1023,509,-514,-766,768.5,-2.5
4.11332179930796,1020,509,-511,-764.5,765.5,-1
4.11548442906574,1022,509,-513,-765.5,767.5,-2
4.11764705882353,1022,509,-513,-765.5,767.5,-2
4.11980968858131,1021,509,-512,-765,766.5,-1.5
4.1219723183391,1022,509,-513,-765.5,767.5,-2
4.12413494809689,1022,509,-513,-765.5,767.5,-2
4.12629757785467,1021,509,-512,-765,766.5,-1.5
4.12846020761246,1021,509,-512,-765,766.5,-1.5
4.13062283737024,1021,509,-512,-765,766.5,-1.5
4.13278546712803,1021,509,-512,-765,766.5,-1.5
4.13494809688581,1022,509,-513,-765.5,767.5,-2
4.1371107266436,1020,509,-511,-764.5,765.5,-1
4.13927335640138,1023,509,-514,-766,768.5,-2.5
4.14143598615917,1021,509,-512,-765,766.5,-1.5
4.14359861591696,1023,509,-514,-766,768.5,-2.5
4.14576124567474,1021,509,-512,-765,766.5,-1.5
4.14792387543253,1021,509,-512,-765,766.5,-1.5
4.15008650519031,1023,509,-514,-766,768.5,-2.5
4.1522491349481,1022,509,-513,-765.5,767.5,-2
4.15441176470588,1023,509,-514,-766,768.5,-2.5
4.15657439446367,1021,509,-512,-765,766.5,-1.5
4.15873702422145,1022,509,-513,-765.5,767.5,-2
4.16089965397924,1021,509,-512,-765,766.5,-1.5
4.16306228373702,1020,509,-511,-764.5,765.5,-1
4.16522491349481,1023,509,-514,-766,768.5,-2.5
4.1673875432526,1021,509,-512,-765,766.5,-1.5
4.16955017301038,1020,509,-511,-764.5,765.5,-1
4.17171280276817,1022,509,-513,-765.5,767.5,-2
4.17387543252595,1021,509,-512,-765,766.5,-1.5
4.17603806228374,1021,509,-512,-765,766.5,-1.5
4.17820069204152,1021,509,-512,-765,766.5,-1.5
4.18036332179931,1022,509,-513,-765.5,767.5,-2
4.18252595155709,1021,509,-512,-765,766.5,-1.5
4.18468858131488,1021,509,-512,-765,766.5,-1.5
4.18685121107267,1018,509,-509,-763.5,763.5,0
4.18901384083045,1018,509,-509,-763.5,763.5,0
4.19117647058824,1020,509,-511,-764.5,765.5,-1
4.19333910034602,1022,509,-513,-765.5,767.5,-2
4.19550173010381,1023,509,-514,-766,768.5,-2.5
4.19766435986159,1021,509,-512,-765,766.5,-1.5
4.19982698961938,1020,509,-511,-764.5,765.5,-1
4.20198961937716,1010,509,-501,-759.5,755.5,4
4.20415224913495,1005,509,-496,-757,750.5,6.5
4.20631487889273,1004,509,-495,-756.5,749.5,7
4.20847750865052,1003,509,-494,-756,748.5,7.5
4.2106401384083,1004,509,-495,-756.5,749.5,7
4.21280276816609,1005,509,-496,-757,750.5,6.5
4.21496539792388,1003,509,-494,-756,748.5,7.5
4.21712802768166,1000,509,-491,-754.5,745.5,9
4.21929065743945,997,509,-488,-753,742.5,10.5
4.22145328719723,1000,509,-491,-754.5,745.5,9
4.22361591695502,1004,509,-495,-756.5,749.5,7
4.2257785467128,1010,508,-502,-759,756,3
4.22794117647059,1008,509,-499,-758.5,753.5,5
4.23010380622837,1009,509,-500,-759,754.5,4.5
4.23226643598616,1014,508,-506,-761,760,1
4.23442906574394,1021,509,-512,-765,766.5,-1.5
4.23659169550173,1021,509,-512,-765,766.5,-1.5
4.23875432525952,1013,509,-504,-761,758.5,2.5
4.2409169550173,1010,509,-501,-759.5,755.5,4
4.24307958477509,1005,509,-496,-757,750.5,6.5
4.24524221453287,1000,508,-492,-754,746,8
4.24740484429066,997,509,-488,-753,742.5,10.5
4.24956747404844,996,509,-487,-752.5,741.5,11
4.25173010380623,999,509,-490,-754,744.5,9.5
4.25389273356401,1002,509,-493,-755.5,747.5,8
4.2560553633218,1002,509,-493,-755.5,747.5,8
4.25821799307958,1008,509,-499,-758.5,753.5,5
4.26038062283737,1011,509,-502,-760,756.5,3.5
4.26254325259516,1008,509,-499,-758.5,753.5,5
4.26470588235294,1000,508,-492,-754,746,8
4.26686851211073,998,509,-489,-753.5,743.5,10
4.26903114186851,998,509,-489,-753.5,743.5,10
4.2711937716263,1004,509,-495,-756.5,749.5,7
4.27335640138408,1007,509,-498,-758,752.5,5.5
4.27551903114187,1010,509,-501,-759.5,755.5,4
4.27768166089965,1011,509,-502,-760,756.5,3.5
4.27984429065744,1011,509,-502,-760,756.5,3.5
4.28200692041522,1006,509,-497,-757.5,751.5,6
4.28416955017301,1000,509,-491,-754.5,745.5,9
4.2863321799308,1000,508,-492,-754,746,8
4.28849480968858,1003,509,-494,-756,748.5,7.5
4.29065743944637,1003,509,-494,-756,748.5,7.5
4.29282006920415,1002,508,-494,-755,748,7
4.29498269896194,1006,509,-497,-757.5,751.5,6
4.29714532871972,1018,509,-509,-763.5,763.5,0
4.29930795847751,1021,509,-512,-765,766.5,-1.5
4.30147058823529,1023,508,-515,-765.5,769,-3.5
4.30363321799308,1019,509,-510,-764,764.5,-0.5
4.30579584775086,1021,509,-512,-765,766.5,-1.5
4.30795847750865,1011,508,-503,-759.5,757,2.5
4.31012110726644,1011,509,-502,-760,756.5,3.5
4.31228373702422,1018,509,-509,-763.5,763.5,0
4.31444636678201,1021,509,-512,-765,766.5,-1.5
4.31660899653979,1021,509,-512,-765,766.5,-1.5
4.31877162629758,1022,509,-513,-765.5,767.5,-2
4.32093425605536,1016,509,-507,-762.5,761.5,1
4.32309688581315,1007,509,-498,-758,752.5,5.5
4.32525951557093,997,509,-488,-753,742.5,10.5
4.32742214532872,989,509,-480,-749,734.5,14.5
4.32958477508651,980,509,-471,-744.5,725.5,19
4.33174740484429,986,509,-477,-747.5,731.5,16
4.33391003460208,998,508,-490,-753,744,9
4.33607266435986,1003,508,-495,-755.5,749,6.5
4.33823529411765,1016,509,-507,-762.5,761.5,1
4.34039792387543,1023,509,-514,-766,768.5,-2.5
4.34256055363322,1022,509,-513,-765.5,767.5,-2
4.344723183391,1022,509,-513,-765.5,767.5,-2
4.34688581314879,1021,509,-512,-765,766.5,-1.5
4.34904844290657,1021,509,-512,-765,766.5,-1.5
4.35121107266436,1020,509,-511,-764.5,765.5,-1
4.35337370242215,1022,509,-513,-765.5,767.5,-2
4.35553633217993,1017,509,-508,-763,762.5,0.5
4.35769896193772,1016,509,-507,-762.5,761.5,1
4.3598615916955,1017,509,-508,-763,762.5,0.5
4.36202422145329,1019,509,-510,-764,764.5,-0.5
4.36418685121107,1022,509,-513,-765.5,767.5,-2
4.36634948096886,1021,509,-512,-765,766.5,-1.5
4.36851211072664,1023,508,-515,-765.5,769,-3.5
4.37067474048443,1022,509,-513,-765.5,767.5,-2
4.37283737024221,1020,508,-512,-764,766,-2
4.375,1021,509,-512,-765,766.5,-1.5
4.37716262975779,1021,509,-512,-765,766.5,-1.5
4.37932525951557,1022,509,-513,-765.5,767.5,-2
4.38148788927336,1022,509,-513,-765.5,767.5,-2
4.38365051903114,1023,509,-514,-766,768.5,-2.5
4.38581314878893,1017,509,-508,-763,762.5,0.5
4.38797577854671,1019,509,-510,-764,764.5,-0.5
4.3901384083045,1019,509,-510,-764,764.5,-0.5
4.39230103806228,1021,509,-512,-765,766.5,-1.5
4.39446366782007,1021,509,-512,-765,766.5,-1.5
4.39662629757786,1021,509,-512,-765,766.5,-1.5
4.39878892733564,1021,509,-512,-765,766.5,-1.5
4.40095155709343,1021,509,-512,-765,766.5,-1.5
4.40311418685121,1022,509,-513,-765.5,767.5,-2
4.405276816609,1022,509,-513,-765.5,767.5,-2
4.40743944636678,1022,509,-513,-765.5,767.5,-2
4.40960207612457,1020,509,-511,-764.5,765.5,-1
4.41176470588235,1021,509,-512,-765,766.5,-1.5
4.41392733564014,1021,509,-512,-765,766.5,-1.5
4.41608996539792,1021,509,-512,-765,766.5,-1.5
4.41825259515571,1020,509,-511,-764.5,765.5,-1
4.4204152249135,1021,509,-512,-765,766.5,-1.5
4.42257785467128,1021,509,-512,-765,766.5,-1.5
4.42474048442907,1021,509,-512,-765,766.5,-1.5
4.42690311418685,1020,509,-511,-764.5,765.5,-1
4.42906574394464,1022,508,-514,-765,768,-3
4.43122837370242,1021,509,-512,-765,766.5,-1.5
4.43339100346021,1022,509,-513,-765.5,767.5,-2
4.43555363321799,1021,509,-512,-765,766.5,-1.5
4.43771626297578,1021,509,-512,-765,766.5,-1.5
4.43987889273356,1021,509,-512,-765,766.5,-1.5
4.44204152249135,1020,509,-511,-764.5,765.5,-1
4.44420415224914,1015,509,-506,-762,760.5,1.5
4.44636678200692,1015,509,-506,-762,760.5,1.5
4.44852941176471,1011,509,-502,-760,756.5,3.5
4.45069204152249,1005,509,-496,-757,750.5,6.5
4.45285467128028,1007,508,-499,-757.5,753,4.5
4.45501730103806,1009,509,-500,-759,754.5,4.5
4.45717993079585,1011,509,-502,-760,756.5,3.5
4.45934256055363,1011,509,-502,-760,756.5,3.5
4.46150519031142,1014,509,-505,-761.5,759.5,2
4.4636678200692,1002,509,-493,-755.5,747.5,8
4.46583044982699,994,509,-485,-751.5,739.5,12
4.46799307958478,995,509,-486,-752,740.5,11.5
4.47015570934256,999,509,-490,-754,744.5,9.5
4.47231833910035,1013,509,-504,-761,758.5,2.5
4.47448096885813,1020,509,-511,-764.5,765.5,-1
4.47664359861592,1020,509,-511,-764.5,765.5,-1
4.4788062283737,1014,509,-505,-761.5,759.5,2
4.48096885813149,1001,509,-492,-755,746.5,8.5
4.48313148788927,991,509,-482,-750,736.5,13.5
4.48529411764706,985,509,-476,-747,730.5,16.5
4.48745674740484,992,509,-483,-750.5,737.5,13
4.48961937716263,999,509,-490,-754,744.5,9.5
4.49178200692042,1010,508,-502,-759,756,3
4.4939446366782,1013,509,-504,-761,758.5,2.5
4.49610726643599,1010,509,-501,-759.5,755.5,4
4.49826989619377,1001,509,-492,-755,746.5,8.5
4.50043252595156,993,509,-484,-751,738.5,12.5
4.50259515570934,991,509,-482,-750,736.5,13.5
4.50475778546713,995,509,-486,-752,740.5,11.5
4.50692041522491,999,509,-490,-754,744.5,9.5
4.5090830449827,997,508,-489,-752.5,743,9.5
4.51124567474048,1000,509,-491,-754.5,745.5,9
4.51340830449827,997,509,-488,-753,742.5,10.5
4.51557093425606,1000,509,-491,-754.5,745.5,9
4.51773356401384,1010,509,-501,-759.5,755.5,4
4.51989619377163,1021,509,-512,-765,766.5,-1.5
4.52205882352941,1022,509,-513,-765.5,767.5,-2
4.5242214532872,1021,509,-512,-765,766.5,-1.5
4.52638408304498,1022,508,-514,-765,768,-3
4.52854671280277,1023,509,-514,-766,768.5,-2.5
4.53070934256055,1022,509,-513,-765.5,767.5,-2
4.53287197231834,1022,509,-513,-765.5,767.5,-2
4.53503460207612,1022,509,-513,-765.5,767.5,-2
4.53719723183391,1022,509,-513,-765.5,767.5,-2
4.5393598615917,1021,509,-512,-765,766.5,-1.5
4.54152249134948,1021,509,-512,-765,766.5,-1.5
4.54368512110727,1021,509,-512,-765,766.5,-1.5
4.54584775086505,1021,509,-512,-765,766.5,-1.5
4.54801038062284,1021,509,-512,-765,766.5,-1.5
4.55017301038062,1022,509,-513,-765.5,767.5,-2
4.55233564013841,1021,509,-512,-765,766.5,-1.5
4.55449826989619,1021,509,-512,-765,766.5,-1.5
4.55666089965398,1020,509,-511,-764.5,765.5,-1
4.55882352941176,1021,509,-512,-765,766.5,-1.5
4.56098615916955,1013,509,-504,-761,758.5,2.5
4.56314878892734,1003,509,-494,-756,748.5,7.5
4.56531141868512,997,509,-488,-753,742.5,10.5
4.56747404844291,1001,509,-492,-755,746.5,8.5
4.56963667820069,1011,509,-502,-760,756.5,3.5
4.57179930795848,1021,509,-512,-765,766.5,-1.5
4.57396193771626,1021,509,-512,-765,766.5,-1.5
4.57612456747405,1021,509,-512,-765,766.5,-1.5
4.57828719723183,1022,509,-513,-765.5,767.5,-2
4.58044982698962,1022,509,-513,-765.5,767.5,-2
4.58261245674741,1012,509,-503,-760.5,757.5,3
4.58477508650519,1006,509,-497,-757.5,751.5,6
4.58693771626298,998,509,-489,-753.5,743.5,10
4.58910034602076,998,509,-489,-753.5,743.5,10
4.59126297577855,996,509,-487,-752.5,741.5,11
4.59342560553633,988,509,-479,-748.5,733.5,15
4.59558823529412,997,509,-488,-753,742.5,10.5
4.5977508650519,1007,509,-498,-758,752.5,5.5
4.59991349480969,1014,509,-505,-761.5,759.5,2
4.60207612456747,1020,509,-511,-764.5,765.5,-1
4.60423875432526,1016,509,-507,-762.5,761.5,1
4.60640138408305,1006,509,-497,-757.5,751.5,6
4.60856401384083,998,509,-489,-753.5,743.5,10
4.61072664359862,997,509,-488,-753,742.5,10.5
4.6128892733564,1000,509,-491,-754.5,745.5,9
4.61505190311419,1003,508,-495,-755.5,749,6.5
4.61721453287197,1005,509,-496,-757,750.5,6.5
4.61937716262976,1000,509,-491,-754.5,745.5,9
4.62153979238754,1000,509,-491,-754.5,745.5,9
4.62370242214533,1000,509,-491,-754.5,745.5,9
4.62586505190311,1003,509,-494,-756,748.5,7.5
4.6280276816609,1010,509,-501,-759.5,755.5,4
4.63019031141869,1021,509,-512,-765,766.5,-1.5
4.63235294117647,1023,509,-514,-766,768.5,-2.5
4.63451557093426,1020,509,-511,-764.5,765.5,-1
4.63667820069204,1019,509,-510,-764,764.5,-0.5
4.63884083044983,1020,509,-511,-764.5,765.5,-1
4.64100346020761,1022,509,-513,-765.5,767.5,-2
4.6431660899654,1023,509,-514,-766,768.5,-2.5
4.64532871972318,1021,509,-512,-765,766.5,-1.5
4.64749134948097,1022,509,-513,-765.5,767.5,-2
4.64965397923875,1022,509,-513,-765.5,767.5,-2
4.65181660899654,1021,509,-512,-765,766.5,-1.5
4.65397923875433,1014,509,-505,-761.5,759.5,2
4.65614186851211,1014,509,-505,-761.5,759.5,2
4.6583044982699,1010,508,-502,-759,756,3
4.66046712802768,1003,509,-494,-756,748.5,7.5
4.66262975778547,1008,509,-499,-758.5,753.5,5
4.66479238754325,1014,509,-505,-761.5,759.5,2
4.66695501730104,1020,509,-511,-764.5,765.5,-1
4.66911764705882,1021,509,-512,-765,766.5,-1.5
4.67128027681661,1020,509,-511,-764.5,765.5,-1
4.67344290657439,1023,508,-515,-765.5,769,-3.5
4.67560553633218,1021,509,-512,-765,766.5,-1.5
4.67776816608997,1023,509,-514,-766,768.5,-2.5
4.67993079584775,1021,509,-512,-765,766.5,-1.5
4.68209342560554,1023,508,-515,-765.5,769,-3.5
4.68425605536332,1022,509,-513,-765.5,767.5,-2
4.68641868512111,1019,509,-510,-764,764.5,-0.5
4.68858131487889,1022,509,-513,-765.5,767.5,-2
4.69074394463668,1020,509,-511,-764.5,765.5,-1
4.69290657439446,1021,509,-512,-765,766.5,-1.5
4.69506920415225,1020,509,-511,-764.5,765.5,-1
4.69723183391003,1020,509,-511,-764.5,765.5,-1
4.69939446366782,1020,509,-511,-764.5,765.5,-1
4.70155709342561,1021,509,-512,-765,766.5,-1.5
4.70371972318339,1021,509,-512,-765,766.5,-1.5
4.70588235294118,1021,509,-512,-765,766.5,-1.5
4.70804498269896,1021,509,-512,-765,766.5,-1.5
4.71020761245675,1022,509,-513,-765.5,767.5,-2
4.71237024221453,1022,509,-513,-765.5,767.5,-2
4.71453287197232,1022,509,-513,-765.5,767.5,-2
4.7166955017301,1020,509,-511,-764.5,765.5,-1
4.71885813148789,1021,509,-512,-765,766.5,-1.5
4.72102076124567,1021,509,-512,-765,766.5,-1.5
4.72318339100346,1022,509,-513,-765.5,767.5,-2
4.72534602076125,1021,509,-512,-765,766.5,-1.5
4.72750865051903,1023,508,-515,-765.5,769,-3.5
4.72967128027682,1022,509,-513,-765.5,767.5,-2
4.7318339100346,1021,509,-512,-765,766.5,-1.5
4.73399653979239,1023,509,-514,-766,768.5,-2.5
4.73615916955017,1021,509,-512,-765,766.5,-1.5
4.73832179930796,1021,509,-512,-765,766.5,-1.5
4.74048442906574,1021,509,-512,-765,766.5,-1.5
4.74264705882353,1023,509,-514,-766,768.5,-2.5
4.74480968858131,1022,509,-513,-765.5,767.5,-2
4.7469723183391,1021,509,-512,-765,766.5,-1.5
4.74913494809689,1022,509,-513,-765.5,767.5,-2
4.75129757785467,1022,509,-513,-765.5,767.5,-2
4.75346020761246,1022,509,-513,-765.5,767.5,-2
4.75562283737024,1022,509,-513,-765.5,767.5,-2
4.75778546712803,1020,509,-511,-764.5,765.5,-1
4.75994809688581,1022,509,-513,-765.5,767.5,-2
4.7621107266436,1021,509,-512,-765,766.5,-1.5
4.76427335640138,1022,509,-513,-765.5,767.5,-2
4.76643598615917,1021,509,-512,-765,766.5,-1.5
4.76859861591696,1020,509,-511,-764.5,765.5,-1
4.77076124567474,1020,509,-511,-764.5,765.5,-1
4.77292387543253,1023,509,-514,-766,768.5,-2.5
4.77508650519031,1022,509,-513,-765.5,767.5,-2
4.7772491349481,1023,509,-514,-766,768.5,-2.5
4.77941176470588,1022,509,-513,-765.5,767.5,-2
4.78157439446367,1021,509,-512,-765,766.5,-1.5
4.78373702422145,1022,509,-513,-765.5,767.5,-2
4.78589965397924,1022,509,-513,-765.5,767.5,-2
4.78806228373702,1021,509,-512,-765,766.5,-1.5
4.79022491349481,1023,508,-515,-765.5,769,-3.5
4.7923875432526,1020,509,-511,-764.5,765.5,-1
4.79455017301038,1021,509,-512,-765,766.5,-1.5
4.79671280276817,1022,509,-513,-765.5,767.5,-2
4.79887543252595,1022,509,-513,-765.5,767.5,-2
4.80103806228374,1020,509,-511,-764.5,765.5,-1
4.80320069204152,1021,509,-512,-765,766.5,-1.5
4.80536332179931,1022,509,-513,-765.5,767.5,-2
4.80752595155709,1021,509,-512,-765,766.5,-1.5
4.80968858131488,1021,509,-512,-765,766.5,-1.5
4.81185121107267,1022,509,-513,-765.5,767.5,-2
4.81401384083045,1022,509,-513,-765.5,767.5,-2
4.81617647058824,1021,509,-512,-765,766.5,-1.5
4.81833910034602,1013,509,-504,-761,758.5,2.5
4.82050173010381,1004,509,-495,-756.5,749.5,7
4.82266435986159,1003,509,-494,-756,748.5,7.5
4.82482698961938,1005,509,-496,-757,750.5,6.5
4.82698961937716,1013,509,-504,-761,758.5,2.5
4.82915224913495,1020,509,-511,-764.5,765.5,-1
4.83131487889273,1019,509,-510,-764,764.5,-0.5
4.83347750865052,1023,509,-514,-766,768.5,-2.5
4.8356401384083,1022,509,-513,-765.5,767.5,-2
4.83780276816609,1021,508,-513,-764.5,767,-2.5
4.83996539792388,1020,509,-511,-764.5,765.5,-1
4.84212802768166,1007,509,-498,-758,752.5,5.5
4.84429065743945,992,509,-483,-750.5,737.5,13
4.84645328719723,989,509,-480,-749,734.5,14.5
4.84861591695502,996,509,-487,-752.5,741.5,11
4.8507785467128,1003,509,-494,-756,748.5,7.5
4.85294117647059,1009,508,-501,-758.5,755,3.5
4.85510380622837,1017,509,-508,-763,762.5,0.5
4.85726643598616,1019,509,-510,-764,764.5,-0.5
4.85942906574394,1018,509,-509,-763.5,763.5,0
4.86159169550173,1013,509,-504,-761,758.5,2.5
4.86375432525952,1007,509,-498,-758,752.5,5.5
4.8659169550173,1003,509,-494,-756,748.5,7.5
4.86807958477509,1004,509,-495,-756.5,749.5,7
4.87024221453287,1003,509,-494,-756,748.5,7.5
4.87240484429066,1001,509,-492,-755,746.5,8.5
4.87456747404844,998,509,-489,-753.5,743.5,10
4.87673010380623,998,509,-489,-753.5,743.5,10
4.87889273356401,1002,509,-493,-755.5,747.5,8
4.8810553633218,1005,509,-496,-757,750.5,6.5
4.88321799307958,1013,509,-504,-761,758.5,2.5
4.88538062283737,1015,509,-506,-762,760.5,1.5
4.88754325259516,1016,509,-507,-762.5,761.5,1
4.88970588235294,1018,509,-509,-763.5,763.5,0
4.89186851211073,1015,509,-506,-762,760.5,1.5
4.89403114186851,1010,509,-501,-759.5,755.5,4
4.8961937716263,1005,509,-496,-757,750.5,6.5
4.89835640138408,1001,509,-492,-755,746.5,8.5
4.90051903114187,989,509,-480,-749,734.5,14.5
4.90268166089965,986,509,-477,-747.5,731.5,16
4.90484429065744,996,509,-487,-752.5,741.5,11
4.90700692041522,1011,509,-502,-760,756.5,3.5
4.90916955017301,1022,508,-514,-765,768,-3
4.9113321799308,1020,509,-511,-764.5,765.5,-1
4.91349480968858,1018,509,-509,-763.5,763.5,0
4.91565743944637,1015,509,-506,-762,760.5,1.5
4.91782006920415,1016,509,-507,-762.5,761.5,1
4.91998269896194,1019,509,-510,-764,764.5,-0.5
4.92214532871972,1018,509,-509,-763.5,763.5,0
4.92430795847751,1015,509,-506,-762,760.5,1.5
4.92647058823529,1019,509,-510,-764,764.5,-0.5
4.92863321799308,1021,509,-512,-765,766.5,-1.5
4.93079584775086,1022,509,-513,-765.5,767.5,-2
4.93295847750865,1022,509,-513,-765.5,767.5,-2
4.93512110726644,1021,509,-512,-765,766.5,-1.5
4.93728373702422,1016,509,-507,-762.5,761.5,1
4.93944636678201,1002,509,-493,-755.5,747.5,8
4.94160899653979,995,509,-486,-752,740.5,11.5
4.94377162629758,1001,509,-492,-755,746.5,8.5
4.94593425605536,1010,509,-501,-759.5,755.5,4
4.94809688581315,1017,509,-508,-763,762.5,0.5
4.95025951557093,1019,509,-510,-764,764.5,-0.5
4.95242214532872,1022,509,-513,-765.5,767.5,-2
4.95458477508651,1021,509,-512,-765,766.5,-1.5
4.95674740484429,1021,509,-512,-765,766.5,-1.5
4.95891003460208,1022,509,-513,-765.5,767.5,-2
4.96107266435986,1021,509,-512,-765,766.5,-1.5
4.96323529411765,1021,509,-512,-765,766.5,-1.5
4.96539792387543,1021,509,-512,-765,766.5,-1.5
4.96756055363322,1020,509,-511,-764.5,765.5,-1
4.969723183391,1023,509,-514,-766,768.5,-2.5
4.97188581314879,1023,509,-514,-766,768.5,-2.5
4.97404844290657,1021,509,-512,-765,766.5,-1.5
4.97621107266436,1016,509,-507,-762.5,761.5,1
4.97837370242215,1011,509,-502,-760,756.5,3.5
4.98053633217993,1009,508,-501,-758.5,755,3.5
4.98269896193772,1022,509,-513,-765.5,767.5,-2
4.9848615916955,1021,509,-512,-765,766.5,-1.5
4.98702422145329,1020,509,-511,-764.5,765.5,-1
4.98918685121107,1023,508,-515,-765.5,769,-3.5
4.99134948096886,1021,509,-512,-765,766.5,-1.5
4.99351211072664,1023,509,-514,-766,768.5,-2.5
4.99567474048443,1023,509,-514,-766,768.5,-2.5
4.99783737024222,1021,509,-512,-765,766.5,-1.5
5,1022,509,-513,-765.5,767.5,-2
5.00216262975779,1021,509,-512,-765,766.5,-1.5
5.00432525951557,1022,509,-513,-765.5,767.5,-2
5.00648788927336,1022,509,-513,-765.5,767.5,-2
5.00865051903114,1022,509,-513,-765.5,767.5,-2
5.01081314878893,1021,509,-512,-765,766.5,-1.5
5.01297577854671,1022,509,-513,-765.5,767.5,-2
5.0151384083045,1021,509,-512,-765,766.5,-1.5
5.01730103806228,1021,509,-512,-765,766.5,-1.5
5.01946366782007,1021,509,-512,-765,766.5,-1.5
5.02162629757786,1023,509,-514,-766,768.5,-2.5
5.02378892733564,1021,509,-512,-765,766.5,-1.5
5.02595155709343,1022,509,-513,-765.5,767.5,-2
5.02811418685121,1021,509,-512,-765,766.5,-1.5
5.030276816609,1021,509,-512,-765,766.5,-1.5
5.03243944636678,1021,509,-512,-765,766.5,-1.5
5.03460207612457,1022,509,-513,-765.5,767.5,-2
5.03676470588235,1020,509,-511,-764.5,765.5,-1
5.03892733564014,1020,508,-512,-764,766,-2
5.04108996539792,1020,509,-511,-764.5,765.5,-1
5.04325259515571,1022,509,-513,-765.5,767.5,-2
5.0454152249135,1021,509,-512,-765,766.5,-1.5
5.04757785467128,1022,509,-513,-765.5,767.5,-2
5.04974048442907,1021,509,-512,-765,766.5,-1.5
5.05190311418685,1021,509,-512,-765,766.5,-1.5
5.05406574394464,1021,509,-512,-765,766.5,-1.5
5.05622837370242,1021,509,-512,-765,766.5,-1.5
5.05839100346021,1022,509,-513,-765.5,767.5,-2
5.06055363321799,1022,509,-513,-765.5,767.5,-2
5.06271626297578,1021,509,-512,-765,766.5,-1.5
5.06487889273356,1022,509,-513,-765.5,767.5,-2
5.06704152249135,1016,509,-507,-762.5,761.5,1
5.06920415224914,1016,509,-507,-762.5,761.5,1
5.07136678200692,1018,509,-509,-763.5,763.5,0
5.07352941176471,1015,509,-506,-762,760.5,1.5
5.07569204152249,1019,509,-510,-764,764.5,-0.5
5.07785467128028,1015,509,-506,-762,760.5,1.5
5.08001730103806,1009,508,-501,-758.5,755,3.5
5.08217993079585,1010,509,-501,-759.5,755.5,4
5.08434256055363,1002,509,-493,-755.5,747.5,8
5.08650519031142,1000,509,-491,-754.5,745.5,9
5.0886678200692,997,509,-488,-753,742.5,10.5
5.09083044982699,993,509,-484,-751,738.5,12.5
5.09299307958478,1001,509,-492,-755,746.5,8.5
5.09515570934256,1008,509,-499,-758.5,753.5,5
5.09731833910035,1013,509,-504,-761,758.5,2.5
5.09948096885813,1009,509,-500,-759,754.5,4.5
5.10164359861592,1009,509,-500,-759,754.5,4.5
5.1038062283737,1001,509,-492,-755,746.5,8.5
5.10596885813149,996,508,-488,-752,742,10
5.10813148788927,999,509,-490,-754,744.5,9.5
5.11029411764706,1007,509,-498,-758,752.5,5.5
5.11245674740484,1017,509,-508,-763,762.5,0.5
5.11461937716263,1017,509,-508,-763,762.5,0.5
5.11678200692042,1011,509,-502,-760,756.5,3.5
5.1189446366782,1002,509,-493,-755.5,747.5,8
5.12110726643599,999,509,-490,-754,744.5,9.5
5.12326989619377,996,509,-487,-752.5,741.5,11
5.12543252595156,989,509,-480,-749,734.5,14.5
5.12759515570934,987,509,-478,-748,732.5,15.5
5.12975778546713,988,509,-479,-748.5,733.5,15
5.13192041522491,996,509,-487,-752.5,741.5,11
5.1340830449827,1001,509,-492,-755,746.5,8.5
5.13624567474048,1003,509,-494,-756,748.5,7.5
5.13840830449827,1000,509,-491,-754.5,745.5,9
5.14057093425606,998,509,-489,-753.5,743.5,10
5.14273356401384,1008,509,-499,-758.5,753.5,5
5.14489619377163,1022,509,-513,-765.5,767.5,-2
5.14705882352941,1023,509,-514,-766,768.5,-2.5
5.1492214532872,1021,509,-512,-765,766.5,-1.5
5.15138408304498,1022,509,-513,-765.5,767.5,-2
5.15354671280277,1022,509,-513,-765.5,767.5,-2
5.15570934256055,1023,509,-514,-766,768.5,-2.5
5.15787197231834,1022,509,-513,-765.5,767.5,-2
5.16003460207612,1022,509,-513,-765.5,767.5,-2
5.16219723183391,1023,508,-515,-765.5,769,-3.5
5.1643598615917,1021,509,-512,-765,766.5,-1.5
5.16652249134948,1021,509,-512,-765,766.5,-1.5
5.16868512110727,1022,509,-513,-765.5,767.5,-2
5.17084775086505,1021,509,-512,-765,766.5,-1.5
5.17301038062284,1021,509,-512,-765,766.5,-1.5
5.17517301038062,1022,509,-513,-765.5,767.5,-2
5.17733564013841,1021,509,-512,-765,766.5,-1.5
5.17949826989619,1022,509,-513,-765.5,767.5,-2
5.18166089965398,1021,509,-512,-765,766.5,-1.5
5.18382352941177,1021,509,-512,-765,766.5,-1.5
5.18598615916955,1018,509,-509,-763.5,763.5,0
5.18814878892734,1019,509,-510,-764,764.5,-0.5
5.19031141868512,1021,509,-512,-765,766.5,-1.5
5.19247404844291,1021,509,-512,-765,766.5,-1.5
5.19463667820069,1021,509,-512,-765,766.5,-1.5
5.19679930795848,1020,509,-511,-764.5,765.5,-1
5.19896193771626,1021,509,-512,-765,766.5,-1.5
5.20112456747405,1021,509,-512,-765,766.5,-1.5
5.20328719723183,1020,508,-512,-764,766,-2
5.20544982698962,1021,509,-512,-765,766.5,-1.5
5.20761245674741,1021,509,-512,-765,766.5,-1.5
5.20977508650519,1023,508,-515,-765.5,769,-3.5
5.21193771626298,1019,509,-510,-764,764.5,-0.5
5.21410034602076,1012,509,-503,-760.5,757.5,3
5.21626297577855,1009,509,-500,-759,754.5,4.5
5.21842560553633,1006,508,-498,-757,752,5
5.22058823529412,1007,509,-498,-758,752.5,5.5
5.2227508650519,1006,509,-497,-757.5,751.5,6
5.22491349480969,1007,509,-498,-758,752.5,5.5
5.22707612456747,1006,509,-497,-757.5,751.5,6
5.22923875432526,1006,509,-497,-757.5,751.5,6
5.23140138408305,1005,509,-496,-757,750.5,6.5
5.23356401384083,1000,509,-491,-754.5,745.5,9
5.23572664359862,998,509,-489,-753.5,743.5,10
5.2378892733564,1003,509,-494,-756,748.5,7.5
5.24005190311419,1001,509,-492,-755,746.5,8.5
5.24221453287197,1000,509,-491,-754.5,745.5,9
5.24437716262976,1006,508,-498,-757,752,5
5.24653979238754,1003,509,-494,-756,748.5,7.5
5.24870242214533,1000,509,-491,-754.5,745.5,9
5.25086505190311,1002,509,-493,-755.5,747.5,8
5.2530276816609,1002,509,-493,-755.5,747.5,8
5.25519031141869,993,509,-484,-751,738.5,12.5
5.25735294117647,991,509,-482,-750,736.5,13.5
5.25951557093426,991,509,-482,-750,736.5,13.5
5.26167820069204,1001,509,-492,-755,746.5,8.5
5.26384083044983,1018,509,-509,-763.5,763.5,0
5.26600346020761,1020,508,-512,-764,766,-2
5.2681660899654,1022,509,-513,-765.5,767.5,-2
5.27032871972318,1021,509,-512,-765,766.5,-1.5
5.27249134948097,1021,509,-512,-765,766.5,-1.5
5.27465397923875,1019,509,-510,-764,764.5,-0.5
5.27681660899654,1012,508,-504,-760,758,2
5.27897923875433,1009,509,-500,-759,754.5,4.5
5.28114186851211,1014,509,-505,-761.5,759.5,2
5.2833044982699,1018,509,-509,-763.5,763.5,0
5.28546712802768,1017,509,-508,-763,762.5,0.5
5.28762975778547,1019,509,-510,-764,764.5,-0.5
5.28979238754325,1021,509,-512,-765,766.5,-1.5
5.29195501730104,1022,509,-513,-765.5,767.5,-2
5.29411764705882,1021,509,-512,-765,766.5,-1.5
5.29628027681661,1022,509,-513,-765.5,767.5,-2
5.29844290657439,1021,509,-512,-765,766.5,-1.5
5.30060553633218,1021,509,-512,-765,766.5,-1.5
5.30276816608997,1018,509,-509,-763.5,763.5,0
5.30493079584775,1021,509,-512,-765,766.5,-1.5
5.30709342560554,1023,508,-515,-765.5,769,-3.5
5.30925605536332,1020,509,-511,-764.5,765.5,-1
5.31141868512111,1023,509,-514,-766,768.5,-2.5
5.31358131487889,1022,509,-513,-765.5,767.5,-2
5.31574394463668,1020,509,-511,-764.5,765.5,-1
5.31790657439446,1021,509,-512,-765,766.5,-1.5
5.32006920415225,1021,509,-512,-765,766.5,-1.5
5.32223183391003,1022,509,-513,-765.5,767.5,-2
5.32439446366782,1021,509,-512,-765,766.5,-1.5
5.32655709342561,1022,509,-513,-765.5,767.5,-2
5.32871972318339,1022,509,-513,-765.5,767.5,-2
5.33088235294118,1022,509,-513,-765.5,767.5,-2
5.33304498269896,1023,509,-514,-766,768.5,-2.5
5.33520761245675,1021,509,-512,-765,766.5,-1.5
5.33737024221453,1022,509,-513,-765.5,767.5,-2
5.33953287197232,1021,509,-512,-765,766.5,-1.5
5.3416955017301,1021,509,-512,-765,766.5,-1.5
5.34385813148789,1022,509,-513,-765.5,767.5,-2
5.34602076124567,1022,509,-513,-765.5,767.5,-2
5.34818339100346,1023,509,-514,-766,768.5,-2.5
5.35034602076125,1022,509,-513,-765.5,767.5,-2
5.35250865051903,1020,509,-511,-764.5,765.5,-1
5.35467128027682,1021,509,-512,-765,766.5,-1.5
5.3568339100346,1022,509,-513,-765.5,767.5,-2
5.35899653979239,1022,509,-513,-765.5,767.5,-2
5.36115916955017,1021,509,-512,-765,766.5,-1.5
5.36332179930796,1022,509,-513,-765.5,767.5,-2
5.36548442906574,1021,509,-512,-765,766.5,-1.5
5.36764705882353,1021,509,-512,-765,766.5,-1.5
5.36980968858132,1021,509,-512,-765,766.5,-1.5
5.3719723183391,1023,509,-514,-766,768.5,-2.5
5.37413494809689,1022,508,-514,-765,768,-3
5.37629757785467,1020,509,-511,-764.5,765.5,-1
5.37846020761246,1021,509,-512,-765,766.5,-1.5
5.38062283737024,1022,508,-514,-765,768,-3
5.38278546712803,1019,509,-510,-764,764.5,-0.5
5.38494809688581,1021,508,-513,-764.5,767,-2.5
5.3871107266436,1022,509,-513,-765.5,767.5,-2
5.38927335640138,1022,509,-513,-765.5,767.5,-2
5.39143598615917,1022,509,-513,-765.5,767.5,-2
5.39359861591696,1022,509,-513,-765.5,767.5,-2
5.39576124567474,1020,509,-511,-764.5,765.5,-1
5.39792387543253,1021,509,-512,-765,766.5,-1.5
5.40008650519031,1022,509,-513,-765.5,767.5,-2
5.4022491349481,1021,509,-512,-765,766.5,-1.5
5.40441176470588,1021,509,-512,-765,766.5,-1.5
5.40657439446367,1022,509,-513,-765.5,767.5,-2
5.40873702422145,1021,509,-512,-765,766.5,-1.5
5.41089965397924,1021,509,-512,-765,766.5,-1.5
5.41306228373702,1022,509,-513,-765.5,767.5,-2
5.41522491349481,1022,509,-513,-765.5,767.5,-2
5.4173875432526,1021,509,-512,-765,766.5,-1.5
5.41955017301038,1022,509,-513,-765.5,767.5,-2
5.42171280276817,1021,509,-512,-765,766.5,-1.5
5.42387543252595,1021,509,-512,-765,766.5,-1.5
5.42603806228374,1022,509,-513,-765.5,767.5,-2
5.42820069204152,1022,509,-513,-765.5,767.5,-2
5.43036332179931,1021,509,-512,-765,766.5,-1.5
5.43252595155709,1022,509,-513,-765.5,767.5,-2
5.43468858131488,1021,509,-512,-765,766.5,-1.5
5.43685121107267,1022,509,-513,-765.5,767.5,-2
5.43901384083045,1022,509,-513,-765.5,767.5,-2
5.44117647058824,1021,509,-512,-765,766.5,-1.5
5.44333910034602,1021,509,-512,-765,766.5,-1.5
5.44550173010381,1023,509,-514,-766,768.5,-2.5
5.44766435986159,1022,509,-513,-765.5,767.5,-2
5.44982698961938,1022,509,-513,-765.5,767.5,-2
5.45198961937716,1020,509,-511,-764.5,765.5,-1
5.45415224913495,1020,509,-511,-764.5,765.5,-1
5.45631487889273,1021,509,-512,-765,766.5,-1.5
5.45847750865052,1019,509,-510,-764,764.5,-0.5
5.4606401384083,1018,509,-509,-763.5,763.5,0
5.46280276816609,1011,509,-502,-760,756.5,3.5
5.46496539792388,1018,508,-510,-763,764,-1
5.46712802768166,1011,509,-502,-760,756.5,3.5
5.46929065743945,1007,509,-498,-758,752.5,5.5
5.47145328719723,1006,509,-497,-757.5,751.5,6
5.47361591695502,1003,509,-494,-756,748.5,7.5
5.4757785467128,998,509,-489,-753.5,743.5,10
5.47794117647059,995,509,-486,-752,740.5,11.5
5.48010380622837,996,509,-487,-752.5,741.5,11
5.48226643598616,1010,509,-501,-759.5,755.5,4
5.48442906574394,1019,509,-510,-764,764.5,-0.5
5.48659169550173,1021,509,-512,-765,766.5,-1.5
5.48875432525952,1018,509,-509,-763.5,763.5,0
5.4909169550173,1019,509,-510,-764,764.5,-0.5
5.49307958477509,1016,509,-507,-762.5,761.5,1
5.49524221453287,1011,509,-502,-760,756.5,3.5
5.49740484429066,1009,509,-500,-759,754.5,4.5
5.49956747404844,1011,509,-502,-760,756.5,3.5
5.50173010380623,1012,509,-503,-760.5,757.5,3
5.50389273356401,1014,509,-505,-761.5,759.5,2
5.5060553633218,1019,509,-510,-764,764.5,-0.5
5.50821799307958,1021,509,-512,-765,766.5,-1.5
5.51038062283737,1019,509,-510,-764,764.5,-0.5
5.51254325259516,1014,509,-505,-761.5,759.5,2
5.51470588235294,1004,509,-495,-756.5,749.5,7
5.51686851211073,996,509,-487,-752.5,741.5,11
5.51903114186851,995,509,-486,-752,740.5,11.5
5.5211937716263,1004,509,-495,-756.5,749.5,7
5.52335640138408,1010,509,-501,-759.5,755.5,4
5.52551903114187,1011,509,-502,-760,756.5,3.5
5.52768166089965,1007,509,-498,-758,752.5,5.5
5.52984429065744,1008,509,-499,-758.5,753.5,5
5.53200692041522,1014,509,-505,-761.5,759.5,2
5.53416955017301,1015,508,-507,-761.5,761,0.5
5.5363321799308,1019,509,-510,-764,764.5,-0.5
5.53849480968858,1021,509,-512,-765,766.5,-1.5
5.54065743944637,1021,509,-512,-765,766.5,-1.5
5.54282006920415,1021,509,-512,-765,766.5,-1.5
5.54498269896194,1017,509,-508,-763,762.5,0.5
5.54714532871972,1015,509,-506,-762,760.5,1.5
5.54930795847751,1013,509,-504,-761,758.5,2.5
5.55147058823529,1012,509,-503,-760.5,757.5,3
5.55363321799308,1009,509,-500,-759,754.5,4.5
5.55579584775087,1011,509,-502,-760,756.5,3.5
5.55795847750865,1011,509,-502,-760,756.5,3.5
5.56012110726644,1013,509,-504,-761,758.5,2.5
5.56228373702422,1016,509,-507,-762.5,761.5,1
5.56444636678201,1007,509,-498,-758,752.5,5.5
5.56660899653979,1001,509,-492,-755,746.5,8.5
5.56877162629758,1014,509,-505,-761.5,759.5,2
5.57093425605536,1020,509,-511,-764.5,765.5,-1
