t,leadI,leadII,leadIII,aVR,aVL,aVF
0,508,1021,513,-764.5,-2.5,767
0.00215959399632869,506,1021,515,-763.5,-4.5,768
0.00431918799265738,502.326748064227,1014.58816160786,512.26141354363,-758.457454836042,-4.96733273970165,763.424787575744
0.00647878198898607,496.404637606552,1008.70332792414,512.298690317591,-752.553982765348,-7.94702635551931,760.501009120867
0.00863837598531476,502.364203465762,1025.75903399731,523.394830531546,-764.061618731535,-10.5153135328922,774.576932264427
0.0107979699816435,510.062592414284,1038.31968003213,528.25708761785,-774.191136223209,-9.09724760178278,783.288383824992
0.0129575639779721,510.119151924292,1035.33388854503,525.214736620739,-772.726520234662,-7.54779234822365,780.274312582885
0.0151171579743008,506.213784146858,1025.39906120283,519.185277055971,-765.806422674844,-6.48574645455642,772.2921691294
0.0172767519706295,508.134690223394,1022.297473173,514.162782949604,-765.216081698196,-3.01404636310514,768.230128061301
0.0194363459669582,510.509309528361,1019.11326833432,508.603958805962,-764.811288931342,0.952675361199908,763.858613570142
0.0215959399632869,505.223502389509,1010.56779185426,505.344289464755,-757.895647121886,-0.0603935376230993,757.95604065951
0.0237555339596156,496.557451938884,1013.17132907355,516.613877134664,-754.864390506215,-10.0282125978901,764.892603104106
0.0259151279559443,502.082280878906,1029.15302359558,527.070742716678,-765.617652237245,-12.4942309188859,778.111883156131
0.028074721952273,509.50634563537,1041.90397505988,532.397629424511,-775.705160347625,-11.4456418945708,787.150802242196
0.0302343159486017,506.247685347527,1032.19319969213,525.945514344606,-769.22044251983,-9.84891449853939,779.069357018369
0.0323939099449304,504.362593697081,1023.54844117724,519.185847480163,-763.955517437163,-7.41162689154118,771.367144328704
0.034553503941259,508.312342720042,1021.87376347378,513.561420753742,-765.093053096913,-2.62453901684967,767.717592113763
0.0367130979375877,514.514790419585,1020.54384807213,506.029057652543,-767.529319245856,4.24286638352078,763.286452862336
0.0388726919339164,514.374165905151,1011.28620086867,496.912034963517,-762.830183386909,8.73106547081682,754.099117916092
0.0410322859302451,519.407630988591,1016.99781893818,497.590187949585,-768.202724963383,10.9087215195029,757.29400344388
0.0431918799265738,530.620600463181,1033.79398623852,503.173385775341,-782.207293350852,13.7236073439199,768.483686006932
0.0453514739229025,530.135574605683,1038.60914397438,508.473569368698,-784.372359290032,10.8310026184927,773.54135667154
0.0475110679192312,519.286142878537,1028.20124954731,508.915106668774,-773.743696212924,5.18551810488191,768.558178108042
0.0496706619155599,510.985875156928,1021.92514034094,510.939265184008,-766.455507748932,0.0233049864601753,766.432202762472
0.0518302559118886,507.475396654795,1022.19033116458,514.714934509782,-764.832863909686,-3.61976892749374,768.452632837179
0.0539898499082173,503.5221409212,1017.37378509418,513.851644172977,-760.447963007688,-5.16475162588853,765.612714633577
0.0561494439045459,504.494079070287,1009.1547648889,504.660685818609,-756.824421979591,-0.0833033741614031,756.907725353753
0.0583090379008746,512.897351387295,1020.79677225045,507.899420863155,-766.847061818873,2.4989652620701,764.348096556803
0.0604686318972033,525.112383113654,1037.06156698751,511.949183873859,-781.086975050583,6.58159961989713,774.505375430686
0.062628225893532,527.460483922728,1037.78959792014,510.329113997415,-782.625040921436,8.56568496265663,774.059355958779
0.0647878198898607,519.431708417107,1025.88917212213,506.457463705028,-772.660440269621,6.48712235603955,766.173317913581
0.0669474138861894,513.124487962363,1021.23587698796,508.111389025592,-767.180182475159,2.5065494683858,764.673633006773
0.0691070078825181,508.50625555321,1022.9180756805,514.41182012729,-765.712165616855,-2.95278228704001,768.664947903895
0.0712666018788468,502.636058698927,1015.10864028975,512.472581590825,-758.87234949434,-4.91826144594916,763.790610940289
0.0734261958751755,501.320944304592,1011.49498936553,510.174045060939,-756.407966835061,-4.4265503781736,760.834517213235
0.0755857898715042,513.447128227328,1025.96265096402,512.515522736693,-769.704889595674,0.465802745317546,769.239086850357
0.0777453838678328,522.638976399088,1037.54818577539,514.909209376299,-780.093581087237,3.86488351139462,776.228697575843
0.0799049778641615,517.3393629911,1032.04481485035,514.70545185925,-774.692088920725,1.3169555659249,773.3751333548
0.0820645718604902,506.266406593678,1021.7197184399,515.453311846219,-763.993062516787,-4.59345262627085,768.586515143058
0.0842241658568189,499.577207767441,1023.0345280604,523.457320292959,-761.30586791392,-11.940056262759,773.245924176679
0.0863837598531476,491.095892619932,1021.78790749807,530.692014878141,-756.441900059003,-19.7980611291046,776.239961188107
0.0885433538494763,485.956824918281,1013.17114123782,527.214316319539,-749.563983078051,-20.6287457006286,770.192728778679
0.090702947845805,484.849285932295,1014.27746637829,529.428180445995,-749.563376155293,-22.2894472568501,771.852823412143
0.0928625418421337,491.613782744664,1029.81290199703,538.199119252367,-760.713342370848,-23.2926682538515,784.006010624699
0.0950221358384624,492.054990543297,1038.19747650833,546.142485965029,-765.126233525812,-27.0437477108657,792.169981236677
0.0971817298347911,486.279910995334,1028.10547042386,541.825559428529,-757.192690709599,-27.7728242165973,784.965514926196
0.0993413238311198,482.878768743726,1021.79179935217,538.913030608444,-752.335284047948,-28.0171309323588,780.352414980307
0.101500917827448,484.900704057005,1022.80050227835,537.899798221345,-753.850603167677,-26.4995470821701,780.350150249847
0.103660511823777,486.097091812161,1019.91354366584,533.816451853677,-753.005317738999,-23.8596800207581,776.864997759757
0.105820105820106,488.378170778161,1011.14384781131,522.765677033146,-749.761009294735,-17.1937531274925,766.954762422227
0.107979699816435,494.716281848902,1018.29517997227,523.578898123366,-756.505730910585,-14.4313081372323,770.937039047817
0.110139293812763,501.492825803617,1035.66036634452,534.167540540901,-768.576596074067,-16.337357368642,784.913953442709
0.112298887809092,499.138101192802,1036.13997668024,537.001875487438,-767.63903893652,-18.931887147318,786.570926083838
0.114458481805421,489.613515120341,1024.5884790623,534.974963941955,-757.100997091319,-22.6807244108071,779.781721502126
0.116618075801749,483.973631790941,1019.95007020574,535.976438414795,-751.961850998338,-26.001403311927,777.963254310265
0.118777669798078,480.091796317173,1024.08092910113,543.989132783956,-752.086362709151,-31.9486682333912,784.035030942542
0.120937263794407,479.099647382889,1016.59954753208,537.49990014919,-747.849597457484,-29.2001263831506,777.049723840635
0.123096857790735,480.602037903755,1009.42577729358,528.823739389826,-745.013907598668,-24.1108507430355,769.124758341704
0.125256451787064,490.950717940125,1022.04630829194,531.095590351811,-756.49851311603,-20.0724362058433,776.570949321874
0.127416045783393,498.406417963985,1035.96787860561,537.561460641623,-767.187148284797,-19.5775213388186,786.764669623615
0.129575639779721,494.37310623039,1032.88526733822,538.512161107834,-763.629186784307,-22.069527438722,785.698714223029
0.13173523377605,488.313101111863,1023.03226945926,534.719168347397,-755.672685285561,-23.2030336177669,778.875718903328
0.133894827772379,492.465299917063,1021.83529783132,529.369997914258,-757.150298874192,-18.4523489985975,775.60264787279
0.136054421768707,499.00904445651,1021.56389028956,522.554845833048,-760.286467373034,-11.7729006882688,772.059368061303
0.138214015765036,495.023904929625,1015.34169881284,520.31779388322,-755.182801871235,-12.6469444767973,767.829746348032
0.140373609761365,492.318783551972,1013.18026639773,520.861482845756,-752.74952497485,-14.2713496468918,767.020874621742
0.142533203757694,493.261996859346,1027.88019314739,534.61819628804,-760.571095003366,-20.678099714347,781.249194717713
0.144692797754022,490.801181473841,1039.49070628348,548.689524809637,-765.14594387866,-28.9441716678976,794.090115546557
0.146852391750351,485.820701038369,1030.0596273115,544.238926273133,-757.940164174935,-29.2091126173818,787.149276792317
0.14901198574668,481.860625055656,1021.68831820913,539.827693153473,-751.774471632393,-28.9835340489087,780.758005681301
0.151171579743008,484.913285552824,1022.9554254459,538.042139893073,-753.934355499361,-26.5644271701248,780.498782669485
0.153331173739337,486.060646621942,1022.19197996254,536.131333340596,-754.12631329224,-25.0353433593272,779.161656651567
0.155490767735666,480.998436969165,1012.64416353577,531.645726566606,-746.821300252468,-25.3236447987205,772.144945051189
0.157650361731994,486.764076450751,1016.31262596274,529.54854951199,-751.538351206746,-21.3922365306196,772.930587737366
0.159809955728323,501.294350419479,1033.09347334191,531.799122922428,-767.193911880693,-15.2523862514744,782.446298132168
0.161969549724652,515.224686114444,1036.22771739535,521.003031280908,-775.726201754899,-2.88917258323181,778.61537433813
0.16412914372098,523.897672034794,1025.39809888397,501.500426849171,-774.64788545938,11.1986225928117,763.449262866568
0.166288737717309,534.721757004263,1022.57423134613,487.852474341869,-778.647994175197,23.4346413311968,755.213352844
0.168448331713638,558.691903867214,1023.7695191072,465.077615239981,-791.230711487205,46.8071443136166,744.423567173588
0.170607925709967,577.244830345128,1019.08654494169,441.841714596565,-798.165687643411,67.7015578742815,730.46412976913
0.172767519706295,592.145672867504,1011.99573682922,419.850063961712,-802.07070484836,86.1478044528963,715.922900395464
0.174927113702624,619.699837618045,1021.46092650989,401.761088891848,-820.580382063969,108.969374363098,711.61100770087
0.177086707698953,650.855727055654,1036.09061586465,385.234888808994,-843.473171460151,132.81041912333,710.662752336821
0.179246301695281,662.484550818627,1032.56059548711,370.076044668484,-847.522573152869,146.204253075072,701.318320077798
0.18140589569161,654.910720321028,1022.49167349257,367.580953171544,-838.7011969068,143.664883574742,695.036313332058
0.183565489687939,643.392056482587,1021.3975056923,378.005449209713,-832.394781087443,132.693303636437,699.701477451006
0.185725083684267,625.07699082275,1025.86672651289,400.789735690137,-825.471858667819,112.143627566306,713.328231101513
0.187884677680596,595.030330106941,1016.65442610346,421.624095996521,-805.842378105201,86.7031170552096,719.139261049992
0.190044271676925,561.056499242697,1014.70192741182,453.64542816912,-787.879213327257,53.7055355367883,734.173677790469
0.192203865673253,545.029357917271,1026.07865751574,481.049299598467,-785.554007716505,31.990029159402,753.563978557103
0.194363459669582,527.64739222689,1037.48852380608,509.841131579186,-782.567958016483,8.90313032385211,773.664827692631
0.196523053665911,507.354761833812,1031.07602485469,523.72126302088,-769.215393344252,-8.18325059353407,777.398643937786
0.19868264766224,486.81095585463,1020.72725161439,533.916295759764,-753.769103734512,-23.5526699525669,777.321773687079
0.200842241658568,477.848038255907,1022.69712383823,544.849085582319,-750.272581047067,-33.5005236632061,783.773104710273
0.203001835654897,478.108198197171,1024.03009624193,545.921898044759,-751.06914721955,-33.9068499237943,784.975997143344
0.205161429651226,480.112564635997,1014.46246676748,534.349902131482,-747.287515701738,-27.1186687477426,774.406184449481
0.207321023647554,485.18045952477,1014.86770126934,529.687241744574,-750.024080397057,-22.2533911099019,772.277471506959
0.209480617643883,496.930653670382,1030.48587702827,533.555223357891,-763.708265349327,-18.3122848437548,782.020550193082
0.211640211640212,505.914767019051,1036.09648559487,530.181718575823,-771.005626306962,-12.1334757783863,783.139102085349
0.21379980563654,503.204854901371,1026.38601745657,523.1811625552,-764.795436178971,-9.9881538269147,774.783590005886
0.215959399632869,497.488576851954,1022.22226354423,524.733686692272,-759.85542019809,-13.6225549201589,773.477975118249
0.218118993629198,497.692779557854,1023.93866668379,526.245887125933,-760.81572312082,-14.2765537840395,775.09227690486
0.220278587625526,494.646578165253,1021.30798911932,526.661410954064,-757.977283642285,-16.0074163944054,773.984700036691
0.222438181621855,492.56385930316,1014.04179262883,521.477933325671,-753.302825965995,-14.4570370112558,767.759862977251
0.224597775618184,497.756969154204,1018.27858009014,520.521610935938,-758.017774622173,-11.3823208908672,769.40009551304
0.226757369614512,500.524152444503,1033.02784383394,532.503691389439,-766.775998139223,-15.9897694724679,782.765767611691
0.228916963610841,497.876046244986,1036.14169395206,538.265647707077,-767.008870098525,-20.1948007310455,787.20367082957
0.23107655760717,492.710795722571,1024.1686330871,531.457837364526,-758.439714404834,-19.3735208209776,777.813235225812
0.233236151603499,496.898952057493,1021.82363099209,524.9246789346,-759.361291524793,-14.0128634385535,773.374154963346
0.235395745599827,500.062948316133,1025.64037693753,525.577428621401,-762.851662626834,-12.7572401526342,775.608902779468
0.237555339596156,494.432877028417,1018.99484882913,524.561971800712,-756.713862928773,-15.0645473861473,771.778410314921
0.239714933592485,487.301517943884,1013.81620969501,526.514691751122,-750.558863819444,-19.606586903619,770.165450723063
0.241874527588813,487.687399757208,1023.48717324528,535.799773488069,-755.587286501242,-24.0561868654304,779.643473366673
0.244034121585142,491.540145177093,1037.16872000964,545.62857483255,-764.354432593368,-27.0442148277284,791.398647421096
0.246193715581471,492.52985004797,1030.02738526951,537.497535221536,-761.278617658738,-22.4838425867829,783.762460245521
0.248353309577799,490.820883377603,1020.95072521507,530.129841837469,-755.885804296338,-19.6544792299329,775.540283526271
0.250512903574128,495.607778520779,1023.15742916014,527.549650639358,-759.382603840458,-15.9709360592897,775.353539899748
0.252672497570457,497.86904702528,1026.43043214517,528.561385119889,-762.149739585224,-15.3461690473046,777.495908632528
0.254832091566785,499.063638288152,1016.52340397785,517.459765689694,-757.793521132999,-9.19806370077094,766.99158483377
0.256991685563114,498.689252236873,1013.99013661377,515.300884376896,-756.339694425321,-8.30581607001136,764.645510495332
0.259151279559443,499.807175138229,1026.88205438664,527.074879248408,-763.344614762433,-13.6338520550897,776.978466817523
0.261310873555771,503.968543905363,1036.65742211607,532.688878210703,-770.312983010715,-14.3601671526698,784.673150163385
0.2634704675521,500.979712544944,1028.46414431922,527.484431774271,-764.72192843208,-13.2523596146632,777.974288046743
0.265630061548429,497.433442512222,1020.9784887067,523.545046194475,-759.20596560946,-13.0558018411265,772.261767450587
0.267789655544758,496.389471199152,1023.69943971037,527.309968511217,-760.04445545476,-15.4602486560328,775.504704110793
0.269949249541086,495.268981889386,1024.23505439882,528.966072509431,-759.752018144102,-16.8485453100222,776.600563454124
0.272108843537415,488.041182076376,1013.51584794368,525.474665867306,-750.778515010029,-18.7167418954647,769.495256905494
0.274268437533744,485.912954786813,1017.56153461474,531.648579827922,-751.737244700774,-22.8678125205543,774.605057221329
0.276428031530072,498.608072690992,1029.77778595365,531.169713262661,-764.192929322323,-16.2808202858345,780.473749608158
0.278587625526401,506.27832173382,1035.46306245587,529.184740722054,-770.870692094847,-11.4532094941171,782.323901588964
0.28074721952273,506.23182200374,1023.04700556745,516.815183563709,-764.639413785595,-5.29168077998457,769.93109456558
0.282906813519058,504.567464189666,1021.2337481306,516.666283940936,-762.900606160133,-6.04940987563486,768.950016035768
0.285066407515387,504.133226815333,1026.90304356923,522.769816753899,-765.518135192283,-9.31829496928293,774.836430161566
0.287226001511716,499.442687032206,1022.17802282631,522.735335794101,-760.810354929256,-11.6463243809476,772.456679310204
0.289385595508044,494.57263683194,1013.43079417442,518.858157342481,-754.001715503181,-12.1427602552706,766.144475758452
0.291545189504373,498.621371426355,1020.19115524859,521.569783822234,-759.406263337472,-11.4742061979397,770.880469535412
0.293704783500702,507.906330021131,1033.60307627669,525.696746255559,-770.754703148911,-8.89520811721377,779.649911266125
0.295864377497031,509.968872974531,1031.95141133462,521.98253836009,-770.960142154576,-6.00683269277948,776.966974847355
0.298023971493359,506.911783347193,1021.42937063197,514.517587284778,-764.170576989582,-3.80290196879264,767.973478958375
0.300183565489688,511.24662372708,1022.43502233695,511.18839860987,-766.840823032015,0.0291125586046519,766.81171047341
0.302343159486017,515.483327340943,1025.31589573419,509.832568393248,-770.399611537567,2.82537947384753,767.574232063719
0.304502753482345,510.235295007509,1019.67865837967,509.443363372161,-764.95697669359,0.395965817673812,764.561010875916
0.306662347478674,506.564159722115,1014.66264910668,508.098489384565,-760.613404414397,-0.767164831224932,761.380569245622
0.308821941475003,507.614842186027,1025.37612417515,517.761281989123,-766.495483180588,-5.07321990154827,771.568703082136
0.310981535471331,511.629436621129,1035.9153051999,524.285868578774,-773.772370910516,-6.3282159788223,780.100586889339
0.31314112946766,507.481880765064,1030.6186967042,523.136815939137,-769.050288734633,-7.8274675870361,776.877756321669
0.315300723463989,506.339479443056,1021.93630639108,515.596826948021,-764.137892917067,-4.62867375248248,768.76656666955
0.317460317460317,507.130343944396,1022.12010378462,514.98975984022,-764.625223864505,-3.92970794791205,768.554931812417
0.319619911456646,511.099463300833,1026.75022961212,515.650766311285,-768.924846456475,-2.27565150522605,771.200497961701
0.321779505452975,507.895910840459,1017.28492038958,509.389009549119,-762.590415615018,-0.746549354330114,763.336964969349
0.323939099449304,508.272566890955,1015.32905440041,507.056487509452,-761.800810645681,0.608039690751582,761.19277095493
0.326098693445632,517.615565879893,1029.45256591542,511.837000035526,-773.534065897657,2.8892829221835,770.644782975473
0.328258287441961,517.499904860978,1033.5399751086,516.040070247626,-775.519939984791,0.729917306675929,774.790022678115
0.33041788143829,515.804830051655,1025.13274995034,509.327919898686,-770.468790000998,3.23845507648446,767.230334924513
0.332577475434618,515.277909686165,1020.73711095488,505.459201268715,-768.007510320523,4.90935420872495,763.098156111798
0.334737069430947,521.028043411663,1025.71657606735,504.688532655683,-773.372309739505,8.16975537799021,765.202554361515
0.336896663427276,521.35112903904,1023.12743079767,501.776301758632,-772.239279918356,9.78741364020385,762.451866278152
0.339056257423604,513.925076218513,1015.51761101183,501.592534793312,-764.721343615169,6.16627071260069,758.555072902569
0.341215851419933,513.651607373613,1019.25304635395,505.60143898034,-766.452326863784,4.0250841966365,762.427242667147
0.343375445416262,522.309498413424,1030.78895332838,508.479454914952,-776.5492258709,6.91502174923596,769.634204121664
0.34553503941259,524.668210567407,1032.70016525718,508.031954689776,-778.684187912295,8.31812793881534,770.366059973479
0.347694633408919,520.374770516768,1022.15537337394,501.780602857172,-771.265071945354,9.29708382979828,761.967988115555
0.349854227405248,521.808651647107,1020.65429030405,498.845638656943,-771.231470975579,11.4815064950818,759.749964480497
0.352013821401576,525.595220026703,1025.71824564688,500.123025620181,-775.656732836793,12.7360972032608,762.920635633532
0.354173415397905,524.152417932456,1021.79417789353,497.641759961079,-772.973297912995,13.2553289856885,759.717968927306
0.356333009394234,522.515825976317,1012.86353688063,490.347710904309,-767.689681428471,16.084057536004,751.605623892467
0.358492603390563,526.520048737744,1022.04161682293,495.52156808519,-774.280832780339,15.4992403262767,758.781592454062
0.360652197386891,532.405017660346,1033.84372360553,501.438705945179,-783.124370632936,15.4831558575836,767.641214775352
0.36281179138322,532.237350229846,1030.75419848372,498.51684825387,-781.495774356781,16.860250987988,764.635523368793
0.364971385379549,529.39227450231,1019.15216935879,489.759894856481,-774.27222193055,19.8161898229144,754.456032107636
0.367130979375877,531.727345802949,1021.30619161267,489.578845809724,-776.516768707811,21.0742499966127,755.442518711198
0.369290573372206,532.71611130426,1025.78104144385,493.064930139591,-779.248576374055,19.8255905823343,759.422985791721
0.371450167368535,528.831609795881,1020.22728022312,491.39567042724,-774.529445009501,18.7179696843206,755.811475325181
0.373609761364863,522.823861543652,1014.60582892174,491.781967378083,-768.714845232694,15.5209470827844,753.193898149909
0.375769355361192,524.563365140177,1027.10624428634,502.542879146164,-775.834804713259,11.0102429970066,764.824561716253
0.377928949357521,530.665113831681,1034.32249776241,503.657383930734,-782.493805797048,13.5038649504731,768.989940846575
0.380088543353849,529.56070852359,1028.34006435046,498.779355826867,-778.950386437024,15.3906763483612,763.559710088662
0.382248137350178,528.102794350252,1021.41322079144,493.310426441184,-774.758007570844,17.3961839545343,757.36182361631
0.384407731346507,527.71658455919,1026.17295054147,498.456365982278,-776.94476755033,14.6301092884559,762.314658261874
0.386567325342836,531.137434313883,1024.76315443413,493.625720120245,-777.950294374006,18.7558570968192,759.194437277187
0.388726919339164,533.575031078181,1016.9774367726,483.402405694415,-775.276233925388,25.0863126918827,750.189921233506
0.390886513335493,537.830244080049,1015.73473228985,477.904488209796,-776.782488184947,29.9628779351265,746.819610249821
0.393046107331822,545.49401980964,1029.7744516555,484.280431845856,-787.634235732568,30.6067939818921,757.027441750676
0.39520570132815,549.156807430798,1034.19146313377,485.034655702971,-791.674135282284,32.0610758639135,759.613059418371
0.397365295324479,544.833374337124,1022.08372942013,477.25035508301,-783.458551878629,33.7915096270573,749.667042251572
0.399524889320808,543.363987977667,1018.91752015685,475.553532179187,-781.140754067261,33.9052278992403,747.23552616802
0.401684483317136,548.691970104083,1027.68115187064,478.989181766554,-788.18656098736,34.8513941687646,753.335166818595
0.403844077313465,540.273652946622,1023.78175402636,483.508101079741,-782.027703486493,28.3827759334403,753.644927553052
0.406003671309794,531.860136912456,1015.5603560361,483.700219123644,-773.710246474278,24.0799588944058,749.630287579872
0.408163265306122,534.476350259177,1018.96313551329,484.486785254111,-776.719742886233,24.9947825025331,751.7249603837
0.410322859302451,542.804704333262,1033.47655484775,490.671850514483,-788.140629590504,26.0664269093893,762.074202681114
0.41248245329878,540.815293860958,1031.79105825022,490.975764389265,-786.30317605559,24.9197647358465,761.383411319743
0.414642047295109,533.590321051243,1018.63609992542,485.045778874172,-776.113210488329,24.2722710885351,751.840939399794
0.416801641291437,532.217754444851,1021.38492946886,489.167175024006,-776.801341956854,21.5252897104223,755.276052246432
0.418961235287766,537.052499952147,1027.36478243743,490.312282485285,-782.20864119479,23.3701087334309,758.838532461359
0.421120829284095,532.923417483943,1020.23365920546,487.310241721518,-776.578538344702,22.8065878812125,753.771950463489
0.423280423280423,532.754552397838,1014.41047959165,481.655927193811,-773.582515994744,25.5493126020133,748.03320339273
0.425440017276752,537.418701755523,1024.81342831251,487.39472655699,-781.116065034018,25.0119875992661,756.104077434752
0.427599611273081,543.398607915762,1032.74522973469,489.346621818924,-788.071918825225,27.0259930484191,761.045925776805
0.429759205269409,538.112095648921,1028.60090727518,490.488811626257,-783.356501462049,23.8116420113316,759.544859450718
0.431918799265738,533.954817926709,1018.34209602018,484.387278093466,-776.148456973442,24.7837699166211,751.364687056821
0.434078393262067,536.322361754117,1024.33905515522,488.016693401098,-780.330708454666,24.1528341765094,756.177874278157
0.436237987258395,531.919007460315,1027.97682046262,496.057813002308,-779.947913961469,17.930597229004,762.017316732465
0.438397581254724,523.637168100193,1017.66119391384,494.024025813648,-770.649181007017,14.8065711432727,755.842609863745
0.440557175251053,518.406875692373,1016.66319610064,498.256320408266,-767.535035896506,10.0752776420532,757.459758254452
0.442716769247381,520.273854540384,1027.65908196609,507.385227425707,-773.966468253237,6.44431355733809,767.522154695899
0.44487636324371,522.066198709245,1034.44912205807,512.382923348828,-778.257660383659,4.84163768020858,773.41602270345
0.447035957240039,513.437448209402,1025.26065954758,511.823211338177,-769.34905387849,0.807118435612779,768.541935442878
0.449195551236368,509.099093583726,1018.33067314804,509.231579564318,-763.714883365885,-0.0662429902960753,763.781126356181
0.451355145232696,511.218362895455,1025.2200108019,514.00164790645,-768.21918684868,-1.39164250549726,769.610829354177
0.453514739229025,508.97626425571,1026.50941632426,517.533152068551,-767.742840289985,-4.27844390642059,772.021284196406
0.455674333225354,503.556519341671,1015.65807652673,512.101557185062,-759.607297934202,-4.27251892169539,763.879816855897
0.457833927221682,503.663073090351,1018.21163087865,514.5485577883,-760.937351984501,-5.44274234897478,766.380094333476
0.459993521218011,508.736745802919,1031.8438547488,523.107108945877,-770.290300275858,-7.18518157147901,777.475481847337
0.46215311521434,506.062027136498,1033.66741878361,527.605391647117,-769.864722960056,-10.7716822553093,780.636405215366
0.464312709210668,503.068403445925,1021.39615467342,518.327751227491,-762.232279059671,-7.62967389078295,769.861952950454
0.466472303206997,505.720872633562,1020.45756706176,514.736694428202,-763.089219847663,-4.50791089732024,767.597130744983
0.468631897203326,509.823272554934,1026.50513199608,516.681859441149,-768.164202275508,-3.42929344310778,771.593495718616
0.470791491199654,509.741978714065,1022.22817678093,512.486198066861,-765.985077747496,-1.3721096763976,767.357187423893
0.472951085195983,497.960964598002,1013.72425594675,515.763291348747,-755.842610272375,-8.9011633753729,764.743773647748
0.475110679192312,495.326606147097,1022.67020986035,527.343603713257,-758.998408003725,-16.0084987830801,775.006906786805
0.477270273188641,495.756633008008,1033.8108933622,538.054260354189,-764.783763185103,-21.1488136730904,785.932576858193
0.479429867184969,490.860475814164,1028.79530988515,537.934834070986,-759.827892849657,-23.5371791284113,783.365071978068
0.481589461181298,484.385924008457,1020.53126437746,536.145340369001,-752.458594192958,-25.8797081802716,778.338302373229
0.483749055177627,486.618850297457,1022.34851830887,535.729668011412,-754.483684303163,-24.5554088569777,779.039093160141
0.485908649173955,490.645633960632,1027.81401302687,537.16837906624,-759.229823493752,-23.2613725528038,782.491196046556
0.488068243170284,493.174979766711,1020.59361171568,527.418631948965,-756.884295741193,-17.121826091127,774.00612183232
0.490227837166613,490.076497984135,1017.10898489799,527.03248691386,-753.592741441065,-18.4779944648623,772.070735905927
0.492387431162941,496.198973844616,1025.47203141872,529.273057574101,-760.835502631667,-16.5370418647426,777.372544496409
0.49454702515927,499.070376663464,1034.30642568821,535.236049024745,-766.688401175837,-18.0828361806406,784.771237356477
0.496706619155599,493.314747104567,1025.50392184947,532.189174744903,-759.409334477019,-19.437213820168,778.846548297187
0.498866213151927,486.078873102095,1018.95024615927,532.871373057177,-752.514559630683,-23.3962499775409,775.910809608224
0.501025807148256,487.598012307936,1024.45797050247,536.859958194532,-756.027991405202,-24.6309729432982,780.6589643485
0.503185401144585,487.235831433527,1023.94599036616,536.710158932631,-755.590910899842,-24.7371637495521,780.328074649394
0.505344995140913,487.063444327086,1019.16974860408,532.10630427699,-753.116596465581,-22.5214299749517,775.638026440533
0.507504589137242,491.988984603704,1016.86754731618,524.878562712474,-754.428265959941,-16.444789054385,770.873055014326
0.509664183133571,497.87384863044,1029.96908957185,532.095240941406,-763.921469101143,-17.1106961554827,781.032165256626
0.5118237771299,497.477482161316,1032.24116295273,534.763680791417,-764.859322557025,-18.6430993150504,783.502421872075
0.513983371126228,490.717490945035,1022.37983735812,531.662346413083,-756.548664151576,-20.472427734024,777.0210918856
0.516142965122557,489.350105588,1019.61937126018,530.26926567218,-754.48473842409,-20.4595800420902,774.94431846618
0.518302559118886,493.47139232521,1026.22756614351,532.756173818303,-759.849479234361,-19.6423907465467,779.491869980908
0.520462153115214,498.405191969376,1023.07297926158,524.667787292201,-760.739085615476,-13.1312976614129,773.870383276889
0.522621747111543,496.253099689105,1016.5102057167,520.257106027598,-756.381652702904,-12.0020031692461,768.38365587215
0.524781341107872,496.391267999128,1021.76751816262,525.376250163494,-759.079393080875,-14.4924910821826,773.571884163058
0.5269409351042,504.212687507443,1031.56318430573,527.35049679829,-767.887935906588,-11.5689046454234,779.456840552012
0.529100529100529,501.431450366028,1030.91454612325,529.483095757218,-766.172998244637,-14.0258226955953,780.198820940232
0.531260123096858,494.591497066196,1020.021849375,525.430352308805,-757.306673220599,-15.4194276213041,772.726100841903
0.533419717093186,494.132319440028,1020.2791606329,526.146841192872,-757.205740036464,-16.0072608764217,773.213000912886
0.535579311089515,489.92373284852,1026.17375718243,536.250024333908,-758.048745015474,-23.1631457426942,781.211890758168
0.537738905085844,482.23195631659,1021.55209376845,539.320137451857,-751.892025042518,-28.5440905676339,780.436115610152
0.539898499082173,480.174426800519,1015.05205019045,534.877623389927,-747.613238495482,-27.3515982947044,774.964836790187
0.542058093078501,489.108426651122,1024.33716155182,535.228734900699,-756.722794101472,-23.0601541247883,779.78294822626
0.54421768707483,500.593312928802,1032.80212401698,532.208811088175,-766.697718472889,-15.8077490796865,782.505467552575
0.546377281071159,498.657090701486,1026.79503921716,528.137948515675,-762.726064959323,-14.7404289070947,777.466493866418
0.548536875067487,494.863812803605,1019.83375196021,524.969939156604,-757.348782381907,-15.0530631764991,772.401845558406
0.550696469063816,499.235854464903,1022.46009403801,523.224239573103,-760.847974251454,-11.9941925540999,772.842166805554
0.552856063060145,501.051136809162,1027.00805963937,525.956922830205,-764.029598224265,-12.4528930105214,776.482491234786
0.555015657056473,497.102372526246,1019.89503148452,522.792658958276,-758.498702005383,-12.8451432160151,771.343845221398
0.557175251052802,494.60488841868,1017.96869386173,523.363805443052,-756.286791140206,-14.379458512186,770.666249652392
0.559334845049131,496.859157090336,1026.97332959492,530.11417250458,-761.916243342626,-16.6275077071217,778.543751049748
0.561494439045459,496.503379010006,1032.53550040545,536.032121395447,-764.519439707729,-19.7643711927205,784.28381090045
0.563654033041788,486.189267608022,1024.561652054,538.372384445982,-755.375459831013,-26.09155841898,781.467018249993
0.565813627038117,485.020946349857,1018.95614426832,533.93519791846,-751.988545309087,-24.4571257843014,776.445671093388
0.567973221034445,489.189716504554,1025.58083253472,536.391116030161,-757.385274519635,-23.6006997628038,780.985974282438
0.570132815030774,493.236939819161,1027.66954283628,534.432603017118,-760.45324132772,-20.5978315989784,781.051072926698
0.572292409027103,490.916429006664,1016.66663532089,525.750206314227,-753.791532163778,-17.4168886537815,771.208420817559
0.574452003023432,501.640210687744,1018.17951290088,516.539302213136,-759.909861794312,-7.44954576269635,767.359407557008
0.57661159701976,514.371735789769,1031.04174881106,516.670013021292,-772.706742300415,-1.14913861576156,773.855880916177
0.578771191016089,518.669360704908,1031.84245197557,513.173091270664,-775.25590634024,2.74813471712196,772.507771623118
0.580930785012418,512.679413362907,1021.80241892718,509.123005564273,-767.240916145043,1.77820389931696,765.462712245726
0.583090379008746,508.593755731845,1021.241632228,512.647876496159,-764.917693979925,-2.02706038215678,766.944754362082
0.585249973005075,505.244869404528,1029.100884639,523.85601523447,-767.172877021763,-9.30557291497087,776.478449936734
0.587409567001404,498.564657043108,1024.41863998618,525.853982943074,-761.491648514644,-13.6446629499829,775.136311464627
0.589569160997732,489.570811520569,1016.44224894596,526.871437425387,-753.006530233263,-18.650312952409,771.656843185672
0.591728754994061,488.16143136879,1021.35209469092,533.190663322129,-754.756763029854,-22.5146159766693,777.271379006524
0.59388834899039,489.039950122674,1033.00007463137,543.960124508695,-761.020012377022,-27.4600871930105,788.480099570032
0.596047942986718,492.139253616371,1029.10617310176,536.966919485388,-760.622713359065,-22.4138329345085,783.036546293573
0.598207536983047,496.901826367597,1019.04356806534,522.141741697739,-757.972697216467,-12.6199576650708,770.592654881538
0.600367130979376,502.671019969757,1023.3109012675,520.639881297742,-762.990960618628,-8.98443066399295,771.975391282621
0.602526724975705,506.398320261129,1027.59251474445,521.194194483323,-766.99541750279,-7.39793711109712,774.393354613887
0.604686318972033,503.042777904734,1022.72158976071,519.678811855981,-762.882183832724,-8.31801697562338,771.200200808348
0.606845912968362,497.399100828518,1015.51408290331,518.114982074789,-756.456591865913,-10.3579406231352,766.814532489048
0.609005506964691,495.889237875933,1024.94003008333,529.050792207393,-760.414633979629,-16.58077716573,776.995411145359
0.611165100961019,494.512500638041,1033.51669181408,539.004191176035,-764.014596226059,-22.2458452689967,786.260441495055
0.613324694957348,488.866614608726,1024.89652549943,536.029910890706,-756.881570054079,-23.5816481409896,780.463218195069
0.615484288953677,489.838670045258,1018.55770013227,528.719030087009,-754.198185088763,-19.4401800208755,773.638365109639
0.617643882950005,496.730590917403,1025.62148349184,528.890892574441,-761.176037204624,-16.0801508285189,777.256188033142
0.619803476946334,501.792159119241,1028.88911960803,527.09696048879,-765.340639363636,-12.6524006847747,777.993040048411
0.621963070942663,498.517633691113,1020.12186801845,521.604234327339,-759.319750854782,-11.5433003181131,770.863051172895
0.624122664938991,498.997065929773,1015.95673812639,516.959672196612,-757.476902028079,-8.98130313341977,766.458205161499
0.62628225893532,503.619854808189,1029.32034170355,525.700486895359,-766.470098255868,-11.0403160435853,777.510414299454
0.628441852931649,509.245223259072,1032.55866855224,523.313445293165,-770.901945905654,-7.03411101704631,777.936056922701
0.630601446927977,508.466173079879,1023.87695762757,515.410784547687,-766.171565353722,-3.47230573390408,769.643871087626
0.632761040924306,511.183287077091,1019.33999737164,508.156710294547,-765.261642224364,1.51328839127211,763.748353833092
0.634920634920635,512.765529554325,1028.59734233798,515.831812783653,-770.681435946152,-1.53314161466403,772.214577560816
0.637080228916964,511.995577576774,1027.09029303129,515.094715454514,-769.54293530403,-1.54956893886998,771.0925042429
0.639239822913292,502.594640570083,1016.244588333,513.649947762917,-759.419614451541,-5.52765359641722,764.947268047959
0.641399416909621,503.294104745617,1018.58641662555,515.292311879937,-760.940260685586,-5.99910356716009,766.939364252746
0.64355901090595,510.924034864977,1029.86763192066,518.943597055679,-770.395833392817,-4.0097810953506,774.405614488167
0.645718604902278,512.177004313579,1030.33144228658,518.154437972997,-771.254223300077,-2.98871682970866,774.242940129786
0.647878198898607,509.328572593958,1020.59810827418,511.269535680225,-764.963340434071,-0.970481543133587,765.933821977204
0.650037792894936,508.065385815722,1023.13214260411,515.066756788392,-765.598764209918,-3.50068548633539,769.099449696253
0.652197386891264,510.328359567319,1027.72688961656,517.398530049245,-769.027624591941,-3.53508524096287,772.562709832904
0.654356980887593,504.754738125831,1021.55249958158,516.797761455746,-763.153618853704,-6.02151166495776,769.175130518661
0.656516574883922,503.293828182541,1016.53895519122,513.245127008675,-759.916391686878,-4.97564941306678,764.892041099945
0.65867616888025,504.96171160281,1023.94145927747,518.979747674656,-764.451585440138,-7.00901803592313,771.460603476061
0.660835762876579,508.513774864394,1033.12621049823,524.612435633833,-770.819992681311,-8.0493303847195,778.86932306603
0.662995356872908,503.647330740552,1026.28635137328,522.639020632726,-764.966841056915,-9.49584494608723,774.462686003002
0.665154950869237,499.783455751858,1020.4616602069,520.67820445504,-760.122557979378,-10.4473743515907,770.569932330969
0.667314544865565,501.197344013786,1022.46912358017,521.271779566385,-761.833233796978,-10.0372177762994,771.870451573278
0.669474138861894,505.259063768944,1028.74409489981,523.485031130864,-767.001579334376,-9.1129836809601,776.114563015336
0.671633732858223,507.365648220433,1019.82717322717,512.461525006736,-763.596410723801,-2.54793839315181,766.144349116953
0.673793326854551,509.579561706072,1016.18186427021,506.60230256414,-762.880712988142,1.48862957096594,761.392083417176
0.67595292085088,515.723848105103,1026.42490125941,510.701053154302,-771.074374682254,2.51139747540037,768.562977206854
0.678112514847209,522.472165029666,1031.90082685623,509.428661826566,-777.186495942949,6.52175160154991,770.664744341399
0.680272108843537,519.021504633588,1023.10984363862,504.088339005036,-771.065674136106,7.46658281427574,763.59909132183
0.682431702839866,515.790133757972,1019.65016154093,503.860027782953,-767.720147649448,5.96505298750918,761.755094661939
0.684591296836195,515.442474390349,1026.77104981857,511.328575428218,-771.106762104458,2.05694948106554,769.049812623392
0.686750890832523,507.876057666934,1025.53062226367,517.654564596732,-766.7033399653,-4.88925346489924,771.592593430199
0.688910484828852,501.377086291473,1015.47444273807,514.0973564466,-758.425764514773,-6.36013507756331,764.785899592336
0.691070078825181,508.616315251199,1018.13580104033,509.519485789131,-763.376058145764,-0.451585268966085,763.82764341473
0.693229672821509,525.078323336895,1031.39905226554,506.320728928648,-778.238687801219,9.37879720412366,768.859890597096
0.695389266817838,530.358878503751,1031.25063695516,500.891758451407,-780.804757729454,14.7335600261721,766.071197703282
0.697548860814167,524.354564073069,1021.37230005186,497.017735978788,-772.863432062463,13.6684140471405,759.195018015323
0.699708454810496,521.452280882197,1022.01964169907,500.567360816875,-771.735961290634,10.4424600326606,761.293501257974
0.701868048806824,518.603314090926,1028.51252094643,509.909206855504,-773.557917518678,4.3470536177108,769.210863900967
0.704027642803153,512.204621672812,1024.39487053828,512.190248865466,-768.299746105545,0.00718640367290391,768.292559701872
0.706187236799482,500.896123113242,1016.05730179555,515.161178682311,-758.476712454398,-7.13252778453415,765.609240238932
0.70834683079581,502.03323762155,1022.07216840856,520.038930787005,-762.052703015053,-9.00284658272767,771.05554959778
0.710506424792139,507.753801486415,1031.32439388474,523.570592398322,-769.539097685576,-7.90839545595389,777.44749314153
0.712666018788468,509.791240807599,1027.58289290496,517.791652097363,-768.687066856281,-4.00020564488182,772.687272501163
0.714825612784796,508.534392935245,1017.65889275163,509.12449981638,-763.096642843435,-0.295053440567813,763.391696284003
0.716985206781125,511.66417720551,1024.21828944466,512.55411223915,-767.941233325084,-0.444967516820043,768.386200841904
0.719144800777454,516.965364126475,1028.19106195825,511.225697831772,-772.578213042361,2.86983314735153,769.708379895009
0.721304394773782,511.761839458153,1021.66375634051,509.901916882354,-766.71279789933,0.929961287899289,765.782836611431
0.723463988770111,508.667051252424,1017.86601786821,509.198966615786,-763.266534560317,-0.26595768168113,763.532492241998
0.72562358276644,506.641369656303,1024.4826518004,517.841282144099,-765.562010728353,-5.59995624389791,771.161966972251
0.727783176762769,506.086628044521,1032.89478991601,526.808161871486,-769.490708980264,-10.3607669134826,779.851475893747
0.729942770759097,501.415829219087,1023.45644269816,522.040613479073,-762.436135958623,-10.3123921299934,772.748528088617
0.732102364755426,492.512942010165,1019.2295502373,526.716608227138,-755.871246123734,-17.1018331084866,772.973079232221
0.734261958751755,495.895566305607,1025.68757383406,529.792007528448,-760.791570069831,-16.9482206114205,777.739790681252
0.736421552748083,499.51413177806,1028.64415487896,529.130023100903,-764.079143328511,-14.8079456614217,778.887088989933
0.738581146744412,501.300467668417,1019.96726096166,518.666793293239,-760.633864315036,-8.6831628124109,769.317027127447
0.740740740740741,500.16530209648,1018.04000584404,517.874703747561,-759.102653970261,-8.85470082554065,767.957354795801
0.742900334737069,504.173093066597,1028.75441727026,524.581324203658,-766.463755168426,-10.2041155685305,776.667870736957
0.745059928733398,501.610601216553,1032.0053416337,530.394740417149,-766.807971425127,-14.3920696002983,781.200041025426
0.747219522729727,493.008117593973,1020.48676250963,527.478644915657,-756.747440051802,-17.2352636608418,773.982703712643
0.749379116726056,488.011323169254,1020.07930844558,532.067985276322,-754.045315807415,-22.0283310535341,776.073646860949
0.751538710722384,490.956725575146,1026.83555789212,535.878832316974,-758.896141733633,-22.4610533709136,781.357195104547
0.753698304718713,492.661661605695,1024.94102945936,532.279367853669,-758.801345532529,-19.8088531239869,778.610198656516
0.755857898715041,488.275347512753,1018.92526142854,530.649913915787,-753.600304470647,-21.1872832015166,774.787587672163
0.75801749271137,488.278980424784,1019.42505553828,531.1460751135,-753.852017981534,-21.433547344358,775.285565325892
0.760177086707699,494.25884968314,1032.26687108759,538.008021404449,-763.262860385364,-21.8745858606545,785.137446246018
0.762336680704028,492.477757653261,1029.84340588222,537.365648228957,-761.16058176774,-22.4439452878478,783.604527055588
0.764496274700356,488.955408379912,1019.23311544164,530.277707061728,-754.094261910776,-20.6611493409083,774.755411251684
0.766655868696685,490.97964589506,1022.95986138363,531.980215488567,-756.969753639344,-20.5002847967536,777.470038436097
0.768815462693014,488.63626150586,1029.1723791797,540.536117673837,-758.904320342778,-25.9499280839883,784.854248426767
0.770975056689342,487.478599067636,1024.4437450672,536.965145999567,-755.96117206742,-24.7432734659651,780.704445533385
0.773134650685671,491.809627990857,1015.96718151376,524.157553522898,-753.888404752306,-16.1739627660203,770.062367518326
0.775294244682,501.727028371267,1024.58883796028,522.861809589016,-763.157933165775,-10.5673906088743,773.72532377465
0.777453838678328,511.801681050927,1030.5570784934,518.755397442477,-771.179379772165,-3.47685819577504,774.65623796794
0.779613432674657,507.89730605425,1025.91710012317,518.019794068916,-766.907203088708,-5.06124400733262,771.968447096041
0.781773026670986,497.289538418396,1018.15549270073,520.865954282331,-757.722515559562,-11.7882079319673,769.510723491529
0.783932620667315,488.308646264438,1022.41389564638,534.10524938194,-755.361270955408,-22.8983015587507,778.259572514159
0.786092214663643,483.09494413923,1029.31832718339,546.223383044164,-756.206635661312,-31.5642194524667,787.770855113779
0.788251808659972,481.558464622606,1020.62394953334,539.065484910736,-751.091207077974,-28.7535101440653,779.844717222039
0.790411402656301,486.157924094655,1016.35549963838,530.197575543728,-751.256711866518,-22.0198257245365,773.276537591055
0.792570996652629,493.092244244844,1024.9561411779,531.863896933057,-759.024192711373,-19.3858263441064,778.410019055479
0.794730590648958,497.216235978298,1031.42516430307,534.208928324777,-764.320700140686,-18.4963461732395,782.817046313926
0.796890184645287,495.055429736869,1023.80656086174,528.751131124867,-759.430995299303,-16.8478506939988,776.278845993302
0.799049778641615,493.42131277409,1019.37879690889,525.957484134799,-756.40005484149,-16.2680856803545,772.668140521844
0.801209372637944,497.744180652847,1026.86527636072,529.12109570787,-762.304728506782,-15.6884575275116,777.993186034294
0.803368966634273,498.859770645896,1026.235935441,527.376164795101,-762.547853043446,-14.2581970746027,776.806050118049
0.805528560630601,497.369704459109,1020.14911390302,522.779409443914,-758.759409181066,-12.7048524924027,771.464261673469
0.80768815462693,505.782330336676,1017.07166591222,511.289335575545,-761.426998124448,-2.75350261943424,764.180500743883
0.809847748623259,524.390583006716,1029.89455697831,505.503973971594,-777.142569992514,9.44330451756105,767.699265474953
0.812007342619588,547.381114678659,1030.8873874439,483.50627276524,-789.134251061279,31.9374209567098,757.196830104569
0.814166936615916,565.431113710538,1022.11930615786,456.688192447324,-793.7752099342,54.3714606316066,739.403749302593
0.816326530612245,588.167073506608,1020.80342969056,432.636356183957,-804.485251598586,77.7653586613256,726.71989293726
0.818486124608574,616.601933609458,1028.75350344444,412.151569834987,-822.677718526951,102.225181887236,720.452536639715
0.820645718604902,636.351756165648,1025.13622386621,388.784467700566,-830.743990015931,123.783644232541,706.96034578339
0.822805312601231,645.80076178576,1016.52478606905,370.72402428329,-831.162773927405,137.538368751235,693.62440517617
0.82496490659756,652.897582774378,1021.82057629864,368.922993524266,-837.359079536511,141.987294625056,695.371784911455
0.827124500593888,648.620428028448,1031.83478405944,383.214356030996,-840.227606043946,132.703035998726,707.52457004522
0.829284094590217,631.167775271462,1027.28287476807,396.11509949661,-829.225325019768,117.526337887426,711.698987132342
0.831443688586546,608.951103739391,1019.4026272529,410.451523513511,-814.176865496147,99.2497901129402,714.927075383207
0.833603282582874,589.722827097507,1022.0806348137,432.357807716195,-805.901730955605,78.6825096906564,727.219221264948
0.835762876579203,573.167834256665,1028.61281283081,455.44497857415,-800.89032354374,58.8614278412575,742.028895702482
0.837922470575532,548.944975093305,1023.42217800923,474.477202915928,-786.183576551269,37.2338860886888,748.94969046258
0.840082064571861,529.059410187647,1016.12652175428,487.067111566629,-772.592965970962,20.9961493105091,751.596816660453
0.842241658568189,515.382042328436,1024.0927068562,508.710664527763,-769.737374592317,3.33568890033644,766.401685691981
0.844401252564518,503.561159593379,1033.44525970574,529.88410011236,-768.503209649559,-13.1614702594907,781.66467990905
0.846560846560847,484.960767837276,1025.18884294773,540.22807511045,-755.074805392501,-27.6336536365867,782.708459029088
0.848720440557175,478.297390251017,1017.95870147008,539.661311219062,-748.128045860548,-30.6819604840222,778.81000634457
0.850880034553504,480.918139653709,1025.6734769288,544.755337275094,-753.295808291256,-31.9185988106923,785.214407101949
0.853039628549833,483.938307026695,1028.23178292806,544.293475901363,-756.085044977376,-30.177584437334,786.26262941471
0.855199222546161,481.92001673291,1020.67647171493,538.75645498202,-751.29824422392,-28.4182191245553,779.716463348475
0.85735881654249,487.367505010861,1017.09442339787,529.726918387014,-752.230964204368,-21.1797066880764,773.410670892444
0.859518410538819,499.720018027056,1027.27632620146,527.556308174407,-763.49817211426,-13.9181450736755,777.416317187935
0.861678004535147,508.939556599137,1030.60801532015,521.668458721014,-769.773785959645,-6.36445106093856,776.138237020583
0.863837598531476,504.378029047832,1021.23933407539,516.86130502756,-762.808681561612,-6.24163798986393,769.050319551476
0.865997192527805,499.719866969074,1019.835494496,520.115627526927,-759.777680732537,-10.1978802789263,769.975561011463
0.868156786524133,495.395425792002,1028.97376669032,533.578340898315,-762.184596241159,-19.0914575531565,781.276053794315
0.870316380520462,485.664677673708,1026.62493279333,540.960255119625,-756.144805233521,-27.6477887229581,783.792593956479
0.872475974516791,476.161818028866,1018.46717886982,542.305360840953,-747.314498449343,-33.0717714060435,780.386269855386
0.87463556851312,476.327994261925,1018.26999132601,541.941997064081,-747.298992793966,-32.807001401078,780.105994195044
0.876795162509448,484.481500078964,1031.78436586683,547.302865787869,-758.132932972899,-31.4106828544524,789.543615827351
0.878954756505777,493.516879961743,1028.54057992577,535.023699964025,-761.028729943756,-20.7534100011411,781.782139944897
0.881114350502106,495.222500827971,1020.00470245769,524.782201629718,-757.61360164283,-14.7798504008734,772.393452043704
0.883273944498434,498.864094813449,1019.77031486195,520.906220048504,-759.317204837701,-11.0210626175272,770.338267455228
0.885433538494763,503.399297417816,1026.46313101788,523.063833600065,-764.931214217849,-9.83226809112472,774.763482308973
0.887593132491092,500.598606720427,1024.18179335021,523.583186629786,-762.390200035321,-11.4922899546794,773.88248999
0.88975272648742,492.412924828157,1018.34203319598,525.929108367827,-755.377479012071,-16.7580917698351,772.135570781906
0.891912320483749,491.522983115728,1023.27417678473,531.751193668997,-757.398579950227,-20.1141052766345,777.512685226861
0.894071914480078,494.095625242672,1031.10533364494,537.009708402272,-762.600479443808,-21.4570415797997,784.057521023608
0.896231508476406,490.294956500727,1025.6589822655,535.364025764772,-757.976969383114,-22.5345346320225,780.511504015136
0.898391102472735,487.983165771094,1017.90515545179,529.921989680698,-752.944160611443,-20.9694119548017,773.913572566245
0.900550696469064,491.302628579702,1024.31505833485,533.012429755148,-757.808843457276,-20.8549005877233,778.663744044999
0.902710290465393,497.527092747182,1030.77986170017,533.252768952991,-764.153477223677,-17.8628381029047,782.016315326582
0.904869884461721,496.025930138758,1020.31606021175,524.290130072997,-758.170995175257,-14.1320999671194,772.303095142376
0.90702947845805,494.242372145512,1015.507071339,521.264699193493,-754.874721742258,-13.5111635239908,768.385885266249
0.909189072454379,499.920197056949,1025.53754615403,525.617349097079,-762.728871605489,-12.848576020065,775.577447625554
0.911348666450707,504.057063155706,1031.03525492553,526.978191769824,-767.546159040618,-11.4605643070593,779.006723347677
0.913508260447036,497.905778621796,1024.58478479602,526.679006174221,-761.245281708906,-14.3866137762128,775.631895485119
0.915667854443365,493.2625259883,1017.12894747497,523.86642148667,-755.195736731635,-15.3019477491848,770.49768448082
0.917827448439693,497.770999554828,1025.89371884668,528.122719291853,-761.832359200754,-15.1758598685125,777.008219069267
0.919987042436022,501.205970191234,1027.83721958355,526.63124939232,-764.521594887394,-12.712639600543,777.234234487937
0.922146636432351,498.709954472045,1019.7482083963,521.038253924252,-759.229081434171,-11.1641497261033,770.393231160274
0.924306230428679,496.780083968797,1019.01811957509,522.238035606297,-757.899101771946,-12.7289758187497,770.628077590696
0.926465824425008,503.150693514332,1028.43629964879,525.285606134455,-765.79349658156,-11.0674563100614,776.860952891621
0.928625418421337,499.291621894084,1030.58674514121,531.295123247121,-764.939183517644,-16.0017506765189,780.940934194163
0.930785012417665,494.747680861889,1017.91534093896,523.167660077068,-756.331510900423,-14.2099896075898,770.541500508013
0.932944606413994,496.184772679026,1020.58852408115,524.403751402123,-758.386648380087,-14.1094893615485,772.496137741635
0.935104200410323,503.904952122244,1028.90699326932,525.002041147074,-766.405972695781,-10.5485445124153,776.954517208196
0.937263794406652,503.175100219103,1027.76746760885,524.592367389746,-765.471283913976,-10.7086335853218,776.179917499297
0.93942338840298,496.634795294321,1018.92065048423,522.285855189913,-757.777722889278,-12.8255299477962,770.603252837074
0.941582982399309,501.825218308721,1020.58752936174,518.762311053017,-761.206373835229,-8.46854637214796,769.674920207377
0.943742576395638,505.01875684831,1031.44753557803,526.428778729723,-768.233146213172,-10.7050109407068,778.938157153878
0.945902170391966,499.137619215596,1029.12332477458,529.985705558981,-764.130471995087,-15.4240431716922,779.554515166779
0.948061764388295,490.097035240192,1019.22207147888,529.125036238685,-754.659553359535,-19.5140004992468,774.173553858781
0.950221358384624,488.510306673914,1021.91393250574,533.403625831828,-755.212119589829,-22.4466595789568,777.658779168785
0.952380952380952,489.468184142392,1028.90647481875,539.438290676362,-759.187329480573,-24.9850532669852,784.172382747558
0.954540546377281,492.869480475833,1022.04793349968,529.178453023852,-757.458706987759,-18.1544862740093,775.613193261768
0.95670014037361,494.272256009661,1017.35049622229,523.078240212628,-755.811376115975,-14.4029921014833,770.214368217459
0.958859734369938,497.152565769589,1024.74552533782,527.592959568236,-760.949045553707,-15.2201968993232,776.16924245303
0.961019328366267,507.127432154563,1030.09870665951,522.971274504946,-768.613069407036,-7.92192117519147,776.534990582228
0.963178922362596,509.546155201209,1026.06528945341,516.519134252201,-767.805722327309,-3.48648952549604,771.292211852805
0.965338516358925,510.904659322691,1019.75593794061,508.851278617917,-765.33029863165,1.02669035238728,764.303608279263
0.967498110355253,521.102095894357,1025.59312036919,504.491024474837,-773.347608131775,8.30553570976008,765.042072422015
0.969657704351582,523.707269329259,1028.67047068047,504.963201351207,-776.188870004862,9.37203398902568,766.816836015837
0.971817298347911,516.447005055129,1021.25253789459,504.80553283946,-768.849771474859,5.82073610783465,763.029035367024
0.973976892344239,510.369663091642,1018.11753805132,507.747874959674,-764.243600571479,1.31089406598403,762.932706505495
0.976136486340568,517.598120330123,1026.87879710649,509.280676776368,-772.238458718308,4.15872177687754,768.07973694143
0.978296080336897,519.884226093009,1030.35637462959,510.472148536584,-775.1203003613,4.70603877821259,770.414261583088
0.980455674333225,516.276608983264,1020.11526825213,503.838659268864,-768.195938617696,6.21897485720024,761.976963760496
0.982615268329554,516.56048030032,1019.62276552919,503.062285228873,-768.091622914757,6.74909753572348,761.342525379033
0.984774862325883,521.497846432433,1028.00669591566,506.508849483224,-774.752271174045,7.49449847460471,767.25777269944
0.986934456322211,517.975825475684,1029.15807514432,511.182249668632,-773.56695031,3.39678790352616,770.170162406474
0.98909405031854,511.179696708741,1018.90054012278,507.720843414043,-765.040118415763,1.7294266473487,763.310691768414
0.991253644314869,511.191927620552,1020.11398948667,508.922061866123,-765.652958553613,1.13493287721479,764.518025676399
0.993413238311197,521.673461044896,1031.40957155656,509.73611051166,-776.541516300726,5.96867526661799,770.572841034108
0.995572832307526,522.797922536531,1029.396848837,506.598926300473,-776.097385686768,8.09949811802903,767.997887568739
0.997732426303855,522.195807198879,1019.87863586463,497.682828665746,-771.037221531752,12.2564892665667,758.780732265185
0.999892020300184,524.742346157529,1020.57242822707,495.830082069538,-772.657387192298,14.4561320439958,758.201255148303
1.00205161429651,529.572141348826,1027.62996456805,498.057823219226,-778.601052958439,15.7571590647997,762.843893893639
1.00421120829284,523.844713324861,1025.74221671028,501.897503385416,-774.793465017569,10.9736049697223,763.819860047847
1.00637080228917,517.386955733238,1016.60889551911,499.221939785873,-766.997925626174,9.08250797368231,757.915417652492
1.0085303962855,520.436483050544,1022.99213638134,502.555653330794,-771.714309715941,8.94041485987515,762.773894856065
1.01068999028183,526.264171809146,1031.78471362285,505.520541813705,-779.024442715998,10.3718149977205,768.652627718277
1.01284958427816,525.397940413402,1024.56028501081,499.16234459741,-774.979112712107,13.1177979079959,761.861314804111
1.01500917827448,520.77809099591,1017.7494990075,496.971408011587,-769.263795001703,11.9033414921612,757.360453509542
1.01716877227081,528.287907301233,1024.16577712808,495.877869826845,-776.226842214656,16.2050187371942,760.021823477462
1.01932836626714,534.934011587177,1028.08169514783,493.147683560652,-781.507853367503,20.8931640132624,760.614689354241
1.02148796026347,532.298872775907,1021.88543856745,489.586565791545,-777.09215567168,21.3561534921811,755.736002179499
1.0236475542598,528.134528083395,1017.60938850138,489.474860417988,-772.871958292389,19.3298338327035,753.542124459685
1.02580714825613,521.917481014009,1026.18339626514,504.265915251136,-774.050438639577,8.82578288143657,765.22465575814
1.02796674225246,516.349681221619,1030.79290279084,514.443221569223,-773.57129200623,0.953229826198026,772.618062180032
1.03012633624879,512.179540737965,1022.51224415807,510.332703420101,-767.345892448015,0.923418658931951,766.422473789083
1.03228593024511,515.231134151591,1018.94321561244,503.712081460851,-767.087174882017,5.75952634536992,761.327648536647
1.03444552424144,527.678882327497,1027.83073711259,500.15185478509,-777.754809720042,13.7635137712033,763.991295948838
1.03660511823777,537.18221103022,1029.24858031033,492.06636928011,-783.215395670275,22.5579208750546,760.65747479522
1.0387647122341,539.434062158507,1020.19575236068,480.761690202172,-779.814907259593,29.3361859781675,750.478721281425
1.04092430623043,543.500181636872,1017.9353175115,474.435135874628,-780.717749574186,34.5325228811224,746.185226693064
1.04308390022676,554.529436874453,1028.08163984009,473.552202965635,-791.305538357271,40.4886169544091,750.816921402861
1.04524349422309,554.006063636166,1030.45793772147,476.451874085305,-792.232000678818,38.7770947754302,753.454905903388
1.04740308821941,545.923998424568,1020.85514669825,474.931148273681,-783.389572561408,35.4964250754431,747.893147485965
1.04956268221574,542.043620636843,1019.38310105667,477.339480419826,-780.713360846756,32.3520701085088,748.361290738248
1.05172227621207,539.061169179917,1028.96818458763,489.907015407715,-784.014676883774,24.5770768861007,759.437599997674
1.0538818702084,529.437790654679,1026.27314945245,496.835358797771,-777.855470053564,16.3012159284539,761.55425412511
1.05604146420473,524.626471808176,1018.27380742303,493.647335614857,-771.450139615605,15.4895680966594,755.960571518945
1.05820105820106,525.711106088744,1020.3697751635,494.658669074756,-773.040440626122,15.5262185069937,757.514222119128
1.06036065219739,529.192099927115,1031.1014798821,501.909379954986,-780.146789904607,13.6413599860645,766.505429918543
1.06252024619372,526.39561179577,1028.01649374389,501.620881948117,-777.206052769828,12.3873649238261,764.818687846002
1.06467984019004,522.047043492194,1017.09711106075,495.05006756856,-769.572077276475,13.498487961817,756.073589314658
1.06683943418637,527.418035266662,1022.72823164145,495.310196374788,-775.073133454056,16.0539194459374,759.019214008119
1.0689990281827,535.682962525608,1029.10576627186,493.422803746256,-782.394364398736,21.1300793896758,761.26428500906
1.07115862217903,534.938635687365,1023.57665831889,488.638022631529,-779.257647003129,23.1503065279177,756.107340475211
1.07331821617536,532.01200538098,1016.51993433712,484.507928956139,-774.26596985905,23.7520382124204,750.513931646629
1.07547781017169,531.165864063787,1025.43376155957,494.267897495785,-778.29981281168,18.4489832840014,759.850829527678
1.07763740416802,528.657834354948,1031.84855323285,503.190718877897,-780.253193793896,12.7335577385252,767.519636055371
1.07979699816435,524.092186496501,1026.00964197928,501.91745548278,-775.050914237891,11.0873655068607,763.963548731031
1.08195659216067,519.030825595053,1019.5897464751,500.55892088005,-769.310286035078,9.23595235750145,760.074333677577
1.084116186157,521.903529193557,1024.47074166338,502.567212469824,-773.187135428469,9.66815836186652,763.518977066602
1.08627578015333,522.500519638956,1030.01609778424,507.515578145289,-776.2583087116,7.49247074683319,768.765837964767
1.08843537414966,515.326634435495,1021.74684100243,506.420206566934,-768.536737718962,4.45321393428077,764.083523784682
1.09059496814599,513.235633679922,1017.12442877159,503.888795091666,-765.180031225755,4.67341929412811,760.506611931627
1.09275456214232,514.594010752858,1027.52515627821,512.931145525356,-771.059583515537,0.831432613751076,770.228150901786
1.09491415613865,517.189190317808,1029.17988876013,511.990698442323,-773.184539538969,2.59924593774247,770.585293601226
1.09707375013497,510.633535094786,1021.0713893335,510.437854238715,-765.852462214144,0.0978404280353402,765.754621786108
1.0992333441313,506.583854499554,1019.42502155731,512.841167057757,-763.004438028433,-3.12865627910111,766.133094307534
1.10139293812763,506.214726457743,1027.98579943306,521.771072975319,-767.100262945402,-7.77817325878777,774.87843620419
1.10355253212396,503.771356783904,1027.60545172963,523.834094945731,-765.688404256769,-10.0313690809133,775.719773337683
1.10571212612029,499.141134825004,1017.31512299464,518.173988169641,-758.228128909824,-9.5164266723184,767.744555582143
1.10787172011662,496.100243066752,1017.97242410707,521.872181040321,-757.036333586913,-12.8859689867842,769.922302573697
1.11003131411295,495.616901661016,1029.04718806031,533.430286399293,-762.332044860662,-18.9066923691387,781.238737229801
1.11219090810928,489.07419056219,1027.2766021346,538.202411572406,-758.175396348393,-24.5641105051082,782.739506853501
1.1143505021056,481.649350048358,1018.79528843196,537.145938383601,-750.222319240158,-27.7482941676213,777.97061340778
1.11651009610193,480.67828314182,1020.36970152253,539.691418380707,-750.523992332174,-29.5065676194434,780.030559951617
1.11866969009826,480.932133011527,1028.73551733157,547.803384320047,-754.833825171551,-33.4356256542598,788.26945082581
1.12082928409459,483.44097437227,1026.23577819888,542.794803826613,-754.838376285577,-29.6769147271713,784.515291012748
1.12298887809092,483.354285545842,1017.85615029588,534.501864750037,-750.605217920861,-25.5737896020975,776.179007522958
1.12514847208725,491.319826336822,1021.72868096869,530.40885463187,-756.524253652757,-19.544514147524,776.068767800281
1.12730806608358,499.159975428721,1031.51971041359,532.359734984866,-765.339842921154,-16.5998797780725,781.939722699226
1.1294676600799,497.616026237005,1024.5393403647,526.923314127691,-761.07768330085,-14.6536439453428,775.731327246193
1.13162725407623,491.010257712592,1017.63498634686,526.624728634269,-754.322622029726,-17.8072354608386,772.129857490565
1.13378684807256,488.065490466764,1024.99300357633,536.927513109565,-756.529247021547,-24.4310113214002,780.960258342947
1.13594644206889,487.52674754725,1031.30840739079,543.781659843544,-759.417577469022,-28.1274561481466,787.545033617169
1.13810603606522,486.333740536068,1020.34000329385,534.006262757777,-753.336871914957,-23.8362611108545,777.173133025812
1.14026563006155,484.302844043432,1016.6848353485,532.381991305066,-750.493839695965,-24.039573630817,774.533413326782
1.14242522405788,486.63845834455,1024.86070575554,538.22224741099,-755.749582050045,-25.7918945332198,781.541476583265
1.14458481805421,492.953261299561,1029.62132520108,536.668063901523,-761.287293250323,-21.857401300981,783.144694551304
1.14674441205053,490.039628691935,1023.52404293259,533.484414240659,-756.781835812265,-21.7223927743622,778.504228586627
1.14890400604686,491.164197983991,1019.7802442937,528.616046309712,-755.472221138847,-18.7259241628607,774.198145301708
1.15106360004319,492.554275062048,1026.72801551542,534.173740453371,-759.641145288734,-20.8097326956614,780.450877984395
1.15322319403952,487.332466326439,1027.59872227652,540.266255950082,-757.465594301481,-26.4668948118216,783.932489113302
1.15538278803585,479.047922651402,1019.63093743807,540.583014786666,-749.339430044735,-30.7675460676321,780.106976112367
1.15754238203218,478.753676077688,1018.86531623533,540.11164015764,-748.809496156508,-30.6789820399763,779.488478196484
1.15970197602851,484.786993768311,1029.74115152855,544.95415776024,-757.264072648431,-30.0835819959647,787.347654644395
1.16186157002484,489.163127965811,1028.33544428087,539.172316315061,-758.749286123341,-25.004594174625,783.753880297966
1.16402116402116,486.745317887238,1019.82051778316,533.075199895926,-753.282917835201,-23.1649410043439,776.447858839545
1.16618075801749,489.983105544682,1019.18370359268,529.200598048003,-754.583404568683,-19.6087462516605,774.192150820344
1.16834035201382,497.81973647908,1025.97727034515,528.157533866072,-761.898503412115,-15.1688986934961,777.067402105612
1.17049994601015,495.510299361282,1026.72937257926,531.219073217976,-761.11983597027,-17.8543869283469,778.974222898617
1.17265954000648,487.936023658272,1019.59342885815,531.657405199877,-753.764726258211,-21.8606907708024,775.625417029013
1.17481913400281,488.649408537493,1022.16300333739,533.513594799896,-755.406205937441,-22.4320931312014,777.838299068642
1.17697872799914,487.718274052691,1027.81016559543,540.091891542738,-757.76421982406,-26.1868087450237,783.951028569084
1.17913832199546,484.168524061956,1026.00546063203,541.836936570075,-755.086992346994,-28.8342062540597,783.921198601053
1.18129791599179,480.144518555408,1020.04702468772,539.902506132315,-750.095771621565,-29.8789937884536,779.974765410019
1.18345750998812,488.281059896288,1023.53043838427,535.249378487986,-755.905749140281,-23.4841592958489,779.38990843613
1.18561710398445,501.382070048477,1029.2339815821,527.851911533619,-765.308025815286,-13.2349207425711,778.542946557857
1.18777669798078,501.963954379307,1024.03304909479,522.069094715481,-762.998501737048,-10.0525701680869,773.051071905135
1.18993629197711,501.168142674541,1015.66871328654,514.500570611999,-758.418427980541,-6.66621396872893,765.08464194927
1.19209588597344,500.976303069685,1023.14281554894,522.166512479256,-762.059559309313,-10.5951047047856,772.654664014099
1.19425547996977,501.350639654411,1032.65085967346,531.300220019046,-767.000749663934,-14.9747901823177,781.975539846251
1.19641507396609,493.074127093106,1024.02518357296,530.951056479851,-758.549655333032,-18.9384646933722,777.488120026404
1.19857466796242,488.099933203662,1018.47050870521,530.370575501543,-753.285220954434,-21.1353211489404,774.420542103374
1.20073426195875,490.697257814636,1024.30914294793,533.611885133292,-757.503200381282,-21.4573136593277,778.96051404061
1.20289385595508,491.319561773763,1029.25797556024,537.938413786482,-760.288768667004,-23.3094260063596,783.598194673363
1.20505344995141,485.482829762824,1022.16912963921,536.686299876388,-753.825979701018,-25.6017350567819,779.4277147578
1.20721304394774,481.329708346549,1017.11552695678,535.785818610235,-749.222617651666,-27.228055131843,776.450672783509
1.20937263794407,488.309443631385,1026.21081414428,537.901370512893,-757.260128887832,-24.795963440754,782.056092328586
1.2115322319404,492.907874580062,1031.0869269061,538.179052326034,-761.997400743079,-22.6355888729859,784.632989616065
1.21369182593672,490.620387602899,1023.08551990462,532.465132301725,-756.852953753761,-20.9223723494131,777.775326103174
1.21585141993305,490.535568440808,1019.24082626924,528.705257828429,-754.888197355022,-19.0848446938104,773.973042048833
1.21801101392938,496.069927954671,1027.92364599003,531.853718035362,-761.996786972352,-17.8918950403454,779.888682012697
1.22017060792571,497.79521233456,1029.99052010511,532.195307770546,-763.892866219833,-17.2000477179928,781.092913937826
1.22233020192204,495.233983665733,1020.66318718138,525.429203515645,-757.948585423556,-15.0976099249563,773.046195348512
1.22448979591837,492.026792352166,1019.82274436339,527.795952011223,-755.924768357777,-17.8845798295289,773.809348187306
1.2266493899147,496.513458350575,1028.77016856093,532.256710210359,-762.641813455754,-17.8716259298923,780.513439385647
1.22880898391102,499.110944372276,1029.27995148729,530.169007115011,-764.195447929781,-15.5290313713675,779.724479301149
1.23096857790735,494.594634675599,1019.78055221282,525.185917537223,-757.187593444211,-15.2956414308116,772.483234875022
1.23312817190368,497.56310531363,1020.16654326883,522.603437955202,-758.864824291231,-12.5201663207862,771.384990612018
1.23528776590001,500.057619431503,1028.77750092098,528.719881489472,-764.417560176239,-14.3311310289845,778.748691205224
1.23744735989634,494.678270836368,1026.6614469328,531.983176096435,-760.669858884586,-18.6524526300337,779.32231151462
1.23960695389267,489.411319420671,1017.07405819905,527.662738778376,-753.242688809859,-19.1257096788525,772.368398488712
1.241766547889,492.214455431644,1021.47921519419,529.264759762544,-756.846835312916,-18.52515216545,775.371987478366
1.24392614188533,496.147171358069,1030.28934587703,534.142174518966,-763.218258617552,-18.9975015804486,782.215760198
1.24608573588165,492.770026871605,1025.57178350533,532.801756633727,-759.170905188469,-20.015864881061,779.18677006953
1.24824532987798,489.078884494817,1016.5496364501,527.470751955285,-752.81426047246,-19.1959337302338,772.010194202693
1.25040492387431,487.932395083084,1022.80365094717,534.871255864086,-755.368023015127,-23.4694303905011,778.837453405628
1.25256451787064,489.436184753229,1030.48268808648,541.046503333249,-759.959436419854,-25.8051592900102,785.764595709864
1.25472411186697,484.331416980287,1023.78435828754,539.452941307253,-754.057887633914,-27.5607621634829,781.618649797396
1.2568837058633,484.245818996941,1016.74466363366,532.498844636723,-750.495241315302,-24.1265128198908,774.621754135193
1.25904329985963,490.558239426393,1026.56292416442,536.004684738024,-758.560581795406,-22.7232226558156,781.283804451221
1.26120289385595,503.056165954152,1030.49648468563,527.440318731474,-766.776325319889,-12.1920763886611,778.96840170855
1.26336248785228,503.145586936194,1022.57293947316,519.427352536969,-762.859263204679,-8.14088280038754,771.000146005066
1.26552208184861,500.070199352642,1018.64158890459,518.571389551946,-759.355894128615,-9.25059509965234,768.606489228267
1.26768167584494,507.503748910974,1025.58894829579,518.08519938482,-766.546348603384,-5.29072523692309,771.837073840307
1.26984126984127,512.478176272913,1028.87608768447,516.397911411554,-770.67713197869,-1.95986756932029,772.636999548011
1.2720008638376,509.036367339176,1019.98984750571,510.953480166532,-764.513107422442,-0.958556413678139,765.47166383612
1.27416045783393,508.579180969387,1017.78041532435,509.201234354967,-763.179798146871,-0.311026692789937,763.49082483966
1.27632005183026,510.934764885663,1027.45012008721,516.515355201547,-769.192442486437,-2.79029515794224,771.982737644379
1.27847964582658,507.58520365403,1030.32034250463,522.735138850597,-768.952773079328,-7.57496759828331,776.527740677612
1.28063923982291,499.982213928077,1018.85093496141,518.868721033331,-759.416574444742,-9.44325355262737,768.85982799737
1.28279883381924,497.909911717552,1018.99648064955,521.086568931998,-758.453196183551,-11.5883286072225,770.041524790774
1.28495842781557,505.705020842466,1028.92915250504,523.224131662579,-767.317086673755,-8.75955541005646,776.076642083812
1.2871180218119,505.498560950839,1027.06980056912,521.571239618282,-766.28418075998,-8.03633933372168,774.320520093701
1.28927761580823,503.849864026497,1017.84069333337,513.990829306877,-760.845278679936,-5.07048264018982,765.915761320126
1.29143720980456,504.532053149983,1019.96254328428,515.430490134299,-762.247298217132,-5.44921849215831,767.696516709291
1.29359680380089,511.892394906713,1030.57293275575,518.680537849039,-771.232663831232,-3.39407147116299,774.626735302395
1.29575639779721,511.446544675284,1027.03243792647,515.585893251183,-769.239491300876,-2.06967428794962,771.309165588825
1.29791599179354,506.115264746753,1018.00744986787,511.892185121114,-762.06135730731,-2.88846018718039,764.94981749449
1.30007558578987,509.177911911585,1020.32569162143,511.14777970985,-764.75180176651,-0.984933899132784,765.736735665643
1.3022351797862,511.5525861288,1030.31536145924,518.762775330443,-770.933973794022,-3.60509460082125,774.539068394843
1.30439477378253,510.272673439063,1024.4374849415,514.164811502434,-767.35507919028,-1.94606903168534,769.301148221965
1.30655436777886,504.258083310872,1017.80097799923,513.542894688361,-761.029530655052,-4.64240568874476,765.671936343797
1.30871396177519,504.84896133818,1022.87073347633,518.021772138145,-763.859847407253,-6.5864053999822,770.446252807235
1.31087355577151,510.264840232005,1030.50259199225,520.237751760248,-770.383716112129,-4.98645576412144,775.370171876251
1.31303314976784,506.020681390671,1025.12711042233,519.106429031663,-765.573895906503,-6.54287382049574,772.116769726999
1.31519274376417,504.933944704715,1016.3847507607,511.450806055984,-760.659347732707,-3.2584306756346,763.917778408342
1.3173523377605,505.682054055146,1022.12242836061,516.440374305463,-763.902241207878,-5.37916012515842,769.281401333036
1.31951193175683,511.644951879514,1030.43519693986,518.79024506035,-771.040074409688,-3.572646590418,774.612721000106
1.32167152575316,511.753697601426,1022.52295110181,510.769253500386,-767.138324351619,0.492222050519899,766.646102301099
1.32383111974949,508.263492166549,1016.08920370328,507.825711536732,-762.176347934914,0.218890314908435,761.957457620006
1.32599071374582,514.276451558709,1026.92670955416,512.650257995447,-770.601580556433,0.81309678163143,769.788483774801
1.32815030774214,518.046349661574,1030.04841422147,512.0020645599,-774.047381941525,3.02214255083709,771.025239390688
1.33030990173847,512.598305718755,1022.18374787302,509.585442154268,-767.391026795889,1.50643178224334,765.884595013646
1.3324694957348,514.368547477547,1017.09345799697,502.72491051942,-765.731002737257,5.82181847906355,759.909184258193
1.33462908973113,515.165367895097,1027.7905252716,512.625157376505,-771.477946583349,1.27010525929575,770.207841324054
1.33678868372746,511.172699593556,1029.24691652607,518.074216932513,-770.209808059813,-3.45075866947877,773.660566729291
1.33894827772379,505.485799536845,1020.94115068263,515.455351145787,-763.213475109739,-4.98477580447093,768.19825091421
1.34110787172012,497.9708569971,1018.67176907023,520.700912073134,-758.321313033667,-11.3650275380169,769.686340571684
1.34326746571645,497.3840577278,1028.52772405342,531.143666325621,-762.955890890611,-16.8798042989101,779.835695189521
1.34542705971277,494.103419668077,1028.34029926627,534.236879598194,-761.221859467174,-20.0667299650585,781.288589432233
1.3475866537091,491.624087662978,1019.84041250255,528.216324839571,-755.732250082763,-18.2961185882966,774.02836867106
1.34974624770543,500.462831237537,1020.96973330757,520.506902070031,-760.716282272552,-10.0220354162473,770.7383176888
1.35190584170176,513.016517265558,1028.74192593456,515.725408668998,-770.879221600057,-1.35444570172024,772.233667301777
1.35406543569809,514.722964664724,1025.98618371709,511.263219052364,-770.354574190906,1.7298728061802,768.624701384726
1.35622502969442,509.273816148158,1017.24393347643,507.970117328271,-763.258874812294,0.651849409943225,762.60702540235
1.35838462369075,507.11704095702,1021.24212912595,514.12508816893,-764.179585041485,-3.50402360595501,767.68360864744
1.36054421768707,507.408601199067,1031.12430556983,523.715704370761,-769.266453384447,-8.15355158584708,777.420004970294
1.3627038116834,501.192609552681,1027.67848185346,526.485872300778,-764.43554570307,-12.6466313740481,777.082177077118
1.36486340567973,496.241017186969,1019.50840248219,523.267385295223,-757.874709834581,-13.513184054127,771.387893888708
1.36702299967606,494.792555118825,1023.60224754818,528.809692429356,-759.197401333503,-17.0085686552656,776.205969988769
1.36918259367239,494.269830151802,1029.60661058724,535.336780435435,-761.93822036952,-20.5334751418165,782.471695511336
1.37134218766872,489.216146541478,1022.18561774617,532.969471204694,-755.700882143825,-21.8766623316081,777.577544475433
1.37350178166505,484.092576276468,1017.82075207206,533.72817579559,-750.956664174263,-24.8177997595607,775.774463933824
1.37566137566138,488.518717974952,1025.27098476739,536.752266792443,-756.894851371173,-24.1167744087453,781.011625779919
1.3778209696577,493.325895929264,1030.37502729937,537.049131370109,-761.850461614319,-21.8616177204224,783.712079334741
1.37998056365403,491.607555403311,1023.63960159306,532.032046189748,-757.623578498185,-20.2122453932187,777.835823891403
1.38214015765036,490.239427871263,1018.50491033432,528.265482463055,-754.372169102791,-19.0130272958961,773.385196398687
1.38429975164669,493.202338888218,1025.44223947667,532.239900588451,-759.322289182443,-19.5187808501166,778.84107003256
1.38645934564302,493.087253915653,1030.14338108946,537.056127173808,-761.615317502557,-21.9844366290772,783.599754131634
1.38861893963935,488.878714149028,1020.35602593294,531.477311783912,-754.617370040984,-21.2992988174422,775.916668858426
1.39077853363568,489.490692219287,1018.70910387973,529.218411660448,-754.099898049511,-19.8638597205804,773.963757770091
1.39293812763201,491.860096838098,1027.16254252185,535.302445683757,-759.511319679976,-21.7211744228296,781.232494102806
1.39509772162833,490.782974828899,1030.29576687087,539.512792041969,-760.539370849883,-24.3649086065348,784.904279456418
1.39725731562466,483.323649735577,1019.8966176256,536.572967890021,-751.610133680588,-26.6246590772222,778.23479275781
1.39941690962099,484.92271995012,1020.80892444279,535.886204492671,-752.865822196456,-25.4817422712756,778.347564467731
1.40157650361732,497.358493421793,1028.87298307072,531.514489648931,-763.115738246258,-17.077998113569,780.193736359827
1.40373609761365,498.170621665709,1026.42742673928,528.256805073573,-762.299024202495,-15.0430917039319,777.342115906427
1.40589569160998,495.645863465471,1018.12511920992,522.479255744449,-756.885491337696,-13.4166961394891,770.302187477185
1.40805528560631,494.409508245153,1019.77476914334,525.365260898187,-757.092138694247,-15.4778763265172,772.570015020764
1.41021487960263,494.012756391252,1031.32204938923,537.30929299798,-762.667402890242,-21.6482683033639,784.315671193606
1.41237447359896,488.940022623064,1028.05313482341,539.113112200344,-758.496578723236,-25.0865447886396,783.583123511876
1.41453406759529,477.602534543727,1017.96895306501,540.36641852128,-747.785743804367,-31.3819419887766,779.167685793144
1.41669366159162,476.054749534014,1021.11743543707,545.06268590306,-748.586092485545,-34.5039681845228,783.090060670067
1.41885325558795,479.913767391623,1030.39486567429,550.481098282667,-755.154316532956,-35.2836654455219,790.437981978478
1.42101284958428,477.804323834295,1026.86287345757,549.058549623279,-752.333598645935,-35.6271128944916,787.960711540426
1.42317244358061,481.11905991261,1014.94815548667,533.829095574058,-748.033607699639,-26.3550178307239,774.388625530363
1.42533203757694,483.751255053475,1024.60129070052,540.850035647047,-754.176272876999,-28.5493902967858,782.725663173785
1.42749163157326,489.369450570307,1030.31998766261,540.9505370923,-759.844719116457,-25.7905432609969,785.635262377454
1.42965122556959,485.439036524017,1026.17659694701,540.737560422997,-755.807816735515,-27.6492619494899,783.457078685005
1.43181081956592,488.202629802049,1019.27483225582,531.072202453774,-753.738731028936,-21.4347863258627,775.173517354799
1.43397041356225,501.417961453323,1023.94843120435,522.530469751023,-762.683196328835,-10.5562541488501,773.239450477685
1.43613000755858,519.146363173773,1029.66034312022,510.513979946447,-774.403353146997,4.31619161366314,770.087161533334
1.43828960155491,531.24283008536,1023.96159017272,492.71876008736,-777.60221012904,19.2620349989996,758.34017513004
1.44044919555124,547.862470055072,1017.10865821541,469.246188160335,-782.485564135239,39.3081409473687,743.177423187871
1.44260878954756,572.521891678476,1025.62146834932,453.099576670841,-799.071680013896,59.7111575038174,739.360522510079
1.44476838354389,594.842706080336,1030.94983170798,436.107125627647,-812.89626889416,79.3677902263446,733.528478667816
1.44692797754022,611.803598222356,1022.21363663316,410.410038410802,-817.008617427757,100.696779905777,716.31183752198
1.44908757153655,628.037686865383,1017.92078131452,389.883094449136,-822.97923408995,119.077296208123,703.901937881827
1.45124716553288,643.595673946159,1027.69178055534,384.096106609177,-835.643727250747,129.749783668491,705.893943582257
1.45340675952921,649.816434305396,1028.58546332182,378.769029016425,-839.200948813609,135.523702644485,703.677246169123
1.45556635352554,641.952625058678,1019.3075344998,377.354909441123,-830.630079779239,132.298857808777,698.331221970462
1.45772594752187,632.465904853548,1019.556398665,387.090493811455,-826.011151759275,122.687705521046,703.323446238229
1.45988554151819,624.52599372416,1029.22448410105,404.69849037689,-826.875238912605,109.913751673635,716.96148723897
1.46204513551452,601.675120368073,1028.28649840602,426.611378037944,-814.980809387045,87.5318711650643,727.44893822198
1.46420472951085,571.052371763088,1017.8089591129,446.756587349807,-794.430665437992,62.1478922066404,732.282773231351
1.46636432350718,544.345452798688,1019.76204483264,475.416592033956,-782.053748815666,34.4644303823659,747.5893184333
1.46852391750351,530.107170289928,1030.76079665271,500.653626362781,-780.433983471318,14.7267719635735,765.707211507745
1.47068351149984,510.953735120629,1026.39418945534,515.440454334716,-768.673962287987,-2.24335960704326,770.91732189503
1.47284310549617,494.443281302143,1017.48055700969,523.037275707545,-755.961919155915,-14.2969972027013,770.258916358617
1.4750026994925,489.005836196059,1022.01245256431,533.006616368249,-755.509144380184,-22.0003900860947,777.509534466278
1.47716229348882,490.170374212637,1029.89839482696,539.72802061432,-760.034384519797,-24.7788232008414,784.813207720639
1.47932188748515,487.158450479118,1025.72167422659,538.563223747469,-756.440062352852,-25.702386634176,782.142448987028
1.48148148148148,480.263769654138,1018.45831069652,538.194541042387,-749.361040175331,-28.9653856941246,778.326425869456
1.48364107547781,481.670015356866,1022.39560196397,540.725586607106,-752.03280866042,-29.5277856251199,781.56059428554
1.48580066947414,486.193472753308,1028.71702242748,542.523549674171,-757.455247590393,-28.1650384604318,785.620286050825
1.48796026347047,484.312697183328,1025.58609723178,541.27340004845,-754.949397207553,-28.480351432561,783.429748640115
1.4901198574668,484.107061205295,1015.88321400365,531.776152798355,-749.995137604473,-23.8345457965299,773.829683401003
1.49227945146312,488.397463587245,1024.99262392781,536.595160340567,-756.695043757529,-24.098848376661,780.79389213419
1.49443904545945,493.312167793833,1032.27575442876,538.963586634926,-762.793961111296,-22.8257094205462,785.619670531843
1.49659863945578,486.688276968128,1022.71994178976,536.031664821629,-754.704109378942,-24.6716939267508,779.375803305693
1.49875823345211,481.218675430218,1018.38552952801,537.166854097788,-749.802102479112,-27.9740893337855,777.776191812897
1.50091782744844,490.075304168542,1024.27517709244,534.199872923897,-757.175240630491,-22.0622843776777,779.237525008168
1.50307742144477,495.086524763856,1030.37260479318,535.286080029326,-762.729564778519,-20.0997776327349,782.829342411254
1.5052370154411,493.924370311485,1019.70993445523,525.785564143745,-756.817152383358,-15.93059691613,772.747749299488
1.50739660943743,489.400548893257,1017.64756065055,528.247011757294,-753.524054771905,-19.4232314320183,772.947286203923
1.50955620343375,484.810298478937,1026.877855357,542.06755687806,-755.844076917967,-28.6286291995614,784.472706117528
1.51171579743008,477.980150142013,1030.26984937854,552.28969923653,-754.124999760278,-37.1547745472589,791.279774307537
1.51387539142641,472.642341295541,1019.94831589816,547.30597460262,-746.29532859685,-37.3318166535395,783.62714525039
1.51603498542274,476.934477388324,1018.624623684,541.690146295678,-747.779550536163,-32.3778344536772,780.15738498984
1.51819457941907,490.073103934597,1026.79357404002,536.72047010542,-758.433338987307,-23.3236830854111,781.757022072718
1.5203541734154,494.924311094639,1029.76786024407,534.843549149431,-762.346085669355,-19.959619027396,782.305704696751
1.52251376741173,493.471880286959,1018.38038298245,524.908502695487,-755.926131634703,-15.718311204264,771.644442838967
1.52467336140806,495.27860162477,1019.59262463904,524.314023014273,-757.435613131907,-14.5177106947518,771.953323826658
1.52683295540438,499.130779729746,1029.10049990428,529.969720174537,-764.115639817014,-15.4194702223953,779.53511003941
1.52899254940071,495.293404237646,1027.13851894382,531.845114706173,-761.215961590733,-18.2758552342631,779.491816824996
1.53115214339704,488.797076506485,1016.99774013498,528.200663628497,-752.897408320734,-19.7017935610057,772.59920188174
1.53331173739337,484.95747590976,1020.90597431713,535.948498407365,-752.931725113443,-25.4955112488022,778.427236362245
1.5354713313897,491.797170753455,1029.3929649722,537.595794218749,-760.595067862829,-22.8993117326472,783.494379595477
1.53763092538603,494.712140903862,1025.19973717169,530.487596267825,-759.955939037774,-17.8877276819813,777.843666719756
1.53979051938236,491.903255782517,1018.07882138035,526.175565597833,-754.991038581434,-17.1361549076578,772.127193489091
1.54195011337868,492.685051519931,1022.34915748979,529.664105969855,-757.517104504858,-18.489527224962,776.00663172982
1.54410970737501,500.695786969321,1030.20380535784,529.508018388523,-765.449796163582,-14.4061157096013,779.855911873183
1.54626930137134,496.885331863926,1025.31169942788,528.426367563958,-761.098515645904,-15.7705178500159,776.86903349592
1.54842889536767,488.33033877205,1017.22724452061,528.896905748561,-752.77879164633,-20.2832834882553,773.062075134586
1.550588489364,489.257963465344,1023.73659657186,534.478633106513,-756.4972800186,-22.6103348205846,779.107614839185
1.55274808336033,489.992496209721,1030.76221897225,540.769722762531,-760.377357590986,-25.3886132764052,785.765970867391
1.55490767735666,485.408189268556,1024.26477952292,538.856590254367,-754.83648439574,-26.7242004929056,781.560684888645
1.55706727135299,486.051663198097,1019.08160744563,533.029944247533,-752.566635321863,-23.4891405247179,776.055775846581
1.55922686534931,492.139803341441,1025.36656188814,533.226758546696,-758.753182614789,-20.5434776026278,779.296660217417
1.56138645934564,494.426558458098,1029.96935138769,535.542792929587,-762.197954922892,-20.558117235744,782.756072158636
1.56354605334197,493.306963137271,1021.38479916811,528.077836030835,-757.345881152689,-17.3854364467819,774.731317599471
1.5657056473383,495.503648081458,1017.80556056268,522.301912481223,-756.65460432207,-13.3991321998825,770.053736521952
1.56786524133463,500.610243000029,1027.51048639669,526.900243396664,-764.060364698361,-13.1450001983171,777.205364896678
1.57002483533096,503.617503455146,1027.75906916512,524.141565709977,-765.688286310135,-10.2620311274152,775.95031743755
1.57218442932729,503.116680647573,1021.54207899866,518.425398351084,-762.329379823115,-7.65435885175555,769.98373867487
1.57434402332362,500.677119771537,1018.40807972354,517.730959951999,-759.542599747537,-8.52692009023059,768.069519837767
1.57650361731994,504.560079157326,1029.02446663671,524.464387479387,-766.79227289702,-9.95215416103031,776.74442705805
1.57866321131627,503.850067740308,1029.42016906968,525.570101329374,-766.635118404995,-10.8600167945327,777.495135199528
1.5808228053126,497.166303422001,1019.92824474469,522.761941322687,-758.547274083344,-12.7978189503431,771.345093033687
1.58298239930893,498.332349663505,1020.57156128906,522.239211625554,-759.451955476282,-11.9534309810245,771.405386457306
1.58514199330526,497.604058329166,1030.67296807576,533.068909746592,-764.138513202462,-17.7324257087133,781.870938911175
1.58730158730159,497.575375493624,1027.66339428255,530.088018788921,-762.619384888085,-16.2563216476483,778.875706535733
1.58946118129792,498.241957685166,1019.62420701274,521.382249327575,-758.933082348954,-11.5701458212044,770.503228170158
1.59162077529424,503.895149622176,1022.79062582902,518.895476206848,-763.3428877256,-7.50016329233603,770.843051017936
1.59378036929057,509.396754419119,1030.78186399253,521.385109573411,-770.089309205825,-5.99417757714593,776.083486782971
1.5959399632869,509.50296184775,1025.9039877356,516.401025887853,-767.703474791676,-3.44903202005167,771.152506811728
1.59809955728323,506.301790953437,1019.49132146008,513.189530506638,-762.896556206756,-3.44386977660059,766.340425983357
1.60025915127956,507.576560447353,1021.17420720564,513.597646758285,-764.375383826495,-3.01054315546651,767.385926981962
1.60241874527589,511.281896451888,1028.73006564212,517.448169190236,-770.005981047006,-3.08313636917387,773.08911741618
1.60457833927222,507.356887961982,1023.87338432355,516.516496361571,-765.615136142767,-4.57980419979441,770.194940342562
1.60673793326855,501.940797642407,1016.92180096015,514.981003317747,-759.431299301281,-6.52010283766958,765.95140213895
1.60889752726487,504.367770690199,1023.7361180623,519.368347372098,-764.051944376248,-7.50028834094951,771.552232717197
1.6110571212612,512.63317606974,1029.24159438205,516.608418312312,-770.937385225895,-1.987621121286,772.925006347181
1.61321671525753,512.990923966959,1022.92118306704,509.930259100079,-767.956053516999,1.53033243343981,766.425721083559
1.61537630925386,511.169500696941,1017.32336255634,506.153861859401,-764.246431626642,2.50781941877028,761.738612207872
1.61753590325019,519.029412723092,1025.06204557974,506.03263285665,-772.045729151417,6.49838993322089,765.547339218196
1.61969549724652,526.214794299204,1029.4767285979,503.261934298701,-777.845761448554,11.4764300002513,766.369331448303
1.62185509124285,520.860330911622,1021.96213864337,501.101807731749,-771.411234777496,9.87926158993645,761.53197318756
1.62401468523918,517.193251655541,1018.54754549568,501.354293840137,-767.87039857561,7.91947890770183,759.950919667908
1.6261742792355,523.936472662141,1025.65825779866,501.721785136522,-774.797365230402,11.1073437628091,763.690021467593
1.62833387323183,521.385149268928,1030.38413825484,508.998988985908,-775.884643761882,6.19308014151034,769.691563620372
1.63049346722816,516.694210997601,1020.13553017212,503.441319174516,-768.414870584859,6.62644591154231,761.788424673317
1.63265306122449,515.761550822107,1018.47949688128,502.717946059169,-767.120523851692,6.52180238146889,760.598721470223
1.63481265522082,522.276283442625,1027.62603460242,505.349751159793,-774.951159022522,8.46326614141628,766.487892881105
1.63697224921715,527.359044174657,1026.94198316496,499.582938990298,-777.150513669806,13.8880525921793,763.262461077627
1.63913184321348,529.576622000668,1019.56213287008,489.985510869408,-774.569377435372,19.7955555656297,754.773821869742
1.6412914372098,531.144522986838,1021.40522032965,490.260697342811,-776.274871658243,20.4419128220133,755.83295883623
1.64345103120613,536.247381820017,1028.94541520163,492.698033381613,-782.596398510824,21.7746742192023,760.821724291621
1.64561062520246,534.463066189943,1028.31798544851,493.854919258571,-781.390525819228,20.3040734656855,761.086452353543
1.64777021919879,526.621290451206,1019.08936492596,492.468074474758,-772.855327688585,17.0766079882238,755.778719700361
1.64992981319512,524.847236802004,1021.69576501936,496.848528217354,-773.271500910681,13.9993542923252,759.272146618355
1.65208940719145,531.190641204466,1029.34143799676,498.150796792298,-780.266039600614,16.5199222060841,763.74611739453
1.65424900118778,536.147227130414,1026.47230995001,490.3250828196,-781.309768540214,22.9110721554066,758.398696384807
1.65640859518411,531.869455317075,1019.16091629392,487.291460976841,-775.515185805496,22.288997170117,753.226188635379
1.65856818918043,530.595976541166,1022.10956431961,491.513587778442,-776.352770430387,19.5411943813618,756.811576049025
1.66072778317676,530.922617395188,1030.1409382226,499.218320827413,-780.531777808894,15.8521482838872,764.679629525007
1.66288737717309,524.080800845046,1026.52017959703,502.439378751981,-775.300490221036,10.8207110465326,764.479779174504
1.66504697116942,522.232975295119,1017.21698695704,494.984011661926,-769.724981126081,13.6244818165965,756.100499309485
1.66720656516575,529.228199694677,1022.51258789214,493.284388197461,-775.870393793407,17.9719057486079,757.898488044799
1.66936615916208,533.259913439045,1029.81817638467,496.558262945623,-781.539044911857,18.3508252467111,763.188219665146
1.67152575315841,532.45303526319,1022.54653553344,490.093500270247,-777.499785398314,21.1797674964715,756.320017901842
1.67368534715473,530.776598133779,1019.06308774943,488.286489615647,-774.919842941602,21.2450542590659,753.674788682536
1.67584494115106,534.254693447764,1026.11032613785,491.855632690085,-780.182509792806,21.1995303788397,758.982979413967
1.67800453514739,538.004353108234,1029.97505759781,491.970704489581,-783.989705353024,23.0168243093267,760.972881043698
1.68016412914372,529.608650449155,1021.54333425962,491.934683810466,-775.575992354388,18.8369833193441,756.739009035044
1.68232372314005,523.413115613666,1016.68722713897,493.2741115253,-770.050171376316,15.0695020441831,754.980669332133
1.68448331713638,527.61125950921,1028.3326706092,500.721411099993,-777.971965059207,13.4449242046084,764.527040854598
1.68664291113271,527.792726428959,1028.94121249536,501.1484860664,-778.366969462159,13.3221201812793,765.04484928088
1.68880250512904,521.11366309644,1019.78097471513,498.667311618685,-770.447318905783,11.2231757388774,759.224143166905
1.69096209912536,519.52984590858,1020.27645957548,500.746613666905,-769.903152742032,9.39161612083734,760.511536621195
1.69312169312169,527.631429873874,1029.80656339177,502.175133517892,-778.71899663282,12.7281481779908,765.990848454829
1.69528128711802,537.122131652185,1026.51794196999,489.395810317809,-781.820036811089,23.8631606671878,757.956876143901
1.69744088111435,535.143335431108,1021.06033602835,485.917000597239,-778.101835729728,24.6131674169346,753.488668312793
1.69960047511068,539.183630687842,1019.38665120654,480.203020518702,-779.285140947193,29.4903050845699,749.794835862624
1.70176006910701,544.849227347158,1028.5643584867,483.715131139539,-786.706792916927,30.5670481038095,756.139744813118
1.70391966310334,535.881464337011,1025.92104354656,490.039579209546,-780.901253941784,22.9209425637323,757.980311378052
1.70607925709967,525.166052646658,1016.79422506853,491.628172421869,-770.980138857592,16.7689401123945,754.211198745198
1.70823885109599,518.772576232478,1020.57603283225,501.803456599773,-769.674304532364,8.4845598163522,761.189744716012
1.71039844509232,524.614371056026,1031.61555913621,507.001188080186,-778.114965096119,8.80659148791995,769.308373608199
1.71255803908865,522.886294452996,1026.02326334399,503.13696889099,-774.454778898491,9.87466278100271,764.580116117488
1.71471763308498,516.430808628359,1017.49150847271,501.060699844353,-766.961158550535,7.68505439200294,759.276104158532
1.71687722708131,514.460143751212,1022.95589266065,508.495748909438,-768.708018205931,2.98219742088708,765.725820785044
1.71903682107764,515.204183182792,1030.7619638851,515.557780702311,-772.983073533948,-0.176798759759777,773.159872293707
1.72119641507397,507.367083936684,1024.18093906717,516.813855130487,-765.774011501927,-4.72338559690172,770.497397098829
1.72335600907029,502.882098233534,1016.97179458795,514.089696354421,-759.926946410744,-5.60379906044369,765.530745471188
1.72551560306662,508.268495377494,1024.48053004288,516.212034665389,-766.374512710188,-3.97176964394743,770.346282354135
1.72767519706295,513.725554147303,1030.1908223546,516.465268207302,-771.958188250954,-1.36985702999925,773.328045280953
1.72983479105928,506.199996860797,1023.07960371164,516.879606850839,-764.639800286217,-5.33980499502098,769.979605281238
1.73199438505561,496.228458244655,1017.24690741628,521.018449171623,-756.737682830467,-12.3949954634842,769.132678293951
1.73415397905194,494.84596157956,1024.86063953066,530.014677951095,-759.853300555108,-17.5843581857677,777.437658740876
1.73631357304827,497.108141401247,1031.61937025448,534.511228853236,-764.363755827864,-18.7015437259947,783.065299553859
1.7384731670446,490.069329242844,1022.24117742412,532.171848181272,-756.15525333348,-21.0512594692141,777.206512802694
1.74063276104092,489.289984396808,1017.47236664734,528.182382250528,-753.381175522072,-19.4461989268597,772.827374448932
1.74279235503725,492.618526002264,1026.41450108429,533.795975082025,-759.516513543276,-20.5887245398808,780.105238083157
1.74495194903358,493.094230406914,1029.43557601965,536.34134561274,-761.264903213283,-21.6235576029131,782.888460816197
1.74711154302991,488.707485221393,1021.28435291596,532.576867694566,-754.995919068676,-21.9346912365864,776.930610305262
1.74927113702624,485.735416801993,1018.32536220201,532.589945400021,-752.030389502003,-23.4272642990138,775.457653801017
1.75143073102257,486.070610442149,1029.4818760541,543.411265611953,-757.776243248126,-28.6703275849017,786.446570833027
1.7535903250189,484.400305329091,1027.16071174768,542.760406418594,-755.780508538387,-29.1800505447515,784.960559083139
1.75574991901523,476.967835354893,1019.76933467605,542.801499321152,-748.368585015469,-32.9168319831291,781.285416998598
1.75790951301155,481.173818222779,1019.22901063308,538.055192410304,-750.201414427931,-28.4406870937627,778.642101521694
1.76006910700788,494.626680140087,1029.76226966028,535.13558952019,-762.194474900182,-20.2544546900513,782.448929590233
1.76222870100421,497.93245938283,1027.45138986811,529.518930485279,-762.69192462547,-15.7932355512248,778.485160176695
1.76438829500054,492.481598811257,1018.17166731726,525.690068506008,-755.326633064261,-16.6042348473754,771.930867911636
1.76654788899687,490.743318110484,1021.48770618763,530.744388077141,-756.115512149055,-20.0005349833286,776.116047132384
1.7687074829932,491.142019847159,1029.27986762114,538.137847773978,-760.210943734148,-23.4979139634092,783.708857697558
1.77086707698953,486.536898932786,1024.74088593646,538.20398700367,-755.638892434621,-25.8335440354418,781.472436470063
1.77302667098585,482.423605146334,1018.27189728319,535.848292136857,-750.347751214763,-26.7123434952613,777.060094710024
1.77518626498218,481.392542768626,1022.87007700332,541.477534234695,-752.131309885974,-30.0424957330343,782.173805619008
1.77734585897851,481.066369853287,1031.03712810025,549.97075824696,-756.051748976767,-34.4521941968366,790.503943173604
1.77950545297484,477.523376260983,1025.67777878257,548.154402521586,-751.600577521776,-35.3155131303016,786.916090652078
1.78166504697117,478.117240185459,1018.19662512123,540.079384935772,-748.156932653345,-30.9810723751565,779.138005028501
1.7838246409675,488.107384146815,1024.29374766502,536.186363518208,-756.200565905919,-24.0394896856962,780.240055591615
1.78598423496383,494.301709003074,1030.88966796091,536.58795895784,-762.595688481994,-21.1431249773826,783.738813459377
1.78814382896016,494.928462725798,1023.84201071433,528.913547988537,-759.385236720066,-16.9925426313693,776.377779351436
1.79030342295648,493.108448461103,1018.04716847881,524.938720017709,-755.577808469957,-15.9151357783031,771.49294424826
1.79246301695281,496.854759861493,1024.85789604738,528.003136185887,-760.856327954436,-15.5741881621969,776.430516116633
1.79462261094914,500.310889428154,1030.98946552883,530.678576100678,-765.650177478493,-15.1838433362622,780.834020814755
1.79678220494547,494.291850096982,1023.71205529812,529.420205201141,-759.001952697553,-17.5641775520795,776.566130249632
1.7989417989418,489.322562433836,1017.57053850348,528.247976069645,-753.446550468659,-19.4627068179042,772.909257286563
1.80110139293813,494.508725246255,1026.15589999791,531.64717475166,-760.332312622085,-18.5692247527023,778.901537374787
1.80326098693446,499.980520046148,1029.14328177562,529.162761729472,-764.561900910884,-14.5911208416619,779.153021752546
1.80542058093079,495.56656099187,1019.0604961603,523.493935168431,-757.313528576086,-13.9636870882806,771.277215664366
1.80758017492711,492.627612945814,1019.16272031444,526.535107368628,-755.895166630128,-16.9537472114071,772.848913841535
1.80973976892344,495.175427544921,1026.56588888935,531.390461344429,-760.870658217136,-18.1075168997538,778.978175116889
1.81189936291977,493.67850029251,1028.59288086226,534.914380569754,-761.135690577387,-20.6179401386223,781.753630716009
1.8140589569161,491.13791072024,1018.14285644925,527.004945729008,-754.640383584745,-17.933517504384,772.573901089129
1.81621855091243,493.138618725021,1021.20018827148,528.061569546455,-757.169403498249,-17.461475410717,774.630878908966
1.81837814490876,499.579543774348,1026.46998253235,526.890438758,-763.024763153348,-13.6554474918257,776.680210645173
1.82053773890509,499.929739295082,1027.21003138323,527.280292088146,-763.569885339155,-13.6752763965316,777.245161735687
1.82269733290141,493.458351344008,1016.97846102841,523.520109684399,-755.218406186207,-15.0308791701959,770.249285356403
1.82485692689774,489.688080460764,1020.36815687168,530.680076410918,-755.028118666223,-20.495997975077,775.5241166413
1.82701652089407,488.168763277562,1030.45505963694,542.28629635938,-759.311911457251,-27.0587665409089,786.37067799816
1.8291761148904,482.685944078542,1028.16954630852,545.483602229983,-755.427745193533,-31.3988290757204,786.826574269254
1.83133570888673,478.535873433972,1017.50389892662,538.968025492643,-748.019886180294,-30.2160760293356,778.235962209629
1.83349530288306,479.330351589781,1021.73659202559,542.406240435808,-750.533471807685,-31.5379444230132,782.071416230699
1.83565489687939,484.931308986942,1028.78775876662,543.856449779678,-756.859533876781,-29.4625703963683,786.322104273149
1.83781449087572,484.388519157512,1025.52451563634,541.135996478831,-754.956517396928,-28.3737386606591,783.330256057587
1.83997408487204,482.967875499052,1017.04849214674,534.080616647692,-750.008183822898,-25.5563705743203,775.564554397218
1.84213367886837,488.101420907562,1024.22301714394,536.121596236374,-756.162219025749,-24.010087664406,780.172306690155
1.8442932728647,498.543148570659,1031.1122843883,532.569135817637,-764.827716479478,-17.0129936234889,781.840710102967
1.84645286686103,497.230618523243,1024.21469305606,526.984074532821,-760.722655789654,-14.8767280047887,775.599383794443
1.84861246085736,501.215404861018,1019.1596085276,517.944203666578,-760.187506694308,-8.36439940277995,768.551906097088
1.85077205485369,504.743663151008,1025.66709631602,520.923433165012,-765.205379733514,-8.08988500700218,773.295264740516
1.85293164885002,506.135170329745,1030.78862201247,524.653451682722,-768.461896171106,-9.25914067648887,777.721036847595
1.85509124284634,500.098838404604,1022.58729799749,522.488459592891,-761.343068201049,-11.1948105941434,772.537878795193
1.85725083684267,496.176396482085,1019.43379846904,523.257401986955,-757.805097475563,-13.5405027524347,771.345600227998
1.859410430839,497.592795348388,1026.14741746963,528.554622121245,-761.87010640901,-15.4809133864285,777.351019795439
1.86157002483533,496.319032229705,1031.43244308015,535.113410850448,-763.875737654929,-19.3971893103714,783.272926965301
1.86372961883166,492.944097504778,1018.3664653975,525.422367892718,-755.655281451137,-16.2391351939704,771.894416645107
1.86588921282799,488.708051405587,1018.16365117478,529.455599769197,-753.435851290185,-20.3737741818048,773.80962547199
1.86804880682432,491.928865510182,1028.35130383087,536.422438320684,-760.140084670525,-22.2467864052508,782.386871075775
1.87020840082065,494.339994593009,1028.42874908884,534.088754495829,-761.384371840923,-19.8743799514103,781.258751792334
1.87236799481697,490.85131836828,1018.02374388547,527.172425517186,-754.437531126873,-18.1605535744533,772.598084701326
1.8745275888133,490.028901479179,1019.07187329826,529.042971819086,-754.550387388722,-19.5070351699539,774.057422558676
1.87668718280963,496.771907405209,1027.53769122087,530.76578381566,-762.154799313039,-16.9969382052253,779.151737518264
1.87884677680596,496.374112943085,1029.53752663484,533.163413691751,-762.95581978896,-18.3946503743328,781.350470163293
1.88100637080229,497.82431220335,1020.2045677903,522.38025558695,-759.014439996825,-12.2779716918,771.292411688625
1.88316596479862,502.662212619367,1021.27610700221,518.613894382846,-761.969159810789,-7.97584088173943,769.945000692529
1.88532555879495,506.871990242568,1029.27376788387,522.4017776413,-768.072879063218,-7.76489369936587,775.837772762584
1.88748515279128,504.215046117251,1025.10045564799,520.885409530738,-764.657750882621,-8.33518170674347,772.992932589364
1.8896447467876,506.047828469157,1017.44346702967,511.395638560513,-761.745647749414,-2.67390504567794,764.419552795092
1.89180434078393,511.327950264478,1021.63168650878,510.303736244301,-766.479818386628,0.512107010088528,765.96771137654
1.89396393478026,519.613482603415,1029.87181594872,510.258333345301,-774.742649276066,4.67757462905706,770.065074647009
1.89612352877659,515.085390339649,1024.77819468844,509.692804348788,-769.931792514043,2.69629299543033,767.235499518613
1.89828312277292,508.177678433417,1014.14952908401,505.971850650588,-761.163603758711,1.10291389141429,760.060689867297
1.90044271676925,507.011112923208,1022.07672242997,515.06560950676,-764.543917676588,-4.02724829177583,768.571165968364
1.90260231076558,508.358289547319,1031.97808861401,523.619799066694,-770.168189080666,-7.63075475968719,777.798943840353
1.9047619047619,504.993700670452,1024.17051868237,519.176818011915,-764.58210967641,-7.09155867073133,771.673668347141
1.90692149875823,502.018791963772,1017.06272989264,515.043937928863,-759.540760928204,-6.51257298254524,766.053333910749
1.90908109275456,501.79472659829,1025.59405642553,523.799329827244,-763.694391511911,-11.0023016144769,774.696693126388
1.91124068675089,501.496650832953,1027.95357656155,526.456925728595,-764.72511369725,-12.4801374478212,777.205251145072
1.91340028074722,493.561471643204,1023.8714918502,530.310020206996,-758.716481746702,-18.374274281896,777.090756028598
1.91555987474355,492.355247628766,1018.46200268549,526.106755056721,-755.408625157126,-16.8757537139778,772.284378871104
1.91771946873988,501.340181749132,1026.97026805061,525.630086301475,-764.15522489987,-12.1449522761712,776.300177176041
1.91987906273621,509.852432542706,1030.31893479321,520.466502250503,-770.085683667957,-5.30703485389881,775.392718521856
1.92203865673253,510.410366304797,1021.32096222232,510.910595917521,-765.865664263557,-0.250114806362149,766.115779069919
1.92419825072886,515.439490214084,1018.04336270111,502.603872487022,-766.741426457595,6.41780886353104,760.323617594064
1.92635784472519,519.319439242588,1027.34966508515,508.030225842567,-773.334552163871,5.64460670001029,767.689945463861
1.92851743872152,520.106770523925,1030.69435209607,510.587581572143,-775.400561309997,4.75959447589082,770.640966834106
1.93067703271785,516.315153217942,1019.25738268819,502.942229470251,-767.786267953068,6.68646187384581,761.099806079222
1.93283662671418,516.039092377317,1019.01672309301,502.977630715692,-767.527907735163,6.53073083081227,760.99717690435
1.93499622071051,519.591567835355,1028.36254932392,508.770981488566,-773.977058579638,5.41029317339451,768.566765406244
1.93715581470684,519.048418642298,1027.46304652393,508.41462788163,-773.255732583113,5.3168953803339,767.938837202779
1.93931540870316,513.394151746215,1019.15614725414,505.761995507923,-766.275149500177,3.81607811914608,762.459071381031
1.94147500269949,512.563206221573,1021.16495557756,508.601749355987,-766.864080899567,1.980728432793,764.883352466774
1.94363459669582,512.338172183489,1031.31366971954,518.975497536055,-771.825920951516,-3.31866267628311,775.144583627799
1.94579419069215,507.958306681022,1026.33507746619,518.376770785172,-767.146692073607,-5.20923205207509,772.355924125683
1.94795378468848,499.521776667887,1017.56547168002,518.043695012132,-758.543624173953,-9.2609591721224,767.804583346076
1.95011337868481,497.239405498443,1022.51363132873,525.274225830291,-759.876518413589,-14.0174101659242,773.893928579513
1.95227297268114,505.074054282549,1030.75496184607,525.680907563523,-767.914508064311,-10.3034266404871,778.217934704798
1.95443256667746,508.565017228368,1023.77395457232,515.208937343949,-766.169485900342,-3.32196005779076,769.491445958133
1.95659216067379,498.871847762957,1017.09830340884,518.226455645883,-757.985075585899,-9.67730394146275,767.662379527361
1.95875175467012,500.026049138337,1021.97937494865,521.953325810308,-761.002712043491,-10.9636383359855,771.966350379477
1.96091134866645,504.746096276152,1031.08137050566,526.335274229506,-767.913733390905,-10.7945889766771,778.708322367582
1.96307094266278,509.540857449043,1023.42159841083,513.880740961783,-766.481227929935,-2.16994175637029,768.651169686305
1.96523053665911,510.247533631032,1018.12499620638,507.877462575347,-764.186264918706,1.18503552784244,763.001229390863
1.96739013065544,511.624333997579,1023.43881455048,511.814480552903,-767.531574274031,-0.0950732776618679,767.626647551692
1.96954972465177,509.117819126448,1028.86002830077,519.74220917432,-768.988923713608,-5.31219502393577,774.301118737544
1.97170931864809,503.137464250352,1023.85322934007,520.715765089721,-763.495346795212,-8.7891504196848,772.284497214897
1.97386891264442,497.091549644619,1019.3671740113,522.275624366686,-758.229361827962,-12.5920373610333,770.821399188995
1.97602850664075,497.521963814841,1025.9150398282,528.393076013359,-761.71850182152,-15.4355560992594,777.15405792078
1.97818810063708,498.466870192993,1029.50691865168,531.040048458686,-763.986894422336,-16.2865891328467,780.273483555183
1.98034769463341,494.126145603454,1021.56509756051,527.438951957056,-757.845621581982,-16.656403176801,774.502024758783
1.98250728862974,490.676414827879,1019.02740650902,528.350991681139,-754.851910668448,-18.8372884266298,773.689199095078
1.98466688262607,493.805765312148,1027.17888582662,533.373120514468,-760.492325569382,-19.78367760116,780.276003170542
1.98682647662239,491.333501921827,1028.62222953644,537.288727614612,-759.977865729133,-22.9776128463922,782.955478575526
1.98898607061872,486.888671299063,1020.23652932625,533.347858027189,-753.562600312657,-23.2295933640631,776.79219367672
1.99114566461505,487.939061073286,1017.90709844953,529.968037376249,-752.92307976141,-21.0144881514817,773.937567912892
1.99330525861138,493.700259876749,1029.36202710053,535.661767223781,-761.531143488639,-20.9807536735162,782.511897162155
1.99546485260771,493.495222184279,1027.68392947139,534.188707287109,-760.589575827833,-20.3467425514151,780.936318379249
1.99762444660404,492.939846690345,1020.32353510915,527.383688418801,-756.631690899746,-17.2219208642276,773.853611763973
1.99978404060037,486.576631725578,1021.07345397358,534.496822248002,-753.825042849579,-23.9600952612118,777.785138110791
2.0019436345967,482.746929232599,1029.17636583998,546.42943660738,-755.961647536289,-31.8412536873902,787.802901223679
2.00410322859302,474.371807036423,1027.33780675152,552.9659997151,-750.854806893973,-39.2970963393383,790.151903233312
2.00626282258935,471.332364723987,1017.53007701977,546.197712295782,-744.431220871878,-37.4326737858971,781.863894657776
2.00842241658568,476.190938875474,1021.40599185685,545.215052981381,-748.798465366164,-34.5120570529535,783.310522419118
2.01058201058201,485.143783863851,1030.80865881744,545.664874953593,-757.976221340648,-30.2605455448708,788.236766885519
2.01274160457834,488.881309733568,1025.00283469373,536.121524960158,-756.942072213646,-23.620107613295,780.562179826942
2.01490119857467,485.160203104613,1018.17885641001,533.018653305398,-751.669529757312,-23.9292251003926,775.598754857705
2.017060792571,484.88455763644,1024.84679810764,539.962240471198,-754.865677872039,-27.5388414173791,782.404519289418
2.01922038656733,483.315105841011,1029.99398802541,546.6788821844,-756.654546933211,-31.6818881716947,788.336435104906
2.02137998056365,480.263351117208,1024.45148945028,544.188138333072,-752.357420283744,-31.962393607932,784.319813891676
2.02353957455998,482.215804036768,1017.06404900078,534.848244964008,-749.639926518773,-26.3162204636201,775.956146982393
2.02569916855631,488.545819734352,1024.34642511177,535.800605377422,-756.446122423063,-23.6273928215349,780.073515244598
2.02785876255264,495.105196786562,1030.96337450714,535.858177720582,-763.034285646852,-20.3764904670101,783.410776113863
2.03001835654897,493.283724477346,1021.0379245103,527.754200032954,-757.160824493823,-17.2352377778039,774.396062271627
2.0321779505453,493.151227871332,1016.37364538708,523.222417515743,-754.762436629204,-15.0355948222055,769.798031451409
2.03433754454163,496.3885323998,1023.76159814488,527.37306574508,-760.07506527234,-15.4922666726398,775.56733194498
2.03649713853795,496.301000874573,1030.45667860818,534.155677733603,-763.378839741375,-18.9273384295152,782.30617817089
2.03865673253428,489.013874230347,1022.56712703593,533.553252805581,-755.790500633138,-22.269689287617,778.060189920755
2.04081632653061,482.608107200694,1016.92887006304,534.320762862344,-749.768488631866,-25.8563278308249,775.624816462691
2.04297592052694,486.813265648933,1028.13576881599,541.322503167059,-757.474517232462,-27.2546187590634,784.729135991526
2.04513551452327,485.506569210579,1029.80163280142,544.295063590837,-757.654101005998,-29.394247190129,787.048348196127
2.0472951085196,488.099883367802,1021.41184484281,533.311961475009,-754.755864105307,-22.6060390536032,777.36190315891
2.04945470251593,499.935486430032,1019.84315839863,519.907671968593,-759.889322414329,-9.98609276928011,769.875415183609
2.05161429651226,518.564802785026,1029.23081290609,510.66601012106,-773.897807845556,3.94939633198317,769.948411513573
2.05377389050858,537.235028207078,1027.68981139229,490.454783185215,-782.462419799686,23.3901225109313,759.072297288754
2.05593348450491,552.393887910866,1019.32625682624,466.932368915378,-785.860072368555,42.7307594977439,743.129312870811
2.05809307850124,576.422389304722,1018.96750260599,442.545113301265,-797.694945955354,66.9386380017285,730.756307953626
2.06025267249757,600.573117892605,1029.16776269825,428.594644805644,-814.870440295427,85.9892365434805,728.881203751947
2.0624122664939,617.92952999369,1027.51995290101,409.590422907319,-822.72474144735,104.169553543186,718.555187904164
2.06457186049023,630.69569000774,1017.62915715716,386.933467149421,-824.16242358245,121.88111142916,702.28131215329
2.06673145448656,647.188628765699,1021.29241409296,374.103785327264,-834.240521429331,136.542421719218,697.698099710114
2.06889104848289,659.626504710057,1028.71898884586,369.092484135806,-844.17274677796,145.267010287125,698.905736490835
2.07105064247921,647.651171641863,1026.05983075143,378.408659109572,-836.855501196649,134.621256266146,702.234244930503
2.07321023647554,627.62951886189,1018.15651998946,390.527001127572,-822.893019425676,118.551258867159,704.341760558517
2.07536983047187,611.072219548987,1023.73894245613,412.66672290714,-817.405581002557,99.2027483209238,718.202832681633
2.0775294244682,591.599276388304,1031.043943941,439.444667552693,-811.32161016465,76.0773044178055,735.244305746844
2.07968901846453,567.002296036043,1023.63036379128,456.628067755241,-795.316329913663,55.1871141404011,740.129215773262
2.08184861246086,540.131738405653,1018.09415538464,477.962416978984,-779.112946895145,31.0846607133347,748.02828618181
2.08400820645719,524.607397628686,1026.21197870567,501.604581076984,-775.409688167178,11.5014082758506,763.908279891327
2.08616780045351,507.440569459005,1029.9220754959,522.481506036895,-768.681322477453,-7.52046828894493,776.201790766398
2.08832739444984,493.58855885535,1022.09609389659,528.507535041237,-757.842326375968,-17.4594880929433,775.301814468912
2.09048698844617,484.245029559533,1017.3104575481,533.065427988571,-750.777743553819,-24.4101992145188,775.187942768338
2.0926465824425,489.225153352626,1024.67688191817,535.451728565545,-756.951017635399,-23.1132876064596,780.064305241858
2.09480617643883,488.070633649774,1029.56775564694,541.497121997162,-758.819194648355,-26.7132441736942,785.532438822049
2.09696577043516,483.88785165487,1022.7446489829,538.856797328033,-753.316250318886,-27.4844728365817,780.800723155468
2.09912536443149,486.533962993461,1019.89487163983,533.360908646367,-753.214417316644,-23.4134728264531,776.627890143098
2.10128495842782,496.842178483663,1027.00386392643,530.161685442762,-761.923021205044,-16.6597534795494,778.582774684594
2.10344455242414,500.649802584776,1029.81097522391,529.161172639139,-765.230388904346,-14.2556850271812,779.486073931527
2.10560414642047,499.115199311201,1020.44998325696,521.334783945758,-759.78259128408,-11.1097923172784,770.892383601359
2.1077637404168,497.868773487339,1019.75159953784,521.882826050503,-758.810186512591,-12.0070262815821,770.817212794173
2.10992333441313,497.593526130717,1030.17871522382,532.5851890931,-763.886120677267,-17.4958314811917,781.381952158458
2.11208292840946,494.518514655244,1029.82745979876,535.30894514352,-762.172987227004,-20.3952152441379,782.568202471142
2.11424252240579,484.953353660534,1018.41965419323,533.466300532694,-751.68650392688,-24.25647343608,775.94297736296
2.11640211640212,486.486033672075,1019.87257679328,533.38654312121,-753.179305232679,-23.4502547245675,776.629559957247
2.11856171039845,493.699352140803,1031.0839662398,537.384614098993,-762.391659190299,-21.8426309790951,784.234290169395
2.12072130439477,493.409607682982,1027.57824438358,534.168636700595,-760.49392603328,-20.3795145088062,780.873440542086
2.1228808983911,491.195703414999,1017.643985647,526.448282232003,-754.419844531001,-17.6262894085019,772.046133939503
2.12504049238743,493.092164058133,1023.1828036675,530.09063960937,-758.137483862818,-18.4992377756183,776.636721638436
2.12720008638376,496.397527110445,1031.71723288491,535.319705774469,-764.057379997679,-19.461089332012,783.518469329691
2.12935968038009,493.295268950394,1025.19899656726,531.903727616863,-759.247132758826,-19.3042293332342,778.55136209206
2.13151927437642,489.345583936086,1018.19984638101,528.854262444926,-753.772715158549,-19.7543392544201,773.527054412969
2.13367886837275,490.741738341001,1024.61691348542,533.875175144417,-757.67932591321,-21.5667184017075,779.246044314917
2.13583846236907,490.109751846225,1029.00635077179,538.896598925568,-759.558051309009,-24.3934235396711,783.951474848681
2.1379980563654,485.08280993152,1024.73148272887,539.648672797354,-754.907146330198,-27.282931432917,782.190077763114
2.14015765036173,485.026555292862,1018.07461412797,533.048058835108,-751.550584710416,-24.0107517711232,775.561336481539
2.14231724435806,490.523926528969,1024.10097291372,533.577046384749,-757.312449721343,-21.5265599278904,778.839009649234
2.14447683835439,492.434593257664,1030.96880561169,538.534212354026,-761.701699434676,-23.049809548181,784.751508982857
2.14663643235072,485.754826937497,1022.23495716171,536.480130224213,-753.994892049603,-25.3626516433583,779.357543692961
2.14879602634705,486.313753050074,1017.28902712403,530.975274073959,-751.801390087054,-22.3307605119425,774.132150598996
2.15095562034338,491.107394711612,1026.55595335882,535.448558647206,-758.831674035215,-22.1705819677971,781.002256003012
