t,leadI,leadII,leadIII,aVR,aVL,aVF
0,508,1021,513,-764.5,-2.5,767
0.00215959399632869,506,1021,515,-763.5,-4.5,768
0.00431918799265738,506,1022,516,-764,-5,769
0.00647878198898607,502,1020,518,-761,-8,769
0.00863837598531476,501,1023,522,-762,-10.5,772.5
0.0107979699816435,501,1020,519,-760.5,-9,769.5
0.0129575639779721,503,1021,518,-762,-7.5,769.5
0.0151171579743008,505,1023,518,-764,-6.5,770.5
0.0172767519706295,508,1022,514,-765,-3,768
0.0194363459669582,511,1020,509,-765.5,1,764.5
0.0215959399632869,510,1020,510,-765,0,765
0.0237555339596156,501,1022,521,-761.5,-10,771.5
0.0259151279559443,498,1021,523,-759.5,-12.5,772
0.028074721952273,500,1023,523,-761.5,-11.5,773
0.0302343159486017,501,1022,521,-761.5,-10,771.5
0.0323939099449304,504,1023,519,-763.5,-7.5,771
0.034553503941259,508,1021,513,-764.5,-2.5,767
0.0367130979375877,516,1023,507,-769.5,4.5,765
0.0388726919339164,520,1022,502,-771,9,762
0.0410322859302451,522,1022,500,-772,11,761
0.0431918799265738,524,1021,497,-772.5,13.5,759
0.0453514739229025,521,1021,500,-771,10.5,760.5
0.0475110679192312,516,1022,506,-769,5,764
0.0496706619155599,511,1022,511,-766.5,0,766.5
0.0518302559118886,507,1021,514,-764,-3.5,767.5
0.0539898499082173,506,1022,516,-764,-5,769
0.0561494439045459,510,1020,510,-765,0,765
0.0583090379008746,513,1021,508,-767,2.5,764.5
0.0604686318972033,517,1021,504,-769,6.5,762.5
0.062628225893532,520,1023,503,-771.5,8.5,763
0.0647878198898607,518,1023,505,-770.5,6.5,764
0.0669474138861894,513,1021,508,-767,2.5,764.5
0.0691070078825181,508,1022,514,-765,-3,768
0.0712666018788468,506,1022,516,-764,-5,769
0.0734261958751755,506,1021,515,-763.5,-4.5,768
0.0755857898715042,511,1021,510,-766,0.5,765.5
0.0777453838678328,514,1020,506,-767,4,763
0.0799049778641615,512,1021,509,-766.5,1.5,765
0.0820645718604902,506,1021,515,-763.5,-4.5,768
0.0842241658568189,499,1022,523,-760.5,-12,772.5
0.0863837598531476,491,1022,531,-756.5,-20,776.5
0.0885433538494763,490,1022,532,-756,-21,777
0.090702947845805,488,1021,533,-754.5,-22.5,777
0.0928625418421337,487,1020,533,-753.5,-23,776.5
0.0950221358384624,484,1021,537,-752.5,-26.5,779
0.0971817298347911,483,1021,538,-752,-27.5,779.5
0.0993413238311198,483,1022,539,-752.5,-28,780.5
0.101500917827448,484,1021,537,-752.5,-26.5,779
0.103660511823777,487,1022,535,-754.5,-24,778.5
0.105820105820106,493,1021,528,-757,-17.5,774.5
0.107979699816435,496,1021,525,-758.5,-14.5,773
0.110139293812763,495,1022,527,-758.5,-16,774.5
0.112298887809092,492,1021,529,-756.5,-18.5,775
0.114458481805421,488,1021,533,-754.5,-22.5,777
0.116618075801749,484,1020,536,-752,-26,778
0.118777669798078,479,1022,543,-750.5,-32,782.5
0.120937263794407,481,1021,540,-751,-29.5,780.5
0.123096857790735,485,1019,534,-752,-24.5,776.5
0.125256451787064,490,1020,530,-755,-20,775
0.127416045783393,491,1020,529,-755.5,-19,774.5
0.129575639779721,489,1021,532,-755,-21.5,776.5
0.13173523377605,488,1022,534,-755,-23,778
0.133894827772379,492,1021,529,-756.5,-18.5,775
0.136054421768707,498,1020,522,-759,-12,771
0.138214015765036,498,1022,524,-760,-13,773
0.140373609761365,496,1021,525,-758.5,-14.5,773
0.142533203757694,490,1021,531,-755.5,-20.5,776
0.144692797754022,483,1023,540,-753,-28.5,781.5
0.146852391750351,482,1022,540,-752,-29,781
0.14901198574668,482,1022,540,-752,-29,781
0.151171579743008,484,1021,537,-752.5,-26.5,779
0.153331173739337,486,1022,536,-754,-25,779
0.155490767735666,485,1021,536,-753,-25.5,778.5
0.157650361731994,489,1021,532,-755,-21.5,776.5
0.159809955728323,496,1022,526,-759,-15,774
0.161969549724652,508,1021,513,-764.5,-2.5,767
0.16412914372098,522,1021,499,-771.5,11.5,760
0.166288737717309,535,1023,488,-779,23.5,755.5
0.168448331713638,557,1021,464,-789,46.5,742.5
0.170607925709967,578,1021,443,-799.5,67.5,732
0.172767519706295,597,1021,424,-809,86.5,722.5
0.174927113702624,620,1022,402,-821,109,712
0.177086707698953,643,1022,379,-832.5,132,700.5
0.179246301695281,656,1020,364,-838,146,692
0.18140589569161,655,1021,366,-838,144.5,693.5
0.183565489687939,643,1021,378,-832,132.5,699.5
0.185725083684267,622,1023,401,-822.5,110.5,712
0.187884677680596,596,1021,425,-808.5,85.5,723
0.190044271676925,565,1023,458,-794,53.5,740.5
0.192203865673253,543,1022,479,-782.5,32,750.5
0.194363459669582,520,1022,502,-771,9,762
0.196523053665911,503,1022,519,-762.5,-8,770.5
0.19868264766224,487,1021,534,-754,-23.5,777.5
0.200842241658568,477,1021,544,-749,-33.5,782.5
0.203001835654897,477,1022,545,-749.5,-34,783.5
0.205161429651226,483,1021,538,-752,-27.5,779.5
0.207321023647554,488,1021,533,-754.5,-22.5,777
0.209480617643883,493,1022,529,-757.5,-18,775.5
0.211640211640212,499,1021,522,-760,-11.5,771.5
0.21379980563654,501,1021,520,-761,-9.5,770.5
0.215959399632869,498,1023,525,-760.5,-13.5,774
0.218118993629198,496,1021,525,-758.5,-14.5,773
0.220278587625526,494,1021,527,-757.5,-16.5,774
0.222438181621855,496,1022,526,-759,-15,774
0.224597775618184,499,1021,522,-760,-11.5,771.5
0.226757369614512,495,1021,526,-758,-15.5,773.5
0.228916963610841,492,1023,531,-757.5,-19.5,777
0.23107655760717,492,1022,530,-757,-19,776
0.233236151603499,497,1022,525,-759.5,-14,773.5
0.235395745599827,498,1022,524,-760,-13,773
0.237555339596156,495,1021,526,-758,-15.5,773.5
0.239714933592485,491,1022,531,-756.5,-20,776.5
0.241874527588813,487,1022,535,-754.5,-24,778.5
0.244034121585142,485,1023,538,-754,-26.5,780.5
0.246193715581471,488,1020,532,-754,-22,776
0.248353309577799,491,1021,530,-756,-19.5,775.5
0.250512903574128,495,1022,527,-758.5,-16,774.5
0.252672497570457,496,1023,527,-759.5,-15.5,775
0.254832091566785,501,1021,520,-761,-9.5,770.5
0.256991685563114,502,1021,519,-761.5,-8.5,770
0.259151279559443,497,1021,524,-759,-13.5,772.5
0.261310873555771,497,1022,525,-759.5,-14,773.5
0.2634704675521,498,1022,524,-760,-13,773
0.265630061548429,498,1022,524,-760,-13,773
0.267789655544758,495,1021,526,-758,-15.5,773.5
0.269949249541086,494,1022,528,-758,-17,775
0.272108843537415,491,1020,529,-755.5,-19,774.5
0.274268437533744,488,1022,534,-755,-23,778
0.276428031530072,494,1020,526,-757,-16,773
0.278587625526401,500,1022,522,-761,-11,772
0.28074721952273,505,1020,515,-762.5,-5,767.5
0.282906813519058,505,1022,517,-763.5,-6,769.5
0.285066407515387,502,1023,521,-762.5,-9.5,772
0.287226001511716,499,1022,523,-760.5,-12,772.5
0.289385595508044,498,1021,523,-759.5,-12.5,772
0.291545189504373,499,1021,522,-760,-11.5,771.5
0.293704783500702,502,1021,519,-761.5,-8.5,770
0.295864377497031,505,1021,516,-763,-5.5,768.5
0.298023971493359,507,1021,514,-764,-3.5,767.5
0.300183565489688,511,1022,511,-766.5,0,766.5
0.302343159486017,513,1021,508,-767,2.5,764.5
0.304502753482345,511,1022,511,-766.5,0,766.5
0.306662347478674,510,1022,512,-766,-1,767
0.308821941475003,506,1022,516,-764,-5,769
0.310981535471331,505,1022,517,-763.5,-6,769.5
0.31314112946766,504,1023,519,-763.5,-7.5,771
0.315300723463989,507,1023,516,-765,-4.5,769.5
0.317460317460317,506,1020,514,-763,-4,767
0.319619911456646,509,1023,514,-766,-2.5,768.5
0.321779505452975,510,1022,512,-766,-1,767
0.323939099449304,511,1021,510,-766,0.5,765.5
0.326098693445632,514,1022,508,-768,3,765
0.328258287441961,511,1020,509,-765.5,1,764.5
0.33041788143829,514,1021,507,-767.5,3.5,764
0.332577475434618,516,1022,506,-769,5,764
0.334737069430947,519,1022,503,-770.5,8,762.5
0.336896663427276,520,1021,501,-770.5,9.5,761
0.339056257423604,517,1022,505,-769.5,6,763.5
0.341215851419933,515,1022,507,-768.5,4,764.5
0.343375445416262,517,1020,503,-768.5,7,761.5
0.34553503941259,519,1021,502,-770,8.5,761.5
0.347694633408919,520,1021,501,-770.5,9.5,761
0.349854227405248,522,1021,499,-771.5,11.5,760
0.352013821401576,523,1021,498,-772,12.5,759.5
0.354173415397905,524,1022,498,-773,13,760
0.356333009394234,526,1020,494,-773,16,757
0.358492603390563,526,1021,495,-773.5,15.5,758
0.360652197386891,526,1021,495,-773.5,15.5,758
0.36281179138322,528,1022,494,-775,17,758
0.364971385379549,530,1020,490,-775,20,755
0.367130979375877,531,1020,489,-775.5,21,754.5
0.369290573372206,530,1021,491,-775.5,19.5,756
0.371450167368535,530,1023,493,-776.5,18.5,758
0.373609761364863,526,1021,495,-773.5,15.5,758
0.375769355361192,522,1022,500,-772,11,761
0.377928949357521,524,1021,497,-772.5,13.5,759
0.380088543353849,527,1023,496,-775,15.5,759.5
0.382248137350178,529,1023,494,-776,17.5,758.5
0.384407731346507,526,1023,497,-774.5,14.5,760
0.386567325342836,529,1021,492,-775,18.5,756.5
0.388726919339164,536,1022,486,-779,25,754
0.390886513335493,540,1020,480,-780,30,750
0.393046107331822,541,1021,480,-781,30.5,750.5
0.39520570132815,543,1022,479,-782.5,32,750.5
0.397365295324479,544,1020,476,-782,34,748
0.399524889320808,544,1020,476,-782,34,748
0.401684483317136,546,1023,477,-784.5,34.5,750
0.403844077313465,539,1022,483,-780.5,28,752.5
0.406003671309794,535,1022,487,-778.5,24,754.5
0.408163265306122,535,1020,485,-777.5,25,752.5
0.410322859302451,537,1022,485,-779.5,26,753.5
0.41248245329878,536,1022,486,-779,25,754
0.414642047295109,534,1019,485,-776.5,24.5,752
0.416801641291437,532,1021,489,-776.5,21.5,755
0.418961235287766,534,1022,488,-778,23,755
0.421120829284095,533,1021,488,-777,22.5,754.5
0.423280423280423,536,1021,485,-778.5,25.5,753
0.425440017276752,536,1022,486,-779,25,754
0.427599611273081,537,1020,483,-778.5,27,751.5
0.429759205269409,535,1022,487,-778.5,24,754.5
0.431918799265738,535,1020,485,-777.5,25,752.5
0.434078393262067,535,1022,487,-778.5,24,754.5
0.436237987258395,529,1023,494,-776,17.5,758.5
0.438397581254724,525,1021,496,-773,14.5,758.5
0.440557175251053,521,1022,501,-771.5,10,761.5
0.442716769247381,517,1021,504,-769,6.5,762.5
0.44487636324371,516,1022,506,-769,5,764
0.447035957240039,512,1022,510,-767,1,766
0.449195551236368,510,1020,510,-765,0,765
0.451355145232696,509,1021,512,-765,-1.5,766.5
0.453514739229025,507,1023,516,-765,-4.5,769.5
0.455674333225354,506,1021,515,-763.5,-4.5,768
0.457833927221682,505,1021,516,-763,-5.5,768.5
0.459993521218011,504,1022,518,-763,-7,770
0.46215311521434,501,1023,522,-762,-10.5,772.5
0.464312709210668,503,1021,518,-762,-7.5,769.5
0.466472303206997,506,1021,515,-763.5,-4.5,768
0.468631897203326,507,1021,514,-764,-3.5,767.5
0.470791491199654,509,1021,512,-765,-1.5,766.5
0.472951085195983,501,1020,519,-760.5,-9,769.5
0.475110679192312,495,1022,527,-758.5,-16,774.5
0.477270273188641,490,1022,532,-756,-21,777
0.479429867184969,487,1021,534,-754,-23.5,777.5
0.481589461181298,485,1022,537,-753.5,-26,779.5
0.483749055177627,486,1021,535,-753.5,-24.5,778
0.485908649173955,488,1022,534,-755,-23,778
0.488068243170284,494,1022,528,-758,-17,775
0.490227837166613,493,1023,530,-758,-18.5,776.5
0.492387431162941,494,1021,527,-757.5,-16.5,774
0.49454702515927,493,1022,529,-757.5,-18,775.5
0.496706619155599,491,1021,530,-756,-19.5,775.5
0.498866213151927,487,1021,534,-754,-23.5,777.5
0.501025807148256,486,1021,535,-753.5,-24.5,778
0.503185401144585,485,1019,534,-752,-24.5,776.5
0.505344995140913,489,1023,534,-756,-22.5,778.5
0.507504589137242,494,1021,527,-757.5,-16.5,774
0.509664183133571,494,1022,528,-758,-17,775
0.5118237771299,492,1021,529,-756.5,-18.5,775
0.513983371126228,490,1021,531,-755.5,-20.5,776
0.516142965122557,490,1021,531,-755.5,-20.5,776
0.518302559118886,491,1021,530,-756,-19.5,775.5
0.520462153115214,497,1020,523,-758.5,-13,771.5
0.522621747111543,499,1022,523,-760.5,-12,772.5
0.524781341107872,497,1023,526,-760,-14.5,774.5
0.5269409351042,499,1021,522,-760,-11.5,771.5
0.529100529100529,497,1022,525,-759.5,-14,773.5
0.531260123096858,495,1021,526,-758,-15.5,773.5
0.533419717093186,494,1020,526,-757,-16,773
0.535579311089515,487,1020,533,-753.5,-23,776.5
0.537738905085844,482,1021,539,-751.5,-28.5,780
0.539898499082173,483,1021,538,-752,-27.5,779.5
0.542058093078501,488,1022,534,-755,-23,778
0.54421768707483,495,1021,526,-758,-15.5,773.5
0.546377281071159,496,1021,525,-758.5,-14.5,773
0.548536875067487,496,1022,526,-759,-15,774
0.550696469063816,498,1020,522,-759,-12,771
0.552856063060145,498,1021,523,-759.5,-12.5,772
0.555015657056473,498,1022,524,-760,-13,773
0.557175251052802,497,1023,526,-760,-14.5,774.5
0.559334845049131,494,1021,527,-757.5,-16.5,774
0.561494439045459,491,1021,530,-756,-19.5,775.5
0.563654033041788,485,1022,537,-753.5,-26,779.5
0.565813627038117,486,1021,535,-753.5,-24.5,778
0.567973221034445,487,1021,534,-754,-23.5,777.5
0.570132815030774,491,1023,532,-757,-20.5,777.5
0.572292409027103,493,1021,528,-757,-17.5,774.5
0.574452003023432,503,1021,518,-762,-7.5,769.5
0.57661159701976,510,1022,512,-766,-1,767
0.578771191016089,514,1022,508,-768,3,765
0.580930785012418,513,1022,509,-767.5,2,765.5
0.583090379008746,509,1022,513,-765.5,-2,767.5
0.585249973005075,502,1023,521,-762.5,-9.5,772
0.587409567001404,497,1022,525,-759.5,-14,773.5
0.589569160997732,492,1022,530,-757,-19,776
0.591728754994061,488,1021,533,-754.5,-22.5,777
0.59388834899039,484,1022,538,-753,-27,780
0.596047942986718,489,1022,533,-755.5,-22,777.5
0.598207536983047,498,1021,523,-759.5,-12.5,772
0.600367130979376,502,1022,520,-762,-9,771
0.602526724975705,503,1021,518,-762,-7.5,769.5
0.604686318972033,503,1023,520,-763,-8.5,771.5
0.606845912968362,500,1021,521,-760.5,-10.5,771
0.609005506964691,494,1021,527,-757.5,-16.5,774
0.611165100961019,489,1022,533,-755.5,-22,777.5
0.613324694957348,487,1021,534,-754,-23.5,777.5
0.615484288953677,491,1021,530,-756,-19.5,775.5
0.617643882950005,495,1022,527,-758.5,-16,774.5
0.619803476946334,499,1023,524,-761,-12.5,773.5
0.621963070942663,500,1023,523,-761.5,-11.5,773
0.624122664938991,501,1020,519,-760.5,-9,769.5
0.62628225893532,500,1022,522,-761,-11,772
0.628441852931649,504,1022,518,-763,-7,770
0.630601446927977,508,1023,515,-765.5,-3.5,769
0.632761040924306,512,1021,509,-766.5,1.5,765
0.634920634920635,510,1023,513,-766.5,-1.5,768
0.637080228916964,510,1023,513,-766.5,-1.5,768
0.639239822913292,505,1021,516,-763,-5.5,768.5
0.641399416909621,504,1020,516,-762,-6,768
0.64355901090595,506,1020,514,-763,-4,767
0.645718604902278,508,1022,514,-765,-3,768
0.647878198898607,510,1022,512,-766,-1,767
0.650037792894936,508,1023,515,-765.5,-3.5,769
0.652197386891264,507,1021,514,-764,-3.5,767.5
0.654356980887593,504,1020,516,-762,-6,768
0.656516574883922,506,1022,516,-764,-5,769
0.65867616888025,504,1022,518,-763,-7,770
0.660835762876579,503,1022,519,-762.5,-8,770.5
0.662995356872908,501,1021,520,-761,-9.5,770.5
0.665154950869237,501,1023,522,-762,-10.5,772.5
0.667314544865565,500,1020,520,-760,-10,770
0.669474138861894,502,1022,520,-762,-9,771
0.671633732858223,508,1021,513,-764.5,-2.5,767
0.673793326854551,512,1021,509,-766.5,1.5,765
0.67595292085088,513,1021,508,-767,2.5,764.5
0.678112514847209,517,1021,504,-769,6.5,762.5
0.680272108843537,518,1021,503,-769.5,7.5,762
0.682431702839866,517,1022,505,-769.5,6,763.5
0.684591296836195,513,1022,509,-767.5,2,765.5
0.686750890832523,505,1020,515,-762.5,-5,767.5
0.688910484828852,503,1019,516,-761,-6.5,767.5
0.691070078825181,510,1021,511,-765.5,-0.5,766
0.693229672821509,521,1023,502,-772,9.5,762.5
0.695389266817838,526,1022,496,-774,15,759
0.697548860814167,525,1022,497,-773.5,14,759.5
0.699708454810496,522,1023,501,-772.5,10.5,762
0.701868048806824,515,1022,507,-768.5,4,764.5
0.704027642803153,510,1021,511,-765.5,-0.5,766
0.706187236799482,503,1021,518,-762,-7.5,769.5
0.70834683079581,502,1022,520,-762,-9,771
0.710506424792139,503,1021,518,-762,-7.5,769.5
0.712666018788468,507,1021,514,-764,-3.5,767.5
0.714825612784796,510,1020,510,-765,0,765
0.716985206781125,511,1023,512,-767,-0.5,767.5
0.719144800777454,513,1021,508,-767,2.5,764.5
0.721304394773782,511,1021,510,-766,0.5,765.5
0.723463988770111,511,1023,512,-767,-0.5,767.5
0.72562358276644,505,1021,516,-763,-5.5,768.5
0.727783176762769,501,1022,521,-761.5,-10,771.5
0.729942770759097,500,1020,520,-760,-10,770
0.732102364755426,494,1022,528,-758,-17,775
0.734261958751755,494,1022,528,-758,-17,775
0.736421552748083,496,1022,526,-759,-15,774
0.738581146744412,502,1022,520,-762,-9,771
0.740740740740741,502,1022,520,-762,-9,771
0.742900334737069,501,1022,521,-761.5,-10,771.5
0.745059928733398,497,1022,525,-759.5,-14,773.5
0.747219522729727,493,1020,527,-756.5,-17,773.5
0.749379116726056,489,1022,533,-755.5,-22,777.5
0.751538710722384,488,1021,533,-754.5,-22.5,777
0.753698304718713,490,1020,530,-755,-20,775
0.755857898715041,490,1023,533,-756.5,-21.5,778
0.75801749271137,489,1021,532,-755,-21.5,776.5
0.760177086707699,490,1023,533,-756.5,-21.5,778
0.762336680704028,489,1022,533,-755.5,-22,777.5
0.764496274700356,490,1021,531,-755.5,-20.5,776
0.766655868696685,491,1023,532,-757,-20.5,777.5
0.768815462693014,485,1022,537,-753.5,-26,779.5
0.770975056689342,486,1022,536,-754,-25,779
0.773134650685671,494,1021,527,-757.5,-16.5,774
0.775294244682,501,1023,522,-762,-10.5,772.5
0.777453838678328,507,1020,513,-763.5,-3,766.5
0.779613432674657,506,1021,515,-763.5,-4.5,768
0.781773026670986,499,1021,522,-760,-11.5,771.5
0.783932620667315,487,1020,533,-753.5,-23,776.5
0.786092214663643,479,1022,543,-750.5,-32,782.5
0.788251808659972,481,1021,540,-751,-29.5,780.5
0.790411402656301,488,1021,533,-754.5,-22.5,777
0.792570996652629,491,1020,529,-755.5,-19,774.5
0.794730590648958,493,1021,528,-757,-17.5,774.5
0.796890184645287,495,1022,527,-758.5,-16,774.5
0.799049778641615,495,1022,527,-758.5,-16,774.5
0.801209372637944,495,1022,527,-758.5,-16,774.5
0.803368966634273,495,1020,525,-757.5,-15,772.5
0.805528560630601,498,1023,525,-760.5,-13.5,774
0.80768815462693,507,1020,513,-763.5,-3,766.5
0.809847748623259,521,1022,501,-771.5,10,761.5
0.812007342619588,544,1022,478,-783,33,750
0.814166936615916,567,1023,456,-795,55.5,739.5
0.816326530612245,589,1022,433,-805.5,78,727.5
0.818486124608574,612,1022,410,-817,101,716
0.820645718604902,633,1021,388,-827,122.5,704.5
0.822805312601231,648,1021,373,-834.5,137.5,697
0.82496490659756,653,1022,369,-837.5,142,695.5
0.827124500593888,643,1022,379,-832.5,132,700.5
0.829284094590217,628,1021,393,-824.5,117.5,707
0.831443688586546,611,1022,411,-816.5,100,716.5
0.833603282582874,589,1021,432,-805,78.5,726.5
0.835762876579203,568,1021,453,-794.5,57.5,737
0.837922470575532,547,1022,475,-784.5,36,748.5
0.840082064571861,531,1021,490,-776,20.5,755.5
0.842241658568189,514,1021,507,-767.5,3.5,764
0.844401252564518,499,1023,524,-761,-12.5,773.5
0.846560846560847,484,1022,538,-753,-27,780
0.848720440557175,480,1021,541,-750.5,-30.5,781
0.850880034553504,479,1022,543,-750.5,-32,782.5
0.853039628549833,480,1021,541,-750.5,-30.5,781
0.855199222546161,482,1022,540,-752,-29,781
0.85735881654249,489,1021,532,-755,-21.5,776.5
0.859518410538819,497,1021,524,-759,-13.5,772.5
0.861678004535147,505,1021,516,-763,-5.5,768.5
0.863837598531476,505,1021,516,-763,-5.5,768.5
0.865997192527805,501,1022,521,-761.5,-10,771.5
0.868156786524133,492,1023,531,-757.5,-19.5,777
0.870316380520462,482,1021,539,-751.5,-28.5,780
0.872475974516791,477,1022,545,-749.5,-34,783.5
0.87463556851312,477,1020,543,-748.5,-33,781.5
0.876795162509448,481,1023,542,-752,-30.5,782.5
0.878954756505777,491,1021,530,-756,-19.5,775.5
0.881114350502106,497,1022,525,-759.5,-14,773.5
0.883273944498434,499,1020,521,-759.5,-11,770.5
0.885433538494763,499,1019,520,-759,-10.5,769.5
0.887593132491092,498,1021,523,-759.5,-12.5,772
0.88975272648742,494,1023,529,-758.5,-17.5,776
0.891912320483749,491,1022,531,-756.5,-20,776.5
0.894071914480078,490,1021,531,-755.5,-20.5,776
0.896231508476406,489,1021,532,-755,-21.5,776.5
0.898391102472735,490,1021,531,-755.5,-20.5,776
0.900550696469064,490,1022,532,-756,-21,777
0.902710290465393,493,1023,530,-758,-18.5,776.5
0.904869884461721,495,1020,525,-757.5,-15,772.5
0.90702947845805,496,1020,524,-758,-14,772
0.909189072454379,498,1021,523,-759.5,-12.5,772
0.911348666450707,500,1021,521,-760.5,-10.5,771
0.913508260447036,498,1023,525,-760.5,-13.5,774
0.915667854443365,495,1020,525,-757.5,-15,772.5
0.917827448439693,495,1021,526,-758,-15.5,773.5
0.919987042436022,497,1021,524,-759,-13.5,772.5
0.922146636432351,499,1022,523,-760.5,-12,772.5
0.924306230428679,498,1022,524,-760,-13,773
0.926465824425008,500,1021,521,-760.5,-10.5,771
0.928625418421337,496,1022,526,-759,-15,774
0.930785012417665,496,1019,523,-757.5,-13.5,771
0.932944606413994,497,1022,525,-759.5,-14,773.5
0.935104200410323,500,1022,522,-761,-11,772
0.937263794406652,500,1023,523,-761.5,-11.5,773
0.93942338840298,498,1023,525,-760.5,-13.5,774
0.941582982399309,502,1021,519,-761.5,-8.5,770
0.943742576395638,501,1022,521,-761.5,-10,771.5
0.945902170391966,497,1023,526,-760,-14.5,774.5
0.948061764388295,492,1022,530,-757,-19,776
0.950221358384624,488,1021,533,-754.5,-22.5,777
0.952380952380952,485,1021,536,-753,-25.5,778.5
0.954540546377281,491,1020,529,-755.5,-19,774.5
0.95670014037361,496,1022,526,-759,-15,774
0.958859734369938,496,1022,526,-759,-15,774
0.961019328366267,503,1020,517,-761.5,-7,768.5
0.963178922362596,509,1023,514,-766,-2.5,768.5
0.965338516358925,513,1023,510,-768,1.5,766.5
0.967498110355253,519,1022,503,-770.5,8,762.5
0.969657704351582,519,1021,502,-770,8.5,761.5
0.971817298347911,516,1022,506,-769,5,764
0.973976892344239,512,1022,510,-767,1,766
0.976136486340568,515,1021,506,-768,4.5,763.5
0.978296080336897,516,1021,505,-768.5,5.5,763
0.980455674333225,517,1020,503,-768.5,7,761.5
0.982615268329554,518,1022,504,-770,7,763
0.984774862325883,518,1022,504,-770,7,763
0.986934456322211,514,1023,509,-768.5,2.5,766
0.98909405031854,512,1022,510,-767,1,766
0.991253644314869,512,1022,510,-767,1,766
0.993413238311197,518,1023,505,-770.5,6.5,764
0.995572832307526,520,1022,502,-771,9,762
0.997732426303855,524,1022,498,-773,13,760
0.999892020300184,525,1021,496,-773,14.5,758.5
1.00205161429651,525,1020,495,-772.5,15,757.5
1.00421120829284,521,1022,501,-771.5,10,761.5
1.00637080228917,519,1021,502,-770,8.5,761.5
1.0085303962855,520,1022,502,-771,9,762
1.01068999028183,522,1022,500,-772,11,761
1.01284958427816,524,1020,496,-772,14,758
1.01500917827448,523,1021,498,-772,12.5,759.5
1.01716877227081,527,1022,495,-774.5,16,758.5
1.01932836626714,530,1020,490,-775,20,755
1.02148796026347,531,1021,490,-776,20.5,755.5
1.0236475542598,530,1022,492,-776,19,757
1.02580714825613,520,1022,502,-771,9,762
1.02796674225246,512,1021,509,-766.5,1.5,765
1.03012633624879,512,1021,509,-766.5,1.5,765
1.03228593024511,517,1022,505,-769.5,6,763.5
1.03444552424144,525,1023,498,-774,13.5,760.5
1.03660511823777,533,1022,489,-777.5,22,755.5
1.0387647122341,540,1022,482,-781,29,752
1.04092430623043,545,1021,476,-783,34.5,748.5
1.04308390022676,551,1021,470,-786,40.5,745.5
1.04524349422309,550,1022,472,-786,39,747
1.04740308821941,547,1022,475,-784.5,36,748.5
1.04956268221574,543,1021,478,-782,32.5,749.5
1.05172227621207,535,1022,487,-778.5,24,754.5
1.0538818702084,526,1021,495,-773.5,15.5,758
1.05604146420473,526,1022,496,-774,15,759
1.05820105820106,526,1021,495,-773.5,15.5,758
1.06036065219739,525,1022,497,-773.5,14,759.5
1.06252024619372,524,1022,498,-773,13,760
1.06467984019004,524,1020,496,-772,14,758
1.06683943418637,527,1022,495,-774.5,16,758.5
1.0689990281827,531,1021,490,-776,20.5,755.5
1.07115862217903,533,1021,488,-777,22.5,754.5
1.07331821617536,534,1021,487,-777.5,23.5,754
1.07547781017169,530,1023,493,-776.5,18.5,758
1.07763740416802,524,1022,498,-773,13,760
1.07979699816435,523,1023,500,-773,11.5,761.5
1.08195659216067,521,1023,502,-772,9.5,762.5
1.084116186157,520,1021,501,-770.5,9.5,761
1.08627578015333,518,1022,504,-770,7,763
1.08843537414966,515,1022,507,-768.5,4,764.5
1.09059496814599,515,1021,506,-768,4.5,763.5
1.09275456214232,512,1022,510,-767,1,766
1.09491415613865,513,1020,507,-766.5,3,763.5
1.09707375013497,511,1021,510,-766,0.5,765.5
1.0992333441313,508,1022,514,-765,-3,768
1.10139293812763,503,1022,519,-762.5,-8,770.5
1.10355253212396,500,1021,521,-760.5,-10.5,771
1.10571212612029,500,1020,520,-760,-10,770
1.10787172011662,497,1020,523,-758.5,-13,771.5
1.11003131411295,492,1021,529,-756.5,-18.5,775
1.11219090810928,486,1020,534,-753,-24,777
1.1143505021056,483,1021,538,-752,-27.5,779.5
1.11651009610193,481,1021,540,-751,-29.5,780.5
1.11866969009826,477,1021,544,-749,-33.5,782.5
1.12082928409459,481,1022,541,-751.5,-30,781.5
1.12298887809092,485,1022,537,-753.5,-26,779.5
1.12514847208725,491,1021,530,-756,-19.5,775.5
1.12730806608358,495,1022,527,-758.5,-16,774.5
1.1294676600799,496,1020,524,-758,-14,772
1.13162725407623,493,1021,528,-757,-17.5,774.5
1.13378684807256,487,1023,536,-755,-24.5,779.5
1.13594644206889,483,1023,540,-753,-28.5,781.5
1.13810603606522,485,1019,534,-752,-24.5,776.5
1.14026563006155,486,1021,535,-753.5,-24.5,778
1.14242522405788,485,1021,536,-753,-25.5,778.5
1.14458481805421,489,1020,531,-754.5,-21,775.5
1.14674441205053,490,1022,532,-756,-21,777
1.14890400604686,493,1023,530,-758,-18.5,776.5
1.15106360004319,490,1022,532,-756,-21,777
1.15322319403952,483,1020,537,-751.5,-27,778.5
1.15538278803585,479,1021,542,-750,-31.5,781.5
1.15754238203218,480,1022,542,-751,-31,782
1.15970197602851,482,1023,541,-752.5,-29.5,782
1.16186157002484,486,1020,534,-753,-24,777
1.16402116402116,488,1021,533,-754.5,-22.5,777
1.16618075801749,491,1021,530,-756,-19.5,775.5
1.16834035201382,494,1019,525,-756.5,-15.5,772
1.17049994601015,492,1021,529,-756.5,-18.5,775
1.17265954000648,489,1023,534,-756,-22.5,778.5
1.17481913400281,489,1023,534,-756,-22.5,778.5
1.17697872799914,484,1019,535,-751.5,-25.5,777
1.17913832199546,482,1020,538,-751,-28,779
1.18129791599179,482,1023,541,-752.5,-29.5,782
1.18345750998812,488,1023,535,-755.5,-23.5,779
1.18561710398445,497,1021,524,-759,-13.5,772.5
1.18777669798078,500,1021,521,-760.5,-10.5,771
1.18993629197711,503,1020,517,-761.5,-7,768.5
1.19209588597344,500,1021,521,-760.5,-10.5,771
1.19425547996977,497,1023,526,-760,-14.5,774.5
1.19641507396609,492,1021,529,-756.5,-18.5,775
1.19857466796242,490,1022,532,-756,-21,777
1.20073426195875,489,1021,532,-755,-21.5,776.5
1.20289385595508,487,1021,534,-754,-23.5,777.5
1.20505344995141,485,1022,537,-753.5,-26,779.5
1.20721304394774,483,1021,538,-752,-27.5,779.5
1.20937263794407,486,1021,535,-753.5,-24.5,778
1.2115322319404,489,1022,533,-755.5,-22,777.5
1.21369182593672,491,1023,532,-757,-20.5,777.5
1.21585141993305,492,1022,530,-757,-19,776
1.21801101392938,493,1022,529,-757.5,-18,775.5
1.22017060792571,494,1023,529,-758.5,-17.5,776
1.22233020192204,496,1023,527,-759.5,-15.5,775
1.22448979591837,493,1022,529,-757.5,-18,775.5
1.2266493899147,493,1021,528,-757,-17.5,774.5
1.22880898391102,496,1022,526,-759,-15,774
1.23096857790735,496,1022,526,-759,-15,774
1.23312817190368,498,1021,523,-759.5,-12.5,772
1.23528776590001,496,1021,525,-758.5,-14.5,773
1.23744735989634,492,1022,530,-757,-19,776
1.23960695389267,491,1021,530,-756,-19.5,775.5
1.241766547889,492,1021,529,-756.5,-18.5,775
1.24392614188533,492,1021,529,-756.5,-18.5,775
1.24608573588165,491,1021,530,-756,-19.5,775.5
1.24824532987798,491,1020,529,-755.5,-19,774.5
1.25040492387431,487,1021,534,-754,-23.5,777.5
1.25256451787064,485,1022,537,-753.5,-26,779.5
1.25472411186697,483,1022,539,-752.5,-28,780.5
1.2568837058633,486,1021,535,-753.5,-24.5,778
1.25904329985963,489,1023,534,-756,-22.5,778.5
1.26120289385595,499,1021,522,-760,-11.5,771.5
1.26336248785228,503,1021,518,-762,-7.5,769.5
1.26552208184861,502,1022,520,-762,-9,771
1.26768167584494,505,1021,516,-763,-5.5,768.5
1.26984126984127,508,1021,513,-764.5,-2.5,767
1.2720008638376,509,1021,512,-765,-1.5,766.5
1.27416045783393,510,1021,511,-765.5,-0.5,766
1.27632005183026,508,1021,513,-764.5,-2.5,767
1.27847964582658,504,1022,518,-763,-7,770
1.28063923982291,501,1020,519,-760.5,-9,769.5
1.28279883381924,499,1021,522,-760,-11.5,771.5
1.28495842781557,502,1022,520,-762,-9,771
1.2871180218119,502,1021,519,-761.5,-8.5,770
1.28927761580823,505,1021,516,-763,-5.5,768.5
1.29143720980456,505,1021,516,-763,-5.5,768.5
1.29359680380089,508,1022,514,-765,-3,768
1.29575639779721,509,1021,512,-765,-1.5,766.5
1.29791599179354,508,1021,513,-764.5,-2.5,767
1.30007558578987,509,1020,511,-764.5,-1,765.5
1.3022351797862,507,1022,515,-764.5,-4,768.5
1.30439477378253,508,1021,513,-764.5,-2.5,767
1.30655436777886,506,1022,516,-764,-5,769
1.30871396177519,504,1021,517,-762.5,-6.5,769
1.31087355577151,506,1021,515,-763.5,-4.5,768
1.31303314976784,505,1022,517,-763.5,-6,769.5
1.31519274376417,507,1020,513,-763.5,-3,766.5
1.3173523377605,504,1019,515,-761.5,-5.5,767
1.31951193175683,507,1022,515,-764.5,-4,768.5
1.32167152575316,511,1022,511,-766.5,0,766.5
1.32383111974949,510,1020,510,-765,0,765
1.32599071374582,512,1022,510,-767,1,766
1.32815030774214,514,1021,507,-767.5,3.5,764
1.33030990173847,513,1022,509,-767.5,2,765.5
1.3324694957348,516,1020,504,-768,6,762
1.33462908973113,512,1022,510,-767,1,766
1.33678868372746,507,1022,515,-764.5,-4,768.5
1.33894827772379,506,1023,517,-764.5,-5.5,770
1.34110787172012,499,1021,522,-760,-11.5,771.5
1.34326746571645,494,1021,527,-757.5,-16.5,774
1.34542705971277,491,1021,530,-756,-19.5,775.5
1.3475866537091,493,1022,529,-757.5,-18,775.5
1.34974624770543,501,1022,521,-761.5,-10,771.5
1.35190584170176,509,1021,512,-765,-1.5,766.5
1.35406543569809,512,1021,509,-766.5,1.5,765
1.35622502969442,511,1021,510,-766,0.5,765.5
1.35838462369075,507,1021,514,-764,-3.5,767.5
1.36054421768707,503,1022,519,-762.5,-8,770.5
1.3627038116834,499,1023,524,-761,-12.5,773.5
1.36486340567973,498,1023,525,-760.5,-13.5,774
1.36702299967606,494,1022,528,-758,-17,775
1.36918259367239,490,1021,531,-755.5,-20.5,776
1.37134218766872,488,1020,532,-754,-22,776
1.37350178166505,486,1022,536,-754,-25,779
1.37566137566138,487,1022,535,-754.5,-24,778.5
1.3778209696577,489,1021,532,-755,-21.5,776.5
1.37998056365403,491,1022,531,-756.5,-20,776.5
1.38214015765036,492,1022,530,-757,-19,776
1.38429975164669,491,1021,530,-756,-19.5,775.5
1.38645934564302,489,1022,533,-755.5,-22,777.5
1.38861893963935,489,1021,532,-755,-21.5,776.5
1.39077853363568,491,1022,531,-756.5,-20,776.5
1.39293812763201,489,1021,532,-755,-21.5,776.5
1.39509772162833,487,1022,535,-754.5,-24,778.5
1.39725731562466,484,1021,537,-752.5,-26.5,779
1.39941690962099,486,1023,537,-754.5,-25.5,780
1.40157650361732,494,1022,528,-758,-17,775
1.40373609761365,495,1020,525,-757.5,-15,772.5
1.40589569160998,497,1021,524,-759,-13.5,772.5
1.40805528560631,495,1021,526,-758,-15.5,773.5
1.41021487960263,490,1023,533,-756.5,-21.5,778
1.41237447359896,486,1022,536,-754,-25,779
1.41453406759529,479,1021,542,-750,-31.5,781.5
1.41669366159162,476,1021,545,-748.5,-34.5,783
1.41885325558795,476,1022,546,-749,-35,784
1.42101284958428,476,1023,547,-749.5,-35.5,785
1.42317244358061,483,1019,536,-751,-26.5,777.5
1.42533203757694,483,1023,540,-753,-28.5,781.5
1.42749163157326,485,1021,536,-753,-25.5,778.5
1.42965122556959,484,1023,539,-753.5,-27.5,781
1.43181081956592,490,1023,533,-756.5,-21.5,778
1.43397041356225,500,1021,521,-760.5,-10.5,771
1.43613000755858,515,1021,506,-768,4.5,763.5
1.43828960155491,531,1023,492,-777,19.5,757.5
1.44044919555124,550,1021,471,-785.5,39.5,746
1.44260878954756,570,1021,451,-795.5,59.5,736
1.44476838354389,590,1022,432,-806,79,727
1.44692797754022,612,1022,410,-817,101,716
1.44908757153655,630,1021,391,-825.5,119.5,706
1.45124716553288,640,1022,382,-831,129,702
1.45340675952921,645,1021,376,-833,134.5,698.5
1.45556635352554,643,1021,378,-832,132.5,699.5
1.45772594752187,634,1022,388,-828,123,705
1.45988554151819,620,1022,402,-821,109,712
1.46204513551452,597,1021,424,-809,86.5,722.5
1.46420472951085,572,1020,448,-796,62,734
1.46636432350718,545,1021,476,-783,34.5,748.5
1.46852391750351,526,1023,497,-774.5,14.5,760
1.47068351149984,508,1021,513,-764.5,-2.5,767
1.47284310549617,496,1021,525,-758.5,-14.5,773
1.4750026994925,489,1022,533,-755.5,-22,777.5
1.47716229348882,486,1021,535,-753.5,-24.5,778
1.47932188748515,485,1021,536,-753,-25.5,778.5
1.48148148148148,482,1022,540,-752,-29,781
1.48364107547781,481,1021,540,-751,-29.5,780.5
1.48580066947414,482,1020,538,-751,-28,779
1.48796026347047,483,1023,540,-753,-28.5,781.5
1.4901198574668,486,1020,534,-753,-24,777
1.49227945146312,487,1022,535,-754.5,-24,778.5
1.49443904545945,489,1023,534,-756,-22.5,778.5
1.49659863945578,486,1021,535,-753.5,-24.5,778
1.49875823345211,483,1022,539,-752.5,-28,780.5
1.50091782744844,488,1020,532,-754,-22,776
1.50307742144477,491,1022,531,-756.5,-20,776.5
1.5052370154411,494,1020,526,-757,-16,773
1.50739660943743,491,1021,530,-756,-19.5,775.5
1.50955620343375,482,1021,539,-751.5,-28.5,780
1.51171579743008,474,1022,548,-748,-37,785
1.51387539142641,473,1021,548,-747,-37.5,784.5
1.51603498542274,478,1021,543,-749.5,-32.5,782
1.51819457941907,487,1020,533,-753.5,-23,776.5
1.5203541734154,492,1023,531,-757.5,-19.5,777
1.52251376741173,495,1021,526,-758,-15.5,773.5
1.52467336140806,496,1021,525,-758.5,-14.5,773
1.52683295540438,495,1021,526,-758,-15.5,773.5
1.52899254940071,492,1021,529,-756.5,-18.5,775
1.53115214339704,490,1020,530,-755,-20,775
1.53331173739337,485,1021,536,-753,-25.5,778.5
1.5354713313897,488,1021,533,-754.5,-22.5,777
1.53763092538603,493,1021,528,-757,-17.5,774.5
1.53979051938236,494,1022,528,-758,-17,775
1.54195011337868,492,1021,529,-756.5,-18.5,775
1.54410970737501,496,1021,525,-758.5,-14.5,773
1.54626930137134,495,1022,527,-758.5,-16,774.5
1.54842889536767,490,1021,531,-755.5,-20.5,776
1.550588489364,488,1021,533,-754.5,-22.5,777
1.55274808336033,486,1022,536,-754,-25,779
1.55490767735666,485,1023,538,-754,-26.5,780.5
1.55706727135299,488,1023,535,-755.5,-23.5,779
1.55922686534931,490,1021,531,-755.5,-20.5,776
1.56138645934564,490,1021,531,-755.5,-20.5,776
1.56354605334197,493,1021,528,-757,-17.5,774.5
1.5657056473383,497,1021,524,-759,-13.5,772.5
1.56786524133463,498,1022,524,-760,-13,773
1.57002483533096,500,1020,520,-760,-10,770
1.57218442932729,504,1023,519,-763.5,-7.5,771
1.57434402332362,502,1021,519,-761.5,-8.5,770
1.57650361731994,501,1022,521,-761.5,-10,771.5
1.57866321131627,500,1022,522,-761,-11,772
1.5808228053126,498,1022,524,-760,-13,773
1.58298239930893,499,1022,523,-760.5,-12,772.5
1.58514199330526,494,1023,529,-758.5,-17.5,776
1.58730158730159,495,1022,527,-758.5,-16,774.5
1.58946118129792,500,1023,523,-761.5,-11.5,773
1.59162077529424,504,1023,519,-763.5,-7.5,771
1.59378036929057,505,1022,517,-763.5,-6,769.5
1.5959399632869,507,1021,514,-764,-3.5,767.5
1.59809955728323,508,1023,515,-765.5,-3.5,769
1.60025915127956,507,1020,513,-763.5,-3,766.5
1.60241874527589,507,1020,513,-763.5,-3,766.5
1.60457833927222,506,1021,515,-763.5,-4.5,768
1.60673793326855,504,1021,517,-762.5,-6.5,769
1.60889752726487,503,1021,518,-762,-7.5,769.5
1.6110571212612,508,1020,512,-764,-2,766
1.61321671525753,512,1021,509,-766.5,1.5,765
1.61537630925386,513,1021,508,-767,2.5,764.5
1.61753590325019,517,1021,504,-769,6.5,762.5
1.61969549724652,522,1021,499,-771.5,11.5,760
1.62185509124285,521,1022,501,-771.5,10,761.5
1.62401468523918,519,1022,503,-770.5,8,762.5
1.6261742792355,521,1020,499,-770.5,11,759.5
1.62833387323183,517,1022,505,-769.5,6,763.5
1.63049346722816,517,1021,504,-769,6.5,762.5
1.63265306122449,517,1021,504,-769,6.5,762.5
1.63481265522082,519,1021,502,-770,8.5,761.5
1.63697224921715,524,1020,496,-772,14,758
1.63913184321348,531,1022,491,-776.5,20,756.5
1.6412914372098,532,1023,491,-777.5,20.5,757
1.64345103120613,532,1021,489,-776.5,21.5,755
1.64561062520246,531,1022,491,-776.5,20,756.5
1.64777021919879,528,1022,494,-775,17,758
1.64992981319512,525,1022,497,-773.5,14,759.5
1.65208940719145,527,1021,494,-774,16.5,757.5
1.65424900118778,534,1022,488,-778,23,755
1.65640859518411,534,1023,489,-778.5,22.5,756
1.65856818918043,530,1021,491,-775.5,19.5,756
1.66072778317676,526,1021,495,-773.5,15.5,758
1.66288737717309,522,1023,501,-772.5,10.5,762
1.66504697116942,524,1021,497,-772.5,13.5,759
1.66720656516575,528,1020,492,-774,18,756
1.66936615916208,529,1021,492,-775,18.5,756.5
1.67152575315841,532,1021,489,-776.5,21.5,755
1.67368534715473,533,1023,490,-778,21.5,756.5
1.67584494115106,532,1022,490,-777,21,756
1.67800453514739,533,1021,488,-777,22.5,754.5
1.68016412914372,529,1021,492,-775,18.5,756.5
1.68232372314005,525,1020,495,-772.5,15,757.5
1.68448331713638,525,1023,498,-774,13.5,760.5
1.68664291113271,524,1021,497,-772.5,13.5,759
1.68880250512904,522,1021,499,-771.5,11.5,760
1.69096209912536,521,1023,502,-772,9.5,762.5
1.69312169312169,524,1023,499,-773.5,12.5,761
1.69528128711802,533,1019,486,-776,23.5,752.5
1.69744088111435,536,1023,487,-779.5,24.5,755
1.69960047511068,540,1021,481,-780.5,29.5,751
1.70176006910701,541,1021,480,-781,30.5,750.5
1.70391966310334,533,1020,487,-776.5,23,753.5
1.70607925709967,527,1020,493,-773.5,17,756.5
1.70823885109599,519,1021,502,-770,8.5,761.5
1.71039844509232,520,1023,503,-771.5,8.5,763
1.71255803908865,520,1021,501,-770.5,9.5,761
1.71471763308498,518,1021,503,-769.5,7.5,762
1.71687722708131,514,1022,508,-768,3,765
1.71903682107764,511,1022,511,-766.5,0,766.5
1.72119641507397,506,1021,515,-763.5,-4.5,768
1.72335600907029,505,1021,516,-763,-5.5,768.5
1.72551560306662,507,1022,515,-764.5,-4,768.5
1.72767519706295,509,1021,512,-765,-1.5,766.5
1.72983479105928,505,1021,516,-763,-5.5,768.5
1.73199438505561,498,1021,523,-759.5,-12.5,772
1.73415397905194,493,1021,528,-757,-17.5,774.5
1.73631357304827,493,1023,530,-758,-18.5,776.5
1.7384731670446,490,1022,532,-756,-21,777
1.74063276104092,491,1021,530,-756,-19.5,775.5
1.74279235503725,490,1021,531,-755.5,-20.5,776
1.74495194903358,489,1021,532,-755,-21.5,776.5
1.74711154302991,489,1022,533,-755.5,-22,777.5
1.74927113702624,487,1021,534,-754,-23.5,777.5
1.75143073102257,483,1023,540,-753,-28.5,781.5
1.7535903250189,481,1020,539,-750.5,-29,779.5
1.75574991901523,478,1022,544,-750,-33,783
1.75790951301155,482,1021,539,-751.5,-28.5,780
1.76006910700788,491,1022,531,-756.5,-20,776.5
1.76222870100421,495,1021,526,-758,-15.5,773.5
1.76438829500054,494,1021,527,-757.5,-16.5,774
1.76654788899687,491,1022,531,-756.5,-20,776.5
1.7687074829932,487,1021,534,-754,-23.5,777.5
1.77086707698953,484,1020,536,-752,-26,778
1.77302667098585,484,1022,538,-753,-27,780
1.77518626498218,481,1022,541,-751.5,-30,781.5
1.77734585897851,477,1022,545,-749.5,-34,783.5
1.77950545297484,476,1022,546,-749,-35,784
1.78166504697117,480,1022,542,-751,-31,782
1.7838246409675,487,1022,535,-754.5,-24,778.5
1.78598423496383,490,1022,532,-756,-21,777
1.78814382896016,494,1022,528,-758,-17,775
1.79030342295648,495,1022,527,-758.5,-16,774.5
1.79246301695281,495,1021,526,-758,-15.5,773.5
1.79462261094914,496,1022,526,-759,-15,774
1.79678220494547,494,1023,529,-758.5,-17.5,776
1.7989417989418,491,1021,530,-756,-19.5,775.5
1.80110139293813,492,1021,529,-756.5,-18.5,775
1.80326098693446,496,1021,525,-758.5,-14.5,773
1.80542058093079,496,1020,524,-758,-14,772
1.80758017492711,494,1022,528,-758,-17,775
1.80973976892344,492,1020,528,-756,-18,774
1.81189936291977,490,1021,531,-755.5,-20.5,776
1.8140589569161,492,1020,528,-756,-18,774
1.81621855091243,494,1023,529,-758.5,-17.5,776
1.81837814490876,496,1019,523,-757.5,-13.5,771
1.82053773890509,497,1021,524,-759,-13.5,772.5
1.82269733290141,495,1020,525,-757.5,-15,772.5
1.82485692689774,490,1021,531,-755.5,-20.5,776
1.82701652089407,484,1022,538,-753,-27,780
1.8291761148904,480,1023,543,-751.5,-31.5,783
1.83133570888673,480,1021,541,-750.5,-30.5,781
1.83349530288306,479,1021,542,-750,-31.5,781.5
1.83565489687939,481,1020,539,-750.5,-29,779.5
1.83781449087572,483,1022,539,-752.5,-28,780.5
1.83997408487204,485,1021,536,-753,-25.5,778.5
1.84213367886837,487,1022,535,-754.5,-24,778.5
1.8442932728647,494,1022,528,-758,-17,775
1.84645286686103,496,1022,526,-759,-15,774
1.84861246085736,503,1023,520,-763,-8.5,771.5
1.85077205485369,503,1022,519,-762.5,-8,770.5
1.85293164885002,502,1022,520,-762,-9,771
1.85509124284634,500,1022,522,-761,-11,772
1.85725083684267,498,1023,525,-760.5,-13.5,774
1.859410430839,495,1021,526,-758,-15.5,773.5
1.86157002483533,492,1023,531,-757.5,-19.5,777
1.86372961883166,493,1019,526,-756,-16.5,772.5
1.86588921282799,490,1021,531,-755.5,-20.5,776
1.86804880682432,489,1022,533,-755.5,-22,777.5
1.87020840082065,491,1021,530,-756,-19.5,775.5
1.87236799481697,492,1020,528,-756,-18,774
1.8745275888133,491,1021,530,-756,-19.5,775.5
1.87668718280963,493,1020,527,-756.5,-17,773.5
1.87884677680596,493,1023,530,-758,-18.5,776.5
1.88100637080229,499,1023,524,-761,-12.5,773.5
1.88316596479862,503,1022,519,-762.5,-8,770.5
1.88532555879495,503,1021,518,-762,-7.5,769.5
1.88748515279128,502,1020,518,-761,-8,769
1.8896447467876,508,1021,513,-764.5,-2.5,767
1.89180434078393,511,1021,510,-766,0.5,765.5
1.89396393478026,515,1021,506,-768,4.5,763.5
1.89612352877659,513,1021,508,-767,2.5,764.5
1.89828312277292,510,1018,508,-764,1,763
1.90044271676925,506,1020,514,-763,-4,767
1.90260231076558,504,1023,519,-763.5,-7.5,771
1.9047619047619,504,1022,518,-763,-7,770
1.90692149875823,504,1021,517,-762.5,-6.5,769
1.90908109275456,500,1022,522,-761,-11,772
1.91124068675089,497,1019,522,-758,-12.5,770.5
1.91340028074722,493,1023,530,-758,-18.5,776.5
1.91555987474355,494,1022,528,-758,-17,775
1.91771946873988,499,1022,523,-760.5,-12,772.5
1.91987906273621,506,1022,516,-764,-5,769
1.92203865673253,511,1022,511,-766.5,0,766.5
1.92419825072886,517,1021,504,-769,6.5,762.5
1.92635784472519,516,1021,505,-768.5,5.5,763
1.92851743872152,516,1023,507,-769.5,4.5,765
1.93067703271785,517,1021,504,-769,6.5,762.5
1.93283662671418,517,1021,504,-769,6.5,762.5
1.93499622071051,516,1021,505,-768.5,5.5,763
1.93715581470684,516,1021,505,-768.5,5.5,763
1.93931540870316,515,1022,507,-768.5,4,764.5
1.94147500269949,513,1022,509,-767.5,2,765.5
1.94363459669582,508,1023,515,-765.5,-3.5,769
1.94579419069215,505,1021,516,-763,-5.5,768.5
1.94795378468848,501,1021,520,-761,-9.5,770.5
1.95011337868481,497,1022,525,-759.5,-14,773.5
1.95227297268114,501,1022,521,-761.5,-10,771.5
1.95443256667746,507,1020,513,-763.5,-3,766.5
1.95659216067379,501,1021,520,-761,-9.5,770.5
1.95875175467012,499,1020,521,-759.5,-11,770.5
1.96091134866645,500,1022,522,-761,-11,772
1.96307094266278,508,1021,513,-764.5,-2.5,767
1.96523053665911,512,1022,510,-767,1,766
1.96739013065544,510,1020,510,-765,0,765
1.96954972465177,505,1020,515,-762.5,-5,767.5
1.97170931864809,503,1023,520,-763,-8.5,771.5
1.97386891264442,499,1023,524,-761,-12.5,773.5
1.97602850664075,495,1021,526,-758,-15.5,773.5
1.97818810063708,494,1021,527,-757.5,-16.5,774
1.98034769463341,494,1022,528,-758,-17,775
1.98250728862974,492,1022,530,-757,-19,776
1.98466688262607,491,1021,530,-756,-19.5,775.5
1.98682647662239,488,1021,533,-754.5,-22.5,777
1.98898607061872,488,1022,534,-755,-23,778
1.99114566461505,489,1020,531,-754.5,-21,775.5
1.99330525861138,490,1022,532,-756,-21,777
1.99546485260771,490,1021,531,-755.5,-20.5,776
1.99762444660404,494,1023,529,-758.5,-17.5,776
1.99978404060037,487,1022,535,-754.5,-24,778.5
2.0019436345967,479,1021,542,-750,-31.5,781.5
2.00410322859302,472,1022,550,-747,-39,786
2.00626282258935,473,1021,548,-747,-37.5,784.5
2.00842241658568,476,1021,545,-748.5,-34.5,783
2.01058201058201,481,1022,541,-751.5,-30,781.5
2.01274160457834,487,1021,534,-754,-23.5,777.5
2.01490119857467,487,1022,535,-754.5,-24,778.5
2.017060792571,484,1023,539,-753.5,-27.5,781
2.01922038656733,479,1021,542,-750,-31.5,781.5
2.02137998056365,479,1022,543,-750.5,-32,782.5
2.02353957455998,484,1021,537,-752.5,-26.5,779
2.02569916855631,487,1021,534,-754,-23.5,777.5
2.02785876255264,491,1022,531,-756.5,-20,776.5
2.03001835654897,493,1020,527,-756.5,-17,773.5
2.0321779505453,495,1020,525,-757.5,-15,772.5
2.03433754454163,494,1019,525,-756.5,-15.5,772
2.03649713853795,492,1022,530,-757,-19,776
2.03865673253428,489,1023,534,-756,-22.5,778.5
2.04081632653061,484,1020,536,-752,-26,778
2.04297592052694,484,1022,538,-753,-27,780
2.04513551452327,482,1022,540,-752,-29,781
2.0472951085196,489,1023,534,-756,-22.5,778.5
2.04945470251593,501,1022,521,-761.5,-10,771.5
2.05161429651226,515,1022,507,-768.5,4,764.5
2.05377389050858,534,1021,487,-777.5,23.5,754
2.05593348450491,554,1022,468,-788,43,745
2.05809307850124,577,1020,443,-798.5,67,731.5
2.06025267249757,596,1021,425,-808.5,85.5,723
2.0624122664939,615,1022,407,-818.5,104,714.5
2.06457186049023,633,1021,388,-827,122.5,704.5
2.06673145448656,647,1021,374,-834,136.5,697.5
2.06889104848289,654,1020,366,-837,144,693
2.07105064247921,645,1022,377,-833.5,134,699.5
2.07321023647554,630,1022,392,-826,119,707
2.07536983047187,610,1022,412,-816,99,717
2.0775294244682,586,1022,436,-804,75,729
2.07968901846453,565,1021,456,-793,54.5,738.5
2.08184861246086,542,1022,480,-782,31,751
2.08400820645719,523,1023,500,-773,11.5,761.5
2.08616780045351,503,1021,518,-762,-7.5,769.5
2.08832739444984,493,1021,528,-757,-17.5,774.5
2.09048698844617,486,1021,535,-753.5,-24.5,778
2.0926465824425,487,1020,533,-753.5,-23,776.5
2.09480617643883,484,1021,537,-752.5,-26.5,779
2.09696577043516,484,1023,539,-753.5,-27.5,781
2.09912536443149,488,1023,535,-755.5,-23.5,779
2.10128495842782,494,1021,527,-757.5,-16.5,774
2.10344455242414,497,1022,525,-759.5,-14,773.5
2.10560414642047,500,1022,522,-761,-11,772
2.1077637404168,499,1022,523,-760.5,-12,772.5
2.10992333441313,494,1023,529,-758.5,-17.5,776
2.11208292840946,491,1023,532,-757,-20.5,777.5
2.11424252240579,486,1021,535,-753.5,-24.5,778
2.11640211640212,487,1021,534,-754,-23.5,777.5
2.11856171039845,490,1023,533,-756.5,-21.5,778
2.12072130439477,491,1022,531,-756.5,-20,776.5
2.1228808983911,493,1021,528,-757,-17.5,774.5
2.12504049238743,493,1023,530,-758,-18.5,776.5
2.12720008638376,492,1023,531,-757.5,-19.5,777
2.12935968038009,491,1021,530,-756,-19.5,775.5
2.13151927437642,491,1022,531,-756.5,-20,776.5
2.13367886837275,490,1023,533,-756.5,-21.5,778
2.13583846236907,486,1020,534,-753,-24,777
2.1379980563654,484,1022,538,-753,-27,780
2.14015765036173,487,1022,535,-754.5,-24,778.5
2.14231724435806,489,1021,532,-755,-21.5,776.5
2.14447683835439,488,1022,534,-755,-23,778
2.14663643235072,485,1021,536,-753,-25.5,778.5
2.14879602634705,488,1021,533,-754.5,-22.5,777
2.15095562034338,489,1022,533,-755.5,-22,777.5
2.1531152143397,490,1022,532,-756,-21,777
2.15527480833603,491,1021,530,-756,-19.5,775.5
2.15743440233236,489,1021,532,-755,-21.5,776.5
2.15959399632869,489,1023,534,-756,-22.5,778.5
2.16175359032502,489,1022,533,-755.5,-22,777.5
2.16391318432135,486,1020,534,-753,-24,777
2.16607277831768,488,1022,534,-755,-23,778
2.16823237231401,489,1022,533,-755.5,-22,777.5
2.17039196631033,495,1022,527,-758.5,-16,774.5
2.17255156030666,495,1019,524,-757,-14.5,771.5
2.17471115430299,492,1021,529,-756.5,-18.5,775
2.17687074829932,498,1023,525,-760.5,-13.5,774
2.17903034229565,501,1021,520,-761,-9.5,770.5
2.18118993629198,501,1021,520,-761,-9.5,770.5
2.18334953028831,498,1023,525,-760.5,-13.5,774
2.18550912428463,498,1022,524,-760,-13,773
2.18766871828096,500,1022,522,-761,-11,772
2.18982831227729,499,1022,523,-760.5,-12,772.5
2.19198790627362,494,1021,527,-757.5,-16.5,774
2.19414750026995,492,1022,530,-757,-19,776
2.19630709426628,496,1021,525,-758.5,-14.5,773
2.19846668826261,501,1022,521,-761.5,-10,771.5
2.20062628225894,507,1021,514,-764,-3.5,767.5
2.20278587625526,511,1023,512,-767,-0.5,767.5
2.20494547025159,516,1021,505,-768.5,5.5,763
2.20710506424792,511,1021,510,-766,0.5,765.5
2.20926465824425,511,1019,508,-765,1.5,763.5
2.21142425224058,508,1022,514,-765,-3,768
2.21358384623691,507,1022,515,-764.5,-4,768.5
2.21574344023324,508,1020,512,-764,-2,766
2.21790303422956,510,1021,511,-765.5,-0.5,766
2.22006262822589,512,1021,509,-766.5,1.5,765
2.22222222222222,515,1022,507,-768.5,4,764.5
2.22438181621855,518,1020,502,-769,8,761
2.22654141021488,512,1021,509,-766.5,1.5,765
2.22870100421121,508,1020,512,-764,-2,766
2.23086059820754,504,1021,517,-762.5,-6.5,769
2.23302019220387,506,1020,514,-763,-4,767
2.23517978620019,510,1023,513,-766.5,-1.5,768
2.23733938019652,511,1022,511,-766.5,0,766.5
2.23949897419285,517,1023,506,-770,5.5,764.5
2.24165856818918,517,1021,504,-769,6.5,762.5
2.24381816218551,520,1022,502,-771,9,762
2.24597775618184,523,1023,500,-773,11.5,761.5
2.24813735017817,524,1021,497,-772.5,13.5,759
2.2502969441745,523,1022,499,-772.5,12,760.5
2.25245653817082,523,1021,498,-772,12.5,759.5
2.25461613216715,523,1021,498,-772,12.5,759.5
2.25677572616348,520,1020,500,-770,10,760
2.25893532015981,521,1022,501,-771.5,10,761.5
2.26109491415614,521,1021,500,-771,10.5,760.5
2.26325450815247,524,1021,497,-772.5,13.5,759
2.2654141021488,529,1021,492,-775,18.5,756.5
2.26757369614512,532,1021,489,-776.5,21.5,755
2.26973329014145,535,1021,486,-778,24.5,753.5
2.27189288413778,535,1021,486,-778,24.5,753.5
2.27405247813411,532,1021,489,-776.5,21.5,755
2.27621207213044,533,1021,488,-777,22.5,754.5
2.27837166612677,529,1022,493,-775.5,18,757.5
2.2805312601231,528,1021,493,-774.5,17.5,757
2.28269085411943,526,1021,495,-773.5,15.5,758
2.28485044811575,524,1022,498,-773,13,760
2.28701004211208,525,1021,496,-773,14.5,758.5
2.28916963610841,530,1022,492,-776,19,757
2.29132923010474,536,1021,485,-778.5,25.5,753
2.29348882410107,534,1022,488,-778,23,755
2.2956484180974,532,1021,489,-776.5,21.5,755
2.29780801209373,530,1022,492,-776,19,757
2.29996760609006,526,1022,496,-774,15,759
2.30212720008638,527,1022,495,-774.5,16,758.5
2.30428679408271,529,1021,492,-775,18.5,756.5
2.30644638807904,531,1021,490,-776,20.5,755.5
2.30860598207537,532,1021,489,-776.5,21.5,755
2.3107655760717,533,1020,487,-776.5,23,753.5
2.31292517006803,531,1022,491,-776.5,20,756.5
2.31508476406436,531,1022,491,-776.5,20,756.5
2.31724435806068,534,1021,487,-777.5,23.5,754
2.31940395205701,534,1020,486,-777,24,753
2.32156354605334,530,1021,491,-775.5,19.5,756
2.32372314004967,524,1023,499,-773.5,12.5,761
2.325882734046,522,1021,499,-771.5,11.5,760
2.32804232804233,516,1021,505,-768.5,5.5,763
2.33020192203866,512,1021,509,-766.5,1.5,765
2.33236151603499,511,1021,510,-766,0.5,765.5
2.33452111003131,511,1021,510,-766,0.5,765.5
2.33668070402764,508,1021,513,-764.5,-2.5,767
2.33884029802397,503,1021,518,-762,-7.5,769.5
2.3409998920203,501,1022,521,-761.5,-10,771.5
2.34315948601663,494,1021,527,-757.5,-16.5,774
2.34531908001296,490,1022,532,-756,-21,777
2.34747867400929,490,1022,532,-756,-21,777
2.34963826800561,488,1020,532,-754,-22,776
2.35179786200194,488,1021,533,-754.5,-22.5,777
2.35395745599827,490,1021,531,-755.5,-20.5,776
2.3561170499946,490,1022,532,-756,-21,777
2.35827664399093,490,1022,532,-756,-21,777
2.36043623798726,491,1021,530,-756,-19.5,775.5
2.36259583198359,492,1023,531,-757.5,-19.5,777
2.36475542597992,494,1021,527,-757.5,-16.5,774
2.36691501997624,489,1022,533,-755.5,-22,777.5
2.36907461397257,484,1022,538,-753,-27,780
2.3712342079689,480,1023,543,-751.5,-31.5,783
2.37339380196523,477,1022,545,-749.5,-34,783.5
2.37555339596156,478,1022,544,-750,-33,783
2.37771298995789,483,1021,538,-752,-27.5,779.5
2.37987258395422,485,1021,536,-753,-25.5,778.5
2.38203217795055,486,1022,536,-754,-25,779
2.38419177194687,479,1021,542,-750,-31.5,781.5
2.3863513659432,478,1023,545,-750.5,-33.5,784
2.38851095993953,482,1022,540,-752,-29,781
2.39067055393586,493,1022,529,-757.5,-18,775.5
2.39283014793219,501,1021,520,-761,-9.5,770.5
2.39498974192852,504,1021,517,-762.5,-6.5,769
2.39714933592485,502,1021,519,-761.5,-8.5,770
2.39930892992117,497,1021,524,-759,-13.5,772.5
2.4014685239175,488,1021,533,-754.5,-22.5,777
2.40362811791383,480,1022,542,-751,-31,782
2.40578771191016,478,1020,542,-749,-32,781
2.40794730590649,480,1022,542,-751,-31,782
2.41010689990282,485,1021,536,-753,-25.5,778.5
2.41226649389915,488,1021,533,-754.5,-22.5,777
2.41442608789548,490,1023,533,-756.5,-21.5,778
2.4165856818918,493,1021,528,-757,-17.5,774.5
2.41874527588813,493,1022,529,-757.5,-18,775.5
2.42090486988446,489,1020,531,-754.5,-21,775.5
2.42306446388079,482,1021,539,-751.5,-28.5,780
2.42522405787712,481,1023,542,-752,-30.5,782.5
2.42738365187345,489,1021,532,-755,-21.5,776.5
2.42954324586978,499,1021,522,-760,-11.5,771.5
2.43170283986611,502,1021,519,-761.5,-8.5,770
2.43386243386243,502,1022,520,-762,-9,771
2.43602202785876,500,1021,521,-760.5,-10.5,771
2.43818162185509,494,1022,528,-758,-17,775
2.44034121585142,492,1023,531,-757.5,-19.5,777
2.44250080984775,490,1021,531,-755.5,-20.5,776
2.44466040384408,486,1019,533,-752.5,-23.5,776
2.44681999784041,486,1022,536,-754,-25,779
2.44897959183673,487,1021,534,-754,-23.5,777.5
2.45113918583306,491,1021,530,-756,-19.5,775.5
2.45329877982939,495,1023,528,-759,-16.5,775.5
2.45545837382572,496,1021,525,-758.5,-14.5,773
2.45761796782205,494,1022,528,-758,-17,775
2.45977756181838,493,1022,529,-757.5,-18,775.5
2.46193715581471,493,1022,529,-757.5,-18,775.5
2.46409674981104,497,1022,525,-759.5,-14,773.5
2.46625634380736,498,1022,524,-760,-13,773
2.46841593780369,492,1021,529,-756.5,-18.5,775
2.47057553180002,485,1021,536,-753,-25.5,778.5
2.47273512579635,482,1022,540,-752,-29,781
2.47489471979268,486,1023,537,-754.5,-25.5,780
2.47705431378901,493,1021,528,-757,-17.5,774.5
2.47921390778534,494,1022,528,-758,-17,775
2.48137350178167,494,1023,529,-758.5,-17.5,776
2.48353309577799,496,1021,525,-758.5,-14.5,773
2.48569268977432,497,1021,524,-759,-13.5,772.5
2.48785228377065,499,1020,521,-759.5,-11,770.5
2.49001187776698,498,1023,525,-760.5,-13.5,774
2.49217147176331,498,1022,524,-760,-13,773
2.49433106575964,498,1022,524,-760,-13,773
2.49649065975597,496,1022,526,-759,-15,774
2.49865025375229,490,1022,532,-756,-21,777
2.50080984774862,489,1022,533,-755.5,-22,777.5
2.50296944174495,491,1021,530,-756,-19.5,775.5
2.50512903574128,499,1021,522,-760,-11.5,771.5
2.50728862973761,505,1023,518,-764,-6.5,770.5
2.50944822373394,511,1022,511,-766.5,0,766.5
2.51160781773027,511,1021,510,-766,0.5,765.5
2.5137674117266,509,1020,511,-764.5,-1,765.5
2.51592700572292,504,1020,516,-762,-6,768
2.51808659971925,498,1022,524,-760,-13,773
2.52024619371558,495,1022,527,-758.5,-16,774.5
2.52240578771191,496,1020,524,-758,-14,772
2.52456538170824,493,1021,528,-757,-17.5,774.5
2.52672497570457,497,1020,523,-758.5,-13,771.5
2.5288845697009,499,1022,523,-760.5,-12,772.5
2.53104416369722,501,1021,520,-761,-9.5,770.5
2.53320375769355,502,1021,519,-761.5,-8.5,770
2.53536335168988,502,1020,518,-761,-8,769
2.53752294568621,502,1022,520,-762,-9,771
2.53968253968254,506,1023,517,-764.5,-5.5,770
2.54184213367887,505,1020,515,-762.5,-5,767.5
2.5440017276752,500,1021,521,-760.5,-10.5,771
2.54616132167153,499,1023,524,-761,-12.5,773.5
2.54832091566785,501,1023,522,-762,-10.5,772.5
2.55048050966418,505,1022,517,-763.5,-6,769.5
2.55264010366051,507,1022,515,-764.5,-4,768.5
2.55479969765684,510,1020,510,-765,0,765
2.55695929165317,511,1021,510,-766,0.5,765.5
2.5591188856495,509,1021,512,-765,-1.5,766.5
2.56127847964583,508,1020,512,-764,-2,766
2.56343807364216,506,1020,514,-763,-4,767
2.56559766763848,509,1023,514,-766,-2.5,768.5
2.56775726163481,508,1023,515,-765.5,-3.5,769
2.56991685563114,506,1023,517,-764.5,-5.5,770
2.57207644962747,507,1023,516,-765,-4.5,769.5
2.5742360436238,512,1023,511,-767.5,0.5,767
2.57639563762013,514,1020,506,-767,4,763
2.57855523161646,514,1020,506,-767,4,763
2.58071482561278,516,1019,503,-767.5,6.5,761
2.58287441960911,516,1021,505,-768.5,5.5,763
2.58503401360544,515,1023,508,-769,3.5,765.5
2.58719360760177,514,1023,509,-768.5,2.5,766
2.5893532015981,514,1019,505,-766.5,4.5,762
2.59151279559443,508,1022,514,-765,-3,768
2.59367238959076,501,1023,522,-762,-10.5,772.5
2.59583198358709,494,1020,526,-757,-16,773
2.59799157758341,488,1021,533,-754.5,-22.5,777
2.60015117157974,488,1020,532,-754,-22,776
2.60231076557607,490,1023,533,-756.5,-21.5,778
2.6044703595724,494,1023,529,-758.5,-17.5,776
2.60662995356873,494,1021,527,-757.5,-16.5,774
2.60878954756506,493,1022,529,-757.5,-18,775.5
2.61094914156139,491,1022,531,-756.5,-20,776.5
2.61310873555772,486,1021,535,-753.5,-24.5,778
2.61526832955404,485,1021,536,-753,-25.5,778.5
2.61742792355037,480,1023,543,-751.5,-31.5,783
2.6195875175467,480,1021,541,-750.5,-30.5,781
2.62174711154303,482,1021,539,-751.5,-28.5,780
2.62390670553936,488,1022,534,-755,-23,778
2.62606629953569,495,1022,527,-758.5,-16,774.5
2.62822589353202,495,1022,527,-758.5,-16,774.5
2.63038548752834,492,1022,530,-757,-19,776
2.63254508152467,488,1023,535,-755.5,-23.5,779
2.634704675521,486,1023,537,-754.5,-25.5,780
2.63686426951733,486,1023,537,-754.5,-25.5,780
2.63902386351366,481,1023,542,-752,-30.5,782.5
2.64118345750999,475,1022,547,-748.5,-36,784.5
2.64334305150632,471,1023,552,-747,-40.5,787.5
2.64550264550265,476,1022,546,-749,-35,784
2.64766223949897,481,1021,540,-751,-29.5,780.5
2.6498218334953,493,1021,528,-757,-17.5,774.5
2.65198142749163,500,1022,522,-761,-11,772
2.65414102148796,506,1021,515,-763.5,-4.5,768
2.65630061548429,506,1023,517,-764.5,-5.5,770
2.65846020948062,500,1021,521,-760.5,-10.5,771
2.66061980347695,496,1021,525,-758.5,-14.5,773
2.66277939747327,488,1023,535,-755.5,-23.5,779
2.6649389914696,481,1021,540,-751,-29.5,780.5
2.66709858546593,478,1021,543,-749.5,-32.5,782
2.66925817946226,476,1022,546,-749,-35,784
2.67141777345859,480,1023,543,-751.5,-31.5,783
2.67357736745492,483,1023,540,-753,-28.5,781.5
2.67573696145125,484,1022,538,-753,-27,780
2.67789655544758,485,1021,536,-753,-25.5,778.5
2.6800561494439,491,1022,531,-756.5,-20,776.5
2.68221574344023,501,1022,521,-761.5,-10,771.5
2.68437533743656,517,1023,506,-770,5.5,764.5
2.68653493143289,535,1022,487,-778.5,24,754.5
2.68869452542922,554,1020,466,-787,44,743
2.69085411942555,576,1020,444,-798,66,732
2.69301371342188,599,1020,421,-809.5,89,720.5
2.69517330741821,621,1022,401,-821.5,110,711.5
2.69733290141453,639,1021,382,-830,128.5,701.5
2.69949249541086,650,1023,373,-836.5,138.5,698
2.70165208940719,652,1023,371,-837.5,140.5,697
2.70381168340352,637,1021,384,-829,126.5,702.5
2.70597127739985,615,1023,408,-819,103.5,715.5
2.70813087139618,591,1023,432,-807,79.5,727.5
2.71029046539251,565,1023,458,-794,53.5,740.5
2.71245005938883,540,1020,480,-780,30,750
2.71460965338516,518,1023,505,-770.5,6.5,764
2.71676924738149,500,1022,522,-761,-11,772
2.71892884137782,485,1022,537,-753.5,-26,779.5
2.72108843537415,478,1022,544,-750,-33,783
2.72324802937048,479,1021,542,-750,-31.5,781.5
2.72540762336681,487,1021,534,-754,-23.5,777.5
2.72756721736314,495,1020,525,-757.5,-15,772.5
2.72972681135946,497,1020,523,-758.5,-13,771.5
2.73188640535579,496,1021,525,-758.5,-14.5,773
2.73404599935212,494,1022,528,-758,-17,775
2.73620559334845,494,1023,529,-758.5,-17.5,776
2.73836518734478,496,1023,527,-759.5,-15.5,775
2.74052478134111,493,1022,529,-757.5,-18,775.5
2.74268437533744,490,1020,530,-755,-20,775
2.74484396933377,488,1021,533,-754.5,-22.5,777
2.74700356333009,489,1021,532,-755,-21.5,776.5
2.74916315732642,490,1022,532,-756,-21,777
2.75132275132275,489,1021,532,-755,-21.5,776.5
2.75348234531908,484,1022,538,-753,-27,780
2.75564193931541,479,1022,543,-750.5,-32,782.5
2.75780153331174,479,1023,544,-751,-32.5,783.5
2.75996112730807,480,1021,541,-750.5,-30.5,781
2.76212072130439,485,1023,538,-754,-26.5,780.5
2.76428031530072,489,1022,533,-755.5,-22,777.5
2.76643990929705,496,1020,524,-758,-14,772
2.76859950329338,499,1021,522,-760,-11.5,771.5
2.77075909728971,497,1021,524,-759,-13.5,772.5
2.77291869128604,493,1021,528,-757,-17.5,774.5
2.77507828528237,492,1022,530,-757,-19,776
2.7772378792787,489,1023,534,-756,-22.5,778.5
2.77939747327502,487,1021,534,-754,-23.5,777.5
2.78155706727135,487,1023,536,-755,-24.5,779.5
2.78371666126768,483,1022,539,-752.5,-28,780.5
2.78587625526401,483,1022,539,-752.5,-28,780.5
2.78803584926034,486,1022,536,-754,-25,779
2.79019544325667,490,1023,533,-756.5,-21.5,778
2.792355037253,493,1019,526,-756,-16.5,772.5
2.79451463124933,493,1022,529,-757.5,-18,775.5
2.79667422524565,491,1020,529,-755.5,-19,774.5
2.79883381924198,490,1021,531,-755.5,-20.5,776
2.80099341323831,490,1022,532,-756,-21,777
2.80315300723464,494,1020,526,-757,-16,773
2.80531260123097,494,1022,528,-758,-17,775
2.8074721952273,494,1020,526,-757,-16,773
2.80963178922363,491,1021,530,-756,-19.5,775.5
2.81179138321995,494,1019,525,-756.5,-15.5,772
2.81395097721628,498,1022,524,-760,-13,773
2.81611057121261,505,1023,518,-764,-6.5,770.5
2.81827016520894,506,1020,514,-763,-4,767
2.82042975920527,505,1021,516,-763,-5.5,768.5
2.8225893532016,502,1023,521,-762.5,-9.5,772
2.82474894719793,500,1021,521,-760.5,-10.5,771
2.82690854119426,498,1021,523,-759.5,-12.5,772
2.82906813519058,498,1022,524,-760,-13,773
2.83122772918691,497,1022,525,-759.5,-14,773.5
2.83338732318324,496,1021,525,-758.5,-14.5,773
2.83554691717957,499,1022,523,-760.5,-12,772.5
2.8377065111759,500,1022,522,-761,-11,772
2.83986610517223,503,1022,519,-762.5,-8,770.5
2.84202569916856,504,1020,516,-762,-6,768
2.84418529316488,508,1020,512,-764,-2,766
2.84634488716121,510,1021,511,-765.5,-0.5,766
2.84850448115754,512,1020,508,-766,2,764
2.85066407515387,514,1022,508,-768,3,765
2.8528236691502,514,1021,507,-767.5,3.5,764
2.85498326314653,514,1021,507,-767.5,3.5,764
2.85714285714286,514,1020,506,-767,4,763
2.85930245113919,512,1021,509,-766.5,1.5,765
2.86146204513551,511,1021,510,-766,0.5,765.5
2.86362163913184,510,1021,511,-765.5,-0.5,766
2.86578123312817,508,1022,514,-765,-3,768
2.8679408271245,512,1021,509,-766.5,1.5,765
2.87010042112083,516,1023,507,-769.5,4.5,765
2.87226001511716,518,1020,502,-769,8,761
2.87441960911349,520,1021,501,-770.5,9.5,761
2.87657920310982,518,1023,505,-770.5,6.5,764
2.87873879710614,515,1023,508,-769,3.5,765.5
2.88089839110247,514,1021,507,-767.5,3.5,764
2.8830579850988,512,1022,510,-767,1,766
2.88521757909513,515,1023,508,-769,3.5,765.5
2.88737717309146,521,1023,502,-772,9.5,762.5
2.88953676708779,526,1021,495,-773.5,15.5,758
2.89169636108412,530,1022,492,-776,19,757
2.89385595508044,533,1021,488,-777,22.5,754.5
2.89601554907677,533,1023,490,-778,21.5,756.5
2.8981751430731,533,1022,489,-777.5,22,755.5
2.90033473706943,528,1022,494,-775,17,758
2.90249433106576,523,1021,498,-772,12.5,759.5
2.90465392506209,522,1021,499,-771.5,11.5,760
2.90681351905842,523,1022,499,-772.5,12,760.5
2.90897311305475,524,1021,497,-772.5,13.5,759
2.91113270705107,528,1020,492,-774,18,756
2.9132923010474,530,1023,493,-776.5,18.5,758
2.91545189504373,534,1023,489,-778.5,22.5,756
2.91761148904006,536,1020,484,-778,26,752
2.91977108303639,533,1021,488,-777,22.5,754.5
2.92193067703272,529,1020,491,-774.5,19,755.5
2.92409027102905,526,1022,496,-774,15,759
2.92624986502538,523,1022,499,-772.5,12,760.5
2.9284094590217,524,1023,499,-773.5,12.5,761
2.93056905301803,525,1021,496,-773,14.5,758.5
2.93272864701436,525,1020,495,-772.5,15,757.5
2.93488824101069,527,1021,494,-774,16.5,757.5
2.93704783500702,531,1022,491,-776.5,20,756.5
2.93920742900335,531,1022,491,-776.5,20,756.5
2.94136702299968,530,1021,491,-775.5,19.5,756
2.943526616996,526,1022,496,-774,15,759
2.94568621099233,522,1023,501,-772.5,10.5,762
2.94784580498866,520,1022,502,-771,9,762
2.95000539898499,517,1020,503,-768.5,7,761.5
2.95216499298132,516,1023,507,-769.5,4.5,765
2.95432458697765,520,1020,500,-770,10,760
2.95648418097398,527,1020,493,-773.5,17,756.5
2.95864377497031,529,1022,493,-775.5,18,757.5
2.96080336896663,526,1020,494,-773,16,757
2.96296296296296,520,1021,501,-770.5,9.5,761
2.96512255695929,519,1020,501,-769.5,9,760.5
2.96728215095562,515,1023,508,-769,3.5,765.5
2.96944174495195,512,1022,510,-767,1,766
2.97160133894828,508,1020,512,-764,-2,766
2.97376093294461,505,1022,517,-763.5,-6,769.5
2.97592052694094,509,1021,512,-765,-1.5,766.5
2.97808012093726,508,1021,513,-764.5,-2.5,767
2.98023971493359,505,1022,517,-763.5,-6,769.5
2.98239930892992,502,1022,520,-762,-9,771
2.98455890292625,495,1021,526,-758,-15.5,773.5
2.98671849692258,493,1020,527,-756.5,-17,773.5
2.98887809091891,491,1022,531,-756.5,-20,776.5
2.99103768491524,490,1021,531,-755.5,-20.5,776
2.99319727891156,490,1021,531,-755.5,-20.5,776
2.99535687290789,490,1023,533,-756.5,-21.5,778
2.99751646690422,489,1023,534,-756,-22.5,778.5
2.99967606090055,490,1021,531,-755.5,-20.5,776
3.00183565489688,492,1020,528,-756,-18,774
3.00399524889321,494,1023,529,-758.5,-17.5,776
3.00615484288954,490,1022,532,-756,-21,777
3.00831443688587,487,1021,534,-754,-23.5,777.5
3.01047403088219,487,1022,535,-754.5,-24,778.5
3.01263362487852,485,1022,537,-753.5,-26,779.5
3.01479321887485,487,1020,533,-753.5,-23,776.5
3.01695281287118,486,1021,535,-753.5,-24.5,778
3.01911240686751,485,1022,537,-753.5,-26,779.5
3.02127200086384,487,1020,533,-753.5,-23,776.5
3.02343159486017,483,1021,538,-752,-27.5,779.5
3.02559118885649,479,1021,542,-750,-31.5,781.5
3.02775078285282,478,1022,544,-750,-33,783
3.02991037684915,477,1022,545,-749.5,-34,783.5
3.03206997084548,479,1021,542,-750,-31.5,781.5
3.03422956484181,482,1020,538,-751,-28,779
3.03638915883814,483,1021,538,-752,-27.5,779.5
3.03854875283447,482,1022,540,-752,-29,781
3.0407083468308,481,1021,540,-751,-29.5,780.5
3.04286794082712,484,1023,539,-753.5,-27.5,781
3.04502753482345,489,1021,532,-755,-21.5,776.5
3.04718712881978,492,1023,531,-757.5,-19.5,777
3.04934672281611,490,1023,533,-756.5,-21.5,778
3.05150631681244,489,1021,532,-755,-21.5,776.5
3.05366591080877,494,1022,528,-758,-17,775
3.0558255048051,495,1020,525,-757.5,-15,772.5
3.05798509880143,493,1021,528,-757,-17.5,774.5
3.06014469279775,490,1021,531,-755.5,-20.5,776
3.06230428679408,489,1021,532,-755,-21.5,776.5
3.06446388079041,491,1022,531,-756.5,-20,776.5
3.06662347478674,495,1021,526,-758,-15.5,773.5
3.06878306878307,499,1022,523,-760.5,-12,772.5
3.0709426627794,499,1021,522,-760,-11.5,771.5
3.07310225677573,500,1021,521,-760.5,-10.5,771
3.07526185077205,495,1022,527,-758.5,-16,774.5
3.07742144476838,495,1023,528,-759,-16.5,775.5
3.07958103876471,489,1021,532,-755,-21.5,776.5
3.08174063276104,482,1022,540,-752,-29,781
3.08390022675737,481,1022,541,-751.5,-30,781.5
3.0860598207537,488,1021,533,-754.5,-22.5,777
3.08821941475003,490,1020,530,-755,-20,775
3.09037900874636,491,1023,532,-757,-20.5,777.5
3.09253860274268,493,1022,529,-757.5,-18,775.5
3.09469819673901,498,1023,525,-760.5,-13.5,774
3.09685779073534,504,1019,515,-761.5,-5.5,767
3.09901738473167,500,1022,522,-761,-11,772
3.101176978728,492,1021,529,-756.5,-18.5,775
3.10333657272433,486,1022,536,-754,-25,779
3.10549616672066,485,1023,538,-754,-26.5,780.5
3.10765576071699,489,1021,532,-755,-21.5,776.5
3.10981535471331,496,1022,526,-759,-15,774
3.11197494870964,501,1023,522,-762,-10.5,772.5
3.11413454270597,502,1019,517,-760.5,-7.5,768
3.1162941367023,500,1021,521,-760.5,-10.5,771
3.11845373069863,499,1020,521,-759.5,-11,770.5
3.12061332469496,494,1023,529,-758.5,-17.5,776
3.12277291869129,493,1022,529,-757.5,-18,775.5
3.12493251268761,496,1022,526,-759,-15,774
3.12709210668394,498,1023,525,-760.5,-13.5,774
3.12925170068027,497,1023,526,-760,-14.5,774.5
3.1314112946766,494,1023,529,-758.5,-17.5,776
3.13357088867293,492,1022,530,-757,-19,776
3.13573048266926,491,1023,532,-757,-20.5,777.5
3.13789007666559,492,1021,529,-756.5,-18.5,775
3.14004967066192,492,1023,531,-757.5,-19.5,777
3.14220926465824,496,1021,525,-758.5,-14.5,773
3.14436885865457,497,1020,523,-758.5,-13,771.5
3.1465284526509,496,1022,526,-759,-15,774
3.14868804664723,496,1019,523,-757.5,-13.5,771
3.15084764064356,494,1020,526,-757,-16,773
3.15300723463989,491,1022,531,-756.5,-20,776.5
3.15516682863622,491,1023,532,-757,-20.5,777.5
3.15732642263254,495,1021,526,-758,-15.5,773.5
3.15948601662887,500,1020,520,-760,-10,770
3.1616456106252,503,1021,518,-762,-7.5,769.5
3.16380520462153,504,1020,516,-762,-6,768
3.16596479861786,502,1021,519,-761.5,-8.5,770
3.16812439261419,504,1021,517,-762.5,-6.5,769
3.17028398661052,507,1023,516,-765,-4.5,769.5
3.17244358060685,506,1022,516,-764,-5,769
3.17460317460317,508,1020,512,-764,-2,766
3.1767627685995,508,1021,513,-764.5,-2.5,767
3.17892236259583,509,1022,513,-765.5,-2,767.5
3.18108195659216,503,1022,519,-762.5,-8,770.5
3.18324155058849,504,1023,519,-763.5,-7.5,771
3.18540114458482,503,1021,518,-762,-7.5,769.5
3.18756073858115,504,1022,518,-763,-7,770
3.18972033257748,503,1020,517,-761.5,-7,768.5
3.1918799265738,503,1020,517,-761.5,-7,768.5
3.19403952057013,502,1023,521,-762.5,-9.5,772
3.19619911456646,506,1022,516,-764,-5,769
3.19835870856279,509,1022,513,-765.5,-2,767.5
3.20051830255912,513,1022,509,-767.5,2,765.5
3.20267789655545,514,1020,506,-767,4,763
3.20483749055178,514,1022,508,-768,3,765
3.2069970845481,514,1022,508,-768,3,765
3.20915667854443,514,1022,508,-768,3,765
3.21131627254076,515,1023,508,-769,3.5,765.5
3.21347586653709,510,1020,510,-765,0,765
3.21563546053342,510,1020,510,-765,0,765
3.21779505452975,511,1023,512,-767,-0.5,767.5
3.21995464852608,509,1023,514,-766,-2.5,768.5
3.22211424252241,509,1022,513,-765.5,-2,767.5
3.22427383651873,509,1021,512,-765,-1.5,766.5
3.22643343051506,509,1021,512,-765,-1.5,766.5
3.22859302451139,508,1022,514,-765,-3,768
3.23075261850772,507,1022,515,-764.5,-4,768.5
3.23291221250405,504,1020,516,-762,-6,768
3.23507180650038,495,1022,527,-758.5,-16,774.5
3.23723140049671,489,1020,531,-754.5,-21,775.5
3.23939099449304,491,1022,531,-756.5,-20,776.5
3.24155058848936,498,1022,524,-760,-13,773
3.24371018248569,502,1022,520,-762,-9,771
3.24586977648202,504,1021,517,-762.5,-6.5,769
3.24802937047835,503,1022,519,-762.5,-8,770.5
3.25018896447468,498,1021,523,-759.5,-12.5,772
3.25234855847101,494,1022,528,-758,-17,775
3.25450815246734,496,1022,526,-759,-15,774
3.25666774646366,497,1021,524,-759,-13.5,772.5
3.25882734045999,497,1021,524,-759,-13.5,772.5
3.26098693445632,495,1022,527,-758.5,-16,774.5
3.26314652845265,492,1021,529,-756.5,-18.5,775
3.26530612244898,491,1021,530,-756,-19.5,775.5
3.26746571644531,489,1020,531,-754.5,-21,775.5
3.26962531044164,493,1022,529,-757.5,-18,775.5
3.27178490443797,496,1020,524,-758,-14,772
3.27394449843429,495,1023,528,-759,-16.5,775.5
3.27610409243062,494,1020,526,-757,-16,773
3.27826368642695,495,1022,527,-758.5,-16,774.5
3.28042328042328,493,1021,528,-757,-17.5,774.5
3.28258287441961,496,1022,526,-759,-15,774
3.28474246841594,495,1023,528,-759,-16.5,775.5
3.28690206241227,488,1022,534,-755,-23,778
3.2890616564086,480,1023,543,-751.5,-31.5,783
3.29122125040492,478,1021,543,-749.5,-32.5,782
3.29338084440125,484,1022,538,-753,-27,780
3.29554043839758,490,1022,532,-756,-21,777
3.29770003239391,493,1021,528,-757,-17.5,774.5
3.29985962639024,495,1022,527,-758.5,-16,774.5
3.30201922038657,496,1023,527,-759.5,-15.5,775
3.3041788143829,496,1020,524,-758,-14,772
3.30633840837922,494,1021,527,-757.5,-16.5,774
3.30849800237555,492,1023,531,-757.5,-19.5,777
3.31065759637188,491,1020,529,-755.5,-19,774.5
3.31281719036821,486,1021,535,-753.5,-24.5,778
3.31497678436454,481,1021,540,-751,-29.5,780.5
3.31713637836087,483,1022,539,-752.5,-28,780.5
3.3192959723572,483,1023,540,-753,-28.5,781.5
3.32145556635353,484,1022,538,-753,-27,780
3.32361516034985,482,1022,540,-752,-29,781
3.32577475434618,482,1022,540,-752,-29,781
3.32793434834251,486,1022,536,-754,-25,779
3.33009394233884,495,1020,525,-757.5,-15,772.5
3.33225353633517,502,1020,518,-761,-8,769
3.3344131303315,515,1022,507,-768.5,4,764.5
3.33657272432783,536,1020,484,-778,26,752
3.33873231832415,564,1021,457,-792.5,53.5,739
3.34089191232048,595,1022,427,-808.5,84,724.5
3.34305150631681,622,1020,398,-821,112,709
3.34521110031314,639,1022,383,-830.5,128,702.5
3.34737069430947,649,1021,372,-835,138.5,696.5
3.3495302883058,649,1022,373,-835.5,138,697.5
3.35168988230213,639,1021,382,-830,128.5,701.5
3.35384947629846,624,1020,396,-822,114,708
3.35600907029478,601,1022,421,-811.5,90,721.5
3.35816866429111,574,1021,447,-797.5,63.5,734
3.36032825828744,548,1022,474,-785,37,748
3.36248785228377,528,1023,495,-775.5,16.5,759
3.3646474462801,510,1023,513,-766.5,-1.5,768
3.36680704027643,494,1022,528,-758,-17,775
3.36896663427276,486,1022,536,-754,-25,779
3.37112622826909,483,1022,539,-752.5,-28,780.5
3.37328582226541,482,1021,539,-751.5,-28.5,780
3.37544541626174,487,1020,533,-753.5,-23,776.5
3.37760501025807,493,1022,529,-757.5,-18,775.5
3.3797646042544,500,1022,522,-761,-11,772
3.38192419825073,504,1021,517,-762.5,-6.5,769
3.38408379224706,502,1022,520,-762,-9,771
3.38624338624339,497,1023,526,-760,-14.5,774.5
3.38840298023971,487,1021,534,-754,-23.5,777.5
3.39056257423604,484,1023,539,-753.5,-27.5,781
3.39272216823237,490,1022,532,-756,-21,777
3.3948817622287,490,1022,532,-756,-21,777
3.39704135622503,491,1020,529,-755.5,-19,774.5
3.39920095022136,490,1020,530,-755,-20,775
3.40136054421769,491,1019,528,-755,-18.5,773.5
3.40352013821402,492,1020,528,-756,-18,774
3.40567973221034,493,1023,530,-758,-18.5,776.5
3.40783932620667,489,1021,532,-755,-21.5,776.5
3.409998920203,490,1021,531,-755.5,-20.5,776
3.41215851419933,489,1020,531,-754.5,-21,775.5
3.41431810819566,490,1021,531,-755.5,-20.5,776
3.41647770219199,489,1021,532,-755,-21.5,776.5
3.41863729618832,487,1023,536,-755,-24.5,779.5
3.42079689018465,484,1022,538,-753,-27,780
3.42295648418097,482,1021,539,-751.5,-28.5,780
3.4251160781773,483,1022,539,-752.5,-28,780.5
3.42727567217363,489,1022,533,-755.5,-22,777.5
3.42943526616996,495,1022,527,-758.5,-16,774.5
3.43159486016629,498,1023,525,-760.5,-13.5,774
3.43375445416262,497,1023,526,-760,-14.5,774.5
3.43591404815895,495,1020,525,-757.5,-15,772.5
3.43807364215527,491,1022,531,-756.5,-20,776.5
3.4402332361516,487,1022,535,-754.5,-24,778.5
3.44239283014793,487,1021,534,-754,-23.5,777.5
3.44455242414426,489,1022,533,-755.5,-22,777.5
3.44671201814059,495,1022,527,-758.5,-16,774.5
3.44887161213692,498,1021,523,-759.5,-12.5,772
3.45103120613325,499,1023,524,-761,-12.5,773.5
3.45319080012958,504,1023,519,-763.5,-7.5,771
3.4553503941259,504,1023,519,-763.5,-7.5,771
3.45750998812223,499,1022,523,-760.5,-12,772.5
3.45966958211856,500,1023,523,-761.5,-11.5,773
3.46182917611489,499,1023,524,-761,-12.5,773.5
3.46398877011122,501,1023,522,-762,-10.5,772.5
3.46614836410755,498,1023,525,-760.5,-13.5,774
3.46830795810388,492,1023,531,-757.5,-19.5,777
3.4704675521002,494,1020,526,-757,-16,773
3.47262714609653,495,1022,527,-758.5,-16,774.5
3.47478674009286,497,1020,523,-758.5,-13,771.5
3.47694633408919,499,1023,524,-761,-12.5,773.5
3.47910592808552,503,1023,520,-763,-8.5,771.5
3.48126552208185,510,1023,513,-766.5,-1.5,768
3.48342511607818,513,1021,508,-767,2.5,764.5
3.48558471007451,515,1023,508,-769,3.5,765.5
3.48774430407083,513,1021,508,-767,2.5,764.5
3.48990389806716,510,1023,513,-766.5,-1.5,768
3.49206349206349,507,1023,516,-765,-4.5,769.5
3.49422308605982,501,1021,520,-761,-9.5,770.5
3.49638268005615,495,1021,526,-758,-15.5,773.5
3.49854227405248,497,1021,524,-759,-13.5,772.5
3.50070186804881,501,1021,520,-761,-9.5,770.5
3.50286146204514,508,1022,514,-765,-3,768
3.50502105604146,514,1020,506,-767,4,763
3.50718065003779,517,1023,506,-770,5.5,764.5
3.50934024403412,518,1022,504,-770,7,763
3.51149983803045,520,1022,502,-771,9,762
3.51365943202678,519,1022,503,-770.5,8,762.5
3.51581902602311,519,1020,501,-769.5,9,760.5
3.51797862001944,519,1023,504,-771,7.5,763.5
3.52013821401576,517,1023,506,-770,5.5,764.5
3.52229780801209,514,1021,507,-767.5,3.5,764
3.52445740200842,511,1023,512,-767,-0.5,767.5
3.52661699600475,511,1022,511,-766.5,0,766.5
3.52877659000108,519,1022,503,-770.5,8,762.5
3.53093618399741,524,1023,499,-773.5,12.5,761
3.53309577799374,527,1022,495,-774.5,16,758.5
3.53525537199007,528,1023,495,-775.5,16.5,759
3.53741496598639,529,1023,494,-776,17.5,758.5
3.53957455998272,527,1022,495,-774.5,16,758.5
3.54173415397905,529,1022,493,-775.5,18,757.5
3.54389374797538,531,1022,491,-776.5,20,756.5
3.54605334197171,531,1022,491,-776.5,20,756.5
3.54821293596804,527,1022,495,-774.5,16,758.5
3.55037252996437,522,1023,501,-772.5,10.5,762
3.5525321239607,521,1023,502,-772,9.5,762.5
3.55469171795702,521,1022,501,-771.5,10,761.5
3.55685131195335,525,1023,498,-774,13.5,760.5
3.55901090594968,524,1022,498,-773,13,760
3.56117049994601,520,1022,502,-771,9,762
3.56333009394234,520,1021,501,-770.5,9.5,761
3.56548968793867,522,1021,499,-771.5,11.5,760
3.567649281935,527,1022,495,-774.5,16,758.5
3.56980887593132,533,1023,490,-778,21.5,756.5
3.57196846992765,537,1023,486,-780,25.5,754.5
3.57412806392398,540,1020,480,-780,30,750
3.57628765792031,540,1021,481,-780.5,29.5,751
3.57844725191664,540,1021,481,-780.5,29.5,751
3.58060684591297,535,1022,487,-778.5,24,754.5
3.5827664399093,527,1022,495,-774.5,16,758.5
3.58492603390563,526,1022,496,-774,15,759
3.58708562790195,527,1023,496,-775,15.5,759.5
3.58924522189828,528,1023,495,-775.5,16.5,759
3.59140481589461,528,1023,495,-775.5,16.5,759
3.59356440989094,526,1021,495,-773.5,15.5,758
3.59572400388727,524,1022,498,-773,13,760
3.5978835978836,520,1022,502,-771,9,762
3.60004319187993,521,1022,501,-771.5,10,761.5
3.60220278587626,520,1022,502,-771,9,762
3.60436237987258,520,1022,502,-771,9,762
3.60652197386891,518,1021,503,-769.5,7.5,762
3.60868156786524,515,1021,506,-768,4.5,763.5
3.61084116186157,512,1020,508,-766,2,764
3.6130007558579,514,1021,507,-767.5,3.5,764
3.61516034985423,518,1023,505,-770.5,6.5,764
3.61731994385056,518,1022,504,-770,7,763
3.61947953784688,514,1020,506,-767,4,763
3.62163913184321,511,1022,511,-766.5,0,766.5
3.62379872583954,512,1023,511,-767.5,0.5,767
3.62595831983587,513,1021,508,-767,2.5,764.5
3.6281179138322,510,1023,513,-766.5,-1.5,768
3.63027750782853,510,1022,512,-766,-1,767
3.63243710182486,504,1023,519,-763.5,-7.5,771
3.63459669582119,501,1022,521,-761.5,-10,771.5
3.63675628981751,494,1022,528,-758,-17,775
3.63891588381384,494,1022,528,-758,-17,775
3.64107547781017,495,1022,527,-758.5,-16,774.5
3.6432350718065,497,1021,524,-759,-13.5,772.5
3.64539466580283,491,1021,530,-756,-19.5,775.5
3.64755425979916,484,1023,539,-753.5,-27.5,781
3.64971385379549,480,1020,540,-750,-30,780
3.65187344779181,481,1021,540,-751,-29.5,780.5
3.65403304178814,484,1023,539,-753.5,-27.5,781
3.65619263578447,485,1020,535,-752.5,-25,777.5
3.6583522297808,483,1021,538,-752,-27.5,779.5
3.66051182377713,483,1022,539,-752.5,-28,780.5
3.66267141777346,487,1022,535,-754.5,-24,778.5
3.66483101176979,487,1022,535,-754.5,-24,778.5
3.66699060576612,488,1021,533,-754.5,-22.5,777
3.66915019976244,486,1022,536,-754,-25,779
3.67130979375877,487,1023,536,-755,-24.5,779.5
3.6734693877551,486,1022,536,-754,-25,779
3.67562898175143,483,1021,538,-752,-27.5,779.5
3.67778857574776,481,1020,539,-750.5,-29,779.5
3.67994816974409,481,1023,542,-752,-30.5,782.5
3.68210776374042,479,1021,542,-750,-31.5,781.5
3.68426735773675,476,1021,545,-748.5,-34.5,783
3.68642695173307,476,1021,545,-748.5,-34.5,783
3.6885865457294,475,1022,547,-748.5,-36,784.5
3.69074613972573,472,1023,551,-747.5,-39.5,787
3.69290573372206,475,1022,547,-748.5,-36,784.5
3.69506532771839,481,1021,540,-751,-29.5,780.5
3.69722492171472,493,1023,530,-758,-18.5,776.5
3.69938451571105,499,1022,523,-760.5,-12,772.5
3.70154410970737,505,1020,515,-762.5,-5,767.5
3.7037037037037,509,1020,511,-764.5,-1,765.5
3.70586329770003,507,1023,516,-765,-4.5,769.5
3.70802289169636,505,1021,516,-763,-5.5,768.5
3.71018248569269,505,1022,517,-763.5,-6,769.5
3.71234207968902,498,1023,525,-760.5,-13.5,774
3.71450167368535,492,1023,531,-757.5,-19.5,777
3.71666126768168,488,1020,532,-754,-22,776
3.718820861678,487,1023,536,-755,-24.5,779.5
3.72098045567433,489,1020,531,-754.5,-21,775.5
3.72314004967066,494,1021,527,-757.5,-16.5,774
3.72529964366699,496,1022,526,-759,-15,774
3.72745923766332,496,1021,525,-758.5,-14.5,773
3.72961883165965,495,1020,525,-757.5,-15,772.5
3.73177842565598,493,1020,527,-756.5,-17,773.5
3.73393801965231,490,1022,532,-756,-21,777
3.73609761364863,487,1022,535,-754.5,-24,778.5
3.73825720764496,487,1023,536,-755,-24.5,779.5
3.74041680164129,488,1021,533,-754.5,-22.5,777
3.74257639563762,489,1023,534,-756,-22.5,778.5
3.74473598963395,493,1021,528,-757,-17.5,774.5
3.74689558363028,500,1020,520,-760,-10,770
3.74905517762661,498,1021,523,-759.5,-12.5,772
3.75121477162293,500,1022,522,-761,-11,772
3.75337436561926,495,1021,526,-758,-15.5,773.5
3.75553395961559,493,1021,528,-757,-17.5,774.5
3.75769355361192,487,1022,535,-754.5,-24,778.5
3.75985314760825,483,1021,538,-752,-27.5,779.5
3.76201274160458,485,1021,536,-753,-25.5,778.5
3.76417233560091,491,1022,531,-756.5,-20,776.5
3.76633192959724,499,1022,523,-760.5,-12,772.5
3.76849152359356,502,1022,520,-762,-9,771
3.77065111758989,506,1021,515,-763.5,-4.5,768
3.77281071158622,509,1022,513,-765.5,-2,767.5
3.77497030558255,503,1021,518,-762,-7.5,769.5
3.77712989957888,491,1021,530,-756,-19.5,775.5
3.77928949357521,483,1022,539,-752.5,-28,780.5
3.78144908757154,487,1021,534,-754,-23.5,777.5
3.78360868156787,492,1020,528,-756,-18,774
3.78576827556419,497,1021,524,-759,-13.5,772.5
3.78792786956052,502,1022,520,-762,-9,771
3.79008746355685,506,1021,515,-763.5,-4.5,768
3.79224705755318,508,1021,513,-764.5,-2.5,767
3.79440665154951,506,1020,514,-763,-4,767
3.79656624554584,507,1023,516,-765,-4.5,769.5
3.79872583954217,505,1023,518,-764,-6.5,770.5
3.80088543353849,501,1021,520,-761,-9.5,770.5
3.80304502753482,502,1022,520,-762,-9,771
3.80520462153115,502,1019,517,-760.5,-7.5,768
3.80736421552748,503,1019,516,-761,-6.5,767.5
3.80952380952381,506,1020,514,-763,-4,767
3.81168340352014,505,1021,516,-763,-5.5,768.5
3.81384299751647,501,1022,521,-761.5,-10,771.5
3.8160025915128,497,1022,525,-759.5,-14,773.5
3.81816218550912,497,1019,522,-758,-12.5,770.5
3.82032177950545,494,1022,528,-758,-17,775
3.82248137350178,490,1022,532,-756,-21,777
3.82464096749811,492,1022,530,-757,-19,776
3.82680056149444,499,1023,524,-761,-12.5,773.5
3.82896015549077,506,1022,516,-764,-5,769
3.8311197494871,514,1020,506,-767,4,763
3.83327934348342,516,1022,506,-769,5,764
3.83543893747975,518,1023,505,-770.5,6.5,764
3.83759853147608,523,1021,498,-772,12.5,759.5
3.83975812547241,524,1022,498,-773,13,760
3.84191771946874,519,1020,501,-769.5,9,760.5
3.84407731346507,517,1023,506,-770,5.5,764.5
3.8462369074614,513,1020,507,-766.5,3,763.5
3.84839650145773,514,1021,507,-767.5,3.5,764
3.85055609545405,518,1022,504,-770,7,763
3.85271568945038,521,1021,500,-771,10.5,760.5
3.85487528344671,520,1021,501,-770.5,9.5,761
3.85703487744304,517,1021,504,-769,6.5,762.5
3.85919447143937,515,1022,507,-768.5,4,764.5
3.8613540654357,508,1021,513,-764.5,-2.5,767
3.86351365943203,504,1021,517,-762.5,-6.5,769
3.86567325342836,495,1021,526,-758,-15.5,773.5
3.86783284742468,497,1021,524,-759,-13.5,772.5
3.86999244142101,497,1023,526,-760,-14.5,774.5
3.87215203541734,501,1021,520,-761,-9.5,770.5
3.87431162941367,501,1021,520,-761,-9.5,770.5
3.87647122341,498,1022,524,-760,-13,773
3.87863081740633,500,1022,522,-761,-11,772
3.88079041140266,503,1020,517,-761.5,-7,768.5
3.88295000539898,506,1021,515,-763.5,-4.5,768
3.88510959939531,509,1021,512,-765,-1.5,766.5
3.88726919339164,508,1022,514,-765,-3,768
3.88942878738797,506,1022,516,-764,-5,769
3.8915883813843,502,1023,521,-762.5,-9.5,772
3.89374797538063,502,1021,519,-761.5,-8.5,770
3.89590756937696,502,1020,518,-761,-8,769
3.89806716337329,498,1023,525,-760.5,-13.5,774
3.90022675736961,494,1023,529,-758.5,-17.5,776
3.90238635136594,490,1021,531,-755.5,-20.5,776
3.90454594536227,487,1021,534,-754,-23.5,777.5
3.9067055393586,485,1020,535,-752.5,-25,777.5
3.90886513335493,485,1021,536,-753,-25.5,778.5
3.91102472735126,486,1023,537,-754.5,-25.5,780
3.91318432134759,489,1021,532,-755,-21.5,776.5
3.91534391534392,492,1022,530,-757,-19,776
3.91750350934024,491,1021,530,-756,-19.5,775.5
3.91966310333657,492,1022,530,-757,-19,776
3.9218226973329,489,1022,533,-755.5,-22,777.5
3.92398229132923,489,1021,532,-755,-21.5,776.5
3.92614188532556,487,1021,534,-754,-23.5,777.5
3.92830147932189,489,1021,532,-755,-21.5,776.5
3.93046107331822,490,1023,533,-756.5,-21.5,778
3.93262066731454,491,1021,530,-756,-19.5,775.5
3.93478026131087,493,1021,528,-757,-17.5,774.5
3.9369398553072,494,1022,528,-758,-17,775
3.93909944930353,491,1023,532,-757,-20.5,777.5
3.94125904329986,491,1020,529,-755.5,-19,774.5
3.94341863729619,493,1021,528,-757,-17.5,774.5
3.94557823129252,491,1022,531,-756.5,-20,776.5
3.94773782528885,492,1021,529,-756.5,-18.5,775
3.94989741928517,493,1023,530,-758,-18.5,776.5
3.9520570132815,492,1021,529,-756.5,-18.5,775
3.95421660727783,490,1021,531,-755.5,-20.5,776
3.95637620127416,490,1021,531,-755.5,-20.5,776
3.95853579527049,488,1022,534,-755,-23,778
3.96069538926682,482,1021,539,-751.5,-28.5,780
3.96285498326315,484,1021,537,-752.5,-26.5,779
3.96501457725947,494,1021,527,-757.5,-16.5,774
3.9671741712558,512,1022,510,-767,1,766
3.96933376525213,533,1021,488,-777,22.5,754.5
3.97149335924846,553,1021,468,-787,42.5,744.5
3.97365295324479,580,1022,442,-801,69,732
3.97581254724112,605,1021,416,-813,94.5,718.5
3.97797214123745,629,1021,392,-825,118.5,706.5
3.98013173523378,642,1022,380,-832,131,701
3.9822913292301,653,1021,368,-837,142.5,694.5
3.98445092322643,656,1022,366,-839,145,694
3.98661051722276,648,1022,374,-835,137,698
3.98877011121909,632,1021,389,-826.5,121.5,705
3.99092970521542,606,1021,415,-813.5,95.5,718
3.99308929921175,584,1022,438,-803,73,730
3.99524889320808,563,1020,457,-791.5,53,738.5
3.99740848720441,542,1021,479,-781.5,31.5,750
3.99956808120073,520,1022,502,-771,9,762
4.00172767519706,503,1023,520,-763,-8.5,771.5
4.00388726919339,492,1021,529,-756.5,-18.5,775
4.00604686318972,484,1021,537,-752.5,-26.5,779
4.00820645718605,479,1020,541,-749.5,-31,780.5
4.01036605118238,482,1021,539,-751.5,-28.5,780
4.01252564517871,482,1022,540,-752,-29,781
4.01468523917504,488,1021,533,-754.5,-22.5,777
4.01684483317136,495,1022,527,-758.5,-16,774.5
4.01900442716769,495,1022,527,-758.5,-16,774.5
4.02116402116402,495,1022,527,-758.5,-16,774.5
4.02332361516035,495,1021,526,-758,-15.5,773.5
4.02548320915668,491,1022,531,-756.5,-20,776.5
4.02764280315301,488,1022,534,-755,-23,778
4.02980239714934,488,1019,531,-753.5,-21.5,775
4.03196199114566,485,1020,535,-752.5,-25,777.5
4.03412158514199,480,1021,541,-750.5,-30.5,781
4.03628117913832,480,1021,541,-750.5,-30.5,781
4.03844077313465,481,1023,542,-752,-30.5,782.5
4.04060036713098,483,1023,540,-753,-28.5,781.5
4.04275996112731,486,1021,535,-753.5,-24.5,778
4.04491955512364,488,1021,533,-754.5,-22.5,777
4.04707914911997,491,1022,531,-756.5,-20,776.5
4.04923874311629,493,1022,529,-757.5,-18,775.5
4.05139833711262,491,1019,528,-755,-18.5,773.5
4.05355793110895,486,1023,537,-754.5,-25.5,780
4.05571752510528,484,1022,538,-753,-27,780
4.05787711910161,488,1021,533,-754.5,-22.5,777
4.06003671309794,492,1021,529,-756.5,-18.5,775
4.06219630709427,492,1021,529,-756.5,-18.5,775
4.06435590109059,489,1022,533,-755.5,-22,777.5
4.06651549508692,485,1022,537,-753.5,-26,779.5
4.06867508908325,486,1021,535,-753.5,-24.5,778
4.07083468307958,490,1022,532,-756,-21,777
4.07299427707591,494,1021,527,-757.5,-16.5,774
4.07515387107224,498,1022,524,-760,-13,773
4.07731346506857,501,1021,520,-761,-9.5,770.5
4.0794730590649,505,1021,516,-763,-5.5,768.5
4.08163265306122,510,1020,510,-765,0,765
4.08379224705755,508,1021,513,-764.5,-2.5,767
4.08595184105388,505,1021,516,-763,-5.5,768.5
4.08811143505021,504,1022,518,-763,-7,770
4.09027102904654,500,1022,522,-761,-11,772
4.09243062304287,497,1021,524,-759,-13.5,772.5
4.0945902170392,496,1022,526,-759,-15,774
4.09674981103552,497,1022,525,-759.5,-14,773.5
4.09890940503185,496,1023,527,-759.5,-15.5,775
4.10106899902818,493,1021,528,-757,-17.5,774.5
4.10322859302451,493,1022,529,-757.5,-18,775.5
4.10538818702084,494,1021,527,-757.5,-16.5,774
4.10754778101717,497,1021,524,-759,-13.5,772.5
4.1097073750135,504,1022,518,-763,-7,770
4.11186696900983,509,1021,512,-765,-1.5,766.5
4.11402656300615,510,1022,512,-766,-1,767
4.11618615700248,510,1022,512,-766,-1,767
4.11834575099881,509,1021,512,-765,-1.5,766.5
4.12050534499514,505,1021,516,-763,-5.5,768.5
4.12266493899147,505,1022,517,-763.5,-6,769.5
4.1248245329878,504,1023,519,-763.5,-7.5,771
4.12698412698413,507,1023,516,-765,-4.5,769.5
4.12914372098046,509,1022,513,-765.5,-2,767.5
4.13130331497678,510,1021,511,-765.5,-0.5,766
4.13346290897311,508,1021,513,-764.5,-2.5,767
4.13562250296944,510,1019,509,-764.5,0.5,764
4.13778209696577,512,1022,510,-767,1,766
4.1399416909621,510,1022,512,-766,-1,767
4.14210128495843,506,1020,514,-763,-4,767
4.14426087895476,507,1019,512,-763,-2.5,765.5
4.14642047295109,515,1023,508,-769,3.5,765.5
4.14858006694741,521,1022,501,-771.5,10,761.5
4.15073966094374,519,1021,502,-770,8.5,761.5
4.15289925494007,517,1021,504,-769,6.5,762.5
4.1550588489364,513,1022,509,-767.5,2,765.5
4.15721844293273,512,1020,508,-766,2,764
4.15937803692906,511,1022,511,-766.5,0,766.5
4.16153763092539,515,1021,506,-768,4.5,763.5
4.16369722492172,522,1022,500,-772,11,761
4.16585681891804,527,1021,494,-774,16.5,757.5
4.16801641291437,532,1020,488,-776,22,754
4.1701760069107,533,1020,487,-776.5,23,753.5
4.17233560090703,532,1022,490,-777,21,756
4.17449519490336,534,1021,487,-777.5,23.5,754
4.17665478889969,532,1023,491,-777.5,20.5,757
4.17881438289602,530,1021,491,-775.5,19.5,756
4.18097397689234,525,1021,496,-773,14.5,758.5
4.18313357088867,525,1023,498,-774,13.5,760.5
4.185293164885,530,1021,491,-775.5,19.5,756
4.18745275888133,532,1020,488,-776,22,754
4.18961235287766,537,1020,483,-778.5,27,751.5
4.19177194687399,534,1022,488,-778,23,755
4.19393154087032,526,1022,496,-774,15,759
4.19609113486664,524,1020,496,-772,14,758
4.19825072886297,525,1022,497,-773.5,14,759.5
4.2004103228593,531,1022,491,-776.5,20,756.5
4.20256991685563,535,1021,486,-778,24.5,753.5
4.20472951085196,536,1020,484,-778,26,752
4.20688910484829,535,1021,486,-778,24.5,753.5
4.20904869884462,536,1023,487,-779.5,24.5,755
4.21120829284095,534,1021,487,-777.5,23.5,754
4.21336788683727,534,1021,487,-777.5,23.5,754
4.2155274808336,534,1021,487,-777.5,23.5,754
4.21768707482993,534,1022,488,-778,23,755
4.21984666882626,529,1022,493,-775.5,18,757.5
4.22200626282259,525,1021,496,-773,14.5,758.5
4.22416585681892,520,1020,500,-770,10,760
4.22632545081525,512,1022,510,-767,1,766
4.22848504481157,515,1021,506,-768,4.5,763.5
4.2306446388079,518,1022,504,-770,7,763
4.23280423280423,523,1022,499,-772.5,12,760.5
4.23496382680056,526,1021,495,-773.5,15.5,758
4.23712342079689,526,1020,494,-773,16,757
4.23928301479322,526,1021,495,-773.5,15.5,758
4.24144260878955,526,1022,496,-774,15,759
4.24360220278588,527,1021,494,-774,16.5,757.5
4.2457617967822,526,1020,494,-773,16,757
4.24792139077853,521,1023,502,-772,9.5,762.5
4.25008098477486,515,1023,508,-769,3.5,765.5
4.25224057877119,510,1023,513,-766.5,-1.5,768
4.25440017276752,506,1021,515,-763.5,-4.5,768
4.25655976676385,506,1021,515,-763.5,-4.5,768
4.25871936076018,504,1021,517,-762.5,-6.5,769
4.26087895475651,506,1020,514,-763,-4,767
4.26303854875283,502,1023,521,-762.5,-9.5,772
4.26519814274916,500,1022,522,-761,-11,772
4.26735773674549,494,1022,528,-758,-17,775
4.26951733074182,492,1021,529,-756.5,-18.5,775
4.27167692473815,494,1021,527,-757.5,-16.5,774
4.27383651873448,495,1022,527,-758.5,-16,774.5
4.27599611273081,497,1023,526,-760,-14.5,774.5
4.27815570672714,501,1021,520,-761,-9.5,770.5
4.28031530072346,498,1022,524,-760,-13,773
4.28247489471979,495,1022,527,-758.5,-16,774.5
4.28463448871612,493,1021,528,-757,-17.5,774.5
4.28679408271245,491,1021,530,-756,-19.5,775.5
4.28895367670878,490,1022,532,-756,-21,777
4.29111327070511,490,1023,533,-756.5,-21.5,778
4.29327286470144,489,1022,533,-755.5,-22,777.5
4.29543245869777,482,1023,541,-752.5,-29.5,782
4.29759205269409,478,1021,543,-749.5,-32.5,782
4.29975164669042,477,1020,543,-748.5,-33,781.5
4.30191124068675,474,1022,548,-748,-37,785
4.30407083468308,472,1022,550,-747,-39,786
4.30623042867941,474,1022,548,-748,-37,785
4.30839002267574,484,1020,536,-752,-26,778
4.31054961667207,491,1020,529,-755.5,-19,774.5
4.31270921066839,495,1022,527,-758.5,-16,774.5
4.31486880466472,498,1022,524,-760,-13,773
4.31702839866105,498,1020,522,-759,-12,771
4.31918799265738,499,1022,523,-760.5,-12,772.5
4.32134758665371,496,1023,527,-759.5,-15.5,775
4.32350718065004,496,1023,527,-759.5,-15.5,775
4.32566677464637,497,1023,526,-760,-14.5,774.5
4.32782636864269,491,1023,532,-757,-20.5,777.5
4.32998596263902,489,1022,533,-755.5,-22,777.5
4.33214555663535,486,1021,535,-753.5,-24.5,778
4.33430515063168,483,1022,539,-752.5,-28,780.5
4.33646474462801,484,1022,538,-753,-27,780
4.33862433862434,486,1021,535,-753.5,-24.5,778
4.34078393262067,488,1022,534,-755,-23,778
4.342943526617,491,1022,531,-756.5,-20,776.5
4.34510312061332,494,1022,528,-758,-17,775
4.34726271460965,494,1023,529,-758.5,-17.5,776
4.34942230860598,494,1022,528,-758,-17,775
4.35158190260231,497,1021,524,-759,-13.5,772.5
4.35374149659864,499,1021,522,-760,-11.5,771.5
4.35590109059497,498,1022,524,-760,-13,773
4.3580606845913,491,1020,529,-755.5,-19,774.5
4.36022027858763,487,1021,534,-754,-23.5,777.5
4.36237987258395,490,1022,532,-756,-21,777
4.36453946658028,494,1023,529,-758.5,-17.5,776
4.36669906057661,499,1022,523,-760.5,-12,772.5
4.36885865457294,500,1022,522,-761,-11,772
4.37101824856927,498,1021,523,-759.5,-12.5,772
4.3731778425656,496,1022,526,-759,-15,774
4.37533743656193,496,1021,525,-758.5,-14.5,773
4.37749703055825,498,1021,523,-759.5,-12.5,772
4.37965662455458,497,1021,524,-759,-13.5,772.5
4.38181621855091,493,1022,529,-757.5,-18,775.5
4.38397581254724,491,1021,530,-756,-19.5,775.5
4.38613540654357,487,1022,535,-754.5,-24,778.5
4.3882950005399,486,1020,534,-753,-24,777
4.39045459453623,485,1021,536,-753,-25.5,778.5
4.39261418853256,484,1022,538,-753,-27,780
4.39477378252888,490,1021,531,-755.5,-20.5,776
4.39693337652521,494,1020,526,-757,-16,773
4.39909297052154,496,1021,525,-758.5,-14.5,773
4.40125256451787,500,1021,521,-760.5,-10.5,771
4.4034121585142,500,1022,522,-761,-11,772
4.40557175251053,501,1022,521,-761.5,-10,771.5
4.40773134650686,500,1022,522,-761,-11,772
4.40989094050319,501,1021,520,-761,-9.5,770.5
4.41205053449951,499,1022,523,-760.5,-12,772.5
4.41421012849584,498,1023,525,-760.5,-13.5,774
4.41636972249217,499,1023,524,-761,-12.5,773.5
4.4185293164885,498,1023,525,-760.5,-13.5,774
4.42068891048483,498,1022,524,-760,-13,773
4.42284850448116,501,1020,519,-760.5,-9,769.5
4.42500809847749,505,1020,515,-762.5,-5,767.5
4.42716769247382,505,1022,517,-763.5,-6,769.5
4.42932728647014,503,1022,519,-762.5,-8,770.5
4.43148688046647,498,1020,522,-759,-12,771
4.4336464744628,493,1021,528,-757,-17.5,774.5
4.43580606845913,492,1020,528,-756,-18,774
4.43796566245546,497,1023,526,-760,-14.5,774.5
4.44012525645179,505,1020,515,-762.5,-5,767.5
4.44228485044812,511,1021,510,-766,0.5,765.5
4.44444444444444,516,1022,506,-769,5,764
4.44660403844077,519,1021,502,-770,8.5,761.5
4.4487636324371,517,1021,504,-769,6.5,762.5
4.45092322643343,518,1021,503,-769.5,7.5,762
4.45308282042976,516,1022,506,-769,5,764
4.45524241442609,517,1021,504,-769,6.5,762.5
4.45740200842242,517,1021,504,-769,6.5,762.5
4.45956160241874,518,1022,504,-770,7,763
4.46172119641507,515,1021,506,-768,4.5,763.5
4.4638807904114,510,1021,511,-765.5,-0.5,766
4.46604038440773,511,1022,511,-766.5,0,766.5
4.46819997840406,509,1022,513,-765.5,-2,767.5
4.47035957240039,512,1023,511,-767.5,0.5,767
4.47251916639672,509,1022,513,-765.5,-2,767.5
4.47467876039305,508,1020,512,-764,-2,766
4.47683835438937,509,1021,512,-765,-1.5,766.5
4.4789979483857,512,1021,509,-766.5,1.5,765
4.48115754238203,515,1021,506,-768,4.5,763.5
4.48331713637836,514,1019,505,-766.5,4.5,762
4.48547673037469,510,1020,510,-765,0,765
4.48763632437102,508,1022,514,-765,-3,768
4.48979591836735,506,1021,515,-763.5,-4.5,768
4.49195551236368,504,1022,518,-763,-7,770
4.49411510636,504,1023,519,-763.5,-7.5,771
4.49627470035633,502,1023,521,-762.5,-9.5,772
4.49843429435266,504,1022,518,-763,-7,770
4.50059388834899,507,1020,513,-763.5,-3,766.5
4.50275348234532,510,1021,511,-765.5,-0.5,766
4.50491307634165,509,1022,513,-765.5,-2,767.5
4.50707267033798,507,1022,515,-764.5,-4,768.5
4.50923226433431,505,1020,515,-762.5,-5,767.5
4.51139185833063,500,1021,521,-760.5,-10.5,771
4.51355145232696,497,1022,525,-759.5,-14,773.5
4.51571104632329,493,1022,529,-757.5,-18,775.5
4.51787064031962,489,1022,533,-755.5,-22,777.5
4.52003023431595,491,1022,531,-756.5,-20,776.5
4.52218982831228,494,1022,528,-758,-17,775
4.52434942230861,491,1021,530,-756,-19.5,775.5
4.52650901630493,489,1022,533,-755.5,-22,777.5
4.52866861030126,491,1022,531,-756.5,-20,776.5
4.53082820429759,490,1021,531,-755.5,-20.5,776
4.53298779829392,484,1022,538,-753,-27,780
4.53514739229025,484,1022,538,-753,-27,780
4.53730698628658,484,1021,537,-752.5,-26.5,779
4.53946658028291,485,1022,537,-753.5,-26,779.5
4.54162617427924,487,1023,536,-755,-24.5,779.5
4.54378576827556,484,1022,538,-753,-27,780
4.54594536227189,482,1021,539,-751.5,-28.5,780
4.54810495626822,485,1022,537,-753.5,-26,779.5
4.55026455026455,491,1021,530,-756,-19.5,775.5
4.55242414426088,495,1021,526,-758,-15.5,773.5
4.55458373825721,500,1022,522,-761,-11,772
4.55674333225354,500,1022,522,-761,-11,772
4.55890292624987,500,1020,520,-760,-10,770
4.56106252024619,497,1023,526,-760,-14.5,774.5
4.56322211424252,496,1021,525,-758.5,-14.5,773
4.56538170823885,493,1020,527,-756.5,-17,773.5
4.56754130223518,487,1021,534,-754,-23.5,777.5
4.56970089623151,483,1022,539,-752.5,-28,780.5
4.57186049022784,483,1021,538,-752,-27.5,779.5
4.57402008422417,481,1022,541,-751.5,-30,781.5
4.57617967822049,483,1021,538,-752,-27.5,779.5
4.57833927221682,489,1023,534,-756,-22.5,778.5
4.58049886621315,491,1022,531,-756.5,-20,776.5
4.58265846020948,494,1020,526,-757,-16,773
4.58481805420581,494,1021,527,-757.5,-16.5,774
4.58697764820214,499,1022,523,-760.5,-12,772.5
4.58913724219847,511,1022,511,-766.5,0,766.5
4.5912968361948,530,1022,492,-776,19,757
4.59345643019112,555,1020,465,-787.5,45,742.5
4.59561602418745,578,1019,441,-798.5,68.5,730
4.59777561818378,599,1023,424,-811,87.5,723.5
4.59993521218011,619,1021,402,-820,108.5,711.5
4.60209480617644,637,1022,385,-829.5,126,703.5
4.60425440017277,651,1021,370,-836,140.5,695.5
4.6064139941691,658,1020,362,-839,148,691
4.60857358816542,648,1021,373,-834.5,137.5,697
4.61073318216175,627,1022,395,-824.5,116,708.5
4.61289277615808,602,1020,418,-811,92,719
4.61505237015441,583,1021,438,-802,72.5,729.5
4.61721196415074,564,1022,458,-793,53,740
4.61937155814707,543,1021,478,-782,32.5,749.5
4.6215311521434,522,1023,501,-772.5,10.5,762
4.62369074613973,506,1021,515,-763.5,-4.5,768
4.62585034013605,494,1021,527,-757.5,-16.5,774
4.62800993413238,483,1021,538,-752,-27.5,779.5
4.63016952812871,479,1020,541,-749.5,-31,780.5
4.63232912212504,480,1023,543,-751.5,-31.5,783
4.63448871612137,486,1020,534,-753,-24,777
4.6366483101177,496,1021,525,-758.5,-14.5,773
4.63880790411403,502,1021,519,-761.5,-8.5,770
4.64096749811036,507,1023,516,-765,-4.5,769.5
4.64312709210668,507,1021,514,-764,-3.5,767.5
4.64528668610301,505,1023,518,-764,-6.5,770.5
4.64744628009934,498,1023,525,-760.5,-13.5,774
4.64960587409567,498,1023,525,-760.5,-13.5,774
4.651765468092,494,1022,528,-758,-17,775
4.65392506208833,493,1021,528,-757,-17.5,774.5
4.65608465608466,490,1020,530,-755,-20,775
4.65824425008099,488,1022,534,-755,-23,778
4.66040384407731,490,1020,530,-755,-20,775
4.66256343807364,490,1023,533,-756.5,-21.5,778
4.66472303206997,489,1021,532,-755,-21.5,776.5
4.6668826260663,492,1022,530,-757,-19,776
4.66904222006263,492,1020,528,-756,-18,774
4.67120181405896,494,1023,529,-758.5,-17.5,776
4.67336140805529,495,1021,526,-758,-15.5,773.5
4.67552100205161,495,1021,526,-758,-15.5,773.5
4.67768059604794,493,1022,529,-757.5,-18,775.5
4.67984019004427,491,1022,531,-756.5,-20,776.5
4.6819997840406,490,1021,531,-755.5,-20.5,776
4.68415937803693,491,1023,532,-757,-20.5,777.5
4.68631897203326,493,1023,530,-758,-18.5,776.5
4.68847856602959,488,1021,533,-754.5,-22.5,777
4.69063816002592,486,1021,535,-753.5,-24.5,778
4.69279775402224,485,1023,538,-754,-26.5,780.5
4.69495734801857,488,1020,532,-754,-22,776
4.6971169420149,491,1019,528,-755,-18.5,773.5
4.69927653601123,495,1021,526,-758,-15.5,773.5
4.70143613000756,496,1023,527,-759.5,-15.5,775
4.70359572400389,496,1021,525,-758.5,-14.5,773
4.70575531800022,496,1022,526,-759,-15,774
4.70791491199654,495,1022,527,-758.5,-16,774.5
4.71007450599287,491,1020,529,-755.5,-19,774.5
4.7122340999892,484,1022,538,-753,-27,780
4.71439369398553,486,1021,535,-753.5,-24.5,778
4.71655328798186,489,1021,532,-755,-21.5,776.5
4.71871288197819,493,1022,529,-757.5,-18,775.5
4.72087247597452,502,1021,519,-761.5,-8.5,770
4.72303206997085,513,1023,510,-768,1.5,766.5
4.72519166396717,518,1023,505,-770.5,6.5,764
4.7273512579635,516,1022,506,-769,5,764
4.72951085195983,510,1021,511,-765.5,-0.5,766
4.73167044595616,507,1023,516,-765,-4.5,769.5
4.73383003995249,506,1022,516,-764,-5,769
4.73598963394882,503,1021,518,-762,-7.5,769.5
4.73814922794515,497,1022,525,-759.5,-14,773.5
4.74030882194147,495,1023,528,-759,-16.5,775.5
4.7424684159378,498,1019,521,-758.5,-11.5,770
4.74462800993413,502,1022,520,-762,-9,771
4.74678760393046,510,1020,510,-765,0,765
4.74894719792679,511,1022,511,-766.5,0,766.5
4.75110679192312,514,1021,507,-767.5,3.5,764
4.75326638591945,515,1022,507,-768.5,4,764.5
4.75542597991578,516,1022,506,-769,5,764
4.7575855739121,518,1022,504,-770,7,763
4.75974516790843,516,1019,503,-767.5,6.5,761
4.76190476190476,517,1020,503,-768.5,7,761.5
4.76406435590109,514,1020,506,-767,4,763
4.76622394989742,512,1022,510,-767,1,766
4.76838354389375,511,1022,511,-766.5,0,766.5
4.77054313789008,506,1023,517,-764.5,-5.5,770
4.77270273188641,508,1022,514,-765,-3,768
4.77486232588273,508,1022,514,-765,-3,768
4.77702191987906,515,1021,506,-768,4.5,763.5
4.77918151387539,519,1021,502,-770,8.5,761.5
4.78134110787172,525,1022,497,-773.5,14,759.5
4.78350070186805,525,1023,498,-774,13.5,760.5
4.78566029586438,520,1022,502,-771,9,762
4.78781988986071,520,1022,502,-771,9,762
4.78997948385704,519,1020,501,-769.5,9,760.5
4.79213907785336,524,1022,498,-773,13,760
4.79429867184969,529,1023,494,-776,17.5,758.5
4.79645826584602,525,1021,496,-773,14.5,758.5
4.79861785984235,523,1020,497,-771.5,13,758.5
4.80077745383868,519,1020,501,-769.5,9,760.5
4.80293704783501,516,1020,504,-768,6,762
4.80509664183134,514,1021,507,-767.5,3.5,764
4.80725623582766,517,1021,504,-769,6.5,762.5
4.80941582982399,525,1023,498,-774,13.5,760.5
4.81157542382032,532,1020,488,-776,22,754
4.81373501781665,537,1020,483,-778.5,27,751.5
4.81589461181298,538,1020,482,-779,28,751
4.81805420580931,539,1021,482,-780,28.5,751.5
4.82021379980564,543,1020,477,-781.5,33,748.5
4.82237339380197,542,1023,481,-782.5,30.5,752
4.82453298779829,541,1023,482,-782,29.5,752.5
4.82669258179462,540,1023,483,-781.5,28.5,753
4.82885217579095,535,1022,487,-778.5,24,754.5
4.83101176978728,531,1022,491,-776.5,20,756.5
4.83317136378361,527,1021,494,-774,16.5,757.5
4.83533095777994,529,1022,493,-775.5,18,757.5
4.83749055177627,531,1022,491,-776.5,20,756.5
4.83965014577259,539,1020,481,-779.5,29,750.5
4.84180973976892,537,1022,485,-779.5,26,753.5
4.84396933376525,532,1022,490,-777,21,756
4.84612892776158,531,1021,490,-776,20.5,755.5
4.84828852175791,533,1023,490,-778,21.5,756.5
4.85044811575424,540,1020,480,-780,30,750
4.85260770975057,537,1021,484,-779,26.5,752.5
4.8547673037469,530,1022,492,-776,19,757
4.85692689774322,521,1021,500,-771,10.5,760.5
4.85908649173955,516,1021,505,-768.5,5.5,763
4.86124608573588,516,1021,505,-768.5,5.5,763
4.86340567973221,517,1022,505,-769.5,6,763.5
4.86556527372854,514,1022,508,-768,3,765
4.86772486772487,511,1020,509,-765.5,1,764.5
4.8698844617212,512,1022,510,-767,1,766
4.87204405571752,515,1020,505,-767.5,5,762.5
4.87420364971385,513,1021,508,-767,2.5,764.5
4.87636324371018,508,1021,513,-764.5,-2.5,767
4.87852283770651,505,1022,517,-763.5,-6,769.5
4.88068243170284,499,1021,522,-760,-11.5,771.5
4.88284202569917,497,1022,525,-759.5,-14,773.5
4.8850016196955,492,1022,530,-757,-19,776
4.88716121369183,488,1022,534,-755,-23,778
4.88932080768815,489,1019,530,-754,-20.5,774.5
4.89148040168448,487,1022,535,-754.5,-24,778.5
4.89363999568081,493,1021,528,-757,-17.5,774.5
4.89579958967714,495,1021,526,-758,-15.5,773.5
4.89795918367347,495,1021,526,-758,-15.5,773.5
4.9001187776698,496,1020,524,-758,-14,772
4.90227837166613,498,1022,524,-760,-13,773
4.90443796566246,497,1022,525,-759.5,-14,773.5
4.90659755965878,498,1022,524,-760,-13,773
4.90875715365511,500,1021,521,-760.5,-10.5,771
4.91091674765144,501,1021,520,-761,-9.5,770.5
4.91307634164777,495,1022,527,-758.5,-16,774.5
4.9152359356441,486,1022,536,-754,-25,779
4.91739552964043,480,1023,543,-751.5,-31.5,783
4.91955512363676,477,1022,545,-749.5,-34,783.5
4.92171471763309,482,1021,539,-751.5,-28.5,780
4.92387431162941,488,1023,535,-755.5,-23.5,779
4.92603390562574,490,1020,530,-755,-20,775
4.92819349962207,492,1020,528,-756,-18,774
4.9303530936184,495,1022,527,-758.5,-16,774.5
4.93251268761473,495,1021,526,-758,-15.5,773.5
4.93467228161106,493,1023,530,-758,-18.5,776.5
4.93683187560739,493,1021,528,-757,-17.5,774.5
4.93899146960371,493,1022,529,-757.5,-18,775.5
4.94115106360004,489,1022,533,-755.5,-22,777.5
4.94331065759637,486,1021,535,-753.5,-24.5,778
4.9454702515927,485,1023,538,-754,-26.5,780.5
4.94762984558903,488,1022,534,-755,-23,778
4.94978943958536,490,1021,531,-755.5,-20.5,776
4.95194903358169,493,1021,528,-757,-17.5,774.5
4.95410862757802,496,1021,525,-758.5,-14.5,773
4.95626822157434,491,1022,531,-756.5,-20,776.5
4.95842781557067,492,1020,528,-756,-18,774
4.960587409567,491,1022,531,-756.5,-20,776.5
4.96274700356333,490,1023,533,-756.5,-21.5,778
4.96490659755966,488,1023,535,-755.5,-23.5,779
4.96706619155599,490,1020,530,-755,-20,775
4.96922578555232,489,1022,533,-755.5,-22,777.5
4.97138537954864,489,1021,532,-755,-21.5,776.5
4.97354497354497,491,1023,532,-757,-20.5,777.5
4.9757045675413,494,1021,527,-757.5,-16.5,774
4.97786416153763,497,1021,524,-759,-13.5,772.5
4.98002375553396,498,1019,521,-758.5,-11.5,770
4.98218334953029,494,1022,528,-758,-17,775
4.98434294352662,492,1022,530,-757,-19,776
4.98650253752295,493,1022,529,-757.5,-18,775.5
4.98866213151927,497,1021,524,-759,-13.5,772.5
4.9908217255156,501,1021,520,-761,-9.5,770.5
4.99298131951193,499,1022,523,-760.5,-12,772.5
4.99514091350826,493,1022,529,-757.5,-18,775.5
4.99730050750459,485,1021,536,-753,-25.5,778.5
4.99946010150092,486,1022,536,-754,-25,779
5.00161969549725,489,1020,531,-754.5,-21,775.5
5.00377928949357,493,1020,527,-756.5,-17,773.5
5.0059388834899,499,1020,521,-759.5,-11,770.5
5.00809847748623,505,1022,517,-763.5,-6,769.5
5.01025807148256,506,1021,515,-763.5,-4.5,768
5.01241766547889,501,1021,520,-761,-9.5,770.5
5.01457725947522,499,1023,524,-761,-12.5,773.5
5.01673685347155,497,1022,525,-759.5,-14,773.5
5.01889644746788,499,1021,522,-760,-11.5,771.5
5.0210560414642,499,1021,522,-760,-11.5,771.5
5.02321563546053,499,1021,522,-760,-11.5,771.5
5.02537522945686,496,1021,525,-758.5,-14.5,773
5.02753482345319,494,1022,528,-758,-17,775
5.02969441744952,494,1021,527,-757.5,-16.5,774
5.03185401144585,494,1021,527,-757.5,-16.5,774
5.03401360544218,496,1022,526,-759,-15,774
5.03617319943851,497,1022,525,-759.5,-14,773.5
5.03833279343483,498,1021,523,-759.5,-12.5,772
5.04049238743116,498,1021,523,-759.5,-12.5,772
5.04265198142749,497,1023,526,-760,-14.5,774.5
5.04481157542382,497,1021,524,-759,-13.5,772.5
5.04697116942015,497,1022,525,-759.5,-14,773.5
5.04913076341648,501,1022,521,-761.5,-10,771.5
5.05129035741281,506,1023,517,-764.5,-5.5,770
5.05344995140914,510,1021,511,-765.5,-0.5,766
5.05560954540546,509,1022,513,-765.5,-2,767.5
5.05776913940179,508,1023,515,-765.5,-3.5,769
5.05992873339812,505,1020,515,-762.5,-5,767.5
5.06208832739445,507,1022,515,-764.5,-4,768.5
5.06424792139078,507,1021,514,-764,-3.5,767.5
5.06640751538711,506,1021,515,-763.5,-4.5,768
5.06856710938344,506,1021,515,-763.5,-4.5,768
5.07072670337976,503,1022,519,-762.5,-8,770.5
5.07288629737609,504,1021,517,-762.5,-6.5,769
5.07504589137242,508,1021,513,-764.5,-2.5,767
5.07720548536875,513,1021,508,-767,2.5,764.5
5.07936507936508,517,1021,504,-769,6.5,762.5
5.08152467336141,515,1020,505,-767.5,5,762.5
5.08368426735774,515,1020,505,-767.5,5,762.5
5.08584386135407,518,1021,503,-769.5,7.5,762
5.08800345535039,522,1021,499,-771.5,11.5,760
5.09016304934672,526,1022,496,-774,15,759
5.09232264334305,525,1021,496,-773,14.5,758.5
5.09448223733938,522,1023,501,-772.5,10.5,762
5.09664183133571,521,1021,500,-771,10.5,760.5
5.09880142533204,516,1019,503,-767.5,6.5,761
5.10096101932837,515,1022,507,-768.5,4,764.5
5.10312061332469,515,1021,506,-768,4.5,763.5
5.10528020732102,511,1022,511,-766.5,0,766.5
5.10743980131735,507,1022,515,-764.5,-4,768.5
5.10959939531368,502,1022,520,-762,-9,771
5.11175898931001,499,1020,521,-759.5,-11,770.5
5.11391858330634,500,1022,522,-761,-11,772
5.11607817730267,503,1020,517,-761.5,-7,768.5
5.118237771299,507,1023,516,-765,-4.5,769.5
5.12039736529532,507,1022,515,-764.5,-4,768.5
5.12255695929165,502,1023,521,-762.5,-9.5,772
5.12471655328798,502,1023,521,-762.5,-9.5,772
5.12687614728431,503,1021,518,-762,-7.5,769.5
5.12903574128064,502,1022,520,-762,-9,771
5.13119533527697,499,1020,521,-759.5,-11,770.5
5.1333549292733,495,1022,527,-758.5,-16,774.5
5.13551452326963,493,1022,529,-757.5,-18,775.5
5.13767411726595,493,1021,528,-757,-17.5,774.5
5.13983371126228,493,1022,529,-757.5,-18,775.5
5.14199330525861,493,1021,528,-757,-17.5,774.5
5.14415289925494,492,1021,529,-756.5,-18.5,775
5.14631249325127,492,1023,531,-757.5,-19.5,777
5.1484720872476,490,1021,531,-755.5,-20.5,776
5.15063168124393,489,1021,532,-755,-21.5,776.5
5.15279127524025,487,1022,535,-754.5,-24,778.5
5.15495086923658,484,1021,537,-752.5,-26.5,779
5.15711046323291,483,1021,538,-752,-27.5,779.5
5.15927005722924,485,1021,536,-753,-25.5,778.5
5.16142965122557,487,1022,535,-754.5,-24,778.5
5.1635892452219,487,1020,533,-753.5,-23,776.5
5.16574883921823,487,1020,533,-753.5,-23,776.5
5.16790843321456,487,1021,534,-754,-23.5,777.5
5.17006802721088,486,1022,536,-754,-25,779
5.17222762120721,486,1022,536,-754,-25,779
5.17438721520354,488,1022,534,-755,-23,778
5.17654680919987,490,1021,531,-755.5,-20.5,776
5.1787064031962,494,1021,527,-757.5,-16.5,774
5.18086599719253,498,1022,524,-760,-13,773
5.18302559118886,499,1023,524,-761,-12.5,773.5
5.18518518518519,498,1023,525,-760.5,-13.5,774
5.18734477918151,494,1022,528,-758,-17,775
5.18950437317784,495,1021,526,-758,-15.5,773.5
5.19166396717417,492,1021,529,-756.5,-18.5,775
5.1938235611705,488,1022,534,-755,-23,778
5.19598315516683,487,1023,536,-755,-24.5,779.5
5.19814274916316,488,1021,533,-754.5,-22.5,777
5.20030234315949,488,1021,533,-754.5,-22.5,777
5.20246193715581,486,1022,536,-754,-25,779
5.20462153115214,486,1020,534,-753,-24,777
5.20678112514847,491,1022,531,-756.5,-20,776.5
5.2089407191448,497,1022,525,-759.5,-14,773.5
5.21110031314113,508,1021,513,-764.5,-2.5,767
5.21325990713746,522,1022,500,-772,11,761
5.21541950113379,549,1020,471,-784.5,39,745.5
5.21757909513012,574,1020,446,-797,64,733
5.21973868912644,601,1021,420,-811,90.5,720.5
5.22189828312277,623,1020,397,-821.5,113,708.5
5.2240578771191,639,1021,382,-830,128.5,701.5
5.22621747111543,651,1021,370,-836,140.5,695.5
5.22837706511176,655,1022,367,-838.5,144,694.5
5.23053665910809,649,1021,372,-835,138.5,696.5
5.23269625310442,637,1021,384,-829,126.5,702.5
5.23485584710074,613,1022,409,-817.5,102,715.5
5.23701544109707,583,1021,438,-802,72.5,729.5
5.2391750350934,554,1020,466,-787,44,743
5.24133462908973,533,1022,489,-777.5,22,755.5
5.24349422308606,517,1021,504,-769,6.5,762.5
5.24565381708239,501,1021,520,-761,-9.5,770.5
5.24781341107872,493,1023,530,-758,-18.5,776.5
5.24997300507505,487,1020,533,-753.5,-23,776.5
5.25213259907137,483,1021,538,-752,-27.5,779.5
5.2542921930677,480,1021,541,-750.5,-30.5,781
5.25645178706403,482,1021,539,-751.5,-28.5,780
5.25861138106036,489,1021,532,-755,-21.5,776.5
5.26077097505669,496,1021,525,-758.5,-14.5,773
5.26293056905302,503,1022,519,-762.5,-8,770.5
5.26509016304935,507,1021,514,-764,-3.5,767.5
5.26724975704568,507,1021,514,-764,-3.5,767.5
5.269409351042,504,1022,518,-763,-7,770
5.27156894503833,497,1022,525,-759.5,-14,773.5
5.27372853903466,494,1023,529,-758.5,-17.5,776
5.27588813303099,489,1021,532,-755,-21.5,776.5
5.27804772702732,490,1021,531,-755.5,-20.5,776
5.28020732102365,493,1022,529,-757.5,-18,775.5
5.28236691501998,491,1023,532,-757,-20.5,777.5
5.28452650901631,488,1022,534,-755,-23,778
5.28668610301263,486,1021,535,-753.5,-24.5,778
5.28884569700896,489,1020,531,-754.5,-21,775.5
5.29100529100529,490,1021,531,-755.5,-20.5,776
5.29316488500162,490,1022,532,-756,-21,777
5.29532447899795,486,1020,534,-753,-24,777
5.29748407299428,482,1020,538,-751,-28,779
5.29964366699061,479,1021,542,-750,-31.5,781.5
5.30180326098693,482,1022,540,-752,-29,781
5.30396285498326,487,1023,536,-755,-24.5,779.5
5.30612244897959,489,1020,531,-754.5,-21,775.5
5.30828204297592,487,1022,535,-754.5,-24,778.5
5.31044163697225,489,1021,532,-755,-21.5,776.5
5.31260123096858,491,1022,531,-756.5,-20,776.5
5.31476082496491,494,1021,527,-757.5,-16.5,774
5.31692041896124,495,1022,527,-758.5,-16,774.5
5.31908001295756,497,1021,524,-759,-13.5,772.5
5.32123960695389,500,1021,521,-760.5,-10.5,771
5.32339920095022,500,1020,520,-760,-10,770
5.32555879494655,498,1022,524,-760,-13,773
5.32771838894288,496,1021,525,-758.5,-14.5,773
5.32987798293921,494,1021,527,-757.5,-16.5,774
5.33203757693554,494,1020,526,-757,-16,773
5.33419717093186,492,1022,530,-757,-19,776
5.33635676492819,490,1021,531,-755.5,-20.5,776
5.33851635892452,491,1022,531,-756.5,-20,776.5
5.34067595292085,494,1021,527,-757.5,-16.5,774
5.34283554691718,496,1021,525,-758.5,-14.5,773
5.34499514091351,497,1021,524,-759,-13.5,772.5
5.34715473490984,498,1023,525,-760.5,-13.5,774
5.34931432890617,497,1020,523,-758.5,-13,771.5
5.35147392290249,499,1021,522,-760,-11.5,771.5
5.35363351689882,505,1022,517,-763.5,-6,769.5
5.35579311089515,510,1021,511,-765.5,-0.5,766
5.35795270489148,513,1022,509,-767.5,2,765.5
5.36011229888781,513,1023,510,-768,1.5,766.5
5.36227189288414,511,1023,512,-767,-0.5,767.5
5.36443148688047,505,1021,516,-763,-5.5,768.5
5.36659108087679,503,1023,520,-763,-8.5,771.5
5.36875067487312,500,1021,521,-760.5,-10.5,771
5.37091026886945,500,1021,521,-760.5,-10.5,771
5.37306986286578,501,1021,520,-761,-9.5,770.5
5.37522945686211,502,1021,519,-761.5,-8.5,770
5.37738905085844,508,1020,512,-764,-2,766
5.37954864485477,514,1021,507,-767.5,3.5,764
5.3817082388511,520,1023,503,-771.5,8.5,763
5.38386783284742,524,1021,497,-772.5,13.5,759
5.38602742684375,521,1021,500,-771,10.5,760.5
5.38818702084008,518,1023,505,-770.5,6.5,764
5.39034661483641,509,1023,514,-766,-2.5,768.5
5.39250620883274,502,1023,521,-762.5,-9.5,772
5.39466580282907,504,1021,517,-762.5,-6.5,769
5.3968253968254,506,1021,515,-763.5,-4.5,768
5.39898499082173,512,1021,509,-766.5,1.5,765
5.40114458481805,516,1023,507,-769.5,4.5,765
5.40330417881438,519,1021,502,-770,8.5,761.5
5.40546377281071,521,1021,500,-771,10.5,760.5
5.40762336680704,526,1020,494,-773,16,757
5.40978296080337,525,1022,497,-773.5,14,759.5
5.4119425547997,525,1021,496,-773,14.5,758.5
5.41410214879603,524,1022,498,-773,13,760
5.41626174279236,520,1022,502,-771,9,762
5.41842133678868,517,1023,506,-770,5.5,764.5
5.42058093078501,522,1020,498,-771,12,759
5.42274052478134,524,1023,499,-773.5,12.5,761
5.42490011877767,527,1021,494,-774,16.5,757.5
5.427059712774,530,1021,491,-775.5,19.5,756
5.42921930677033,529,1022,493,-775.5,18,757.5
5.43137890076666,531,1020,489,-775.5,21,754.5
5.43353849476298,529,1020,491,-774.5,19,755.5
5.43569808875931,529,1021,492,-775,18.5,756.5
5.43785768275564,529,1021,492,-775,18.5,756.5
5.44001727675197,529,1022,493,-775.5,18,757.5
5.4421768707483,527,1021,494,-774,16.5,757.5
5.44433646474463,527,1022,495,-774.5,16,758.5
5.44649605874096,529,1022,493,-775.5,18,757.5
5.44865565273729,531,1021,490,-776,20.5,755.5
5.45081524673361,534,1022,488,-778,23,755
5.45297484072994,539,1021,482,-780,28.5,751.5
5.45513443472627,539,1021,482,-780,28.5,751.5
5.4572940287226,535,1022,487,-778.5,24,754.5
5.45945362271893,530,1021,491,-775.5,19.5,756
5.46161321671526,528,1021,493,-774.5,17.5,757
5.46377281071159,525,1022,497,-773.5,14,759.5
5.46593240470791,523,1021,498,-772,12.5,759.5
5.46809199870424,523,1021,498,-772,12.5,759.5
5.47025159270057,526,1020,494,-773,16,757
5.4724111866969,526,1021,495,-773.5,15.5,758
5.47457078069323,526,1021,495,-773.5,15.5,758
5.47673037468956,529,1022,493,-775.5,18,757.5
5.47888996868589,529,1023,494,-776,17.5,758.5
5.48104956268222,529,1021,492,-775,18.5,756.5
5.48320915667854,528,1021,493,-774.5,17.5,757
5.48536875067487,526,1021,495,-773.5,15.5,758
5.4875283446712,523,1021,498,-772,12.5,759.5
5.48968793866753,523,1023,500,-773,11.5,761.5
5.49184753266386,519,1021,502,-770,8.5,761.5
5.49400712666019,515,1023,508,-769,3.5,765.5
5.49616672065652,512,1021,509,-766.5,1.5,765
5.49832631465284,512,1022,510,-767,1,766
5.50048590864917,513,1021,508,-767,2.5,764.5
5.5026455026455,513,1023,510,-768,1.5,766.5
5.50480509664183,509,1021,512,-765,-1.5,766.5
5.50696469063816,504,1021,517,-762.5,-6.5,769
5.50912428463449,502,1022,520,-762,-9,771
5.51128387863082,494,1022,528,-758,-17,775
5.51344347262715,489,1021,532,-755,-21.5,776.5
5.51560306662347,483,1021,538,-752,-27.5,779.5
5.5177626606198,480,1022,542,-751,-31,782
5.51992225461613,481,1021,540,-751,-29.5,780.5
5.52208184861246,484,1022,538,-753,-27,780
5.52424144260879,488,1022,534,-755,-23,778
5.52640103660512,491,1022,531,-756.5,-20,776.5
5.52856063060145,492,1020,528,-756,-18,774
5.53072022459778,486,1021,535,-753.5,-24.5,778
5.5328798185941,482,1022,540,-752,-29,781
5.53503941259043,484,1022,538,-753,-27,780
5.53719900658676,489,1023,534,-756,-22.5,778.5
5.53935860058309,493,1022,529,-757.5,-18,775.5
5.54151819457942,495,1022,527,-758.5,-16,774.5
5.54367778857575,500,1023,523,-761.5,-11.5,773
5.54583738257208,501,1021,520,-761,-9.5,770.5
5.54799697656841,495,1023,528,-759,-16.5,775.5
5.55015657056473,491,1021,530,-756,-19.5,775.5
5.55231616456106,486,1023,537,-754.5,-25.5,780
5.55447575855739,481,1021,540,-751,-29.5,780.5
5.55663535255372,482,1021,539,-751.5,-28.5,780
5.55879494655005,480,1022,542,-751,-31,782
5.56095454054638,478,1022,544,-750,-33,783
5.56311413454271,481,1021,540,-751,-29.5,780.5
5.56527372853903,487,1022,535,-754.5,-24,778.5
5.56743332253536,492,1020,528,-756,-18,774
5.56959291653169,488,1022,534,-755,-23,778
5.57175251052802,489,1021,532,-755,-21.5,776.5
5.57391210452435,490,1021,531,-755.5,-20.5,776
5.57607169852068,492,1022,530,-757,-19,776
5.57823129251701,493,1021,528,-757,-17.5,774.5
5.58039088651334,492,1021,529,-756.5,-18.5,775
5.58255048050966,493,1023,530,-758,-18.5,776.5
5.58471007450599,498,1020,522,-759,-12,771
5.58686966850232,498,1022,524,-760,-13,773
5.58902926249865,497,1022,525,-759.5,-14,773.5
5.59118885649498,493,1021,528,-757,-17.5,774.5
5.59334845049131,492,1022,530,-757,-19,776
5.59550804448764,496,1022,526,-759,-15,774
5.59766763848396,495,1023,528,-759,-16.5,775.5
5.59982723248029,495,1022,527,-758.5,-16,774.5
5.60198682647662,493,1022,529,-757.5,-18,775.5
5.60414642047295,492,1023,531,-757.5,-19.5,777
5.60630601446928,490,1022,532,-756,-21,777
5.60846560846561,489,1021,532,-755,-21.5,776.5
5.61062520246194,489,1021,532,-755,-21.5,776.5
5.61278479645827,492,1020,528,-756,-18,774
5.61494439045459,495,1022,527,-758.5,-16,774.5
5.61710398445092,498,1020,522,-759,-12,771
5.61926357844725,496,1021,525,-758.5,-14.5,773
5.62142317244358,497,1022,525,-759.5,-14,773.5
5.62358276643991,500,1021,521,-760.5,-10.5,771
5.62574236043624,502,1022,520,-762,-9,771
5.62790195443257,500,1023,523,-761.5,-11.5,773
5.6300615484289,499,1019,520,-759,-10.5,769.5
5.63222114242522,493,1021,528,-757,-17.5,774.5
5.63438073642155,492,1022,530,-757,-19,776
5.63654033041788,490,1021,531,-755.5,-20.5,776
5.63869992441421,490,1021,531,-755.5,-20.5,776
5.64085951841054,493,1023,530,-758,-18.5,776.5
5.64301911240687,495,1020,525,-757.5,-15,772.5
5.6451787064032,494,1020,526,-757,-16,773
5.64733830039952,494,1021,527,-757.5,-16.5,774
5.64949789439585,496,1022,526,-759,-15,774
5.65165748839218,498,1021,523,-759.5,-12.5,772
5.65381708238851,498,1021,523,-759.5,-12.5,772
5.65597667638484,497,1020,523,-758.5,-13,771.5
5.65813627038117,495,1022,527,-758.5,-16,774.5
5.6602958643775,497,1021,524,-759,-13.5,772.5
5.66245545837383,497,1021,524,-759,-13.5,772.5
5.66461505237015,495,1021,526,-758,-15.5,773.5
5.66677464636648,491,1022,531,-756.5,-20,776.5
5.66893424036281,485,1022,537,-753.5,-26,779.5
5.67109383435914,485,1021,536,-753,-25.5,778.5
5.67325342835547,492,1022,530,-757,-19,776
5.6754130223518,496,1023,527,-759.5,-15.5,775
5.67757261634813,500,1022,522,-761,-11,772
5.67973221034446,505,1022,517,-763.5,-6,769.5
5.68189180434078,510,1022,512,-766,-1,767
