t,leadI,leadII,leadIII,aVR,aVL,aVF
0,417.707738746642,391.52545695913,-26.1822817875119,-404.616597852886,221.945010267077,182.671587585809
0.00214339299110492,419.336170324642,399.580099404633,-19.756070920009,-409.458134864638,219.546120622326,189.912014242312
0.00428678598220984,419.423423260065,404.440767673395,-14.9826555866704,-411.93209546673,217.203039423368,194.729056043362
0.00643017897331476,420.30703857843,408.440436746499,-11.8666018319315,-414.373737662465,216.086820205181,198.286917457284
0.00857357196441968,421.138209089764,411.566071264186,-9.57213782557739,-416.352140176975,215.35517345767,200.996966719304
0.0107169649555246,421.885892436809,412.257862379803,-9.62803005700584,-417.071877408306,215.756961246907,201.314916161398
0.0128603579466295,418.597617779101,411.366341413134,-7.23127636596672,-414.981979596117,212.914447072534,202.067532523584
0.0150037509377344,414.516838338674,410.532450053193,-3.98438828548154,-412.524644195934,209.250613312078,203.274030883856
0.0171471439288394,415.272937154031,410.568543782102,-4.70439337192846,-412.920740468066,209.988665262979,202.932075205087
0.0192905369199443,413.741343746537,409.861654036423,-3.8796897101135,-411.80149889148,208.810516728325,202.990982163155
0.0214339299110492,413.861049182028,411.538283654609,-2.32276552741996,-412.699666418318,208.091907354724,204.607759063594
0.0235773229021541,413.179063480609,410.784596299203,-2.39446718140692,-411.981829889906,207.786765331008,204.195064558898
0.025720715893259,412.423034011758,409.172729020716,-3.25030499104258,-410.797881516237,207.8366695014,202.961212014837
0.0278641088843639,413.15695085829,409.89872217601,-3.25822868228039,-411.52783651715,208.207589770285,203.320246746865
0.0300075018754689,413.029738731938,410.615891713407,-2.41384701853076,-411.822815222673,207.721792875234,204.101022347438
0.0321508948665738,412.909130260975,408.978671993793,-3.93045826718242,-410.943901127384,208.419794264079,202.524106863305
0.0342942878576787,412.868522617047,408.188502428972,-4.68002018807482,-410.52851252301,208.774271402561,201.754241120449
0.0364376808487836,409.761126483952,406.65493265792,-3.10619382603238,-408.208029570936,206.433660154992,201.774369415944
0.0385810738398885,406.731923179225,405.144833057715,-1.58709012150973,-405.93837811847,204.159506650367,201.778871468103
0.0407244668309935,406.078749147546,402.82420025028,-3.25454889726558,-404.451474698913,204.666649022406,199.784825676507
0.0428678598220984,406.119656519867,402.042207926589,-4.07744859327801,-404.080932223229,205.098552556573,198.982379666656
0.0450112528132033,402.845422307419,401.198715086629,-1.64670722078961,-402.022068697024,202.246064764104,199.77600393292
0.0471546458043082,400.279640968462,399.520539085243,-0.759101883218534,-399.900090026852,200.51937142584,199.380718601012
0.0492980387954131,400.121895741349,398.643617807348,-1.47827793400091,-399.382756774348,200.800086837675,198.582669936674
0.0514414317865181,399.295371349133,396.23415421857,-3.06121713056348,-397.764762783852,201.178294239848,196.586468544003
0.053584824777623,401.798680358281,397.079132555757,-4.71954780252366,-399.438906457019,203.259114080402,196.179792376617
0.0557282177687279,402.798542158573,398.769853430371,-4.02868872820176,-400.784197794472,203.413615443387,197.370582351085
0.0578716107598328,406.14318700794,401.246394151622,-4.8967928563174,-403.694790579781,205.519989932129,198.174800647652
0.0600150037509377,409.343390848763,402.069527327587,-7.27386352117611,-405.706459088175,208.308627184969,197.397831903205
0.0621583967420427,406.026740295268,401.223178088056,-4.80356220721211,-403.624959191662,205.41515125124,198.209807940422
0.0643017897331476,398.667473978133,397.947718219932,-0.719755758201586,-398.307596099032,199.693614868167,198.613981230865
0.0664451827242525,392.170448659173,393.100328480738,0.929879821565464,-392.635388569955,195.620284418804,197.015104151152
0.0685885757153574,391.387168540648,390.70066106508,-0.686507475568476,-391.043914802864,196.036838008108,195.007076794756
0.0707319687064623,390.733318398998,389.954716517181,-0.778601881816996,-390.34401745809,195.755960140408,194.588057317682
0.0728753616975673,393.280172066426,390.819834939287,-2.46033712713916,-392.050003502856,197.870254596783,194.179748906074
0.0750187546886722,396.534942131473,390.863597109639,-5.67134502183359,-393.699269620556,201.103143576653,192.596126043903
0.0771621476797771,399.664000460286,393.242071808288,-6.42192865199792,-396.453036134287,203.042964556142,193.410071578145
0.079305540670882,401.925779790925,396.381537245796,-5.54424254512855,-399.15365851836,203.735011168027,195.418647350334
0.0814489336619869,405.007347472078,399.522373916844,-5.48497355523398,-402.264860694461,205.246160513656,197.018700180805
0.0835923266530918,406.594551438086,400.31088214538,-6.28366929270607,-403.452716791733,206.439110365396,197.013606426337
0.0857357196441968,408.267978895896,400.339723899548,-7.92825499634819,-404.303851397722,208.098116946122,196.2057344516
0.0878791126353017,403.602080397976,400.378401343378,-3.22367905459811,-401.990240870677,203.412879726287,198.57736114439
0.0900225056264066,399.669736346859,398.009602929561,-1.66013341729729,-398.83966963821,200.664934882078,198.174734756132
0.0921658986175115,395.646822221602,394.807304241844,-0.839517979757261,-395.227063231723,198.243170100679,196.983893131044
0.0943092916086164,393.155842157494,392.376396667018,-0.779445490475723,-392.766119412256,196.967643823985,195.798475588271
0.0964526845997214,394.652036241905,393.132108288513,-1.51992795339237,-393.892072265209,198.085982097649,195.80609016756
0.0985960775908263,395.431077039028,392.334093141478,-3.09698389754971,-393.882585090253,199.264030468289,194.618554621964
0.100739470581931,396.301348135013,392.37019566028,-3.93115247473247,-394.335771897647,200.116250304873,194.219521592774
0.102882863573036,396.425977693488,392.426097954761,-3.99987973872737,-394.426037824124,200.212928716108,194.213109108017
0.105026256564141,394.142261585073,391.673672913266,-2.46858867180697,-392.907967249169,198.30542512844,194.602542120729
0.107169649555246,394.947900593473,391.674997388272,-3.27290320520086,-393.311448990873,199.110401899337,194.201047091536
0.109313042546351,395.649984564714,390.838486170053,-4.81149839466087,-393.244235367383,200.230741479687,193.013493887696
0.111456435537456,393.119804558772,389.98272702008,-3.13707753869238,-391.551265789426,198.128441048732,193.422824740694
0.113599828528561,393.801792585288,389.939019888981,-3.86277269630739,-391.870406237135,198.832282640798,193.038123596337
0.115743221519666,395.384979382478,389.939410918154,-5.44556846432391,-392.662195150316,200.415273923401,192.246921226915
0.117886614510771,397.082801763587,392.365761107545,-4.71704065604172,-394.724281435566,200.899921209814,193.824360225752
0.120030007501875,398.833732824042,394.012963794515,-4.82076902952605,-396.423348309278,201.827250926784,194.596097382495
0.12217340049298,405.304913628378,398.022267845027,-7.28264578335063,-401.663590736702,206.293779705864,195.369811030838
0.124316793484085,418.002321156448,405.95748960965,-12.0448315467972,-411.979905383049,215.023576351622,196.956329031427
0.12646018647519,432.149114392574,417.817572150663,-14.3315422419109,-424.983343271618,223.240328317242,201.743014954376
0.128603579466295,447.035012257764,429.659329250841,-17.3756830069237,-438.347170754303,232.205347632344,206.141823121958
0.1307469724574,462.796652249091,443.91266632134,-18.8839859277506,-453.354659285215,240.840319088421,212.514340196795
0.132890365448505,481.12149785219,459.818481578882,-21.3030162733082,-470.469989715536,251.212257062749,219.257732652787
0.13503375843961,496.437356996252,474.991742349329,-21.4456146469223,-485.71454967279,258.941485821587,226.773063851204
0.137177151430715,510.208628927448,487.80400824076,-22.4046206866875,-499.006318584104,266.306624807068,232.699693777036
0.13932054442182,520.680471378703,498.199442232837,-22.4810291458653,-509.43995680577,271.580750262284,237.859206543486
0.141463937412925,523.779448981874,504.549157752409,-19.2302912294647,-514.164303367141,271.504870105669,242.659433261472
0.14360733040403,517.162402095533,506.853724319536,-10.308677775997,-512.008063207534,263.735539935765,248.272523271769
0.145750723395135,505.759851188156,501.187251206062,-4.5725999820944,-503.473551197109,255.166225585125,248.307325611984
0.147894116386239,493.723081447407,493.175655922279,-0.547425525128517,-493.449368684843,247.135253486268,246.314115198575
0.150037509377344,477.155791543579,482.06567422049,4.90988267691102,-479.610732882035,236.122954433334,243.487778448701
0.152180902368449,463.923400533341,469.434515580798,5.51111504745717,-466.67895805707,229.206142742942,237.472815314128
0.154324295359554,447.489645286285,456.020864079174,8.53121879288898,-451.75525468273,219.479213246698,232.276041436032
0.156467688350659,428.48655353883,440.968211050149,12.481657511319,-434.72738229449,208.002448013756,226.724934280734
0.158611081341764,414.02476738583,427.426310721965,13.4015433361348,-420.725539053898,200.311612024848,220.41392702905
0.160754474332869,405.792807055313,417.799380790831,12.0065737355184,-411.796093923072,196.893116659897,214.902977263175
0.162897867323974,401.580289914463,410.55326814334,8.97297822887697,-406.066779028901,196.303655842793,209.763123186108
0.165041260315079,401.531556805962,408.126561842988,6.5950050370256,-404.829059324475,197.468275884468,207.360783440007
0.167184653306184,403.29624453556,405.779262064929,2.48301752936851,-404.537753300244,200.406613503096,204.131139797149
0.169328046297289,404.394788867212,405.084329447404,0.689540580192386,-404.739559157308,201.85262414351,202.886935013798
0.171471439288394,405.451512258025,404.403551770533,-1.04796048749216,-404.927532014279,203.249736372759,201.67779564152
0.173614832279498,407.90492679443,403.677889440839,-4.22703735359124,-405.791408117635,206.065982074011,199.725426043624
0.175758225270603,404.562968716799,403.663273255333,-0.899695461466195,-404.113120986066,202.731332089133,201.381788896933
0.177901618261708,401.874423479888,401.980589827643,0.106166347754311,-401.927506653765,200.884128566067,201.043378087698
0.180045011252813,400.80791804165,398.678985303841,-2.12893273780895,-399.743451672746,201.468425389729,198.275026283016
0.182188404243918,399.926870942953,397.004747424862,-2.92212351809098,-398.465809183907,201.424497230522,197.041311953385
0.184331797235023,398.484749339751,396.211225576058,-2.27352376369248,-397.347987457904,200.379136551722,196.968850906183
0.186475190226128,397.988648146617,393.916155865115,-4.07249228150209,-395.952402005866,201.03057021406,194.921831791807
0.188618583217233,398.270921970999,394.838726608811,-3.43219536218839,-396.554824289905,200.851558666594,195.703265623311
0.190761976208338,400.757778334388,395.729353163324,-5.0284251710633,-398.243565748856,202.893101752725,195.35046399613
0.192905369199443,401.413739577998,395.737721514878,-5.6760180631199,-398.575730546438,203.544878820559,195.030851725879
0.195048762190548,399.522826075546,396.446969770135,-3.07585630541126,-397.984897922841,201.299341190479,196.685556732362
0.197192155181653,396.058887596819,394.728639545888,-1.33024805093089,-395.393763571354,198.694567823875,196.699195747479
0.199335548172757,394.371220728002,393.042343823937,-1.32887690406517,-393.706782275969,197.850048816033,195.856733459936
0.201478941163862,393.723058341514,389.858655246483,-3.86440309503087,-391.790856793998,198.793730718272,192.997126075726
0.203622334154967,393.229313548674,389.947239031344,-3.28207451733005,-391.588276290009,198.255694033002,193.332582257007
0.205765727146072,392.708555797942,390.074163723227,-2.63439207471487,-391.391359760585,197.671473936329,193.719885824256
0.207909120137177,395.173947849847,389.365857815844,-5.80809003400327,-392.269902832846,200.491018941925,191.77888389092
0.210052513128282,396.6039925777,391.742007177128,-4.86198540057165,-394.172999877414,200.732988989136,193.440010888278
0.212195906119387,397.890084390592,393.235609349989,-4.65447504060296,-395.562846870291,201.272279715597,194.290567154693
0.214339299110492,400.012201696789,395.494660925493,-4.51754077129635,-397.753431311141,202.264871234043,195.488560077098
0.216482692101597,399.953866107347,395.42111384828,-4.53275225906646,-397.687489977814,202.243309183207,195.444180794607
0.218626085092702,400.136750294339,396.241825241699,-3.89492505263991,-398.189287768019,202.01583767349,196.17345009453
0.220769478083807,401.244641507599,394.766325134509,-6.47831637308968,-398.005483321054,203.861478940344,194.14400438071
0.222912871074912,399.112819634433,394.896291956673,-4.2165276777597,-397.004555795553,201.664673656096,195.339882139457
0.225056264066017,399.145809578548,394.957747622122,-4.18806195642611,-397.051778600335,201.666935767487,195.384842832848
0.227199657057121,398.142174771533,394.111440591234,-4.03073418029891,-396.126807681384,201.086454475916,195.040353205468
0.229343050048226,398.608823096045,393.180480961037,-5.42834213500788,-395.894652028541,202.018582615526,193.876069413015
0.231486443039331,396.774338796111,393.83869976615,-2.93563902996095,-395.30651928113,199.854988913036,195.451530368094
0.233629836030436,398.353167130345,392.996721416122,-5.35644571422347,-395.674944273233,201.854806422284,193.820137850949
0.235773229021541,397.795359514113,395.454585346334,-2.34077416777939,-396.624972430223,200.068066840946,196.556905589277
0.237916622012646,400.518598458249,395.607976036111,-4.91062242213741,-398.06328724718,202.714610440193,195.348676806987
0.240060015003751,399.95906090067,395.746101644705,-4.21295925596485,-397.852581272688,202.086010078318,195.76657119437
0.242203407994856,403.11863215774,397.370978579483,-5.74765357825748,-400.244805368611,204.433142867999,195.811662500613
0.244346800985961,402.061356386199,398.072469770569,-3.98888661563001,-400.066913078384,203.025121500914,197.041791577469
0.246490193977066,404.096699569718,398.698225764506,-5.39847380521184,-401.397462667112,204.747586687465,196.649875979647
0.248633586968171,402.291905158676,398.558076635299,-3.73382852337716,-400.424990896988,203.012866841027,197.412124055961
0.250776979959276,403.933222281399,399.330812926195,-4.60240935520392,-401.632017603797,204.267815818301,197.364201785496
0.25292037295038,404.22431510652,399.445629279647,-4.77868582687267,-401.834972193084,204.501500466696,197.333471726387
0.255063765941485,405.367450964787,400.423088854774,-4.94436211001295,-402.89526990978,205.1559065374,197.73936337238
0.25720715893259,405.556095586355,399.767076380952,-5.78901920540261,-402.661585983654,205.672557395879,196.989028587775
0.259350551923695,403.084247815242,399.772784210188,-3.31146360505386,-401.428516012715,203.197855710148,198.230660302567
0.2614939449148,401.980416281267,398.050361546316,-3.93005473495094,-400.015388913792,202.955235508109,197.060153405683
0.263637337905905,399.260213023329,397.063013011404,-2.19720001192468,-398.161613017367,200.728706517627,197.43290649974
0.26578073089701,399.10295707201,395.34074311911,-3.76221395290071,-397.22185009556,201.432585512455,195.789264583104
0.267924123888115,398.424668140819,395.349738220258,-3.07492992056098,-396.887203180538,200.74979903069,196.137404149848
0.27006751687922,400.325637067956,396.29027752612,-4.03535954183621,-398.307957297038,202.180498304896,196.127458992142
0.272210909870325,402.225852414989,398.865120116088,-3.36073229890115,-400.545486265539,202.793292356945,197.752193908594
0.27435430286143,404.727508576506,400.571919582631,-4.15558899387531,-402.649714079568,204.441548785191,198.208165294378
0.276497695852535,408.556491732409,402.927863028356,-5.6286287040532,-405.742177380382,207.092560218231,198.649617162151
0.278641088843639,411.424586074793,406.745883674429,-4.6787024003645,-409.085234874611,208.051644237579,201.033590637032
0.280784481834744,414.323356570409,408.15070067446,-6.17265589594984,-411.237028622434,210.24800623318,200.989022389255
0.282927874825849,417.427040690526,409.641734192373,-7.78530649815355,-413.534387441449,212.60617359434,200.92821384711
0.285071267816954,416.807785826292,410.487452256579,-6.3203335697122,-413.647619041436,211.564059698002,202.083559343434
0.287214660808059,415.532838717549,410.656279186368,-4.8765595311811,-413.094558951959,210.204699124365,202.889859827594
0.289358053799164,411.818372666205,408.454548734371,-3.36382393183351,-410.136460700288,207.591098299019,202.545362401269
0.291501446790269,410.268987164263,406.946535819406,-3.32245134485726,-408.607761491834,206.79571925456,201.812042237274
0.293644839781374,407.678600480681,406.078839401948,-1.59976107873251,-406.878719941315,204.639180779707,202.239539161608
0.295788232772479,409.729759764062,406.684794005458,-3.04496575860384,-408.20727688476,206.387362761333,201.819914123427
0.297931625763584,409.474299773987,405.699147897102,-3.77515187688584,-407.586723835545,206.624725825437,200.961998010108
0.300075018754689,410.250337836934,406.419096607078,-3.83124122985544,-408.334717222006,207.040789533395,201.293927688611
0.302218411745794,408.902129817937,405.719903414253,-3.18222640368396,-407.311016616095,206.042178110811,201.268838505285
0.304361804736899,410.851022823112,406.727634182115,-4.12338864099621,-408.789328502614,207.487205732054,201.30212277056
0.306505197728003,412.697485298357,408.518579438111,-4.17890586024595,-410.608032368234,208.438195579301,202.169836788932
0.308648590719108,413.480181518184,409.375066749002,-4.10511476918123,-411.427624133593,208.792648143682,202.634975989911
0.310791983710213,413.992410778159,409.253043694957,-4.73936708320127,-411.622727236558,209.36588893068,202.256838305878
0.312935376701318,412.022946184316,409.018880999554,-3.00406518476274,-410.520913591935,207.51350568454,203.007407907395
0.315078769692423,414.958587463145,410.404939058007,-4.55364840513863,-412.681763260576,209.756117934142,202.925645326434
0.317222162683528,418.18399013296,410.360521395423,-7.82346873753698,-414.272255764191,213.003729435248,201.268526328943
0.319365555674633,419.28809961131,412.88811723645,-6.39998237485963,-416.08810842388,212.844040993085,203.244067430795
0.321508948665738,419.673779123101,414.72342121789,-4.95035790521104,-417.198600170495,212.312068514156,204.886531656339
0.323652341656843,422.284113603222,416.509264299621,-5.77484930360117,-419.396688951421,214.029481453412,205.36720749801
0.325795734647948,423.00519744848,418.123743080802,-4.88145436767837,-420.564470264641,213.943325908079,206.621144356562
0.327939127639053,421.879022534644,417.961778671026,-3.91724386361756,-419.920400602835,212.898133199131,207.022267403704
0.330082520630158,422.285724265143,417.712439608741,-4.57328465640222,-419.999081936942,213.429504460773,206.569577476169
0.332225913621262,423.666942943684,417.529671613921,-6.13727132976356,-420.598307278803,214.902107136724,205.696200142079
0.334369306612367,422.17734801326,416.730982688949,-5.44636532431065,-419.454165351104,213.811856668785,205.642308682319
0.336512699603472,420.936908513722,417.700111814041,-3.23679669968152,-419.318510163882,212.086852606702,207.23165755718
0.338656092594577,424.49942181653,419.531262833642,-4.96815898288844,-422.015342325086,214.733790399709,207.281551925377
0.340799485585682,426.269226321257,421.277545801531,-4.99168051972521,-423.773386061394,215.630453420491,208.142932640903
0.342942878576787,426.926473076938,422.048974253106,-4.87749882383247,-424.487723665022,215.901985950385,208.585737714637
0.345086271567892,427.352871142045,421.866347493402,-5.48652364864381,-424.609609317724,216.419697395345,208.189911922379
0.347229664558997,428.574014981746,423.23198089228,-5.34203408946519,-425.902997937013,216.958024535605,208.944973401408
0.349373057550102,429.230015021163,423.901448984869,-5.32856603629443,-426.565732003016,217.279290528729,209.286441474287
0.351516450541207,431.787037633448,425.53539897465,-6.25163865879813,-428.661218304049,219.019338146123,209.641880157926
0.353659843532312,432.955024064613,426.509647152211,-6.44537691240168,-429.732335608412,219.700200488507,210.032135119905
0.355803236523417,435.67618713669,429.090290885884,-6.58589625080566,-432.383239011287,221.131041693748,211.252197317539
0.357946629514521,434.976603309337,429.977700154374,-4.99890315496287,-432.477151731855,219.98775323215,212.489398499705
0.360090022505626,434.777129577826,429.916281789887,-4.86084778793901,-432.346705683857,219.818988682883,212.527717000974
0.362233415496731,434.415302912153,430.543475654498,-3.87182725765535,-432.479389283325,219.143565084904,213.335824198421
0.364376808487836,434.910953438483,430.37982037752,-4.53113306096299,-432.645386908001,219.721043249723,212.924343658278
0.366520201478941,434.059879470579,430.318373046898,-3.74150642368096,-432.189126258739,218.90069294713,213.288433311609
0.368663594470046,433.47656324754,430.387584962024,-3.08897828551653,-431.932074104782,218.282770766528,213.649303338254
0.370806987461151,433.816749782677,430.533281929019,-3.28346785365818,-432.175015855848,218.550108818168,213.62490703768
0.372950380452256,434.072823421269,429.865392732032,-4.20743068923713,-431.969108076651,219.140127055253,212.828981021398
0.375093773443361,436.473392170591,431.485937972158,-4.98745419843306,-433.979665071375,220.730423184512,213.249241886863
0.377237166434466,439.426686945924,433.00030058692,-6.4263863590042,-436.213493766422,222.926536652464,213.286957113958
0.379380559425571,439.903226311463,434.463840747759,-5.43938556370369,-437.183533529611,222.671305937583,214.512227592028
0.381523952416676,440.490385088531,435.166337324121,-5.32404776441052,-437.828361206326,222.907216426471,214.921144779855
0.383667345407781,439.728257660077,435.165091773295,-4.56316588678203,-437.446674716686,222.145711773429,215.300962943256
0.385810738398885,437.589655283201,432.867239269752,-4.72241601344939,-435.228447276477,221.156035648325,214.072411628151
0.38795413138999,436.295171905287,432.183718698402,-4.11145320688456,-434.239445301845,220.203312556086,214.036132745759
0.390097524381095,432.476983832941,429.860766351401,-2.61621748153965,-431.168875092171,217.54660065724,213.622274434931
0.3922409173722,430.012230988101,428.241720776444,-1.77051021165761,-429.126975882273,215.891370599879,213.235605282393
0.394384310363305,430.54622530302,427.349275150925,-3.19695015209516,-428.947750226972,216.871587727558,212.076162499415
0.39652770335441,429.480592115649,425.663072086446,-3.81752002920348,-427.571832101048,216.649056072426,210.922776028621
0.398671096345515,428.577834852461,425.633364040241,-2.9444708122208,-427.105599446351,215.761152832341,211.34444661401
0.40081448933662,425.525119757537,424.896611415725,-0.628508341811994,-425.210865586631,213.076814049674,212.134051536956
0.402957882327725,424.214071588511,422.618881290373,-1.59519029813873,-423.416476439442,212.904630943325,210.511845496117
0.40510127531883,420.493334449772,418.730682675912,-1.76265177385983,-419.612008562842,211.127993111816,208.484015451026
0.407244668309935,416.584390817718,416.354435005095,-0.229955812623132,-416.469412911407,208.407173315171,208.062239596236
0.40938806130104,414.036068517349,412.307089742658,-1.72897877469035,-413.171579130004,207.88252364602,205.289055483984
0.411531454292144,408.983551386046,409.814348137426,0.830796751379296,-409.398949761736,204.076377317334,205.322572444402
0.413674847283249,407.171986644778,407.358363681088,0.18637703630975,-407.265175162933,203.492804804234,203.772370358699
0.415818240274354,408.739990434316,405.780354618181,-2.95963581613489,-407.260172526248,205.849813125225,201.410359401023
0.417961633265459,406.544630243216,404.278844182629,-2.265786060587,-405.411737212923,204.405208151902,201.006529061021
0.420105026256564,401.261593658441,401.209728003294,-0.0518656551471963,-401.235660830868,200.656729656794,200.578931174073
0.422248419247669,399.077052284263,398.88833953424,-0.188712750022603,-398.982695909251,199.632882517143,199.349813392109
0.424391812238774,396.692632473248,397.275540654733,0.582908181484356,-396.98408656399,198.054862145882,198.929224418109
0.426535205229879,398.078886962824,395.590828936784,-2.48805802604005,-396.834857949804,200.283472494432,196.551385455372
0.428678598220984,395.415672344014,393.894515595195,-1.52115674881873,-394.655093969604,198.468414546416,196.186679423188
0.430821991212089,393.645220349858,392.256069706571,-1.38915064328734,-392.950645028214,197.517185496573,195.433459531642
0.432965384203194,392.884013659544,391.502856360842,-1.38115729870208,-392.193435010193,197.132585479123,195.06084953107
0.435108777194299,393.1102968319,390.814286669496,-2.29601016240383,-391.962291750698,197.703153497152,194.259138253546
0.437252170185403,390.208690066924,388.533899139462,-1.6747909274618,-389.371294603193,195.941740497193,193.429554106
0.439395563176508,388.773166697467,387.773538215047,-0.999628482420178,-388.273352456257,194.886397589944,193.386954866313
0.441538956167613,385.533203584396,384.540111228763,-0.993092355632939,-385.03665740658,193.263147970015,191.773509436565
0.443682349158718,385.296202234126,382.048579092588,-3.24762314153816,-383.672390663357,194.271912687832,189.400477975525
0.445825742149823,384.238126015318,382.751125814442,-1.48700020087557,-383.49462591488,192.862563108097,190.632062806783
0.447969135140928,388.078989929832,383.52422117981,-4.55476875002142,-385.801605554821,196.316879339927,189.484726214894
0.450112528132033,385.774498846908,383.582853540295,-2.191645306613,-384.678676193602,193.983072076761,190.695604116841
0.452255921123138,386.80841919056,382.890710633247,-3.91770855731261,-384.849564911903,195.363063873936,189.486501037967
0.454399314114243,381.506582826328,380.594607548507,-0.911975277820886,-381.050595187418,191.209279052075,189.841316135343
0.456542707105348,380.837474987278,377.441783604277,-3.39569138300067,-379.139629295778,192.116583185139,187.023046110638
0.458686100096453,379.95892894272,377.391248162884,-2.56768077983668,-378.675088552802,191.263304861278,187.411783691523
0.460829493087558,382.092345201677,378.084894819779,-4.00745038189791,-380.088620010728,193.049897791787,187.038722218941
0.462972886078662,382.615638640435,378.780573564829,-3.8350650756052,-380.698106102632,193.22535185802,187.472754244612
0.465116279069767,386.455947681433,379.533911427519,-6.92203625391437,-382.994929554476,196.688991967674,186.305937586802
0.467259672060872,386.547283461092,381.166699396115,-5.38058406497692,-383.856991428604,195.963933763034,187.893057665569
0.469403065051977,387.610098158573,382.864593518903,-4.74550463967006,-385.237345838738,196.177801399121,189.059544439616
0.471546458043082,385.521281325575,381.392815332141,-4.12846599343396,-383.457048328858,194.824873659504,188.632174669354
0.473689851034187,385.667974213308,381.453382968123,-4.2145912451852,-383.560678590715,194.941282729247,188.619395861469
0.475833244025292,383.984641984142,380.62545272991,-3.35918925423215,-382.305047357026,193.671915619187,188.633131737839
0.477976637016397,382.106408057671,378.921428260946,-3.1849797967252,-380.513918159309,192.645693927198,187.86822423211
0.480120030007502,385.755927641844,380.372329247737,-5.3835983941068,-383.064128444791,195.569763017976,187.494365426815
0.482263422998607,384.79261284527,380.287028115034,-4.50558473023608,-382.539820480152,194.649098787753,187.890721692399
0.484406815989712,385.67772608045,381.894130891462,-3.78359518898799,-383.785928485956,194.730660634719,189.055267851237
0.486550208980817,385.988170467692,382.013742319549,-3.97442814814275,-384.000956393621,194.981299307917,189.019657085703
0.488693601971922,387.933096605007,382.968925136549,-4.96417146845818,-385.451010870778,196.448634036733,189.002376834045
0.490836994963026,388.125506289761,383.876326520992,-4.24917976876873,-386.000916405377,196.187343029265,189.813573376112
0.492980387954131,385.652495509815,383.078766183732,-2.57372932608291,-384.365630846773,194.113112417949,190.252518428824
0.495123780945236,386.119780833238,382.160202896654,-3.95957793658357,-384.139991864946,195.039679384911,189.100312480035
0.497267173936341,384.151264264072,381.185871613975,-2.96539265009739,-382.668567939023,193.558328457085,189.110239481939
0.499410566927446,379.969361542217,377.874881703546,-2.09447983867108,-378.922121622882,191.031920690444,187.890200932438
0.501553959918551,379.26426361788,377.074206545619,-2.19005707226125,-378.169235081749,190.727160345071,187.442074736679
0.503697352909656,378.810912554055,376.408533612351,-2.40237894170389,-377.609723083203,190.606645747879,187.003077335324
0.505840745900761,383.967032707258,378.980610460833,-4.98642224642481,-381.473821584046,194.476727476841,186.997094107204
0.507984138891866,386.553202355138,381.499264172334,-5.05393818280396,-384.026233263736,195.803570268971,188.222662994765
0.510127531882971,389.624955509645,383.882232524599,-5.74272298504684,-386.753594017122,197.683839247346,189.069754769776
0.512270924874076,393.248734046034,385.337030593081,-7.91170345295365,-389.292882319557,200.580218749494,188.712663570063
0.514414317865181,394.459283022559,387.535892721018,-6.92339030154187,-390.997587871789,200.691336662051,190.306251209738
0.516557710856285,392.693883134,386.620851339477,-6.07303179452322,-389.657367236738,199.383457464262,190.273909772477
0.51870110384739,390.445548206476,385.844243322185,-4.60130488429132,-388.14489576433,197.523426545384,190.621469218947
0.520844496838495,389.219698297354,386.781872259617,-2.43782603773644,-388.000785278485,195.828762167545,192.17202311094
0.5229878898296,390.376529385324,386.95691086351,-3.41961852181419,-388.666720124417,196.898073953569,191.768646170848
0.525131282820705,390.508948928045,386.258101254627,-4.2508476734186,-388.383525091336,197.379898300732,191.003626790604
0.52727467581181,390.328698300611,384.629295772057,-5.69940252855349,-387.478997036334,198.014050414582,189.464946621752
0.529418068802915,389.952609819445,385.277983956311,-4.67462586313457,-387.615296887878,197.31361784129,190.301679046588
0.53156146179402,389.620018891293,385.913175228424,-3.70684366286889,-387.766597059859,196.663431277081,191.103165782778
0.533704854785125,389.539599189282,385.837264401302,-3.70233478798002,-387.688431795292,196.620966988631,191.067464806661
0.53584824777623,389.757982707608,385.094881876627,-4.66310083098176,-387.426432292118,197.210541769295,190.215890522822
0.537991640767335,389.33928658522,386.034279035055,-3.30500755016521,-387.686782810137,196.322147067693,191.364635742445
0.54013503375844,390.428727987969,386.180250247133,-4.24847774083622,-388.304489117551,197.338602864402,190.965886253148
0.542278426749545,392.04744348065,387.031231984763,-5.01621149588618,-389.539337732707,198.531827488268,191.007510244439
0.544421819740649,393.385566102343,387.760831857149,-5.62473424519402,-390.573198979746,199.505150173769,191.068048805978
0.546565212731754,393.017620672872,388.413246905768,-4.60437376710468,-390.71543378932,198.810997219988,191.904436569331
0.548708605722859,392.768688926001,388.285414319567,-4.48327460643355,-390.527051622784,198.625981766217,191.901069856567
0.550851998713964,394.382649176196,389.839140880676,-4.54350829551993,-392.110895028436,199.463078735858,192.647816292578
0.552995391705069,398.627444218379,391.501758700684,-7.12568551769499,-395.064601459531,202.876564868037,192.188036591494
0.555138784696174,397.378013529601,392.426545400714,-4.95146812888703,-394.902279465158,201.164740829244,193.737538635914
0.557282177687279,397.572115731433,392.531390693543,-5.04072503788979,-395.051753212488,201.306420384661,193.745332827827
0.559425570678384,398.303769082301,393.344747216535,-4.95902186576637,-395.824258149418,201.631395474034,194.192862675384
0.561568963669489,396.446230017047,391.685715602564,-4.76051441448345,-394.065972809806,200.603372215765,193.46260059404
0.563712356660594,397.734500016378,393.164356132702,-4.57014388367651,-395.44942807454,201.152321950027,194.297106124513
0.565855749651699,395.997726786327,392.287146562628,-3.71058022369948,-394.142436674477,199.854153505013,194.288283169464
0.567999142642803,397.670693488553,393.069513734883,-4.60117975366984,-395.370103611718,201.135936621111,194.234166990607
0.570142535633908,396.332653527803,392.332635707931,-4.00001781987191,-394.332644617867,200.166335673838,194.16630894403
0.572285928625013,395.000458358521,391.625272172909,-3.37518618561268,-393.312865265715,199.187822272067,194.125042993648
0.574429321616118,394.316638252832,392.484529370694,-1.83210888213858,-393.400583811763,198.074373567485,195.326210244278
0.576572714607223,395.813275323287,391.699873785111,-4.11340153817576,-393.756574554199,199.963338430731,193.793236123468
0.578716107598328,395.585178320973,392.451219356839,-3.13395896413351,-394.018198838906,199.359568642553,194.658630196353
0.580859500589433,392.98421541541,390.005020162317,-2.97919525309328,-391.494617788864,197.981705334252,193.512912454612
0.583002893580538,392.114494684572,389.960304128699,-2.15419055587313,-391.037399406636,197.134342620223,193.903056786413
0.585146286571643,391.421692574468,389.158753392496,-2.2629391819724,-390.290222983482,196.84231587822,193.447907105262
0.587289679562748,391.621734742266,387.593452627337,-4.02828211492954,-389.607593684801,197.825008428598,191.782585256204
0.589433072553853,390.200629223121,387.626411149695,-2.57421807342547,-388.913520186408,196.387423648273,192.526096538135
0.591576465544958,391.032736889012,387.649391071007,-3.38334581800513,-389.34106398001,197.208041353509,192.133022626501
0.593719858536063,394.107975945685,389.244408295953,-4.86356764973232,-391.676192120819,199.485771797709,192.19042032311
0.595863251527167,397.911371145489,390.828756031339,-7.08261511415026,-394.370063588414,202.49699312982,191.873070458594
0.598006644518272,397.78645947257,392.412039393414,-5.37442007915575,-395.099249432992,201.580439775863,193.518809657129
0.600150037509377,398.576475523508,393.204034247275,-5.37244127623308,-395.890254885392,201.974458399871,193.915796485521
0.602293430500482,397.893772110309,393.200884366547,-4.69288774376201,-395.547328238428,201.293329927035,194.253998311392
0.604436823491587,396.453120427301,392.396718151503,-4.0564022757975,-394.424919289402,200.254761351549,194.170157937853
0.606580216482692,394.950684838391,391.586085285829,-3.36459955256129,-393.26838506211,199.157642195476,194.110742866634
0.608723609473797,394.921492502039,389.984332048398,-4.93716045364147,-392.452912275219,199.92932647784,192.523585797378
0.610867002464902,394.006272331549,389.987254121489,-4.01901821006004,-391.996763226519,199.012645270805,192.984117955715
0.613010395456007,394.671245025071,390.01004324958,-4.66120177549146,-392.340644137326,199.666223400281,192.674420737044
0.615153788447112,393.825056036599,389.248193696115,-4.57686234048396,-391.536624866357,199.200959188541,192.335665677816
0.617297181438217,391.501274600327,389.270642195595,-2.23063240473169,-390.385958397961,196.865953502529,193.520004895432
0.619440574429322,392.424084505535,390.058341849276,-2.36574265625887,-391.241213177405,197.394913580897,193.846299596508
0.621583967420427,393.324431766732,389.225250554983,-4.09918121174826,-391.274841160858,198.71180648924,192.563034671618
0.623727360411531,390.951001402108,387.587458302365,-3.36354309974263,-389.269229852237,197.157272250925,192.111957601311
0.625870753402636,392.44945359739,387.561814806111,-4.88763879127941,-390.00563420175,198.668546194335,191.337088007416
0.628014146393741,393.911994683204,389.962032867209,-3.94996181599504,-391.937013775207,198.9309782496,193.006035525607
0.630157539384846,397.807021381081,392.395013049845,-5.41200833123639,-395.101017215463,201.609514856159,193.491502359304
0.632300932375951,399.420021577414,392.447712342611,-6.9723092348039,-395.933866960012,203.196165406109,192.737701553903
0.634444325367056,399.53177498822,393.267570087225,-6.26420490099457,-396.399672537722,202.897989944607,193.501682593115
0.636587718358161,397.278995762634,393.251359298207,-4.02763646442685,-395.265177530421,200.653316113531,194.61186141689
0.638731111349266,398.931343564601,393.201859391965,-5.72948417263581,-396.066601478283,202.330413868618,193.736187609664
0.640874504340371,398.085618718996,393.940290248287,-4.14532847070961,-396.012954483641,201.115473594853,194.897480888788
0.643017897331476,399.532689577691,393.114925840417,-6.41776373727373,-396.323807709054,202.975226657482,193.348581051572
0.645161290322581,397.801078754003,393.128252447241,-4.67282630676181,-395.464665600622,201.236952530382,194.22771307024
0.647304683313686,399.342297880246,393.974393509664,-5.36790437058249,-396.658345694955,202.355101125414,194.303244569541
0.649448076304791,401.016107015619,395.622718317826,-5.39338869779249,-398.319412666722,203.204747856706,195.114664810017
0.651591469295895,399.596303247459,394.066423544566,-5.52987970289314,-396.831363396012,202.563091475176,194.268271920836
0.653734862287,397.363051817054,393.260321581804,-4.10273023525048,-395.311686699429,200.732891026152,194.578795673277
0.655878255278105,395.809077457293,391.624238348998,-4.18483910829559,-393.716657903145,199.996958282794,193.719699620351
0.65802164826921,393.315972137242,390.773315998637,-2.54265613860582,-392.044644067939,197.929314137924,194.115329930015
0.660165041260315,392.326466704733,389.148934148201,-3.17753255653247,-390.737700426467,197.751999630633,192.985700795834
0.66230843425142,392.162377282946,389.151817836122,-3.01055944682372,-390.657097559534,197.586468364885,193.070629194649
0.664451827242525,390.545123383423,388.395709131379,-2.14941425204358,-389.470416257401,196.347268817733,193.123147439668
0.66659522023363,392.267248913608,389.242186452941,-3.02506246066758,-390.754717683274,197.646155687138,193.108561996136
0.668738613224735,396.457264029388,390.868177359407,-5.58908666998087,-393.662720694397,201.023175349684,192.639545344713
0.67088200621584,397.419692735693,392.458776200793,-4.96091653489992,-394.939234468243,201.190304635296,193.748929832946
0.673025399206945,399.815272590957,394.014121886134,-5.80115070482282,-396.914697238546,202.80821164789,194.106485590656
0.675168792198049,400.456901197455,394.76079789889,-5.69610329856499,-397.608849548172,203.07650224801,194.532347300162
0.677312185189154,400.2324541759,395.522236362049,-4.71021781385093,-397.877345268974,202.471335994875,195.406009274099
0.679455578180259,400.870267417727,396.317568270283,-4.55269914744326,-398.593917844005,202.711483282585,195.88243456142
0.681598971171364,401.673043589766,396.35060012535,-5.32244346441638,-399.011821857558,203.497743527091,195.514078330467
0.683742364162469,401.84112865214,397.189069644855,-4.65205900728506,-399.515099148498,203.246593829713,196.268505318785
0.685885757153574,398.88997547537,394.835526647723,-4.05444882764715,-396.862751061547,201.472212151509,195.390538910038
0.688029150144679,395.067896606535,391.659606432615,-3.40829017392036,-393.363751519575,199.238093390228,194.125658129347
0.690172543135784,389.491817930543,389.252829069977,-0.238988860565883,-389.37232350026,194.865403395554,194.506920104706
0.692315936126889,387.72794491024,386.832958296576,-0.89498661366332,-387.280451603408,194.311465761952,192.968985841457
0.694459329117994,389.075573833868,386.796993563157,-2.27858027071028,-387.936283698513,195.677077052289,192.259206646224
0.696602722109099,389.695714434774,387.567603272468,-2.12811116230523,-388.631658853621,195.911912798539,192.719746055082
0.698746115100204,390.487374550115,387.566036312585,-2.92133823753016,-389.02670543135,196.704356393823,192.322349037528
0.700889508091309,391.465971428174,388.388278222704,-3.07769320546998,-389.927124825439,197.271832316822,192.655292508617
0.703032901082413,394.920743804427,390.029751981348,-4.89099182307933,-392.475247892888,199.905867813753,192.569380079134
0.705176294073518,396.722026790955,391.674131121113,-5.04789566984141,-394.198078956034,200.884961230398,193.313117725636
0.707319687064623,398.327636625333,392.495950791537,-5.83168583379603,-395.411793708435,202.079661229565,193.33213247887
0.709463080055728,395.745387392582,392.473360575698,-3.27202681688362,-394.10937398414,199.508707104733,194.600666879407
0.711606473046833,393.850797002982,391.610654646792,-2.24014235618972,-392.730725824887,198.045469679586,194.685256145301
0.713749866037938,393.614924830246,390.735492238331,-2.87943259191502,-392.175208534289,198.247178711081,193.928029823208
0.715893259029043,394.382792542375,390.68827608525,-3.69451645712513,-392.535534313813,199.03865449975,193.496879814063
0.718036652020148,395.381159757618,391.500589559632,-3.8805701979868,-393.440874658625,199.630864977803,193.810009680822
0.720180045011253,398.879965758239,393.168201098071,-5.7117646601688,-396.024083428155,202.295865209204,193.728218218951
0.722323438002358,399.928105098166,394.061652803189,-5.8664522949764,-396.994878950677,202.897278696571,194.097600254106
0.724466830993463,401.553642939559,395.713189195232,-5.84045374432731,-398.633416067395,203.697048341943,194.936367725452
0.726610223984568,401.347854891292,395.699827776003,-5.6480271152887,-398.523841333648,203.49794100329,195.025900330357
0.728753616975672,400.220944927002,395.612837155445,-4.60810777155751,-397.916891041223,202.41452634928,195.502364691944
0.730897009966777,397.572679318105,394.70507548596,-2.86760383214494,-396.138877402032,200.220141575125,195.918735826907
0.733040402957882,397.532749139722,393.043523297619,-4.489225842103,-395.288136218671,201.010987490913,194.277148727758
0.735183795948987,396.156029047172,393.851744110044,-2.30428493712787,-395.003886578608,199.23015699215,195.773729586458
0.737327188940092,397.291704318095,393.946905839512,-3.3447984785833,-395.619305078804,200.318251398339,195.301053680464
0.739470581931197,401.5298973139,396.45042202775,-5.0794752861492,-398.990159670825,203.304686300024,195.685473370801
0.741613974922302,406.321213054808,398.904927966762,-7.41628508804581,-402.613070510785,206.868749071427,195.744321439358
0.743757367913407,405.291980743956,399.676304648599,-5.61567609535751,-402.484142696278,205.453828419657,197.030314276621
0.745900760904512,403.356461062261,399.573883998782,-3.78257706347915,-401.465172530521,203.56951906287,197.895653467651
0.748044153895617,403.910655349672,399.457385675015,-4.45326967465672,-401.684020512343,204.181962512164,197.502058000179
0.750187546886722,403.92442463579,399.399884692346,-4.52453994344376,-401.662154664068,204.224482289617,197.437672374451
0.752330939877827,402.591750034397,397.8485466999,-4.74320333449691,-400.220148367149,203.667476684447,196.552671682702
0.754474332868932,403.723372287264,399.544791818016,-4.17858046924795,-401.63408205264,203.950976378256,197.683105674384
0.756617725860036,403.930103675562,398.8578415864,-5.07226208916273,-401.393972630981,204.501182882363,196.892789748618
0.758761118851141,403.87673568277,399.68990164195,-4.18683404082054,-401.78331866236,204.031784861795,197.751533800565
0.760904511842246,403.597715613505,399.633987473767,-3.96372813973835,-401.615851543636,203.780721876622,197.835129667014
0.763047904833351,403.268882827971,399.521009799774,-3.74787302819647,-401.394946313873,203.508377928084,197.886568385789
0.765191297824456,405.47882967256,401.012738699797,-4.46609097276269,-403.245784186178,204.972460322661,198.273323863517
0.767334690815561,407.950701750252,401.788171609338,-6.16253014091433,-404.869436679795,207.056615945583,197.812820734212
0.769478083806666,409.040195875147,404.242441115181,-4.7977547599661,-406.641318495164,206.918975317557,199.722343177607
0.771621476797771,410.155600904582,404.359431258232,-5.79616964634994,-407.257516081407,207.975885275466,199.281630805941
0.773764869788876,409.512746517122,404.450335499234,-5.06241101788765,-406.981541008178,207.287578767505,199.693962240673
0.775908262779981,410.19563530566,405.252947969056,-4.94268733660465,-407.724291637358,207.569161321132,200.155130316225
0.778051655771086,409.885851249533,404.376817070442,-5.50903417909183,-407.131334159987,207.697442714313,199.433891445675
0.78019504876219,407.182044385388,403.459669773486,-3.72237461190167,-405.320857079437,205.452209498645,199.868647580792
0.782338441753295,405.460477148922,402.577613637716,-2.88286351120598,-404.019045393319,204.171670330064,199.847375063255
0.7844818347444,405.600117486196,401.786234821915,-3.81388266428104,-403.693176154055,204.707000075238,198.986176078817
0.786625227735505,404.339519661775,401.085778222801,-3.25374143897398,-402.712648942288,203.796630550374,198.916018391913
0.78876862072661,407.036455170321,402.80124921524,-4.23520595508165,-404.91885219278,205.635830562701,199.283021630079
0.790912013717715,407.932586079056,403.673565167012,-4.25902091204495,-405.803075623034,206.095803495551,199.707272127483
0.79305540670882,405.374111802766,402.063899344255,-3.31021245851139,-403.719005573511,204.342162130639,199.376843442872
0.795198799699925,405.032339025391,401.16476914196,-3.86756988343092,-403.098554083675,204.449954454411,198.648599629265
0.79734219269103,403.149636228431,401.043227904423,-2.10640832400793,-402.096432066427,202.628022276219,199.468409790208
0.799485585682135,402.292772713146,400.186188715704,-2.10658399744284,-401.239480714425,202.199678355295,199.03980235913
0.80162897867324,403.294530331879,399.427060254351,-3.86747007752837,-401.360795293115,203.581000204704,197.779795088411
0.803772371664345,405.228365267768,400.33209176471,-4.8962735030583,-402.780228516239,205.062319385413,197.717909130826
0.80591576465545,407.875649035629,402.035276053214,-5.84037298241515,-404.955462544421,206.858011009022,198.097451535399
0.808059157646554,405.512458485279,401.286066780001,-4.22639170527856,-403.39926263264,204.869425095279,198.529837537361
0.810202550637659,401.312880185256,398.854032497021,-2.45884768823424,-400.083456341139,201.885863936745,198.197592404394
0.812345943628764,397.811481462863,396.364664203232,-1.44681725963142,-397.088072833048,199.629149361247,197.4589234718
0.814489336619869,394.416221219063,393.0935622905,-1.32265892856316,-393.754891754782,197.869440073813,195.885451680969
0.816632729610974,391.254115863562,390.686162933174,-0.56795293038823,-390.970139398368,195.911034396975,195.059105001393
0.818776122602079,390.685763749456,389.944673741824,-0.741090007632124,-390.31521874564,195.713426878544,194.601791867096
0.820919515593184,391.764585179373,390.032101082955,-1.73248409641803,-390.898343131164,196.748534637896,194.149808493269
0.823062908584289,391.927816369023,389.300324148434,-2.62749222058926,-390.614070258729,197.277654294806,193.336415963922
0.825206301575394,392.672023121406,388.508911790231,-4.16311133117523,-390.590467455818,198.417567226291,192.172900229528
0.827349694566499,390.074054594078,387.666427149603,-2.40762744447471,-388.87024087184,196.240841019276,192.629399852564
0.829493087557604,391.430692242891,387.606303298236,-3.8243889446544,-389.518497770563,197.627540593773,191.890957176791
0.831636480548709,392.119697446819,387.573698425158,-4.54599902166098,-389.846697935989,198.33284823424,191.513849701749
0.833779873539814,390.606023061442,387.58358890706,-3.02243415438244,-389.094805984251,196.814228607912,192.280577376339
0.835923266530918,392.389239017948,386.82740467359,-5.56183434435809,-389.608321845769,198.975536681153,190.632785164616
0.838066659522023,393.36566928837,387.6581090252,-5.70756026317008,-390.511889156785,199.53661477577,190.975274381015
0.840210052513128,392.627952453112,388.462091979379,-4.16586047373255,-390.545022216245,198.396906463422,192.148115752823
0.842353445504233,392.536528282575,388.442588717958,-4.09393956461679,-390.489558500266,198.315233923596,192.17432457667
0.844496838495338,391.575190112511,387.620550207955,-3.95463990455568,-389.597870160233,197.764915008533,191.8329551517
0.846640231486443,393.03275349812,387.610007455989,-5.42274604213145,-390.321380477055,199.227749770126,191.093630706929
0.848783624477548,392.220215238316,388.418357783428,-3.80185745488791,-390.319286510872,198.011036346602,192.30825016427
0.850927017468653,394.696203020992,389.2355141712,-5.46068884979275,-391.965858596096,200.078445935393,191.887412660703
0.853070410459758,395.622753959519,390.037926477716,-5.58482748180302,-392.830340218618,200.603790720661,192.226549497957
0.855213803450863,398.088672536695,392.402832131793,-5.68584040490271,-395.245752334244,201.887256470799,193.358495863445
0.857357196441968,397.283364806348,392.370535111911,-4.91282969443728,-394.82694995913,201.098097250393,193.728852708737
0.859500589433073,397.202229465946,391.559620509201,-5.64260895674522,-394.380924987574,201.422419211346,192.958505776228
0.861643982424178,394.734744049081,391.581285239989,-3.1534588090928,-393.158014644535,198.944101429087,194.213913215448
0.863787375415282,395.497697687885,391.632474847264,-3.86522284062067,-393.565086267574,199.681460264253,193.883626003322
0.865930768406387,394.732196197957,390.088245175461,-4.64395102249563,-392.410220686709,199.688073610226,192.722147076483
0.868074161397492,392.401825973263,389.294294835902,-3.10753113736047,-390.848060404582,197.754678555312,193.093381849271
0.870217554388597,392.432928180267,388.445901733417,-3.98702644684954,-390.439414956842,198.209977313558,192.229437643284
0.872360947379702,390.833093954099,387.571765202238,-3.26132875186136,-389.202429578168,197.04721135298,192.155218225188
0.874504340370807,388.415848498415,385.931258245186,-2.48459025322893,-387.173553371801,195.450219375822,191.723333995979
0.876647733361912,386.809783406929,384.361728925866,-2.44805448106302,-385.585756166397,194.628918943996,190.956837222401
0.878791126353017,387.624532697755,383.655369953277,-3.96916274447801,-385.639951325516,195.796847721117,189.8431036044
0.880934519344122,386.076935677785,383.758830936283,-2.318104741502,-384.917883307034,194.197520209644,190.720363097391
0.883077912335227,388.480830092131,384.599593768579,-3.88123632355234,-386.540211930355,196.181033207842,190.359178722513
0.885221305326332,387.657311772069,384.548595776788,-3.1087159952815,-386.102953774429,195.383013883675,190.719939890753
0.887364698317436,388.384261894366,384.425630320079,-3.95863157428766,-386.404946107223,196.171446734327,190.233499372896
0.889508091308541,390.71044253547,385.897730045771,-4.81271248969836,-388.304086290621,197.761577512584,190.542508778037
0.891651484299646,396.271693427265,390.631473616919,-5.6402198103454,-393.451583522092,200.955956618805,192.495626903287
0.893794877290751,405.868820720352,397.061804173544,-8.80701654680803,-401.465312446948,207.33791863358,194.127393813368
0.895938270281856,421.83878227737,408.317382321051,-13.5213999563192,-415.078082299211,217.680091116845,197.397991182366
0.898081663272961,436.173134289629,420.336404615909,-15.8367296737196,-428.254769452769,226.004931981674,202.249837471095
0.900225056264066,454.401350110911,435.431598906556,-18.969751204355,-444.916474508733,236.685550657633,208.2309238511
0.902368449255171,469.404657235138,449.630103971135,-19.7745532640033,-459.517380603137,244.589605249571,214.927775353566
0.904511842246276,486.021210146531,465.385118359006,-20.6360917875248,-475.703164252769,253.328650967028,222.374513285741
0.906655235237381,500.339347136839,478.819751855065,-21.5195952817737,-489.579549495952,260.929471209306,228.650078286646
0.908798628228486,512.359168622249,491.577368428997,-20.7818001932521,-501.968268525623,266.57048440775,235.397784117872
0.910942021219591,519.633728030529,500.456258115058,-19.1774699154702,-510.044993072793,269.405598972999,240.639394099794
0.913085414210696,517.313529226514,502.985752108267,-14.3277771182472,-510.14964066739,265.820653172381,244.32898749501
0.9152288072018,507.739279525674,499.867845621355,-7.87143390431896,-503.803562573514,257.805356714996,245.998205858518
0.917372200192905,492.525922566365,491.064260611758,-1.46166195460694,-491.795091589061,246.993792260486,244.801299328575
0.91951559318401,478.099625442593,480.584329649941,2.48470420734725,-479.341977546267,237.807460617623,241.534516928644
0.921658986175115,461.351271834177,468.515716366301,7.16444453212489,-464.933494100239,227.093413651026,237.840080449213
0.92380237916622,444.692183156513,454.150224730476,9.45804157396304,-449.421203943494,217.617070791275,231.804133152219
0.925945772157325,428.89451400014,439.907158726873,11.0126447267322,-434.400836363507,208.940934636704,225.459901726802
0.92808916514843,414.69602425654,425.751457656059,11.0554333995187,-420.223740956299,201.820295428511,218.403445527789
0.930232558139535,404.421652134752,416.360649365201,11.9389972304495,-410.391150749977,196.241327452151,214.149823297825
0.93237595113064,397.248293521781,407.672888113656,10.4245945918746,-402.460590817719,193.411849464953,209.048741352765
0.934519344121745,393.191660805187,401.243429296691,8.05176849150382,-397.217545050939,192.569946156841,204.647598894097
0.93666273711285,391.508582562023,396.324644817558,4.81606225553514,-393.916613689791,193.346260153244,200.570353536547
0.938806130103955,392.256056219514,394.602030562557,2.345974343043,-393.429043391035,194.955040938235,198.4740024528
0.940949523095059,395.463214374728,394.57218451825,-0.89102985647736,-395.017699446489,198.177122115602,196.840577330886
0.943092916086164,397.14401746405,394.667789623115,-2.47622784093511,-395.905903543582,199.810122652492,196.09578089109
0.945236309077269,398.839277958708,396.421745479109,-2.41753247959946,-397.630511718908,200.628405219154,197.002106499755
0.947379702068374,402.079595629506,397.350956411122,-4.72863921838405,-399.715276020314,203.404117423945,196.311158596369
0.949523095059479,400.47383132406,397.373367235015,-3.10046408904492,-398.923599279537,201.787147706552,197.136451572985
0.951666488050584,399.591600746705,396.476308550252,-3.1152921964528,-398.033954648478,201.353446471579,196.680508176899
0.953809881041689,395.511059418298,393.929840386751,-1.58121903154716,-394.720449902524,198.546139224922,196.174310677602
0.955953274032794,393.059308699173,391.423855387956,-1.63545331121725,-392.241582043564,197.347381005195,194.894201038369
0.958096667023899,389.890227859296,389.032426056614,-0.857801802682218,-389.461326957955,195.374014830989,194.087312126966
0.960240060015004,385.997223423274,385.963084623183,-0.0341388000910001,-385.980154023229,193.015681111683,192.964472911546
0.962383453006109,385.305832988108,384.528817443117,-0.777015544990945,-384.917325215613,193.04142426655,191.875900949063
0.964526845997214,383.783108565927,383.042826588329,-0.740281977597704,-383.412967577128,192.261695271762,191.151272305366
0.966670238988318,383.772654726168,382.235389681201,-1.53726504496649,-383.004022203684,192.654959885567,190.349062318117
0.968813631979423,384.486065325108,382.116500715275,-2.36956460983305,-383.301283020191,193.427814967471,189.873468052721
0.970957024970528,384.383176678155,381.174772870966,-3.20840380718846,-382.77897477456,193.795790242672,188.983184531889
0.973100417961633,384.322539639508,380.300552568984,-4.02198707052378,-382.311546104246,194.172263355016,188.13928274923
0.975243810952738,385.932027220144,381.927892188729,-4.00413503141561,-383.929959704437,194.96808112578,188.961878578657
0.977387203943843,388.40442730781,383.64541740148,-4.75900990632982,-386.024922354645,196.58171860707,189.443203747575
0.979530596934948,392.476435085856,386.160759123417,-6.3156759624394,-389.318597104636,199.396055524148,189.922541580489
0.981673989926053,394.906541353605,387.005608191169,-7.90093316243616,-390.956074772387,201.403737258021,189.552337514366
0.983817382917158,394.874161652729,389.328610432305,-5.54555122042325,-392.101386042517,200.209856436576,191.891529605941
0.985960775908263,396.377453097479,388.408415938631,-7.96903715884855,-392.392934518055,202.173245128164,190.219689389891
0.988104168899368,393.914222120165,388.30387831413,-5.61034380603428,-391.109050217148,199.7622829631,191.346767254048
0.990247561890473,389.921114380264,385.907921201009,-4.01319317925476,-387.914517790637,196.967153779759,190.947364010877
0.992390954881577,386.794004937615,385.19769842295,-1.5963065146654,-385.995851680282,194.19515572614,191.800695954142
0.994534347872682,386.080792849775,382.933842905335,-3.14694994443948,-384.507317877555,194.613871397107,189.893446480448
0.996677740863787,385.333191239584,382.208013843006,-3.12517739657801,-383.770602541295,194.229184318081,189.541418223214
0.998821133854892,385.30648406429,382.175427059687,-3.13105700460346,-383.740955561989,194.218770534447,189.522185027542
1.000964526846,387.606199212138,382.062155159319,-5.54404405281923,-384.834177185728,196.575121632478,188.25905555325
1.0031079198371,389.116653069143,383.535872855425,-5.58078021371807,-386.326262962284,197.348716641431,188.977546320854
1.00525131282821,391.49065435253,386.678534082511,-4.81212027001885,-389.08459421752,198.151387311274,190.933206906246
1.00739470581931,394.745813444455,389.135263384622,-5.61055005983275,-391.940538414538,200.178181752144,191.762356662395
1.00953809881042,395.65875208237,390.86171090187,-4.79704118049983,-393.26023149212,200.227896631435,193.032334860685
1.01168149180152,394.944568814305,391.769068264016,-3.17550055028903,-393.356818539161,199.060034682297,194.296783856864
1.01382488479263,395.719590270695,390.987206240783,-4.73238402991228,-393.353398255739,200.225987150304,193.127411105435
1.01596827778373,394.011943643093,389.298521551882,-4.71342209121082,-391.655232597487,199.362682867152,192.292549730336
1.01811167077484,393.067846342574,389.145990003611,-3.92185633896327,-391.106918173093,198.494851340769,192.612066832324
1.02025506376594,392.984247095,389.034632600756,-3.9496144942442,-391.009439847878,198.466930794622,192.542509053256
1.02239845675705,395.409621015253,389.828758017918,-5.58086299733503,-392.619189516585,200.495242006294,192.123947510291
1.02454184974815,396.353842936461,391.530809156516,-4.82303377994481,-393.942326046488,200.588438358203,193.353887688286
1.02668524273926,402.081608276221,395.660014718608,-6.42159355761356,-398.870811497415,204.251600916917,194.619210580497
1.02882863573036,403.74775121907,397.352480851303,-6.39527036776741,-400.550116035187,205.071510793419,195.478605241768
1.03097202872147,401.302394326954,395.753392482605,-5.54900184434973,-398.52789340478,203.425698085652,195.102195319127
1.03311542171257,398.759531912168,394.847765092871,-3.91176681929687,-396.803648502519,201.335649365732,195.467999136787
1.03525881470368,399.39572567322,394.705994055563,-4.68973161765655,-397.050859864391,202.042728645438,195.008131218953
1.03740220769478,398.536321388863,394.614835484116,-3.92148590474665,-396.57557843649,201.228903646805,195.346674789685
1.03954560068589,400.185596727872,395.414903517802,-4.77069321006957,-397.800250122837,202.478144968971,195.322105153866
1.04168899367699,400.33118336704,395.507208679357,-4.82397468768283,-397.919196023199,202.577579027361,195.341616995837
1.0438323866681,402.064125460718,396.424547315225,-5.6395781454936,-399.244336387971,203.851851803106,195.392484584866
1.0459757796592,405.302122110876,397.304483256094,-7.99763885478239,-401.303302683485,206.649880482829,194.653422200656
1.04811917265031,405.248147653885,399.69148107358,-5.55666658030481,-402.469814363733,205.402407117095,197.067407246638
1.05026256564141,405.912245322495,400.410254821686,-5.50199050080931,-403.16125007209,205.707117911652,197.454132160438
1.05240595863252,404.991808733623,400.301653449825,-4.69015528379867,-402.646731091724,204.840982008711,197.805749083013
1.05454935162362,400.972435424753,398.6351518391,-2.33728358565378,-399.803793631927,201.654859505204,198.148934126723
1.05669274461473,397.057650637255,395.454999060192,-1.60265157706237,-396.256324848723,199.330151107158,196.926173741565
1.05883613760583,397.972035380684,394.730771894148,-3.24126348653573,-396.351403637416,200.60664943361,195.744754203806
1.06097953059693,398.071625333661,395.619204570388,-2.45242076327304,-396.845414952024,200.262023048467,196.583391903557
1.06312292358804,400.46716164921,396.469075740906,-3.99808590830435,-398.468118695058,202.232623778757,196.235494916301
1.06526631657914,401.977269679813,397.2478936173,-4.72937606251287,-399.612581648556,203.353322871163,196.259258777394
1.06740970957025,401.074543964645,397.179189648399,-3.8953543162462,-399.126866806522,202.484949140445,196.641917666076
1.06955310256135,403.400484072772,398.697461069206,-4.70302300356622,-401.048972570989,204.051753538169,196.99721903282
1.07169649555246,406.610096426795,400.260342551329,-6.34975387546586,-403.435219489062,206.47992515113,196.955294337931
1.07383988854356,408.291169854418,401.879081294708,-6.41208855971013,-405.085125574563,207.351629207064,197.733496367499
1.07598328153467,409.16940066999,403.526849433089,-5.642551236901,-406.34812505154,207.405975953446,198.942149098094
1.07812667452577,409.980736243175,402.778934251391,-7.20180199178424,-406.379835247283,208.59126911748,197.788566129803
1.08027006751688,410.715696968425,404.373723579258,-6.34197338916738,-407.544710273842,208.528835178796,199.015875095045
1.08241346050798,410.624421741124,405.928301536023,-4.69612020510067,-408.276361638573,207.660270973112,200.616090665461
1.08455685349909,412.155337183086,406.674029182914,-5.48130800017196,-409.414683183,208.818322591629,200.596360591371
1.08670024649019,412.170914053118,407.43960376339,-4.73131028972745,-409.805258908254,208.451112171423,201.354146736831
1.0888436394813,414.62980986314,409.831320152705,-4.79848971043498,-412.230565007923,209.714149786788,202.516415221135
1.0909870324724,414.710547112538,409.867629401527,-4.84291771101022,-412.289088257032,209.776732411774,202.512355845259
1.09313042546351,414.739790428505,409.905426024489,-4.8343644040163,-412.322608226497,209.787077416261,202.535530810236
1.09527381845461,415.493189154705,409.920463811095,-5.57272534361061,-412.7068264829,210.532957249158,202.173869233742
1.09741721144572,413.030005107954,410.698395543204,-2.33160956474956,-411.864200325579,207.680807336352,204.183392989227
1.09956060443682,412.969284637998,409.868587588224,-3.10069704977434,-411.418936113111,208.034990843886,203.383945269225
1.10170399742793,415.351168770159,409.839251820366,-5.51191694979252,-412.595210295262,210.431542859976,202.163667435287
1.10384739041903,413.816435973879,410.629297201844,-3.18713877203578,-412.222866587862,208.501787372958,203.721079214904
1.10599078341014,413.886364850948,410.649910507162,-3.23645434378642,-412.268137679055,208.561409597367,203.706728081688
1.10813417640124,414.718556807917,410.679447052706,-4.03910975521109,-412.699001930311,209.378833281564,203.320168648747
1.11027756939235,417.08030081797,412.285807031497,-4.79449378647342,-414.683053924733,210.937397302222,203.745656622512
1.11242096238345,418.602719202034,412.280202119688,-6.3225170823452,-415.441460660861,212.462618142189,202.978842518672
1.11456435537456,419.334187983577,414.640094262936,-4.69409372064115,-416.987141123257,212.014140852109,204.973000271147
1.11670774836566,424.087299200723,416.205281905814,-7.88201729490908,-420.146290553269,215.984658247816,204.161632305452
1.11885114135677,428.898107078265,421.756251677066,-7.14185540119922,-425.327179377665,218.019981239732,207.307198137933
1.12099453434787,428.969312900079,422.559571700902,-6.40974119917684,-425.764442300491,217.689527049628,208.074915250863
1.12313792733898,427.435542574855,422.584211476723,-4.85133109813171,-425.009877025789,216.143436836493,208.866440189296
1.12528132033008,425.855192920318,420.233304355462,-5.62188856485517,-423.04424863789,215.738540742586,207.305707895304
1.12742471332119,423.429486984814,420.256649158836,-3.17283782597775,-421.843068071825,213.301162405396,208.541905666429
1.12956810631229,422.563929606776,419.457890347894,-3.10603925888199,-421.010909977335,212.834984432829,208.175925544506
1.1317114993034,422.500355284859,418.624645560301,-3.87570972455808,-420.56250042258,213.188032504709,207.374467917871
1.1338548922945,424.064322155843,420.15498474091,-3.90933741493279,-422.109653448377,213.986829785388,208.122823662989
1.13599828528561,426.473200262968,420.109241728958,-6.36395853400916,-423.291220995963,216.418579398488,206.872641597475
1.13814167827671,425.745075926063,420.903722531114,-4.84135339494929,-423.324399228588,215.293214660506,208.031184568082
1.14028507126782,425.824928022079,421.754965704971,-4.06996231710849,-423.789946863525,214.947445169594,208.842501693931
1.14242846425892,428.262868734421,421.843639542308,-6.41922919211299,-425.053254138364,217.341048963267,207.712205175097
1.14457185725003,427.464656235328,423.501207826285,-3.96344840904254,-425.482932030807,215.714052322185,209.768879708621
1.14671525024113,428.19096645343,425.089545047409,-3.10142140602107,-426.640255750419,215.646193929726,210.994061820694
1.14885864323224,430.470858551881,424.215028982659,-6.25582956922199,-427.34294376727,218.363344060552,208.979599706719
1.15100203622334,428.797806831897,424.892090823086,-3.90571600881111,-426.844948827491,216.351761420354,210.493187407137
1.15314542921445,424.023413708647,422.428053910004,-1.59535979864336,-423.225733809326,212.809386753645,210.41634705568
1.15528882220555,423.31673580732,420.853339423445,-2.46339638387519,-422.085037615382,212.890066095598,209.194971519785
1.15743221519666,421.86691882532,419.374733338275,-2.49218548704562,-420.620826081797,212.179552156183,208.441273925614
1.15957560818776,422.763111150612,419.515378175589,-3.24773297502236,-421.139244663101,213.005422062817,208.133822600284
1.16171900117887,424.341427818377,421.180836589348,-3.16059122902902,-422.761132203862,213.751009523703,209.010122680159
1.16386239416997,425.006147817004,421.134534156171,-3.87161366083348,-423.070340986588,214.438880738919,208.631460247669
1.16600578716108,424.833914283529,420.987819415263,-3.84609486826611,-422.910866849396,214.340004575898,208.570862273499
1.16814918015218,424.734478837157,420.834862920463,-3.8996159166943,-422.78467087881,214.317047376926,208.467623501884
1.17029257314329,423.196246867372,419.192124453615,-4.0041224137567,-421.194185660494,213.600184640564,207.594001019929
1.17243596613439,423.377288591129,417.693634918016,-5.68365367311264,-420.535461754573,214.530471132121,206.004990622452
1.1745793591255,420.400588823986,417.082491850098,-3.31809697388769,-418.741540337042,211.859342898937,206.882197438105
1.1767227521166,414.929216666453,414.062538226041,-0.866678440411476,-414.495877446247,207.897947553432,206.597929892815
1.17886614510771,411.662593738342,410.9092896685,-0.753304069841818,-411.285941703421,206.207948904092,205.077992799329
1.18100953809881,408.25964688303,407.598560324531,-0.661086558498141,-407.929103603781,204.460366720764,203.468736883017
1.18315293108992,403.265369847363,404.20874074329,0.943370895927274,-403.737055295326,201.160999475718,202.576055819609
1.18529632408102,400.798560432945,400.874756326003,0.0761958930583546,-400.836658379474,200.361182269943,200.475476109531
1.18743971707213,400.127291354875,398.496153924965,-1.63113742991032,-399.31172263992,200.879214392393,198.432508247527
1.18958311006323,399.59476995987,397.871016417484,-1.72375354238585,-398.732893188677,200.659261751128,198.073631437549
1.19172650305433,399.835744938204,398.100033407146,-1.73571153105758,-398.967889172675,200.785728234631,198.182160938044
1.19386989604544,399.902758014453,397.447499585922,-2.45525842853073,-398.675128800187,201.179008221492,197.496120578696
1.19601328903654,394.19011801085,393.439558125784,-0.750559885066536,-393.814838068317,197.470338947958,196.344499120359
1.19815668202765,391.530383194741,390.866721112336,-0.663662082404983,-391.198552153538,196.097022638573,195.101529514965
1.20030007501875,388.917151729034,388.260508686997,-0.656643042037217,-388.588830208016,194.786897385536,193.80193282248
1.20244346800986,390.459406132108,388.141193449375,-2.3182126827333,-389.300299790742,196.388809407421,192.911490383321
1.20458686100096,389.03128764362,386.607389460615,-2.42389818300506,-387.819338552117,195.727592913313,192.091745638805
1.20673025399207,389.299916553903,385.211946543688,-4.08797001021492,-387.255931548795,196.693943282059,190.561988266736
1.20887364698317,386.340841226257,384.630641020978,-1.71020020527931,-385.485741123618,194.025520715768,191.460220407849
1.21101703997428,385.589293522853,383.145462271275,-2.44383125157896,-384.367377897064,194.016562387216,190.350815509848
1.21316043296538,383.845944611299,381.49026049064,-2.35568412065965,-382.66810255097,193.10081436598,189.56728818499
1.21530382595649,381.997197825416,380.502647060288,-1.49455076512862,-381.249922442852,191.745874295273,189.50404814758
1.21744721894759,383.370783813706,378.712416833511,-4.65836698019433,-381.041600323609,194.01457539695,187.027024926659
1.2195906119387,381.73350363379,378.623401686316,-3.11010194747348,-380.178452660053,192.421802790632,187.756649869421
1.2217340049298,381.878361981297,378.696633936237,-3.18172804505946,-380.287497958767,192.530045013178,187.757452945589
1.22387739792091,382.133423503275,378.883580382541,-3.24984312073303,-380.508501942908,192.691633312004,187.816868630904
1.22602079091201,382.35188752543,377.482813304121,-4.8690742213094,-379.917350414775,193.61048087337,186.306869541406
1.22816418390312,380.82101732386,377.562846621828,-3.25817070203232,-379.191931972844,192.039594012946,187.152337959898
1.23030757689422,380.686987923301,376.697403699556,-3.98958422374506,-378.692195811428,192.338286073523,186.353909737905
1.23245096988533,378.849841956005,375.726545159458,-3.12329679654709,-377.288193557731,190.986569376276,186.301624181455
1.23459436287643,378.628128232111,373.96217096987,-4.66595726224097,-376.29514960099,191.647042747176,184.648106853814
1.23673775586754,379.351200394326,373.888902401351,-5.4622979929747,-376.620051397839,192.40674919365,184.213302204188
1.23888114885864,380.261907792396,374.748796860088,-5.513110932308,-377.505352326242,192.887509362352,184.61784296389
1.24102454184975,379.705871809841,376.495448036511,-3.21042377332986,-378.100659923176,191.458147791586,186.642512131591
1.24316793484085,382.317004899175,376.65104235633,-5.66596254284434,-379.484023627753,193.99148372101,185.492539906743
1.24531132783196,380.026227057345,376.720050754791,-3.30617630255438,-378.373138906068,191.66620167995,186.706937226118
1.24745472082306,380.727791282187,375.879493639804,-4.84829764238322,-378.303642460996,192.788044462285,185.51559799871
1.24959811381417,378.913066441784,376.546921879226,-2.36614456255825,-377.729994160505,190.639605502171,187.090388658334
1.25174150680527,379.470684318514,377.204760768109,-2.26592355040452,-378.337722543312,190.868303934459,187.469418608852
1.25388489979638,380.144690912573,377.127486725497,-3.01720418707606,-378.636088819035,191.580947549825,187.05514126921
1.25602829278748,380.205793536354,377.938050710091,-2.26774282626309,-379.071922123223,191.236768181309,187.835153941914
1.25817168577859,381.212786605458,376.446518619621,-4.76626798583709,-378.829652612539,192.989527295647,185.840125316892
1.26031507876969,380.67188942243,376.575143941359,-4.09674548107125,-378.623516681895,192.384317451751,186.239199230144
1.2624584717608,381.624839493635,376.671559400308,-4.95328009332673,-379.148199446972,193.289059793481,185.859139653491
1.2646018647519,385.567590134787,379.86255050102,-5.70503963376723,-382.715070317903,195.636314884277,187.078755433626
1.26674525774301,386.943350260323,380.576525571308,-6.36682468901535,-383.759937915815,196.655087474669,187.104850441146
1.26888865073411,384.276059726414,380.442270687418,-3.83378903899603,-382.359165206916,194.054924382705,188.304240824211
1.27103204372522,380.11588946503,377.151874349386,-2.96401511564403,-378.633881907208,191.539952290337,187.093929616871
1.27317543671632,376.966095869806,375.538634363138,-1.42746150666773,-376.252365116472,189.196778688237,187.055586428235
1.27531882970743,377.994799466348,374.030240480655,-3.96455898569297,-376.012519973501,190.97967922602,185.032840747481
1.27746222269853,380.677908818013,374.962235957875,-5.71567286013777,-377.820072387944,193.196790839075,184.623281548869
1.27960561568964,383.240944689381,376.662184755116,-6.5787599342658,-379.951564722248,194.909852311824,185.041712410425
1.28174900868074,383.984101220041,379.061606886281,-4.9224943337602,-381.522854053161,194.453297776901,187.06955627626
1.28389240167185,388.499030116067,380.562544830994,-7.93648528507219,-384.53078747353,198.217757700569,186.313029772961
1.28603579466295,388.99564678666,382.809295683108,-6.186351103552,-385.902471234884,197.590998945106,188.311472289778
1.28817918765406,388.042860489442,383.504254864446,-4.53860562499608,-385.773557676944,196.290733057219,189.482824619725
1.29032258064516,388.12665372485,383.504635161451,-4.62201856339954,-385.815644443151,196.374336144125,189.441308299026
1.29246597363627,386.814827480557,382.811713374664,-4.00311410589359,-384.813270427611,195.408970793225,189.404299634385
1.29460936662737,387.905979160269,383.744941819979,-4.16103734029019,-385.825460490124,196.03350825028,189.791952239844
1.29675275961848,388.826860209811,384.625613197999,-4.20124701181163,-386.726236703905,196.514053610811,190.212183093094
1.29889615260958,388.698393938415,384.602154858439,-4.09623907997599,-386.650274398427,196.397316509195,190.252957889231
1.30103954560069,388.393619760794,384.48343987758,-3.91017988321454,-386.438529819187,196.151899822004,190.286629997183
1.30318293859179,385.723958250753,383.552035152689,-2.17192309806387,-384.637996701721,193.947940674409,190.690056027313
1.3053263315829,386.434658949335,383.485299542659,-2.94935940667688,-384.959979245997,194.692009178006,190.267970067991
1.307469724574,389.783085442433,384.324945351924,-5.45814009050878,-387.054015397178,197.620612766471,189.433402630708
1.30961311756511,390.890594237405,384.451204961003,-6.4393892764017,-387.670899599204,198.664991756903,189.005907842301
1.31175651055621,391.148401496101,386.165164601168,-4.98323689493293,-388.656783048635,198.065819195517,190.590963853118
1.31389990354732,389.606112688197,384.622468188748,-4.98364449944899,-387.114290438473,197.294878593823,189.81941184465
1.31604329653842,388.624975630193,385.358585148441,-3.26639048175213,-386.991780389317,195.945683055972,191.046097333344
1.31818668952953,389.117849805901,386.029776915486,-3.08807289041471,-387.573813360694,196.102961348158,191.470852012536
1.32033008252063,388.090119166332,385.124491380775,-2.96562778555727,-386.607305273553,195.527873475945,191.079431797609
1.32247347551174,384.093291118645,382.712407868877,-1.38088324976741,-383.402849493761,192.737087184206,190.665762309555
1.32461686850284,385.083303782597,382.782206538932,-2.30109724366537,-383.932755160765,193.692200513131,190.240554647633
1.32676026149394,386.961864708601,383.696150872108,-3.26571383649292,-385.329007790355,195.113789272547,190.215218517808
1.32890365448505,390.339141100288,385.372979263982,-4.96616183630562,-387.856060182135,197.652651468297,190.203408713838
1.33104704747615,391.916638506612,386.167551774455,-5.74908673215663,-389.042095140533,198.832862619384,190.209232521149
1.33319044046726,393.300507728604,386.880083120359,-6.42042460824479,-390.090295424481,199.860466168424,190.229829256057
1.33533383345836,391.453758458678,387.571201565037,-3.88255689364121,-389.512480011858,197.66815767616,191.844322335698
1.33747722644947,390.515974377142,386.724005589634,-3.79196878750867,-388.619989983388,197.153971582326,191.466018401063
1.33962061944057,389.776746791079,386.755269792448,-3.02147699863144,-388.266008291764,196.399111894855,191.866896396908
1.34176401243168,390.773396448321,385.255760768608,-5.51763567971255,-388.014578608465,198.145516064017,189.869062544448
1.34390740542278,389.391416506291,386.130640014776,-3.26077649151551,-387.761028260534,196.326096498903,191.43493176163
1.34605079841389,388.675387878257,385.349109582943,-3.32627829531441,-387.0122487306,196.000833086786,191.011415643814
1.34819419140499,390.17440260695,386.079761936522,-4.09464067042779,-388.127082271736,197.134521638689,190.992560633047
1.3503375843961,393.957211293634,388.368808163071,-5.58840313056237,-391.163009728352,199.772807212098,191.390202516254
1.3524809773872,394.59184545326,388.313182594255,-6.27866285900569,-391.452514023757,200.435254156133,191.017259867624
1.35462437037831,393.773597267888,389.134732245008,-4.63886502288017,-391.454164756448,199.206231145384,192.247933611064
1.35676776336941,393.105436455398,388.436887923082,-4.6685485323157,-390.77116218924,198.886992493857,191.884169695383
1.35891115636052,393.291858127401,387.742968450046,-5.54888967735502,-390.517413288723,199.420373902378,191.097039386345
1.36105454935162,391.818633191817,388.567256077495,-3.25137711432188,-390.192944634656,197.535005153069,192.657939481587
1.36319794234273,392.576230201414,388.495863036657,-4.08036716475692,-390.536046619035,198.328298683085,192.20774793595
1.36534133533383,391.617502192843,387.570277612459,-4.04722458038412,-389.593889902651,197.832363386613,191.761526516037
1.36748472832494,393.027969294875,388.263388015456,-4.76458127941873,-390.645678655165,198.896275287147,191.749403368019
1.36962812131604,395.342498153033,390.64946466905,-4.69303348398353,-392.995981411041,200.017765818508,192.978215592533
1.37177151430715,393.051717140457,389.175264503893,-3.87645263656407,-391.113490822175,198.46408488851,192.649405933664
1.37391490729825,392.455264316304,389.334074060267,-3.1211902560363,-390.894669188286,197.78822728617,193.106441902116
1.37605830028936,390.245330904434,387.051294484895,-3.19403641953903,-388.648312694664,196.719683661986,191.928629032678
1.37820169328046,389.477394927422,386.225517129794,-3.25187779762717,-387.851456028608,196.364636362524,191.486819666084
1.38034508627157,389.327490598888,385.27586502281,-4.05162557607815,-387.301677810849,196.689558087483,190.612119723366
1.38248847926267,391.471802545573,385.880838377461,-5.5909641681119,-388.676320461517,198.531383356843,190.144937104675
1.38463187225378,391.299528356554,386.572014680836,-4.72751367571783,-388.935771518695,198.013521016136,190.922250502559
1.38677526524488,392.906521520919,386.630639339663,-6.27588218125595,-389.768580430291,199.591201851087,190.177378579203
1.38891865823599,394.708249089688,389.210618870978,-5.49763021870962,-391.959433980333,200.102939654199,191.856494326134
1.39106205122709,397.369708424418,391.017116305338,-6.35259211908004,-394.193412364878,201.861150271749,192.332262093129
1.3932054442182,397.531174233638,391.910347713807,-5.6208265198307,-394.720760973722,201.576000376734,193.144760596988
1.3953488372093,396.667604084604,391.819904308701,-4.84769977590241,-394.243754196652,200.757651930253,193.486102266399
1.39749223020041,397.988748022018,392.382006575978,-5.60674144604008,-395.185377298998,201.797744734029,193.387632564969
1.39963562319151,396.098139605199,391.354740286509,-4.74339931869042,-393.726439945854,200.420769461945,193.305670483909
1.40177901618262,397.546261336552,392.064394129245,-5.48186720730661,-394.805327732899,201.514064271929,193.291263460969
1.40392240917372,396.078823291081,392.188593108436,-3.89023018264533,-394.133708199758,199.984526736863,194.149181462895
1.40606580216483,395.602905236436,391.657668811427,-3.94523642500866,-393.630287023931,199.774070830722,193.856216193209
1.40820919515593,393.53970718944,390.311521039494,-3.22818614994554,-391.925614114467,198.383946669693,193.541667444774
1.41035258814704,393.652310928425,391.172245168798,-2.48006575962705,-392.412278048611,198.066188344026,194.346089704585
1.41249598113814,391.088929047417,389.421962915181,-1.66696613223564,-390.255445981299,196.377947589826,193.877498391473
1.41463937412925,388.334891051532,386.742653999618,-1.59223705191459,-387.538772525575,194.963564051724,192.575208473852
1.41678276712035,388.798858549863,386.495869536483,-2.30298901338074,-387.647364043173,195.550923781622,192.096440261551
1.41892616011146,391.897896523254,388.043699067706,-3.85419745554753,-389.97079779548,197.876046989401,192.094750806079
1.42106955310256,395.305501449566,390.620715946147,-4.68478550341922,-392.963108697856,199.995143476493,192.967965221364
1.42321294609367,399.680031635737,394.109321513325,-5.57071012241215,-396.894676574531,202.625370879075,194.269305695456
1.42535633908477,402.39174869655,395.935329822274,-6.45641887427536,-399.163539259412,204.424083785412,194.739455473999
1.42749973207588,402.442748549316,396.748003810137,-5.69474473917899,-399.595376179726,204.068746644247,195.526629535479
1.42964312506698,399.007556866098,394.949980399952,-4.05757646614552,-396.978768633025,201.532566666122,195.446201966903
1.43178651805809,394.629930110149,391.46821624797,-3.16171386217911,-393.049073179059,198.895821986164,194.153251192895
1.43392991104919,393.529547004073,391.25606120035,-2.27348580372274,-392.392804102212,197.901516403898,194.491287698314
1.4360733040403,391.120865789866,388.877223333686,-2.24364245617977,-389.999044561776,196.682254123023,193.316790438753
1.4382166970314,390.588955796945,388.292988258795,-2.29596753815071,-389.44097202787,196.442461667548,192.998510360322
1.44036009002251,392.561572875385,388.574313248362,-3.98725962702321,-390.567943061874,198.274416251204,192.293526810669
1.44250348301361,391.24338161413,387.959064064233,-3.28431754989691,-389.601222839181,197.263849582013,192.337373257168
1.44464687600472,392.037973892457,387.932042798634,-4.10593109382296,-389.985008345546,198.07195249314,191.913055852406
1.44679026899582,392.57287684557,388.518218633038,-4.05465821253182,-390.545547739304,198.313767529051,192.231780210253
1.44893366198693,395.394257033279,389.056289368285,-6.3379676649937,-392.225273200782,200.866112349136,191.359160851646
1.45107705497803,394.363313040414,390.497379112836,-3.86593392757823,-392.430346076625,199.114623483996,193.315722592629
1.45322044796914,395.974543908034,391.337917136888,-4.63662677114547,-393.656230522461,200.30558533959,193.350645182871
1.45536384096024,398.617449205662,393.131414929336,-5.48603427632588,-395.874432067499,202.051741740994,193.822690326505
1.45750723395134,399.7429751859,394.159404658216,-5.583570527684,-396.951189922058,202.663272856792,194.287917065266
1.45965062694245,399.150455825152,394.280449476944,-4.87000634820839,-396.715452651048,202.01023108668,194.705221564368
1.46179401993355,398.315485769389,393.428067812767,-4.88741795662258,-395.871776791078,201.601451863006,194.270324928072
1.46393741292466,396.479946194555,392.440720253878,-4.03922594067677,-394.460333224216,200.259586067616,194.200747156601
1.46608080591576,395.388166433894,392.233880087644,-3.1542863462501,-393.811023260769,199.271226390072,194.539796870697
1.46822419890687,393.628118415103,391.340632702512,-2.28748571259007,-392.484375558808,197.957802063846,194.526573494961
1.47036759189797,392.881083331387,389.813174363515,-3.0679089678718,-391.347128847451,197.97449614963,193.372632697822
1.47251098488908,395.4868476786,390.783599048739,-4.7032486298607,-393.13522336367,200.09504815423,193.040175209439
1.47465437788018,395.740627209755,392.550130477854,-3.19049673190136,-394.145378843805,199.465561970828,194.679816872976
1.47679777087129,399.052327789922,393.416571004886,-5.63575678503594,-396.234449397404,202.344042287479,193.890407109925
1.47894116386239,401.382324111645,394.936611488552,-6.44571262309324,-398.159467800098,203.914018367369,194.245449432729
1.4810845568535,400.398021864406,396.368913822247,-4.02910804215884,-398.383467843326,202.213564953282,196.169902890044
1.4832279498446,401.788600248715,396.227547484143,-5.56105276457214,-399.008073866429,203.674826506644,195.333247359785
1.48537134283571,402.493995501498,396.187783950748,-6.30621155075022,-399.340889726123,204.400103526124,194.940786199999
1.48751473582681,400.962969519765,395.472121067829,-5.49084845193602,-398.217545293797,203.226908985851,194.990636307947
1.48965812881792,397.938062936932,394.815672406383,-3.12239053054867,-396.376867671657,200.53022673374,195.846640937917
1.49180152180902,397.289352557908,392.538062906737,-4.75128965117113,-394.913707732322,201.02032110454,193.893386627783
1.49394491480013,394.164625642671,392.546525510314,-1.61810013235788,-393.355575576493,197.891362887515,195.464212688978
1.49608830779123,396.48619157079,393.251981994235,-3.23420957655469,-394.869086782513,199.860200573672,195.00888620884
1.49823170078234,400.328659788396,395.508815234643,-4.81984455375306,-397.91873751152,202.574252171075,195.344485340445
1.50037509377344,405.771920522501,398.603456375819,-7.16846414668134,-402.18768844916,206.470192334591,195.717496114569
1.50251848676455,409.706837438333,402.58611059444,-7.12072684389346,-406.146474016387,208.413782141113,197.732691875273
1.50466187975565,412.153697369465,404.270844932158,-7.88285243730667,-408.212271150812,210.018274903386,198.193996247426
1.50680527274676,413.07541548127,408.363461280198,-4.7119542010721,-410.719438380734,208.893684841171,201.825753539563
1.50894866573786,413.986636804306,408.43529565822,-5.55134114608609,-411.210966231263,209.768988975196,201.441977256067
1.51109205872897,414.817606584498,408.417881265729,-6.39972531876856,-411.617743925113,210.608665951633,201.00907797348
1.51323545172007,413.956127615386,408.326385357541,-5.62974225784501,-411.141256486464,209.792934936616,201.348321549848
1.51537884471118,409.854429757603,407.42301020209,-2.43141955551357,-408.638719979847,206.142924656559,202.495795323288
1.51752223770228,408.152744524807,404.977766181343,-3.17497834346403,-406.565255353075,205.663861434136,200.90139391894
1.51966563069339,406.533394297625,403.407764986469,-3.12562931115622,-404.970579642047,204.829511804391,200.141067837656
1.52180902368449,404.21481972335,401.108302560947,-3.10651716240284,-402.661561142148,203.660668442876,199.000892699272
1.5239524166756,402.743063977735,400.407867931469,-2.33519604626593,-401.575465954602,202.539130012,199.036335942602
1.5260958096667,402.840710999495,398.865608998856,-3.97510200063954,-400.853159999176,203.407906500067,197.445253499108
1.52823920265781,400.480052768315,399.632948073737,-0.847104694577467,-400.056500421026,200.663578731446,199.39292168958
1.53038259564891,402.008136098336,398.758726315622,-3.24940978271451,-400.383431206979,202.628772940525,197.754658266454
1.53252598864002,404.286219849456,400.266897509454,-4.01932234000208,-402.276558679455,204.152771094729,198.123787584726
1.53466938163112,404.198932446347,401.029541975705,-3.16939047064176,-402.614237211026,203.684161458494,198.930075752532
1.53681277462223,404.182021902609,400.270225308263,-3.91179659434596,-402.226123605436,204.046909248477,198.179214356959
1.53895616761333,402.658251376397,399.555791732046,-3.1024596443504,-401.107021554222,202.880355510374,198.226666043848
1.54109956060444,400.384299486931,398.043088823844,-2.34121066308791,-399.213694155388,201.36275507501,197.850939080378
1.54324295359554,396.501532659352,395.686275237061,-0.815257422291154,-396.093903948206,198.658395040822,197.435508907385
1.54538634658665,396.514593076712,394.852340724063,-1.66225235264886,-395.683466900388,199.08842271468,196.595044185707
1.54752973957775,394.848407610036,393.180552363801,-1.66785524623515,-394.014479986919,198.258131428136,195.756348558783
1.54967313256886,391.545673464137,390.720354675845,-0.825318788291952,-391.133014069991,196.185496126214,194.947517943776
1.55181652555996,393.037331014187,389.901823470265,-3.13550754392293,-391.469577242226,198.086419279055,193.383157963171
1.55395991855107,393.822040144696,389.944139057382,-3.87790108731349,-391.883089601039,198.849970616005,193.033118985034
1.55610331154217,395.495966321765,390.819294151051,-4.67667217071329,-393.157630236408,200.086319246239,193.071310990169
1.55824670453328,397.217192401985,392.476834884422,-4.74035751756384,-394.847013643203,200.978774959775,193.868238683429
1.56039009752438,398.115670330516,392.493987234435,-5.62168309608086,-395.304828782476,201.868676713298,193.436152069177
1.56253349051549,395.750621649668,391.661322682473,-4.08929896719451,-393.70597216607,199.919960308431,193.786011857639
1.56467688350659,394.880376225596,391.597359288319,-3.28301693727695,-393.238867756958,199.081696581437,194.157171175521
1.5668202764977,394.75179668477,391.546905823546,-3.20489086122393,-393.149351254158,198.978343772997,194.171007481161
1.5689636694888,394.636974465393,391.53421515231,-3.10275931308263,-393.085594808851,198.869866889238,194.215727919614
1.57110706247991,393.008063028707,389.970605281794,-3.03745774691305,-391.489334155251,198.02276038781,193.466573767441
1.57325045547101,390.685152854254,388.426332762009,-2.25882009224495,-389.555742808131,196.471986473249,193.083756334882
1.57539384846212,388.436535934788,386.877075209185,-1.55946072560386,-387.656805571987,194.997998330196,192.65880724179
1.57753724145322,391.749448612523,387.686540805779,-4.06290780674414,-389.717994709151,197.906178209634,191.811816499518
1.57968063444433,392.597306734615,388.464948747344,-4.13235798727078,-390.531127740979,198.364832360943,192.166295380037
1.58182402743543,394.119262751484,389.221894331031,-4.8973684204538,-391.670578541258,199.508315585969,192.162262955288
1.58396742042654,397.143576930097,391.56645517351,-5.57712175658747,-394.355016051804,201.360349343342,192.994666708461
1.58611081341764,395.405867239312,390.753671569823,-4.652195669489,-393.079769404568,200.029031454401,193.050737950167
1.58825420640875,395.357426147181,391.561678960513,-3.795747186668,-393.459552553847,199.576586666925,193.882965886923
1.59039759939985,393.8597132695,390.013876506002,-3.84583676349786,-391.936794887751,198.852775016499,193.084019871252
1.59254099239095,395.62758407476,390.854389855235,-4.77319421952495,-393.240986964998,200.200389147143,193.040597817855
1.59468438538206,394.987936314204,390.877353632176,-4.11058268202777,-392.93264497319,199.549259498116,193.383385475074
1.59682777837316,395.016488838022,390.859945373748,-4.15654346427408,-392.938217105885,199.586516151148,193.351700954737
1.59897117136427,392.513268908188,390.015711369226,-2.49755753896198,-391.264490138707,197.505413223575,193.759076915132
1.60111456435537,389.934834461454,387.580794369437,-2.35404009201687,-388.757814415445,196.144437276735,192.61337713871
1.60325795734648,388.992559736676,386.766330128013,-2.22622960866244,-387.879444932345,195.609394672669,192.270050259675
1.60540135033758,388.190290050715,384.408853338608,-3.78143671210631,-386.299571694661,195.98586338141,190.313708313251
1.60754474332869,387.533663651714,384.46423845393,-3.06942519778374,-385.998951052822,195.301544424749,190.697406628073
1.60968813631979,390.114152256834,384.512730777036,-5.60142147979724,-387.313441516935,197.857786868315,189.45565464862
1.6118315293109,389.453444392969,385.315310635084,-4.13813375788465,-387.384377514026,196.795789075427,190.5885884386
1.613974922302,392.617732191784,386.071258734288,-6.54647345749549,-389.344495463036,199.58210282464,189.762392638396
1.61611831529311,392.466750931475,387.599934792862,-4.86681613861322,-390.033342862169,198.666783535044,191.366559327124
1.61826170828421,393.068164177307,388.3530566032,-4.71510757410675,-390.710610390253,198.891635875707,191.818974514547
1.62040510127532,392.16219504995,387.56682526232,-4.59536978762924,-389.864510156135,198.378782418789,191.485727737346
1.62254849426642,394.584376891695,390.005101237575,-4.57927565412001,-392.294739064635,199.581826272908,192.712912791727
1.62469188725753,397.921728518042,392.452313730993,-5.46941478704883,-395.187021124518,201.695571652545,193.491449471972
1.62683528024863,409.211699630045,400.418398857052,-8.79330077299318,-404.815049243548,209.002500201519,195.812549042029
1.62897867323974,422.773901444089,409.904637442999,-12.8692640010901,-416.339269443544,217.821582722589,198.517686720954
1.63112206623084,441.741000969541,424.108646831971,-17.6323541375694,-432.924823900756,229.686677553555,203.238146347201
1.63326545922195,459.031170780265,439.119489540261,-19.9116812400038,-449.075330160263,239.471426010134,209.603904150129
1.63540885221305,478.753057131371,455.79559744706,-22.9574596843111,-467.274327289215,250.855258407841,216.419068881374
1.63755224520416,496.251331847241,472.570056087933,-23.6812757593073,-484.410693967587,259.966303803274,224.444390164313
1.63969563819526,512.322967995433,488.604984022209,-23.7179839732235,-500.463976008821,268.020475984328,232.443500024493
1.64183903118637,524.471096402713,502.224089737029,-22.247006665684,-513.347593069871,273.359051534199,239.988541535673
1.64398242417747,529.362415489846,509.380559737927,-19.9818557519187,-519.371487613887,274.672135620882,244.699351993004
1.64612581716858,520.556840343507,509.272244952066,-11.284595391441,-514.914542647786,265.920717867474,248.993824780312
1.64826921015968,509.220417648494,502.762411153722,-6.45800649477121,-505.991414401108,257.839212071632,248.152202329476
1.65041260315079,488.344942444427,490.746045441289,2.40110299686188,-489.545493942858,242.971919723782,246.573574219075
1.65255599614189,469.9846080126,477.258129370325,7.27352135772577,-473.621368691463,231.355543327437,242.265825364026
1.654699389133,454.18038908808,463.867725309975,9.6873362218949,-459.024057199028,222.246526433093,236.777530765935
1.6568427821241,440.0582244101,448.898798636265,8.8405742261649,-444.478511523182,215.608825091967,228.869686431215
1.65898617511521,423.516591263335,436.231410462001,12.7148191986655,-429.874000862668,205.400886032335,224.473114830333
1.66112956810631,412.412638996705,424.244465753769,11.8318267570639,-418.328552375237,200.290406119821,218.038146255417
1.66327296109742,403.574614892226,414.57590884982,11.0012939575946,-409.075261871023,196.286660467315,212.788601403707
1.66541635408852,399.4669915922,406.52831650514,7.06132491294011,-402.99765404867,196.20283333963,206.79482070904
1.66755974707963,397.8021816523,401.766111609323,3.96392995702286,-399.784146630812,196.919125847639,202.865020783173
1.66970314007073,398.624923246328,401.082468676419,2.45754543009031,-399.853695961374,198.083688908119,201.770007053255
1.67184653306184,397.935333613684,399.634378788594,1.69904517490988,-398.784856201139,198.118144219387,200.666711981752
1.67398992605294,399.630408589846,397.32729057659,-2.30311801325689,-398.478849583218,200.966763301552,197.512086281666
1.67613331904405,396.494416625,396.496927497917,0.00251087291701424,-396.495672061458,198.245952876041,198.249719185417
1.67827671203515,395.661207503126,394.788409835042,-0.872797668083251,-395.224808669084,198.267002585604,196.95780608348
1.68042010502626,394.784315595006,393.079407748536,-1.7049078464708,-393.931861671771,198.244611720739,195.687249951032
1.68256349801736,396.301587393159,392.245381005259,-4.05620638789998,-394.273484199209,200.17889689053,194.09458730868
1.68470689100847,391.516016752281,391.515460186014,-0.000556566266709524,-391.515738469147,195.758286659274,195.757451809874
1.68685028399957,391.553979445632,388.460447688939,-3.09353175669384,-390.007213567285,197.323755601163,192.683457966122
1.68899367699068,386.852564193258,386.175828479747,-0.676735713510993,-386.514196336503,193.764649953385,192.749546383118
1.69113706998178,386.105117776008,384.596441455442,-1.50867632056662,-385.350779615725,193.806897048288,191.543882567438
1.69328046297289,387.691800962083,385.302769980079,-2.38903098200376,-386.497285471081,195.040415972043,191.456869499038
1.69542385596399,386.848705057066,384.379070442193,-2.46963461487297,-385.613887749629,194.659169835969,190.95471791366
1.6975672489551,389.172850321682,385.088911707129,-4.08393861455306,-387.130881014405,196.628394468118,190.502486546288
1.6997106419462,388.354087752213,385.108497722701,-3.24559002951196,-386.731292737457,195.799838890862,190.931453846594
1.70185403493731,390.767155212116,386.811389155151,-3.9557660569651,-388.789272183634,197.361460634541,191.427811549093
1.70399742792841,390.037659579531,386.152993026813,-3.88466655271873,-388.095326303172,196.961163066125,191.134163237047
1.70614082091952,389.298210587952,386.222241665606,-3.07596892234608,-387.760226126779,196.187089755149,191.57313637163
1.70828421391062,390.097498093547,386.177592825614,-3.91990526793319,-388.13754545958,197.00870168074,191.12884377884
1.71042760690173,390.043450051363,385.250274605807,-4.79317544555579,-387.646862328585,197.418312748459,190.228549580126
1.71257099989283,390.756778356181,385.907077317718,-4.84970103846342,-388.33192783695,197.803239697322,190.528688139627
1.71471439288394,389.909567371655,385.853183073374,-4.05638429828127,-387.881375222515,196.982975834968,190.898399387546
1.71685778587504,388.338412033691,385.125874639687,-3.21253739400413,-386.732143336689,195.775474713847,190.956668622841
1.71900117886615,389.216570521292,385.275030820331,-3.9415397009617,-387.245800670812,196.579055111127,190.666745559685
1.72114457185725,390.106193527082,385.412401111919,-4.6937924151635,-387.759297319501,197.399992971123,190.359304348378
1.72328796484836,388.556872666356,385.448197565713,-3.10867510064247,-387.002535116034,195.832773883499,191.169761232535
1.72543135783946,387.715335976107,383.768256290709,-3.9470796853978,-385.741796133408,195.831207830753,189.910588302656
1.72757475083056,387.608286859189,384.400508496205,-3.2077783629843,-386.004397677697,195.408032611087,190.59636506661
1.72971814382167,389.09667250411,385.062952706909,-4.03371979720191,-387.079812605509,196.565196150656,190.514616454853
1.73186153681277,391.45069398686,386.632512021622,-4.81818196523767,-389.041603004241,198.134437976049,190.907165028192
1.73400492980388,391.516312409189,388.328088915525,-3.188223493664,-389.922200662357,197.352267951427,192.569932710931
1.73614832279498,394.025206710833,387.703286533541,-6.32192017729233,-390.864246622187,200.173563444063,190.690683178124
1.73829171578609,393.342105551787,388.628228980507,-4.71387657127997,-390.985167266147,199.027991061533,191.957176204613
1.74043510877719,394.162916339732,388.639321247936,-5.52359509179621,-391.401118793834,199.843255715764,191.55786307807
1.7425785017683,394.87658037447,390.108840350774,-4.76774002369621,-392.492710362622,199.822160199083,192.670550163539
1.7447218947594,397.112696625133,390.722080988077,-6.39061563705542,-393.917388806605,201.751656131094,192.165732675511
1.74686528775051,395.397787685387,390.58876655845,-4.80902112693678,-392.993277121919,200.103404406162,192.889872715757
1.74900868074161,396.169803256859,392.17641014109,-3.99339311576898,-394.173106698975,200.081598186314,194.091508512661
1.75115207373272,396.274089706515,391.518494403568,-4.75559530294703,-393.896292055041,200.514842504731,193.38144955031
1.75329546672382,397.240876700375,392.50732492287,-4.73355177750494,-394.874100811623,200.98721423894,193.886886572683
1.75543885971493,398.169220202807,391.847372640976,-6.32184756183136,-395.008296421891,202.245533882319,192.762762539572
1.75758225270603,398.970259648309,393.424245184626,-5.54601446368326,-396.197252416467,202.258137055996,193.939115360471
1.75972564569714,398.838165321935,392.473290811368,-6.36487451056689,-395.655728066652,202.601519916251,193.054208150401
1.76186903868824,397.05752258737,393.058668651577,-3.99885393579325,-395.058095619473,200.528188261582,194.529907357892
1.76401243167935,399.308945300237,392.925995684552,-6.38294961568528,-396.117470492395,202.845947457961,193.271523034433
1.76615582467045,398.527896614808,393.748815063454,-4.77908155135395,-396.138355839131,201.653489083081,194.48486675605
1.76829921766156,401.064853151618,396.30729821573,-4.75755493588855,-398.686075683674,202.911204043753,195.774871639921
1.77044261065266,402.854587668535,397.31754329319,-5.53704437534509,-400.086065480863,204.19581602194,195.890249458922
1.77258600364377,403.771916941292,398.236396902172,-5.53552003911989,-401.004156921732,204.653718490206,196.350438431526
1.77472939663487,405.328080882084,398.987455528044,-6.3406253540399,-402.157768205064,205.834353118062,196.323415087002
1.77687278962598,405.158671760224,400.389616735626,-4.76905502459721,-402.774144247925,204.96386339241,197.810280855515
1.77901618261708,404.957289633893,400.172049174179,-4.78524045971449,-402.564669404036,204.871265046804,197.693404357232
1.78115957560819,405.643591520396,399.263178593964,-6.38041292643231,-402.45338505718,206.012002223414,196.441382833766
1.78330296859929,402.520266849225,398.530553477308,-3.98971337191728,-400.525410163266,203.254990110571,197.270420052695
1.7854463615904,398.736344613294,395.556687438825,-3.17965717446964,-397.14651602606,200.958000893882,196.188515132178
1.7875897545815,398.943142206976,395.777831139085,-3.16531106789103,-397.360486673031,201.054226637434,196.306260035597
1.78973314757261,403.002091301022,397.463242312958,-5.5388489880641,-400.23266680699,204.270470144543,195.962196662447
1.79187654056371,405.283172135363,399.748838304504,-5.53433383085962,-402.516005219934,205.408752983112,197.107252236822
1.79401993355482,406.638813763141,401.100716622901,-5.53809714023993,-403.869765193021,206.08845545169,197.78130974133
1.79616332654592,407.224403225264,402.463822346549,-4.76058087871434,-404.844112785906,205.992492051989,198.851620733917
1.79830671953703,409.57063871649,403.988753892924,-5.58188482356599,-406.779696304707,207.576261770028,199.203434534679
1.80045011252813,410.536454709355,404.931619005732,-5.60483570362254,-407.734036857544,208.070645206489,199.663391651055
1.80259350551924,414.781358768207,408.380996812276,-6.40036195593069,-411.581177790241,210.590860362069,200.990317428173
1.80473689851034,415.767629313387,409.395548675973,-6.37208063741406,-412.58158899468,211.069854975401,201.51173401928
1.80688029150145,414.156058808509,408.62391220825,-5.53214660025884,-411.389985508379,209.844102704384,201.545882803996
1.80902368449255,412.338830493444,408.429643777083,-3.90918671636047,-410.384237135264,208.124008604902,202.260228530361
1.81116707748366,411.255828691974,408.137807120105,-3.11802157186924,-409.696817906039,207.186925131922,202.509892774118
1.81331047047476,410.300166666318,406.344990437707,-3.95517622861087,-408.322578552012,207.127671447464,201.194907104548
1.81545386346587,409.580223286804,406.362420786636,-3.21780250016792,-407.97132203672,206.399012893486,201.572309143234
1.81759725645697,412.228829577666,407.388291579074,-4.84053799859254,-409.80856057837,208.534683788129,201.273876790241
1.81974064944808,414.895946251511,409.275319504714,-5.62062674679726,-412.085632878113,210.258286499154,201.827346378958
1.82188404243918,416.600650548512,411.036726831956,-5.56392371655522,-413.818688690234,211.082287132533,202.736401557701
1.82402743543029,417.267457029809,411.766071663408,-5.501385366401,-414.516764346609,211.384421198105,203.132343148504
1.82617082842139,415.39380569264,411.505749616417,-3.88805607622265,-413.449777654529,209.640930884431,203.808846770097
1.8283142214125,415.140909179488,411.219459254985,-3.92144992450289,-413.180184217237,209.531179551995,203.649004665241
1.8304576144036,416.67258012293,411.092580959194,-5.57999916373632,-413.882580541062,211.126289643333,202.756290897729
1.83260100739471,416.049283645416,412.793757774934,-3.25552587048179,-414.421520710175,209.652404757949,204.769115952226
1.83474440038581,419.50896062359,413.069691840661,-6.43926878292882,-416.289326232126,212.974114703259,203.315211528866
1.83688779337692,419.715048171244,414.917590949071,-4.79745722217245,-417.316319560158,212.256252696708,205.060066863449
1.83903118636802,422.094788902673,416.580976857173,-5.51381204550023,-419.337882879923,213.804300474087,205.533582405837
1.84117457935913,423.477756756301,418.012953650333,-5.46480310596843,-420.745355203317,214.471279931135,206.274075272182
1.84331797235023,427.973400588173,421.699669680592,-6.27373090758141,-424.836535134383,217.123565747877,207.712969386505
1.84546136534134,432.580490917194,423.854585414936,-8.72590550225766,-428.217538166065,220.653198209726,207.564339956339
1.84760475833244,432.637229982216,426.215637387822,-6.42159259439421,-429.426433685019,219.529411288305,209.897022396714
1.84974815132355,432.8783466123,427.211387694213,-5.66695891808735,-430.044867153257,219.272652765194,210.772214388063
1.85189154431465,433.151120241582,428.302553659819,-4.84856658176278,-430.7268369507,218.999843411672,211.726993539028
1.85403493730575,430.099707204173,426.914733161082,-3.18497404309159,-428.507220182628,216.642340623632,211.864879558995
1.85617833029686,429.990976777009,426.093766815576,-3.89720996143257,-428.042371796293,216.944093369221,211.098278427072
1.85832172328796,428.91357002277,425.057981363693,-3.85558865907711,-426.985775693232,216.384579340924,210.601196352308
1.86046511627907,428.631659593602,424.751785131496,-3.87987446210576,-426.691722362549,216.255767027854,210.435955334695
1.86260850927017,430.915390504362,426.162751170466,-4.75263933389607,-428.539070837414,217.834014919129,210.705055918285
1.86475190226128,431.863319863,427.816011682105,-4.04730818089462,-429.839665772553,217.955314021947,211.884351750605
1.86689529525238,435.358330940566,429.674240584954,-5.68409035561251,-432.51628576276,220.521210648089,211.995075114671
1.86903868824349,437.231930397841,432.365087638909,-4.86684275893236,-434.798509018375,221.049386578387,213.749122439988
1.87118208123459,438.891215934391,432.519288308847,-6.37192762554338,-435.705252121619,222.631571779967,213.073680341652
1.8733254742257,436.316884332954,432.424451932581,-3.89243240037342,-434.370668132767,220.104658366664,214.266009766104
1.8754688672168,436.775843178456,432.14013747235,-4.63570570610642,-434.457990325403,220.705774442281,213.752215883122
1.87761226020791,432.534416460313,429.460605810119,-3.07381065019388,-430.997511135216,217.804113555253,213.193397579963
1.87975565319901,434.088158697323,429.336145983803,-4.75201271352068,-431.712152340563,219.420085705422,212.292066635141
1.88189904619012,435.101187764331,430.251290573167,-4.84989719116402,-432.676239168749,219.975542477747,212.700696691001
1.88404243918122,436.226865860226,431.330043907244,-4.89682195298229,-433.778454883735,220.561843906604,213.216610977131
1.88618583217233,435.670215510491,431.598611421904,-4.07160408858664,-433.634413466198,219.870909799539,213.763503666659
1.88832922516343,439.640376485567,432.4822360483,-7.15814043726687,-436.061306266933,223.399258461417,212.662047805516
1.89047261815454,439.402997808705,433.93191663384,-5.47108117486482,-436.667457221273,222.437039491785,214.230417729488
1.89261601114564,439.876675878391,435.245048714213,-4.63162716417781,-437.560862296302,222.254151521284,215.306710775018
1.89475940413675,434.914215310001,432.625526955161,-2.28868835484002,-433.769871132581,218.60145183242,215.16841930016
1.89690279712785,430.999341558544,429.401344629944,-1.5979969285994,-430.200343094244,216.298669243572,213.901673850673
1.89904619011896,426.506462509545,426.394441064868,-0.112021444676714,-426.450451787206,213.309241977111,213.141209810096
1.90118958311006,425.223650561797,424.283822899868,-0.939827661929485,-424.753736730832,213.081739111863,211.671997618969
1.90333297610117,425.351725337499,422.887253940492,-2.46447139700706,-424.119489638995,213.908098367253,210.211391271742
1.90547636909227,423.620942341964,421.282788733686,-2.33815360827879,-422.451865537825,212.979547975122,209.472317562703
1.90761976208338,420.127432356249,418.68935126316,-1.43808109308878,-419.408391809705,210.782756724669,208.625635085036
1.90976315507448,416.68128102815,416.046313582663,-0.634967445486325,-416.363797305406,208.658124236818,207.705673068588
1.91190654806559,413.474426636927,414.324961011409,0.850534374482379,-413.899693824168,206.311946131222,207.587747692946
1.91404994105669,412.915061070012,412.025255770223,-0.889805299789543,-412.470158420118,206.902433184901,205.567725235217
1.9161933340478,410.869196797226,409.883401206671,-0.985795590555767,-410.376299001949,205.927496193891,204.448802808057
1.9183367270389,408.688544609687,407.734257250314,-0.95428735937287,-408.211400930001,204.82141598453,203.389984945471
1.92048012003001,405.432323847754,405.417305825916,-0.0150180218372498,-405.424814836835,202.723670934795,202.70114390204
1.92262351302111,400.354873461763,401.298484447152,0.943610985388943,-400.826678954457,199.705631238187,201.12104771627
1.92476690601222,397.641202561444,397.862398954373,0.221196392928903,-397.751800757909,198.710003084258,199.041797673651
1.92691029900332,395.932968840771,396.080548920366,0.147580079594832,-396.006758880568,197.892694380588,198.11406449998
1.92905369199443,399.287731842807,396.876823783492,-2.41090805931509,-398.08227781315,200.849319951061,197.232957862089
1.93119708498553,400.437486641249,397.069455526112,-3.36803111513677,-398.75347108368,201.902758878193,196.850712205488
1.93334047797664,399.937012395749,396.5274879529,-3.40952444284937,-398.232250174324,201.673268419299,196.558981755025
1.93548387096774,395.208082915367,393.495703733319,-1.71237918204844,-394.351893324343,198.460231048708,195.891662275635
1.93762726395885,393.376155051546,390.265138007127,-3.11101704441853,-391.820646529337,198.243586047982,193.577060481354
1.93977065694995,388.247045931739,387.66907920608,-0.577966725658484,-387.958062568909,194.412506328698,193.545556240211
1.94191404994106,388.796052774732,387.435484403112,-1.36056837161999,-388.115768588922,195.078310573176,193.037458015746
1.94405744293216,390.413433934737,386.535573891977,-3.87786004275983,-388.474503913357,197.145646988748,191.328856924608
1.94620083592327,389.899245847197,386.622942385279,-3.27630346191773,-388.261094116238,196.587774654557,191.673319461681
1.94834422891437,387.868809118879,385.25678091128,-2.61202820759837,-386.562795015079,195.240418663238,191.322376351841
1.95048762190548,383.307538770395,381.502113528887,-1.80542524150837,-382.404826149641,192.556482005952,189.848344143689
1.95263101489658,382.442762531671,379.989756124456,-2.45300640721501,-381.216259328064,192.447884469443,188.768374858621
1.95477440788769,380.54953684006,378.287893977701,-2.26164286235911,-379.418715408881,191.40558985121,188.013125557671
1.95691780087879,382.579135009979,379.641324793785,-2.93781021619355,-381.110229901882,192.758472613086,188.351757288796
1.9590611938699,384.776794917554,381.016364882104,-3.76043003545016,-382.896579899829,194.268612476502,188.627967423327
1.961204586861,387.259725091782,382.546975768778,-4.71274932300389,-384.90335043028,195.986237207393,188.917113222887
1.96334797985211,389.973197188865,383.480994464367,-6.49220272449747,-386.727095826616,198.232699956681,188.494395869935
1.96549137284321,388.750051917191,384.532972726743,-4.21707919044832,-386.641512321967,196.48356555382,190.157946768147
1.96763476583432,386.549179866886,382.370143395037,-4.17903647184943,-384.459661630961,195.364108169368,189.095553461594
1.96977815882542,383.258356790966,380.033958556073,-3.22439823489282,-381.64615767352,193.24137751293,188.40478016059
1.97192155181653,379.733270123656,378.284509230622,-1.44876089303438,-379.008889677139,190.591015508345,188.417874168794
1.97406494480763,377.763792951074,376.417577469169,-1.34621548190529,-377.090685210121,189.55500421649,187.535680993632
1.97620833779874,378.366896292208,375.392312833688,-2.97458345851976,-376.879604562948,190.670739875364,186.208864687584
1.97835173078984,379.273195527953,376.937844062356,-2.33535146559672,-378.105519795155,190.804273496775,187.30124629838
1.98049512378095,382.009322811543,378.700342395864,-3.30898041567929,-380.354832603704,192.659151613611,187.695680990092
1.98263851677205,385.576607075004,378.991659906562,-6.58494716844189,-382.284133490783,196.080777121723,186.20335636906
1.98478190976315,385.776635723116,381.612589604502,-4.16404611861373,-383.694612663809,194.970340920865,188.724271742944
1.98692530275426,388.054100480504,381.654202025846,-6.39989845465783,-384.854151253175,197.226999467581,187.627151785594
1.98906869574536,386.910442808884,381.472745325672,-5.43769748321222,-384.191594067278,196.174070146048,188.01752392123
1.99121208873647,387.315684207805,381.969263801846,-5.34642040595821,-384.642474004826,196.331052306881,188.311421697944
1.99335548172757,385.525802145725,381.731379263373,-3.79442288235208,-383.628590704549,194.660112514039,188.968478190511
1.99549887471868,385.629978935744,381.695701008897,-3.93427792684696,-383.662839972321,194.782128431296,188.880711541025
1.99764226770978,385.182695566294,382.678736630706,-2.50395893558783,-383.9307160985,193.843327250941,190.087388847559
1.99978566070089,383.978924680953,381.391462182201,-2.58746249875242,-382.685193431577,193.283193589853,189.401999841724
2.00192905369199,383.381234135716,380.832994351566,-2.54823978414998,-382.107114243641,192.964736959933,189.142377283708
2.0040724466831,384.06739038131,380.06849066705,-3.99889971425966,-382.06794052418,194.033145047785,188.034795476395
2.0062158396742,384.510312113273,380.666089237864,-3.84422287540968,-382.588200675569,194.177267494342,188.410933181227
2.00835923266531,386.504323221909,381.150492012681,-5.35383120922739,-383.827407617295,195.929077215568,187.898330401727
2.01050262565641,386.308750775075,382.498668340222,-3.81008243485275,-384.403709557649,195.059416604964,189.344292952685
2.01264601864752,388.809299236947,384.060806452164,-4.74849278478297,-386.435052844555,196.778896010865,189.65615683369
2.01478941163862,389.968051153213,383.474849220664,-6.49320193254925,-386.721450186938,198.230626542881,188.490823644057
2.01693280462973,389.571488346299,385.388559570044,-4.18292877625527,-387.480023958172,196.877208561277,190.602815396894
2.01907619762083,388.973996069829,384.050073877465,-4.92392219236416,-386.512034973647,196.948959131097,189.56307584255
2.02121959061194,386.469186778257,383.280707087797,-3.18847969046089,-384.874946933027,194.828833234359,190.046113698668
2.02336298360304,386.890736380362,383.060739328667,-3.82999705169465,-384.975737854515,195.360366716028,189.615371138486
2.02550637659415,387.274475248918,383.513694635358,-3.76078061355986,-385.394084942138,195.517627931239,189.876457010899
2.02764976958525,385.476840151924,381.661955457423,-3.81488469450125,-383.569397804673,194.645862423213,188.923535381461
2.02979316257636,385.59782189944,383.225142820847,-2.37267907859325,-384.411482360143,193.985250489017,190.426231871127
2.03193655556746,387.572203140314,383.457434012975,-4.11476912733877,-385.514818576644,195.843486133826,189.671332442818
2.03407994855857,389.585672152235,384.608509744205,-4.97716240803044,-387.09709094822,197.281417280133,189.815673668087
2.03622334154967,392.180032994638,387.261911979886,-4.91812101475256,-389.720972487262,198.549077004696,191.171895482567
2.03836673454078,396.814068576833,388.870299953015,-7.94376862381762,-392.842184264924,202.378918600325,190.463265664599
2.04051012753188,394.825819476676,390.212218053168,-4.61360142350753,-392.519018764922,199.719710450092,192.79930831483
2.04265352052299,395.194934429123,390.638978084468,-4.55595634465487,-392.916956256796,199.875445386889,193.041510869907
2.04479691351409,394.208175030578,389.578013216863,-4.63016181371557,-391.893094123721,199.419168422147,192.473925701574
2.0469403065052,395.157698645012,389.575906483646,-5.58179216136602,-392.366802564329,200.369745403189,191.99705716114
2.0490836994963,390.800107416791,387.459641544281,-3.34046587251032,-389.129874480536,197.070286644651,192.059587835885
2.05122709248741,389.628583065126,387.041529116881,-2.58705394824563,-388.335056091004,196.107818506686,192.227237584318
2.05337048547851,389.801686529719,385.709809542706,-4.0918769870126,-387.755748036212,196.946781758366,190.808966277847
2.05551387846962,388.033197042706,385.687927394688,-2.34526964801842,-386.860562218697,195.189233345362,191.671328873335
2.05765727146072,390.782145079585,386.983412795528,-3.79873228405711,-388.882778937556,197.290438681821,191.592340255735
2.05980066445183,391.15495722475,386.592790149763,-4.56216707498692,-388.873873687256,197.858562149868,191.015311537388
2.06194405744293,391.791498271638,387.931931903447,-3.85956636819128,-389.861715087543,197.825532319915,192.036182767628
2.06408745043404,392.000744622283,387.980629253427,-4.02011536885607,-389.990686937855,198.01042999557,191.980256942286
2.06623084342514,395.633947240752,388.305158063311,-7.3287891774408,-391.969552652032,201.481368209096,190.488184442935
2.06837423641625,395.267621897152,388.713102691498,-6.55451920565395,-391.990362294325,200.911070551403,191.079291742922
2.07051762940735,396.202212417395,391.337124124836,-4.86508829255916,-393.769668271116,200.533650354977,193.236017916138
2.07266102239846,396.760544890751,391.257064945324,-5.50347994542716,-394.008804918037,201.132012418089,192.876792499948
2.07480441538956,396.285714710293,391.693060037829,-4.59265467246314,-393.989387374061,200.439184691378,193.550202682683
2.07694780838067,395.06248702902,390.479607779627,-4.58287924939248,-392.771047404323,199.822683139206,192.948364265117
2.07909120137177,394.939758279006,391.052636825023,-3.8871214539829,-392.996197552014,199.413439866494,193.58275768552
2.08123459436288,395.993228288321,391.168007241226,-4.825221047095,-393.580617764774,200.409224667708,193.171393097066
2.08337798735398,396.479132284861,392.34647225045,-4.13266003441083,-394.412802267656,200.305896159636,194.10690610802
2.08552138034509,397.69476436773,392.765607744733,-4.92915662299714,-395.230186056231,201.311960495364,193.918225560868
2.08766477333619,398.593011885556,394.551146455146,-4.04186543041038,-396.572079170351,201.317438657983,195.254640512368
2.0898081663273,399.905220170771,395.197088286994,-4.70813188377667,-397.551154228883,202.306676027274,195.244478201609
2.0919515593184,396.238352833048,393.205008178518,-3.03334465452917,-394.721680505783,199.635848743788,195.085831761995
2.09409495230951,392.657108432855,390.413951351612,-2.24315708124357,-391.535529892233,197.450132757049,194.085397135184
2.09623834530061,392.581740874224,390.252911364986,-2.32882950923761,-391.417326119605,197.455285191731,193.962040927874
2.09838173829172,391.283585701282,388.845387593139,-2.43819810814244,-390.064486647211,196.860891904712,193.203594742498
2.10052513128282,392.550731953906,389.252452804804,-3.29827914910157,-390.901592379355,197.924505551504,192.977086827851
2.10266852427393,393.712235042126,389.632505344722,-4.07972969740399,-391.672370193424,198.895982369765,192.776387823659
2.10481191726503,396.139947005373,391.341378889861,-4.79856811551184,-393.740662947617,200.469257560442,193.271405387175
2.10695531025614,397.433865250561,392.720502102752,-4.71336314780899,-395.077183676656,201.073614199185,194.003569477471
2.10909870324724,400.163373701275,394.697789594942,-5.4655841063331,-397.430581648109,202.814478903804,194.616102744305
2.11124209623835,399.834865471992,393.555272503434,-6.27959296855806,-396.695068987713,203.057229220275,193.637839767438
2.11338548922945,396.644666038504,393.481073865092,-3.1635921734121,-395.062869951798,199.904129105958,195.15874084584
2.11552888222056,396.949716256725,393.723576895923,-3.22613936080143,-395.336646576324,200.087927808763,195.248718767561
2.11767227521166,394.996718461723,392.538595210885,-2.45812325083733,-393.767656836304,198.72742085628,195.040235980024
2.11981566820277,394.492598575069,392.056634135604,-2.43596443946473,-393.274616355337,198.464281507267,194.81033484807
2.12195906119387,397.644620286042,392.084804877176,-5.55981540886546,-394.864712581609,201.602217847454,193.262494734155
2.12410245418497,399.703786204223,394.19522493312,-5.50856127110364,-396.949505568671,202.606173737663,194.343331831008
2.12624584717608,400.871717800229,394.58569671208,-6.28602108814943,-397.728707256154,203.578869444189,194.149837811965
