t,leadI,leadII,leadIII,aVR,aVL,aVF
0,478.612612612613,448.585585585586,-30.027027027027,-463.599099099099,254.31981981982,209.279279279279
0.00214339299110492,503.428059166293,475.926938592559,-27.5011205737337,-489.677498879426,265.464589870013,224.212909009413
0.00428678598220984,512.666163184247,488.36113675142,-24.305026432827,-500.513649967833,268.485594808537,232.028055159296
0.00643017897331476,517.933426320567,496.629043475954,-21.3043828446134,-507.28123489826,269.61890458259,237.66233031567
0.00857357196441968,521.517201392861,502.976222326939,-18.5409790659221,-512.2467118599,270.029090229391,242.217621630508
0.0107169649555246,524.212027849551,507.529867489979,-16.6821603595718,-515.870947669765,270.447094104561,245.423853565204
0.0128603579466295,524.985831942483,510.435861866031,-14.5499700764518,-517.710846904257,269.767901009467,247.94294589479
0.0150037509377344,524.167493055835,512.234921423243,-11.932571632592,-518.201207239539,268.050032344214,250.151174895326
0.0171471439288394,523.849658068428,513.532152855899,-10.3175052125288,-518.690905462164,267.083581640478,251.607323821685
0.0192905369199443,523.076651298286,514.201588452822,-8.8750628454643,-518.639119875554,265.975857071875,252.663262803679
0.0214339299110492,522.514407748445,515.22999047381,-7.2844172746353,-518.872199111127,264.89941251154,253.972786599587
0.0235773229021541,521.834336235901,515.708724703148,-6.12561153275237,-518.771530469524,263.979973884326,254.791556585198
0.025720715893259,521.068149266128,515.517139941316,-5.55100932481241,-518.292644603722,263.30957929547,254.983065308252
0.0278641088843639,520.779487080682,515.647630542418,-5.13185653826383,-518.21355881155,262.955671809473,255.257887002077
0.0300075018754689,520.568866867662,516.013045634338,-4.55582123332442,-518.290956251,262.562344050493,255.728612200507
0.0321508948665738,520.415169591516,515.739339494183,-4.67583009733289,-518.077254542849,262.545499844424,255.531754698425
0.0342942878576787,520.303003365716,515.269422741043,-5.03358062467237,-517.786213053379,262.668291995194,255.117921058185
0.0364376808487836,519.14048946149,514.386144464866,-4.75434499662401,-516.763316963178,261.947417229057,254.815899734121
0.0385810738398885,517.211414639372,513.201183560018,-4.01023107935418,-515.206299099695,260.610822859363,254.595476240332
0.0407244668309935,515.533349768824,511.525882699901,-4.00746706892363,-513.529616234362,259.770408418874,253.759207815488
0.0428678598220984,514.308632261496,510.033025181482,-4.27560708001403,-512.170828721489,259.292119670755,252.878709050734
0.0450112528132033,512.334155642051,508.67331926246,-3.66083637959144,-510.503737452255,257.997496010821,252.506241441434
0.0471546458043082,510.082629165173,507.140635079462,-2.94199408571097,-508.611632122318,256.512311625442,252.099320496876
0.0492980387954131,508.439368116652,505.75185973884,-2.68750837781187,-507.095613927746,255.563438247232,251.532175680514
0.0514414317865181,506.969888557305,503.927802300362,-3.04208625694355,-505.448845428833,255.005987407124,250.442858021709
0.053584824777623,506.707867093708,502.866681927602,-3.84118516610545,-504.787274510655,255.274526129906,249.512748380748
0.0557282177687279,506.786788620257,502.632542399715,-4.15424622054223,-504.709665509986,255.4705174204,249.239148089586
0.0578716107598328,507.925013901911,503.272125807954,-4.65288809395702,-505.598569854933,256.288950997934,249.309618856999
0.0600150037509377,509.836365394849,504.009077985277,-5.82728740957208,-506.922721690063,257.83182640221,249.090895287852
0.0621583967420427,510.150728516128,504.276781726738,-5.87394678939006,-507.213755121433,258.012337652759,249.201417468674
0.0643017897331476,507.948758559992,503.391538781789,-4.55721977820281,-505.670148670891,256.252989169098,249.417159501793
0.0664451827242525,504.180414772323,501.12451244383,-3.05590232849306,-502.652463608076,253.618158550408,249.034305057668
0.0685885757153574,501.159956263964,498.659468721676,-2.50048754228811,-499.90971249282,251.830221903126,248.079490589694
0.0707319687064623,498.685337176026,496.590215664574,-2.09512151145157,-497.6377764203,250.390229343739,247.247547076561
0.0728753616975673,497.68972044449,495.350140388223,-2.33958005626698,-496.519930416357,250.014650250379,246.505280165978
0.0750187546886722,498.043700605811,494.445079151417,-3.59862145439479,-496.244389878614,250.821161030103,245.423228848511
0.0771621476797771,499.382675675273,494.594994465784,-4.78768120948877,-496.988835070528,252.085178442381,244.903656628148
0.079305540670882,501.170386947727,495.785034074288,-5.38535287343933,-498.477710511008,253.277869910583,245.199840600424
0.0814489336619869,503.555761762336,497.734201937654,-5.82155982468123,-500.644981849995,254.688660793508,245.956321056487
0.0835923266530918,505.837025176823,499.426946206573,-6.41007897024929,-502.631985691698,256.123552073536,246.508433618162
0.0857357196441968,508.042303532686,500.662385096108,-7.37991843657824,-504.352344314397,257.711110984632,246.641233329765
0.0878791126353017,508.030874970547,501.564062495236,-6.46681247531052,-504.797468732891,257.248843722929,247.548625009963
0.0900225056264066,506.671752846099,501.411677508264,-5.26007533783496,-504.041715177181,255.965914091967,248.075801085214
0.0921658986175115,504.329024946905,500.219835424629,-4.1091895222753,-502.274430185767,254.21910723459,248.055322951177
0.0943092916086164,501.80873090679,498.539508247845,-3.26922265894552,-500.174119577317,252.538976782868,247.63514279445
0.0964526845997214,500.509622381101,497.583288107718,-2.92633427338296,-499.046455244409,251.717978327242,247.328476917167
0.0985960775908263,499.831632305394,496.615240566492,-3.21639173890236,-498.223436435943,251.524012022148,246.699424413795
0.100739470581931,499.606961672099,495.908717081915,-3.69824459018355,-497.757839377007,251.652603131141,246.105236245866
0.102882863573036,499.442987206013,495.39306530553,-4.04992190048301,-497.418026255772,251.746454553248,245.671571702524
0.105026256564141,498.512842824914,494.746563847827,-3.76627897708744,-496.62970333637,251.139560901001,245.49014243537
0.107169649555246,498.104138938178,494.274718774906,-3.82942016327223,-496.189428856542,250.966779550725,245.222649305817
0.109313042546351,498.076005157132,493.660189367604,-4.41581578952758,-495.868097262368,251.24591047333,244.622186789038
0.111456435537456,497.245003256183,492.941522685191,-4.30348057099241,-495.093262970687,250.774241913588,244.319021057099
0.113599828528561,496.908657892725,492.417008271297,-4.49164962142811,-494.662833082011,250.700153757077,243.962679324934
0.115743221519666,497.203490742282,492.034194684533,-5.16929605774988,-494.618842713407,251.186393400016,243.432449313391
0.117886614510771,497.958985089811,492.565269201836,-5.39371588797496,-495.262127145824,251.676350488893,243.585776656931
0.120030007501875,499.050690370065,493.493183063067,-5.55750730699759,-496.271936716566,252.304098838531,243.967837878035
0.12217340049298,502.008714382298,495.521196289963,-6.48751809233494,-498.76495533613,254.248116237316,244.516839098814
0.124316793484085,508.490109222707,499.702891264571,-8.78721795813561,-504.096500243639,258.638663590421,245.457836653218
0.12646018647519,518.083326799076,506.807218543711,-11.2761082553648,-512.445272671394,264.67971752722,247.765555144173
0.128603579466295,530.217845080914,516.044610855297,-14.1732342256171,-523.131227968106,272.195539653266,250.93568831484
0.1307469724574,544.477272108277,527.649276066102,-16.8279960421743,-536.063274087189,280.652634075225,255.410640011964
0.132890365448505,561.098019219514,541.521993120951,-19.5760260985638,-551.310006170233,290.337022659039,260.972983511193
0.13503375843961,578.361536278265,556.779877513455,-21.5816587648097,-567.57070689586,299.971597521537,267.599109374323
0.137177151430715,595.55386256666,572.238249047252,-23.3156135194082,-583.896055806956,309.434738043034,274.461317763922
0.13932054442182,611.613605866052,587.032476240104,-24.5811296259476,-599.323041053078,318.097367746,281.225673307078
0.141463937412925,624.415334599536,599.991200751941,-24.4241338475952,-612.203267675738,324.419734223566,287.783533452173
0.14360733040403,631.597347098,610.259513974586,-21.3378331234143,-620.928430536293,326.467590110707,294.460840425586
0.145750723395135,633.056907340062,615.862685111589,-17.1942222284733,-624.459796225825,325.125564784268,299.334231441558
0.147894116386239,630.069815138055,617.250562641034,-12.8192524970215,-623.660188889544,321.444533817538,302.215655072006
0.150037509377344,622.216424000549,614.481309468379,-7.7351145321702,-618.348866734464,314.97576926636,303.373097468104
0.152180902368449,611.89201966128,608.137687852616,-3.75433180866435,-610.014853756948,307.823175734972,302.191678021976
0.154324295359554,598.683536838835,598.915179420297,0.231642581461756,-598.799358129566,299.225947128687,299.573411000879
0.156467688350659,582.559658615354,587.051220904446,4.49156228909214,-584.8054397599,289.034048163131,295.771391596769
0.158611081341764,565.928934439718,573.799728877222,7.87079443750338,-569.86433165847,279.029070001107,290.835261657362
0.160754474332869,551.089541589338,560.88633519526,9.79679360592161,-555.987938392299,270.646373991708,285.341564400591
0.162897867323974,538.908321838534,549.030169125979,10.1218472874456,-543.969245482256,264.393237275544,279.576008206712
0.165041260315079,530.017934271583,539.566551333682,9.54861706209908,-534.792242802632,260.234658604742,274.55758419789
0.167184653306184,524.069652555533,531.849120039137,7.77946748360444,-527.959386297335,258.145092535964,269.814293761371
0.169328046297289,519.998492306908,525.946444536635,5.94795222972698,-522.972468421772,257.025270038591,265.947198383181
0.171471439288394,517.297337500846,521.368257275925,4.07091977507889,-519.332797388386,256.613208862884,262.719588525502
0.173614832279498,516.136385080484,517.756739530936,1.62035445045206,-516.94656230571,257.258015315016,259.688546990694
0.175758225270603,514.208446320683,515.12089573904,0.912449418356914,-514.664671029861,256.647998451163,258.016672578698
0.177901618261708,511.990883557335,512.656829097305,0.665945539969186,-512.32385632732,255.662469008683,256.661387318637
0.180045011252813,510.10225293785,509.777820517813,-0.324432420036658,-509.940036727832,255.213342678943,254.726694048888
0.182188404243918,508.453691400278,507.13628156636,-1.31740983391774,-507.794986483319,254.885550617098,252.909435866221
0.184331797235023,506.71018657899,504.938214559671,-1.77197201931904,-505.824200569331,254.241079299155,251.583121270176
0.186475190226128,505.16754420373,502.523500373334,-2.6440438303955,-503.845522288532,253.905794017063,249.939728271469
0.188618583217233,504.041656248843,501.031292436203,-3.01036381263987,-502.536474342523,253.526010030741,249.010464311781
0.190761976208338,504.030402554454,500.212369954563,-3.81803259989141,-502.121386254509,253.924217577173,248.197168677336
0.192905369199443,504.292345327383,499.61468446838,-4.67766085900382,-501.953514897882,254.485003093194,247.468511804688
0.195048762190548,503.943210209308,499.448623640906,-4.49458656840164,-501.695916925107,254.218898388855,247.477018536252
0.197192155181653,502.607771264676,498.787112753779,-3.82065851089641,-500.697442009228,253.214214887786,247.483227121442
0.199335548172757,501.092797022768,497.764000718288,-3.32879630448076,-499.428398870528,252.210796663625,247.217602206903
0.201478941163862,499.716946271266,495.936663907138,-3.78028236412808,-497.826805089202,251.748614317697,246.078190771505
0.203622334154967,498.442633935019,494.602993486702,-3.83964044831663,-496.52281371086,251.141137191668,245.381676519193
0.205765727146072,497.242428780402,493.629622414936,-3.61280636546519,-495.436025597669,250.427617572933,245.008408024736
0.207909120137177,497.17693513944,492.649057372793,-4.5278777666469,-494.912996256116,250.852406453043,244.060589803073
0.210052513128282,497.669447436165,492.743866703543,-4.9255807326216,-495.206657069854,251.297514084393,243.909142985461
0.212195906119387,498.56921690025,493.353375128392,-5.21584177185849,-495.961296014321,251.892529336054,244.068766678267
0.214339299110492,500.036376689975,494.608689701694,-5.42768698828115,-497.322533195834,252.732031839128,244.590501356706
0.216482692101597,501.107174148698,495.524873245166,-5.58230090353197,-498.316023696932,253.344737526115,244.971286170817
0.218626085092702,501.88868902229,496.463700325025,-5.42498869726433,-499.176194673658,253.656838859777,245.519355813881
0.220769478083807,502.729229009983,496.608585013645,-6.12064399633806,-499.668907011814,254.42493650316,245.243970508653
0.222912871074912,502.532223263059,496.714328203628,-5.81789505943067,-499.623275733343,254.175059161245,245.448216572099
0.225056264066017,502.388439842441,496.791504213975,-5.59693562846638,-499.589972028208,253.992687735454,245.597284292754
0.227199657057121,502.013344194195,496.577674433847,-5.43566976034867,-499.295509314021,253.724506977272,245.571002336749
0.229343050048226,502.009739177241,496.151455885232,-5.85828329200916,-499.080597531237,253.934011234625,245.146586296611
0.231486443039331,501.466795654268,496.110539137012,-5.35625651725559,-498.78866739564,253.411526085762,245.377141309878
0.233629836030436,501.610844120464,495.810520090622,-5.80032402984256,-498.710682105543,253.705584075153,245.00509803039
0.235773229021541,501.445820786836,496.402021688908,-5.04379909792721,-498.923921237872,253.244809942381,245.679111295491
0.237916622012646,502.135848167505,496.833725456086,-5.30212271141943,-499.484786811796,253.718985439462,245.765801372333
0.240060015003751,502.369304153054,497.148801768872,-5.22050238418194,-499.759052960963,253.794903268618,245.964149692345
0.242203407994856,503.620315401395,497.919070682289,-5.70124471910594,-500.769693041842,254.66078006025,246.108912981591
0.244346800985961,504.263201978003,498.751402875806,-5.51179910219724,-501.507302426905,254.8875005401,246.619801886804
0.246490193977066,505.542877388027,499.629031568775,-5.91384581925161,-502.585954478401,255.728361603639,246.857592874762
0.248633586968171,505.93652811311,500.269563418622,-5.66696469448783,-503.103045765866,255.801746403799,247.301299362067
0.250776979959276,506.764144073248,501.007207822203,-5.75693625104452,-503.885675947725,256.260540162146,247.625135785579
0.25292037295038,507.36817444071,501.545573008004,-5.82260143270565,-504.456873724357,256.595387936708,247.861485787649
0.255063765941485,508.079178464115,502.208651706477,-5.87052675763732,-505.143915085296,256.974852610876,248.16906247442
0.25720715893259,508.598100333931,502.422439363726,-6.17566097020438,-505.510269848829,257.386880652068,248.123389196761
0.259350551923695,508.166363601525,502.578470957348,-5.58789264417697,-505.372417279437,256.877128122851,248.495289156586
0.2614939449148,507.581107017401,502.152037222962,-5.42906979443887,-504.866572120181,256.50508840592,248.361483714261
0.263637337905905,506.343492499401,501.570650999,-4.77284150040146,-503.9570717492,255.558166999901,248.398904749299
0.26578073089701,505.440227231342,500.606017451194,-4.83420978014743,-503.023122341268,255.137218505744,247.885903835523
0.267924123888115,504.510828474545,499.901985648508,-4.60884282603655,-502.206407061526,254.559835650291,247.646571411236
0.27006751687922,504.372824988946,499.658308622545,-4.71451636640097,-502.015566805745,254.543670677673,247.471896128072
0.272210909870325,504.812416425984,500.29093109445,-4.52148533153382,-502.551673760217,254.666950878759,247.884722881458
0.27435430286143,505.943718141236,501.292959099545,-4.65075904169163,-503.61833862039,255.297238591464,248.321100028926
0.276497695852535,508.12017272997,502.834751650208,-5.28542107976193,-505.477462190089,256.702796904866,248.774665285223
0.278641088843639,510.789269439188,505.310800425251,-5.47846901393677,-508.050034932219,258.133869226562,249.916165705657
0.280784481834744,513.81791793981,507.658241666562,-6.15967627324858,-510.738079803186,259.988797106529,250.749282696657
0.282927874825849,517.108983081901,509.911819498272,-7.19716358362854,-513.510401290086,262.153073332765,251.357327957322
0.285071267816954,519.240790320309,511.826735491681,-7.41405482862808,-515.533762905995,263.327422574469,252.206340331527
0.287214660808059,520.256364167006,513.224325034259,-7.03203913274706,-516.740344600632,263.644201649876,253.096142950756
0.289358053799164,519.646793371045,513.433878444647,-6.2129149263975,-516.540335907846,262.929854148721,253.610481759125
0.291501446790269,518.661589488445,513.046507275757,-5.61508221268775,-515.854048382101,262.138335850566,253.715712531535
0.293644839781374,517.132075919074,512.493630622571,-4.63844529650351,-514.812853270822,260.885260607789,253.927592663034
0.295788232772479,516.826238577226,512.360273243513,-4.46596533371292,-514.59325591037,260.646101955469,253.9471539549
0.297931625763584,516.6030250931,511.992786976935,-4.61023811616519,-514.297906035018,260.606631604633,253.691274430385
0.300075018754689,516.710270330157,511.994735619923,-4.71553471023395,-514.35250297504,260.712902520195,253.639600454844
0.302218411745794,516.248230176485,511.72600161303,-4.52222856345452,-513.987115894758,260.38522936997,253.601886524788
0.304361804736899,516.451325464205,511.800023979313,-4.65130148489209,-514.125674721759,260.551313474549,253.574361247211
0.306505197728003,517.139865722089,512.39436116727,-4.74550455481892,-514.76711344468,260.942685138454,253.824428306226
0.308648590719108,517.912548764054,513.098290683826,-4.81425808022755,-515.50541972394,261.363403422141,254.142016301799
0.310791983710213,518.746642894295,513.612049268765,-5.13459362553067,-516.17934608153,261.940618259913,254.238727821617
0.312935376701318,518.815088890223,513.98701278058,-4.82807610964369,-516.401050835402,261.821582499934,254.579468335468
0.315078769692423,519.94566862266,514.800989994196,-5.14467862846425,-517.373329308428,262.545173625562,254.828155682866
0.317222162683528,521.851440064849,515.395066207232,-6.45637385761768,-518.623253136041,264.153906961234,254.469346174807
0.319365555674633,523.512511725395,516.639117676606,-6.87339404878969,-520.075814701001,265.192952887093,254.882861813908
0.321508948665738,524.724834558481,518.087393337384,-6.63744122109733,-521.406113947932,265.681137889789,255.724976058143
0.323652341656843,526.42010948303,519.684720755643,-6.73538872738641,-523.052415119336,266.577749105208,256.474666014128
0.325795734647948,527.927551567753,521.39083267321,-6.53671889454267,-524.659192120482,267.232135231148,257.427056889334
0.327939127639053,528.75759259738,522.636027858098,-6.12156473928144,-525.696810227739,267.439578668331,258.257231559408
0.330082520630158,529.633549098616,523.544825828796,-6.08872326981998,-526.589187463706,267.861136184218,258.728051279488
0.332225913621262,530.813172933458,524.208106382374,-6.60506655108384,-527.510639657916,268.709119742271,258.801519915645
0.334369306612367,531.133801637901,524.422041362317,-6.71176027558442,-527.777921500109,268.922780956743,258.855140543366
0.336512699603472,530.827498082392,524.848336690364,-5.97916139202846,-527.837917386378,268.40332973721,259.434587649168
0.338656092594577,531.684569182608,525.69977811119,-5.98479107141873,-528.692173646899,268.834680127014,259.857493519886
0.340799485585682,532.850409624829,526.861509766878,-5.98889985795086,-529.855959695854,269.41965474139,260.436304954464
0.342942878576787,533.971447241404,527.979548611126,-5.99189863027811,-530.975497926265,269.981672935841,260.993824990424
0.345086271567892,535.059785793992,528.795542316487,-6.26424347750481,-531.927664055239,270.662014635748,261.265649419491
0.347229664558997,536.394415349721,529.931402677239,-6.46301267248202,-533.16290901348,271.428714011102,261.734195002379
0.349373057550102,537.638642652295,531.030559517587,-6.60808313470739,-534.334601084941,272.123362893501,262.21123819144
0.351516450541207,539.357202855713,532.373084733438,-6.98411812227505,-535.865143794575,273.170660488994,262.694483305581
0.353659843532312,540.881639556573,533.623074634503,-7.25856492207026,-537.252357095538,274.070102239322,263.182254856216
0.355803236523417,542.804708848706,535.345840634634,-7.45886821407248,-539.07527474167,275.131788531389,263.943486210281
0.357946629514521,543.938092813839,536.8733469101,-7.06474590373875,-540.405719861969,275.501419358789,264.904300503181
0.360090022505626,544.765286060354,537.988187876576,-6.77709818377878,-541.376736968465,275.771192122067,265.605544846398
0.362233415496731,545.369007912906,539.072003842581,-6.2970040703251,-542.220505877743,275.833005991615,266.387499886128
0.364376808487836,546.079786768619,539.863020192844,-6.21676657577552,-542.971403480732,276.148276672197,266.823126808534
0.366520201478941,546.328388089323,540.440338562391,-5.88804952693204,-543.384363325857,276.108218808128,267.27614451773
0.368663594470046,546.239672007088,540.861690788178,-5.37798121891001,-543.550681397633,275.808826612999,267.741854784634
0.370806987461151,546.174923125561,541.169212092782,-5.005711032779,-543.672067609172,275.59031707917,268.081750530002
0.372950380452256,546.127666556591,541.123498394794,-5.00416816179757,-543.625582475692,275.565917359194,268.059665116498
0.375093773443361,546.903645278895,541.630446960027,-5.27319831886746,-544.267046119461,276.088421798881,268.17862432058
0.377237166434466,548.550613376574,542.540752645007,-6.00986073156741,-545.545683010791,277.280237054071,268.26544595672
0.379380559425571,550.022799023783,543.74544601823,-6.27735300555253,-546.884122521007,278.150076014668,268.734046506339
0.381523952416676,551.367420785242,544.894840205149,-6.47258058009288,-548.131130495195,278.920000682667,269.211129812528
0.383667345407781,552.078628413353,545.733718412582,-6.34491000077094,-548.906173412967,279.211769207062,269.694404205905
0.385810738398885,551.787230247184,545.535499825658,-6.25173042152596,-548.661365036421,279.019480334355,269.641884702066
0.38795413138999,551.034242681991,545.120675009429,-5.91356767256195,-548.07745884571,278.473905177276,269.603553668433
0.390097524381095,549.133898325638,544.007449058527,-5.12644926711096,-546.570673692083,277.130173796375,269.440499895708
0.3922409173722,546.936475166235,542.654655589735,-4.2818195764994,-544.795565377985,275.609147371367,269.186418006618
0.394384310363305,545.602855735326,541.397171468045,-4.20568426728096,-543.500013601686,274.904270001304,268.595743600382
0.39652770335441,544.359365666079,539.939092069417,-4.42027359666235,-542.149228867748,274.389819631371,267.759409236377
0.398671096345515,543.181655951568,538.874921877729,-4.30673407383847,-541.028288914649,273.744195012703,267.284093901945
0.40081448933662,541.241486984727,537.828087661943,-3.41339932278333,-539.534787323335,272.327443153755,267.20734416958
0.402957882327725,539.285154292615,536.253593576737,-3.0315607158783,-537.769373934676,271.158357504247,266.611016430429
0.40510127531883,536.506555970407,533.753677789846,-2.75287818056108,-535.130116880126,269.629717075484,265.500399804642
0.407244668309935,533.127832185881,531.118661146324,-2.00917103955658,-532.123246666103,267.568501612719,264.554745053384
0.40938806130104,529.851422984328,527.844729558077,-2.00669342625099,-528.848076271203,265.92905820529,262.919018065913
0.411531454292144,525.839218809979,524.644802290023,-1.19441651995567,-525.242010550001,263.516817664967,261.725192885034
0.413674847283249,522.370624092884,521.498886615356,-0.871737477527518,-521.93475535412,261.621180785206,260.313574568914
0.415818240274354,520.37940420882,518.662547178482,-1.7168570303387,-519.520975693651,261.04813061958,258.472845074072
0.417961633265459,518.115656110024,516.052150035712,-2.06350607431216,-517.083903072868,260.089581092168,256.9943219807
0.420105026256564,514.572380139129,513.066343049027,-1.50603709010181,-513.819361594078,258.039208614615,255.780152979463
0.422248419247669,511.175873546532,510.07670173163,-1.09917181490169,-510.626287639081,256.137522680717,254.488764958364
0.424391812238774,507.886485672972,507.354418163652,-0.532067509320086,-507.620451918312,254.209276591146,253.411175327166
0.426535205229879,506.026058790454,504.827263988297,-1.19879480215712,-505.426661389375,253.612426796305,251.81423459307
0.428678598220984,503.857769151366,502.442523788028,-1.41524536333822,-503.150146469697,252.636507257352,250.513639212345
0.430821991212089,501.734944003671,500.161723542818,-1.57322046085312,-500.948333773244,251.654082232262,249.294251540982
0.432965384203194,499.915457044472,498.226939440018,-1.68851760445335,-499.071198242245,250.801987324462,248.269210917782
0.435108777194299,498.587515789719,496.544693069349,-2.04282272037062,-497.566104429534,250.315169255045,247.250935174489
0.437252170185403,496.537701266453,494.506447369999,-2.03125389645328,-495.522074318226,249.284477581453,246.237596736773
0.439395563176508,494.501344446088,492.748690195778,-1.75265425030955,-493.625017320933,248.126999348199,245.498017972734
0.441538956167613,491.934497222845,490.385177193648,-1.54932002919685,-491.159837208246,246.741908626021,244.417928582226
0.443682349158718,490.061099721887,487.849713275268,-2.21138644661875,-488.955406498577,246.136243084253,242.819163414325
0.445825742149823,488.423655981246,486.269376896286,-2.15427908495923,-487.346516438766,245.288967533102,242.057548905664
0.447969135140928,488.579358898087,485.386134418805,-3.19322447928215,-486.982746658446,245.886291688685,241.096454969761
0.450112528132033,487.882529069122,484.741505383204,-3.14102368591841,-486.312017226163,245.51177637752,240.800240848643
0.452255921123138,487.644108358942,484.000870674052,-3.64323768488981,-485.822489516497,245.643673021916,240.178816494581
0.454399314114243,485.579005001554,482.64985439669,-2.92915060486359,-484.114429699122,244.254077803209,239.860351895913
0.456542707105348,483.801645932449,480.583198711511,-3.21844722093863,-482.19242232198,243.510046576694,238.682375745286
0.458686100096453,482.234295244718,479.074862897482,-3.15943234723596,-480.6545790711,242.696863795977,237.957715275123
0.460829493087558,481.900842717074,478.244169585074,-3.65667313200015,-480.072506151074,242.778757924537,237.293748226537
0.462972886078662,481.927630673009,477.908049443044,-4.01958122996439,-479.917840058027,242.973605951487,236.94423410654
0.465116279069767,483.297962755603,477.932890457191,-5.36507229841163,-480.615426606397,244.331517527007,236.28390907939
0.467259672060872,484.298091113757,478.4913329408,-5.80675817295679,-481.394712027278,245.052424643357,236.342287383922
0.469403065051977,485.298184795158,479.439221142232,-5.85896365292592,-482.368702968695,245.578574224042,236.790128744653
0.471546458043082,485.217628320461,479.590719034145,-5.62690928631599,-482.404173677303,245.422268803388,236.981904873914
0.473689851034187,485.158834677809,479.701288829471,-5.4575458483377,-482.43006175364,245.308190263073,237.121871490567
0.475833244025292,484.575612079195,479.511831295873,-5.06378078332153,-482.043721687534,244.819696431258,237.224025256276
0.477976637016397,483.609638264757,478.83324446812,-4.77639379663754,-481.221441366438,244.193016030697,237.028425335741
0.480120030007502,484.255409336153,478.878294510921,-5.37711482523224,-481.566851923537,244.816262080693,236.750589842844
0.482263422998607,484.456565129293,478.911174004815,-5.5453911244785,-481.683869567054,245.000978126886,236.682891440168
0.484406815989712,484.873533647234,479.475483322933,-5.39805032430098,-482.174508485083,245.135791985767,237.038716499316
0.486550208980817,485.177855529898,479.887340973345,-5.29051455655355,-482.532598251621,245.234185043226,237.298413208395
0.488693601971922,485.940275389295,480.458088932962,-5.48218645633312,-483.199182161129,245.711230922814,237.487951238315
0.490836994963026,486.496722787622,481.144801997748,-5.35192078987438,-483.820762392685,245.924321788748,237.896440603937
0.492980387954131,486.092373829096,481.375839050436,-4.71653477865976,-483.734106439766,245.404454303878,238.329652135888
0.495123780945236,486.067418465351,481.274303796297,-4.79311466905438,-483.670861130824,245.430266567203,238.240594563621
0.497267173936341,485.508892524399,480.930042709916,-4.57884981448279,-483.219467617157,245.043871169441,238.175596447717
0.499410566927446,483.750474776527,479.59816104704,-4.15231372948784,-481.674317911784,243.951394253008,237.722923658776
0.501553959918551,482.196948294437,478.355939276996,-3.84100901744171,-480.276443785716,243.01897865594,237.257465129777
0.503697352909656,480.792960429919,477.17915522278,-3.61380520713976,-478.986057826349,242.20338281853,236.78267500782
0.505840745900761,481.389205879623,477.130755326456,-4.25845055316671,-479.25998060304,242.823828216395,236.436152386645
0.507984138891866,482.634840552904,477.905899598394,-4.72894095451039,-480.270370075649,243.681890753707,236.588479321942
0.510127531882971,484.624584128962,479.282102465786,-5.34248166317673,-481.953343297374,244.98353289607,236.969810401304
0.512270924874076,487.427567177275,480.826828003499,-6.60073917377559,-484.127197590387,247.014153175525,237.113044414862
0.514414317865181,490.013619367058,482.764704977178,-7.24891438988038,-486.389162172118,248.631266878469,237.757895293649
0.516557710856285,491.360721069804,483.908896236702,-7.45182483310163,-487.634808653253,249.406272951453,238.2285357018
0.51870110384739,491.533426243915,484.473820908025,-7.05960533588973,-488.00362357597,249.296515789902,238.707107786068
0.520844496838495,491.119161618674,485.156283882022,-5.96287773665188,-488.137722750348,248.541019677663,239.596703072685
0.5229878898296,491.086969367173,485.654375244222,-5.43259412295083,-488.370672305697,248.259781745062,240.110890560636
0.525131282820705,491.063474052388,485.747747918972,-5.31572613341649,-488.40561098568,248.189600092902,240.216010892778
0.52727467581181,491.046326142843,485.275582961876,-5.77074318096709,-488.160954552359,248.408534661905,239.752419890454
0.529418068802915,491.033810847582,485.201132512839,-5.83267833474275,-488.117471680211,248.433244591162,239.684227089048
0.53156146179402,491.024676637079,485.416951526958,-5.60772511012107,-488.220814082018,248.3162008736,239.904613208418
0.533704854785125,491.018010090284,485.574465693773,-5.44354439651147,-488.296237892028,248.230777243398,240.065460648631
0.53584824777623,491.013144552517,485.419270218093,-5.5938743344247,-488.216207385305,248.303509443471,239.912697941834
0.537991640767335,490.739437258131,485.576157976094,-5.16327928203708,-488.157797617112,247.951358270084,240.206439347028
0.54013503375844,490.809829901429,485.690661531704,-5.11916836972483,-488.250245716567,247.964499135577,240.28574658099
0.542278426749545,491.401517958614,486.044387452357,-5.35713050625674,-488.722952705485,248.379324232435,240.34362847305
0.544421819740649,492.373670235403,486.572708330117,-5.80096190528587,-489.47318928276,249.087316070344,240.385873212415
0.546565212731754,493.083189535732,487.22845625276,-5.85473328297201,-490.155822894246,249.468961409352,240.686861484894
0.548708605722859,493.601027789635,487.707049800679,-5.89397798895533,-490.654038795157,249.747502889295,240.906535905862
0.550851998713964,494.519281246244,488.59666075241,-5.92262049383419,-491.557970999327,250.220950870039,241.337020129288
0.552995391705069,496.540243886836,489.786250203124,-6.75399368371137,-493.16324704498,251.647118785274,241.516128259707
0.555138784696174,497.474918492368,490.924620886023,-6.55029760634477,-494.199769689196,252.012608049356,242.187161639839
0.557282177687279,498.157084947137,491.755453657524,-6.40163128961262,-494.956269302331,252.279358118375,242.676911183956
0.559425570678384,498.925116108491,492.63198800665,-6.29312810184172,-495.77855205757,252.609122105167,243.169429952404
0.561568963669489,498.945346456952,492.731408732696,-6.21393772425506,-495.838377594824,252.579642090603,243.258735504221
0.563712356660594,499.50042387485,493.344282755756,-6.15614111909389,-496.422353315303,252.828282496972,243.594070818331
0.565855749651699,499.365231256491,493.52142884252,-5.84380241397042,-496.443330049505,252.60451683523,243.838813214275
0.567999142642803,499.806874187523,493.920874025408,-5.88600016211564,-496.863874106465,252.846437174819,244.017436931646
0.570142535633908,499.588892113565,493.942250398964,-5.64664171460078,-496.765571256264,252.617766914083,244.147804342182
0.572285928625013,498.88948682722,493.687695600545,-5.2017912266744,-496.288591213883,252.045639026947,244.242952186936
0.574429321616118,498.108874011725,493.772066574053,-4.33680743767218,-495.940470292889,251.222840724699,244.71762956819
0.576572714607223,498.079461021146,493.563487993094,-4.51597302805209,-495.82147450712,251.297717024599,244.523757482521
0.578716107598328,498.057994132682,493.681414423316,-4.37657970936556,-495.869704277999,251.217286921024,244.652417356975
0.580859500589433,497.231858021871,492.957013660255,-4.27484436161564,-495.094435841063,250.753351191743,244.34108464932
0.583002893580538,496.358751501375,492.42831426322,-3.93043723815566,-494.393532882297,250.144594369765,244.248938512532
0.585146286571643,495.451363919146,491.772290080634,-3.67907383851121,-493.61182699989,249.565218878828,244.046608121062
0.587289679562748,494.78911272883,490.753182482369,-4.03593024646113,-492.7711476056,249.412521487646,243.358626117954
0.589433072553853,493.765460387655,490.009393132341,-3.75606725531395,-491.887426759998,248.760763821484,243.126662938514
0.591576465544958,493.288510297117,489.466543095547,-3.82196720156975,-491.377526696332,248.555238749343,242.822287946989
0.593719858536063,494.021036083777,489.610659792051,-4.41037629172587,-491.815847937914,249.215706187751,242.600141750162
0.595863251527167,495.906446538172,490.256154891503,-5.65029164666947,-493.081300714838,250.778369092421,242.302931622417
0.598006644518272,497.282501646385,491.267577903849,-6.01492374253678,-494.275039775117,251.648712694461,242.626327080656
0.600150037509377,498.556963131109,492.275914918451,-6.28104821265777,-495.41643902478,252.419005671883,242.997433352897
0.602293430500482,499.216964717071,493.011843424898,-6.20512129217286,-496.114404070985,252.711043004622,243.403361066363
0.604436823491587,499.158350350997,493.278800061964,-5.87955028903355,-496.218575206481,252.518950320015,243.699624886465
0.606580216482692,498.57525859628,493.203480493354,-5.37177810292599,-495.889369544817,251.973518349603,243.915851195214
0.608723609473797,498.149692701191,492.608196550337,-5.5414961508543,-495.378944625764,251.845594426023,243.533350199741
0.610867002464902,497.568939864349,492.173732262353,-5.39520760199639,-494.871336063351,251.482073733173,243.389262330178
0.613010395456007,497.415237225814,491.856641200604,-5.55859602520985,-494.635939213209,251.486916625512,243.149022587697
0.615153788447112,497.032902097988,491.355058047044,-5.67784405094426,-494.193980072516,251.355373074466,242.83860699805
0.617297181438217,495.943388544346,490.988980698188,-4.95440784615818,-493.466184621267,250.448898195252,243.017286426015
0.619440574429322,495.418370057011,490.991957631023,-4.42641242598785,-493.205163844017,249.922391241499,243.282772602518
0.621583967420427,495.305344787248,490.723974115089,-4.58137067215961,-493.014659451169,249.943357729704,243.071301721465
0.623727360411531,494.412385360596,489.98807558692,-4.4243097736757,-492.200230473758,249.418347567136,242.781882906622
0.625870753402636,494.300976893746,489.450984617443,-4.84999227630266,-491.875980755594,249.575484585024,242.30049617057
0.628014146393741,494.759978540014,489.869460745326,-4.89051779468821,-492.31471964267,249.825248167351,242.489471475319
0.630157539384846,496.445759099641,490.985351583356,-5.4604075162859,-493.715555341499,250.953083307964,242.762472033535
0.632300932375951,498.216427992976,491.799777579721,-6.41665041325541,-495.008102786349,252.316539203116,242.691563583233
0.634444325367056,499.508739685609,492.66433754593,-6.84440213967889,-496.08653861577,253.176570912644,242.909967703126
0.636587718358161,499.641456711188,493.295331266733,-6.34612544445531,-496.46839398896,252.993791077822,243.474602911139
0.638731111349266,500.278631831629,493.755858114208,-6.52277371742053,-497.017244972918,253.400702774525,243.616542198394
0.640874504340371,500.473513923361,494.362126984976,-6.1113869383845,-497.417820454168,253.292450430873,244.125370023296
0.643017897331476,501.156059831172,494.53445234237,-6.62160748880189,-497.845256086771,253.888833659987,243.956422426784
0.645161290322581,501.113899298357,494.660222934001,-6.45367636435611,-497.887061116179,253.783787831357,244.103273284823
0.647304683313686,501.623441119121,495.022172030904,-6.60126908821758,-498.322806575013,254.11235510367,244.210451471343
0.649448076304791,502.535639475541,495.82665075464,-6.70898872090083,-499.181145115091,254.622314098221,244.55883101687
0.651591469295895,502.661089355772,495.873482130097,-6.78760722567421,-499.267285742935,254.724348290723,244.542937452212
0.653734862287,501.942179535964,495.637505506693,-6.30467402927172,-498.789842521329,254.123426782618,244.666415738711
0.655878255278105,500.87717524601,494.924967010214,-5.95220823579638,-497.901071128112,253.414691740903,244.486379387209
0.65802164826921,499.289419845042,494.134769002885,-5.15465084215737,-496.712094423964,252.2220353436,244.490059080364
0.660165041260315,497.860450216707,493.017735472101,-4.8427147446057,-495.439092844404,251.351582480656,244.087510363748
0.66230843425142,496.817525610042,492.202475488528,-4.61505012151463,-494.510000549285,250.716287865779,243.793712683507
0.664451827242525,495.516041140639,491.337306841935,-4.17873429870338,-493.426673991287,249.847387719671,243.579286271616
0.66659522023363,495.106473209042,490.976025091408,-4.1304481176341,-493.041249150225,249.618460663338,243.422788486887
0.668738613224735,496.158333657708,491.252658273765,-4.90567538394322,-493.705495965737,250.532004520826,243.173491444911
0.67088200621584,497.196183684016,491.994869707241,-5.201313976775,-494.595526695629,251.198748830396,243.396777865233
0.673025399206945,498.764120714341,493.076880535185,-5.68724017915594,-495.920500624763,252.225680446749,243.694820178015
0.675168792198049,500.178626027972,494.13673562852,-6.04189039945248,-497.157680828246,253.110258213712,244.047422614534
0.677312185189154,501.2109939444,495.180420496577,-6.03057344782258,-498.195707220489,253.620783696111,244.574923524377
0.679455578180259,502.23461746714,496.212303626165,-6.02231384097496,-499.223460546652,254.128465654057,245.094994892595
0.681598971171364,503.251858948465,496.965417118368,-6.28644183009646,-500.108638033417,254.769150389281,245.339487644136
0.683742364162469,503.994286324637,497.78522853428,-6.20905779035604,-500.889757429458,255.101672057496,245.788085371962
0.685885757153574,503.455517485785,497.573094168006,-5.88242331777951,-500.514305826896,254.668970401782,245.845335425113
0.688029150144679,501.711519336154,496.337644371045,-5.37387496510934,-499.0245818536,253.542697150632,245.481884702968
0.690172543135784,498.547579637037,494.625490375574,-3.92208926146355,-496.586535006306,251.23483444925,245.351700557055
0.692315936126889,495.698085477881,492.565416782045,-3.13266869583578,-494.131751129963,249.415377086858,244.716374043105
0.694459329117994,494.158712290256,491.061884866721,-3.09682742353482,-492.610298578488,248.627769856895,243.982528721593
0.696602722109099,493.305366543528,490.234697649941,-3.07066889358737,-491.770032096734,248.188017718558,243.582014378177
0.698746115100204,492.952713663024,489.630980198154,-3.32173346487031,-491.291846930589,248.137223563947,243.154623366642
0.700889508091309,492.965488360695,489.460516978055,-3.50497138264024,-491.213002669375,248.235229871668,242.977772797707
0.703032901082413,494.055436741922,489.876417879504,-4.17901886241748,-491.965927310713,249.11722780217,242.848699508543
0.705176294073518,495.391241221084,490.720272992647,-4.67096822843649,-493.055757106866,250.03110472476,243.024652382105
0.707319687064623,496.906482246098,491.606311616927,-5.30017062917079,-494.256396931512,251.103326437634,243.153070493878
0.709463080055728,497.201902860106,492.252981402899,-4.94892145720723,-494.727442131503,251.075412158657,243.652029972846
0.711606473046833,496.877201336382,492.45479311729,-4.4224082190928,-494.665997226836,250.649804777738,244.016192449098
0.713749866037938,496.640219946296,492.331927931537,-4.30829201475922,-494.486073938917,250.474255980528,244.011817958389
0.715893259029043,496.737416762712,492.242255538939,-4.49516122377327,-494.489836150825,250.616288993243,243.873547157583
0.718036652020148,497.07851146727,492.446964912106,-4.63154655516462,-494.762738189688,250.855029011218,243.907709178471
0.720180045011253,498.408082166042,493.136683200227,-5.27139896581565,-495.772382683135,251.839740565929,243.932642117206
0.722323438002358,499.64861729329,493.910226020242,-5.73839127304831,-496.779421656766,252.693504283169,244.085917373597
0.724466830993463,501.09432657361,495.015103866025,-6.07922270758581,-498.054715219817,253.586774640598,244.467940579219
0.726610223984568,502.149468511292,495.82149209841,-6.32797641288187,-498.985480304851,254.238722462087,244.746757842764
0.728753616975672,502.64940108823,496.410029540636,-6.23937154759449,-499.529715314433,254.444386317912,245.085328996521
0.730897009966777,502.203805138377,496.569413725054,-5.63439141332327,-499.386609431715,253.91909827585,245.467511155865
0.733040402957882,501.878589702361,496.145426858234,-5.73316284412761,-499.012008280298,253.805876273245,245.206132007053
0.735183795948987,501.100920812839,496.106138889109,-4.99478192372976,-498.603529850974,253.047851368284,245.55567848269
0.737327188940092,500.803500216472,496.077464808895,-4.72603540757655,-498.440482512683,252.764767812024,245.675714700659
0.739470581931197,501.93721070111,496.867005845186,-5.07020485592426,-499.402108273148,253.503707778517,245.898400494631
0.741613974922302,504.385579527089,498.253716101609,-6.13186342547937,-501.319647814349,255.258721476284,246.060926338065
0.743757367913407,505.902350093905,499.535954180066,-6.36639591383909,-502.719152136986,256.134373003872,246.584779133113
0.745900760904512,506.469043246369,500.471787676529,-5.99725556983947,-503.470415461449,256.233149408104,247.237266053345
0.748044153895617,507.152796935341,501.154799940645,-5.99799699469537,-504.153798437993,256.575396965018,247.578401472975
0.750187546886722,507.651830317847,501.653292198826,-5.99853811902085,-504.652561258336,256.825184218434,247.827377039903
0.752330939877827,507.475734308394,501.476801253146,-5.99893305524836,-504.47626778077,256.737333681821,247.738934098949
0.754474332868932,507.617367941653,501.888302856524,-5.72906508512909,-504.752835399088,256.673216513391,248.079618885697
0.756617725860036,507.720738369076,501.918478533682,-5.80225983539441,-504.819608451379,256.761499102235,248.058109349144
0.758761118851141,507.796182633408,502.21065827608,-5.58552435732747,-505.003420454744,256.690853495368,248.312566959376
0.760904511842246,507.85124516108,502.423903846087,-5.42734131499327,-505.137574503583,256.639293238037,248.498281265547
0.763047904833351,507.89143220486,502.579539800702,-5.31189240415841,-505.235486002781,256.601662304509,248.633823698272
0.765191297824456,508.731231104741,503.23344215913,-5.49778894561109,-505.982336631936,257.114510025176,248.86782660676
0.767334690815561,510.154621750712,503.980844945343,-6.17377680536816,-507.067733348027,258.16419927804,248.903534069988
0.769478083806666,511.463630783625,505.336800861706,-6.12682992191873,-508.400215822665,258.795230352772,249.604985469894
0.771621476797771,512.689159106772,506.326436864239,-6.36272224253287,-509.507797985505,259.525940674652,249.981857310853
0.773764869788876,513.313447128724,507.048716553196,-6.26473057552863,-510.18108184096,259.789088852126,250.391992988834
0.775908262779981,514.039236075421,507.846024109344,-6.19321196607717,-510.942630092383,260.116224020749,250.826406071633
0.778051655771086,514.56894862966,508.157777864555,-6.41117076510511,-511.363363247107,260.490059697382,250.873303549725
0.78019504876219,514.14508741125,508.115153194349,-6.0299342169003,-511.1301203028,260.087510814075,251.042609488725
0.782338441753295,513.295422510221,507.813887631707,-5.48153487851391,-510.554655070964,259.388478694368,251.166176376597
0.7844818347444,512.675299860215,507.323854620365,-5.35144523985059,-509.99957724029,259.013372550033,250.986204690257
0.786625227735505,511.682394772487,506.696050859186,-4.98634391330057,-509.189222815837,258.334369342894,250.854853472943
0.78876862072661,511.768197797623,506.77816460767,-4.99003318995227,-509.273181202646,258.379115493787,250.894065708859
0.790912013717715,512.100976814392,507.108251028793,-4.99272578559919,-509.604613921592,258.546851299996,251.057762621597
0.79305540670882,511.533384876986,506.808850129051,-4.7245347479344,-509.171117503018,258.12895981246,251.042157690558
0.795198799699925,511.119131427278,506.320178030343,-4.79895339693473,-508.719654728811,257.959042412106,250.760612316704
0.79734219269103,510.276478696555,505.96352373467,-4.31295496188523,-508.120001215612,257.29471682922,250.825284386392
0.799485585682135,509.391317623615,505.433065600591,-3.95825202302427,-507.412191612103,256.67478482332,250.737406788783
0.80162897867324,509.015444524909,504.7757578147,-4.23968671020896,-506.895601169805,256.627565617559,250.268035552246
0.803772371664345,509.281428302437,504.566182022151,-4.71524628028618,-506.923805162294,256.998337291362,249.925467870932
0.80591576465545,510.286023545824,504.95353685556,-5.33248669026375,-507.619780200692,257.809255118044,249.810525082648
0.808059157646554,510.208752508178,504.966089162654,-5.24266334552436,-507.587420835416,257.725707926851,249.861712908565
0.810202550637659,508.801575661992,504.164781750398,-4.63679391159411,-506.483178706195,256.719184786793,249.763993919402
0.812345943628764,506.693931534518,502.769483877566,-3.9244476569516,-504.731707706042,255.309189595735,249.422518110307
0.814489336619869,504.07505571301,500.670509545005,-3.40454616800434,-502.372782629007,253.739800940507,248.6329816885
0.816632729610974,501.083060615316,498.32811753133,-2.75494308398578,-499.705589073323,251.919001849651,247.786587223672
0.818776122602079,498.629215367281,496.348381058915,-2.28083430836585,-497.488798213098,250.455024837824,247.033773375275
0.820919515593184,497.108447867847,494.903482692393,-2.20496517545411,-496.00596528012,249.656706521651,246.349258758469
0.823062908584289,495.998525155197,493.578776383238,-2.41974877195946,-494.788650769218,249.209136963578,245.579513805639
0.825206301575394,495.458611169939,492.341791500535,-3.11681966940404,-493.900201335237,249.287715419672,244.612485915565
0.827349694566499,494.25408966606,491.168829556014,-3.08526011004574,-492.711459611037,248.669674888053,244.041784722984
0.829493087557604,493.91528955253,490.312750567094,-3.60253898543527,-492.114020059812,248.758914268982,243.35510579083
0.831636480548709,493.938174606124,489.687946634884,-4.25022797124001,-491.813060620504,249.094201288682,242.718859331822
0.833779873539814,493.414564696588,489.231937366162,-4.18262733042548,-491.323251031375,248.798596013507,242.524655017868
0.835923266530918,493.572723680454,488.628965622185,-4.94375805826843,-491.100844651319,249.258240869361,241.842603781958
0.838066659522023,493.958311244236,488.459046652298,-5.49926459193819,-491.208678948267,249.728787918087,241.47989103018
0.840210052513128,493.969573720571,488.605188559513,-5.36438516105852,-491.287381140042,249.666979440815,241.620401699227
0.842353445504233,493.977793568963,488.711849322678,-5.26594424628473,-491.344821445821,249.621868907624,241.722952538197
0.844496838495338,493.713636562379,488.51953880624,-5.1940977561394,-491.11658768431,249.453867159259,241.66272052505
0.846640231486443,494.061155635777,488.379182170426,-5.68197346535129,-491.220168903102,249.871564550564,241.348604352537
0.848783624477548,494.044634060881,488.546899963526,-5.49773409735502,-491.295767012204,249.771184079118,241.524582933085
0.850927017468653,494.843044527688,488.93946396485,-5.90358056283753,-491.891254246269,250.373312545263,241.517941701006
0.853070410459758,495.695915659135,489.496130574531,-6.19978508460377,-492.596023116833,250.947850371869,241.648172744964
0.855213803450863,497.128846992111,490.712878877281,-6.41596811483038,-493.920862934696,251.772407553471,242.148455381225
0.857357196441968,497.904506812426,491.600915067758,-6.30359174466838,-494.752710940092,252.104049278547,242.648661661545
0.859500589433073,498.470617313984,491.978886553139,-6.49173076084492,-495.224751933561,252.481174037414,242.743577896147
0.861643982424178,498.073320911325,492.254746693834,-5.818574217491,-495.16403380258,251.945947564408,243.218086238172
0.863787375415282,498.053512811671,492.456081503913,-5.5974313077578,-495.254797157792,251.825472059714,243.429325098077
0.865930768406387,497.768899781311,492.062712040639,-5.70618774067208,-494.915805910975,251.737543760992,243.178262149984
0.868074161397492,496.750708093468,491.505457569558,-5.24525052391027,-494.128082831513,250.997979308689,243.130103522824
0.870217554388597,496.007587214972,490.828592643561,-5.17899457141118,-493.418089929267,250.593290893192,242.824799036075
0.872360947379702,494.92491263423,490.064430770049,-4.86048186418151,-492.494671702139,249.892697249206,242.601974452934
0.874504340370807,493.324260681296,488.966399549798,-4.35786113149834,-491.145330115547,248.841060906397,242.30426920915
0.876647733361912,491.615722372748,487.624695860783,-3.991026511965,-489.620209116766,247.803374442357,241.816834674409
0.878791126353017,490.638912513347,486.375305545976,-4.26360696737146,-488.507109029661,247.451259740359,241.055849289302
0.880934519344122,489.385681481537,485.463445785766,-3.92223569577175,-487.424563633651,246.653958588655,240.770605044997
0.883077912335227,489.281487233496,485.068086816004,-4.21340041749255,-487.17478702475,246.747443825494,240.427343199256
0.885221305326332,488.935285496933,484.779536527842,-4.15574896909095,-486.857411012388,246.545517233012,240.311893779376
0.887364698317436,488.952768521935,484.568939892465,-4.38382862947009,-486.7608542072,246.668298575702,240.092555631497
0.889508091308541,489.775997034745,484.955549670077,-4.82044736466787,-487.365773352411,247.298222199706,240.067551152705
0.891651484299646,492.267918734131,486.858651685927,-5.40926704820407,-489.563285210029,248.838592891168,240.724692318861
0.893794877290751,497.32850684939,490.408868565343,-6.91963828404727,-493.868687707366,252.124072566719,241.744615140648
0.895938270281856,506.425069887021,496.782159267496,-9.64291061952497,-501.603614577258,258.033990253273,243.569624323985
0.898081663272961,517.926951727043,505.486009074473,-12.4409426525701,-511.706480400758,265.183947189807,246.522533210951
0.900225056264066,532.535121612818,516.971427814459,-15.5636937983588,-524.753274713638,274.049407705588,250.70386700805
0.902368449255171,548.329771685435,530.21680114958,-18.1129705358551,-539.273286417508,283.221371110645,256.051915306862
0.904511842246276,565.5306793759,545.286978837092,-20.2437005388085,-555.408829106496,292.887189957355,262.521639149142
0.906655235237381,582.947466817646,560.878510010131,-22.0689568075145,-571.912988413888,302.50821181258,269.404776601308
0.908798628228486,599.71134411923,576.58039157413,-23.1309525451002,-588.14586784668,311.421148332165,276.724719514515
0.910942021219591,614.377761739582,591.012030626129,-23.3657311134526,-602.694896182855,318.871746426517,283.823149756338
0.913085414210696,624.271486898277,602.355341376357,-21.9161455219204,-613.313414137317,323.093816210099,290.219597927218
0.9152288072018,628.25048620434,609.553561416733,-18.6969247876071,-618.902023810537,323.473705495974,295.428318314563
0.917372200192905,626.021566105277,611.835419268195,-14.1861468370814,-618.928492686736,320.103856471179,298.824636215557
0.91951559318401,619.531990803051,609.988788292145,-9.54320251090576,-614.760389547598,314.537596656978,300.22279289062
0.921658986175115,609.122334131826,604.588692967235,-4.53364116459068,-606.85551354953,306.827987648208,300.027525901322
0.92380237916622,595.851630424478,595.784655125359,-0.0669752991198038,-595.818142774919,297.959302861799,297.858839913119
0.925945772157325,580.762965522146,584.496270982329,3.73330546018235,-582.629618252238,288.514830030982,294.114788221256
0.92808916514843,564.887785358339,571.394702123842,6.50691676550287,-568.141243741091,279.190434296418,288.950809444673
0.930232558139535,549.789352976035,558.59072893528,8.80137595924521,-554.190040955658,270.493988508395,283.696052447263
0.93237595113064,536.338449984489,546.274110309658,9.93566032516878,-541.306280147074,263.20139482966,278.104885317413
0.934519344121745,525.170610932034,535.123653020029,9.95304208799428,-530.147131976031,257.60878442202,272.538347554011
0.93666273711285,516.479520549039,525.364623761172,8.88510321213255,-520.922072155106,253.797208668453,267.124863486652
0.938806130103955,510.40653843282,517.701744454689,7.29520602186915,-514.054141443755,251.555666205476,262.498475238279
0.940949523095059,507.05483500737,512.109039593676,5.05420458630613,-509.581937300523,251.000315210532,258.581622089991
0.943092916086164,505.148927506399,508.02723869203,2.87831118563042,-506.588083099214,251.135308160384,255.45277493883
0.945236309077269,504.298225179812,505.58847408333,1.29024890351781,-504.943349631571,251.503988138147,253.439361493424
0.947379702068374,504.757970218692,504.078713094835,-0.679257123857951,-504.418341656764,252.718613671275,251.699727985488
0.949523095059479,504.553199855699,502.976823415823,-1.57637643987624,-503.765011635761,253.064788147788,250.700223487973
0.951666488050584,504.133593266404,501.902459866522,-2.23113339988214,-503.018026566463,253.182363333143,249.83566323332
0.953809881041689,502.476564944391,500.307873668258,-2.16869127613296,-501.392219306324,252.322628110262,249.069591196062
0.955953274032794,500.456724481202,498.333606201205,-2.12311827999707,-499.395165341203,251.289921380599,248.105243960604
0.958096667023899,497.901931618647,496.082230718657,-1.8197008999893,-496.992081168652,249.860816259318,247.131264909334
0.960240060015004,494.686550858598,493.358453460489,-1.32809739810881,-494.022502159543,248.007324128353,246.01517803119
0.962383453006109,492.069668972537,490.830209124626,-1.23945984791078,-491.449939048582,246.654564410224,244.795374638358
0.964526845997214,489.619441559987,488.444673277483,-1.17476828250381,-489.032057418735,245.397104921245,243.634952497489
0.966670238988318,487.831158303435,486.433448546216,-1.39770975721893,-487.132303424825,244.614434030327,242.517869394499
0.968813631979423,486.796147089098,484.965568669571,-1.83057841952757,-485.880857879335,244.313362754313,241.567495125022
0.970957024970528,486.040750583672,483.624089448011,-2.41666113566055,-484.832420015841,244.228705859666,240.603714156175
0.973100417961633,485.489429136612,482.374862959381,-3.11456617723132,-483.932146047996,244.301997656922,239.630148391075
0.975243810952738,485.627363026957,482.003435190432,-3.62392783652518,-483.815399108694,244.625645431741,239.189753676953
0.977387203943843,486.538501855613,482.272663364269,-4.26583849134323,-484.405582609941,245.402170173478,239.003412436463
0.979530596934948,488.554271929188,483.279626510149,-5.27464541903885,-485.916949219668,246.914458674113,239.002490545555
0.981673989926053,490.835937831296,484.284708518915,-6.55122931238162,-487.560323175105,248.693583571839,238.866739603266
0.983817382917158,492.501197516535,485.828730015187,-6.67246750134763,-489.164963765861,249.586832508941,239.57813125692
0.985960775908263,494.25688937717,486.685468301106,-7.57142107606336,-490.471178839138,250.914155226616,239.557023612521
0.988104168899368,494.727801539907,487.310753417136,-7.4170481227705,-491.019277478521,251.072424831339,239.946852647183
0.990247561890473,493.720712797276,486.956645239265,-6.76406755801139,-490.338679018271,250.242390177644,240.096288840627
0.992390954881577,491.905070486887,486.428045373448,-5.47702511343846,-489.166557930168,248.691047800163,240.475510130005
0.994534347872682,490.309779013314,485.231781409362,-5.07799760395261,-487.770780211338,247.693888308634,240.076891902705
0.996677740863787,488.875309229202,484.08853937434,-4.78676985486203,-486.481924301771,246.831039542032,239.650884759739
0.998821133854892,487.828370368009,483.254151276752,-4.5742190912577,-485.541260822381,246.201294729634,239.339966092747
1.000964526846,487.874737179233,482.645178306839,-5.22955887239408,-485.259957743036,246.552148025814,238.707809717222
1.0031079198371,488.448890132123,482.741035591353,-5.70785454076986,-485.594962861738,247.078372336446,238.516590525292
1.00525131282821,489.67840073384,483.891621282489,-5.78677945135092,-486.785011008165,247.732590092596,239.052420915569
1.00739470581931,491.656376256428,485.541837737489,-6.11453851893879,-488.599106996959,248.885457387683,239.713649609275
1.00953809881042,493.370145616531,487.286550389982,-6.08359522654894,-490.328348003256,249.72687042154,240.601477581716
1.01168149180152,494.350773326414,488.830074293344,-5.52069903307063,-491.590423809879,249.935736179742,241.654687630137
1.01382488479263,495.336634580811,489.686449414169,-5.6501851666427,-492.51154199749,250.493409873727,242.018132123763
1.01596827778373,495.515846869546,489.771157052667,-5.74468981687903,-492.643501961106,250.630268343212,242.013233617894
1.01811167077484,495.376487633364,489.832980396432,-5.54350723693159,-492.604734014898,250.459997435148,242.14473657975
1.02025506376594,495.274777160517,489.87810177984,-5.39667538067732,-492.576439470179,250.335726270597,242.240713199581
1.02239845675705,496.011013039338,490.181189553104,-5.82982348623403,-493.096101296221,250.920418262786,242.175683033435
1.02454184974815,496.818506433964,490.942708705422,-5.87579772854258,-493.880607569693,251.347152081253,242.53345548844
1.02668524273926,499.298943955088,492.84927978764,-6.44966416744865,-496.074111871364,252.874304061269,243.199807810096
1.02882863573036,501.649588295465,494.781091272365,-6.86849702309956,-498.215339783915,254.259042659282,243.956297124633
1.03097202872147,502.554722829772,495.650699460583,-6.90402336918879,-499.102711145178,254.729373099481,244.373338045697
1.03311542171257,502.404861011442,496.015221382989,-6.38963962845366,-499.210041197215,254.397250319948,244.812790877267
1.03525881470368,502.565641506128,496.281265443693,-6.28437606243551,-499.42345347491,254.425008784282,244.998444690629
1.03740220769478,502.412829939555,496.475436048766,-5.93739389078928,-499.44413299416,254.175111915172,245.269021078988
1.03954560068589,502.841613790681,496.887306470587,-5.95430732009362,-499.864460130634,254.397960555387,245.466499575247
1.04168899367699,503.154559020875,497.187907539468,-5.96665148140738,-500.171233280171,254.560605251141,245.61062802903
1.0438323866681,503.9232725769,497.677455574166,-6.24581700273353,-500.800364075533,255.084544789817,245.715819285716
1.0459757796592,505.564938238101,498.304905378153,-7.26003285994801,-501.934921808127,256.412485549024,245.522436259103
1.04811917265031,506.763097723112,499.57331435557,-7.1897833675423,-503.168206039341,256.976440545327,246.191765494014
1.05026256564141,507.907723192307,500.769210980416,-7.13851221189083,-504.338467086361,257.523117702099,246.815349384263
1.05240595863252,508.47296476886,501.642028703303,-6.83093606555678,-505.057496736082,257.651950417208,247.405546318873
1.05454935162362,507.534721762941,501.738736872778,-5.79598489016354,-504.636729317859,256.665353326552,247.971375991307
1.05669274461473,505.499169873958,500.728693882043,-4.77047599191496,-503.113931878001,255.134822932937,247.979108945064
1.05883613760583,504.283691184243,499.721364067641,-4.56232711660118,-502.002527625942,254.423009150422,247.57951847552
1.06097953059693,503.396581612951,499.256326871875,-4.14025474107586,-501.326454242413,253.768418177014,247.5580360654
1.06312292358804,503.55959883857,499.187078575169,-4.37252026340144,-501.373338706869,253.966059550986,247.407279155884
1.06526631657914,504.218888371789,499.40669434785,-4.81219402393879,-501.81279135982,254.515541197864,247.297250161956
1.06740970957025,504.429910530316,499.566979555317,-4.86293097499839,-501.998445042816,254.646420752657,247.352024290159
1.06955310256135,505.394392377488,500.224275142059,-5.17011723542942,-502.809333759774,255.282254806459,247.527078953315
1.07169649555246,507.178938309897,501.24431066675,-5.93462764314665,-504.211624488323,256.556782976522,247.654841511802
1.07383988854356,509.021690497038,502.529089681859,-6.49260081517855,-505.775390089448,257.757145656108,248.01824443334
1.07598328153467,510.636767945754,504.007090088898,-6.62967785685663,-507.321929017326,258.633222901305,248.68870611602
1.07812667452577,512.085678400918,504.815643292954,-7.27003510796374,-508.450660846936,259.677856754441,248.772804092495
1.08027006751688,513.413312908045,505.946073250049,-7.46723965799561,-509.679693079047,260.44027628302,249.239416796027
1.08241346050798,514.382278705976,507.311422955893,-7.07085575008369,-510.846850830935,260.72656722803,250.120283602905
1.08455685349909,515.629784798249,508.578071169197,-7.05171362905173,-512.103927983723,261.34074921365,250.763178770073
1.08670024649019,516.540269370346,509.772682711293,-6.76758665905328,-513.156476040819,261.6539280147,251.50254802612
1.0888436394813,518.015249515093,511.455031160133,-6.56021835496017,-514.735140337613,262.287733935027,252.447406402586
1.0909870324724,519.091754611349,512.682882724986,-6.40887188636316,-515.887318668167,262.750313248856,253.137005419311
1.09313042546351,519.87743516874,513.579022562338,-6.29841260640239,-516.728228865539,263.087923887571,253.640304977968
1.09527381845461,520.721015454877,514.233064655923,-6.48795079895365,-517.4770400554,263.604483126915,253.872556928485
1.09741721144572,520.526228650886,514.980569426973,-5.54565922391362,-517.75339903893,263.0359439374,254.71745510153
1.09956060443682,520.384064711985,515.255974928848,-5.1280897831366,-517.820019820416,262.756077247561,255.063942572856
1.10170399742793,521.090775879896,515.456977923608,-5.63379795628828,-518.273876901752,263.362286918092,254.91158998366
1.10384739041903,521.066252212054,515.8738349226,-5.19241728945372,-518.470043567327,263.129334750754,255.340708816573
1.10599078341014,521.048353765417,516.178075413853,-4.87027835156471,-518.613214589635,262.959316058491,255.653898531144
1.10813417640124,521.305446907194,516.400123446491,-4.9053234607037,-518.852785176842,263.105385183949,255.747399992893
1.11027756939235,522.303553375305,517.102496247521,-5.20105712778468,-519.703024811413,263.752305251545,255.950719559868
1.11242096238345,523.57232760469,517.615118673303,-5.95720893138753,-520.593723138996,264.764768268039,255.828954870958
1.11456435537456,524.768490806416,518.79972160203,-5.96876920438581,-521.784106204223,265.368630005401,256.415476198822
1.11670774836566,527.262440360013,520.204609114703,-7.05783124530922,-523.733524737358,267.160135802661,256.573388934697
1.11885114135677,530.703571220841,523.121051021949,-7.58252019889198,-526.912311121395,269.143045709866,257.769265411528
1.12099453434787,533.215059203753,525.519754243261,-7.69530496049231,-529.367406723507,270.455182082123,258.912224641384
1.12313792733898,534.507740683297,527.270432888899,-7.23730779439848,-530.889086786098,270.872524238848,260.01656254725
1.12528132033008,534.910883807428,527.737686187812,-7.17319761961608,-531.32428499762,271.042040713522,260.282244284098
1.12742471332119,534.394646676686,528.078708105506,-6.31593857118048,-531.236677391096,270.355292623933,260.881384767163
1.12956810631229,533.747718001742,528.057444621879,-5.6902733798629,-530.90258131181,269.718995690802,261.183585621008
1.1317114993034,533.275561126971,527.771769388568,-5.50379173840338,-530.52366525777,269.389676432687,261.133988825082
1.1338548922945,533.471272788641,528.103583517857,-5.36768927078413,-530.787428153249,269.419481029713,261.367947123537
1.13599828528561,534.42458036479,528.345755998932,-6.07882436585817,-531.385168181861,270.251702365324,261.133465816537
1.13814167827671,534.850189765547,528.792660291772,-6.05752947377471,-531.821425028659,270.453859619661,261.367565408999
1.14028507126782,535.160818142858,529.388986825661,-5.7718313171971,-532.274902484259,270.466324730028,261.808577754232
1.14242846425892,536.19799697007,529.824212042116,-6.37378492795415,-533.011104506093,271.285890949012,261.725213557081
1.14457185725003,536.684819282417,530.682170886525,-6.0026483958917,-533.683495084471,271.343733839154,262.339761245317
1.14671525024113,537.310279734877,531.848659243331,-5.4616204915468,-534.579469489104,271.385950113212,263.193519375892
1.14885864323224,538.577236796441,532.429857312598,-6.14737948384311,-535.503547054519,272.362308140142,263.141238914377
1.15100203622334,538.961605113905,533.124197324996,-5.83740778890888,-536.04290121945,272.399506451407,263.643394768043
1.15314542921445,537.621196671529,532.820488434279,-4.80070823725055,-535.220842552904,271.21095245439,264.009890098514
1.15528882220555,536.372751684435,532.058515963246,-4.31423572118888,-534.215633823841,270.343493702812,263.872140121029
1.15743221519666,534.921269442041,530.962082664795,-3.95918677724615,-532.941676053418,269.440228109644,263.501447943774
1.15957560818776,534.132070355723,530.161857632823,-3.97021272289965,-532.146963994273,269.051141539311,263.095822454962
1.16171900117887,534.09639072872,530.118130787877,-3.97825994084303,-532.107260758299,269.037325334782,263.069935423517
1.16386239416997,534.340506386461,530.086217021719,-4.25428936474248,-532.21336170409,269.297397875602,262.915963828488
1.16600578716108,534.518672682849,530.062924957732,-4.45574772511611,-532.290798820291,269.487210203982,262.803588616308
1.16814918015218,534.648706247521,530.045925389519,-4.60278085800121,-532.34731581852,269.625743552761,262.721572265759
1.17029257314329,534.203298013201,529.493205936515,-4.71009207668646,-531.848251974858,269.456695044944,262.391556929914
1.17243596613439,533.878219580202,528.549494653418,-5.32872492678371,-531.21385711681,269.603472253493,261.610384863317
1.1745793591255,532.560338257737,527.590576623792,-4.96976163394436,-530.075457440764,268.76504994584,261.310407494924
1.1767227521166,529.707397277943,525.810091409059,-3.89730586888459,-527.758744343501,266.802351573414,260.956392770087
1.17886614510771,526.544571178458,523.429990487744,-3.1145806907133,-524.987280833101,264.829575934586,260.157704898516
1.18100953809881,523.155577349331,520.612263767718,-2.54331358161323,-521.883920558525,262.849445465472,259.034475093052
1.18315293108992,519.061203983908,517.475138576977,-1.58606540693131,-518.268171280443,260.32363469542,257.944536585023
1.18529632408102,515.262482381261,514.104902396447,-1.15757998481411,-514.683692388854,258.210031183038,256.473661205817
1.18743971707213,512.219852804869,510.834687819947,-1.38516498492163,-511.527270312408,256.802508894895,254.724761417513
1.18958311006323,509.729052297091,508.17778581357,-1.55126648352126,-508.953419055331,255.640159390306,253.313259665024
1.19172650305433,507.911157019023,506.23866238855,-1.67249463047301,-507.074909703786,254.791825824748,252.283083879038
1.19386989604544,506.584377442857,504.553248990513,-2.03112845234364,-505.568813216685,254.3077529476,251.261060269085
1.19601328903654,503.724942127875,501.97237943217,-1.75256269570542,-502.848660780022,252.73875241179,250.109908368232
1.19815668202765,500.827532390066,499.278279181428,-1.54925320863771,-500.052905785747,251.188392799352,248.864512986395
1.20030007501875,497.902407255648,496.501538213214,-1.40086904243378,-497.201972734431,249.651638149041,247.55033458539
1.20244346800986,496.307835270538,494.474951066322,-1.83288420421655,-495.39139316843,249.070359737377,246.321033431053
1.20458686100096,494.603734388739,492.455546602318,-2.14818778642098,-493.529640495529,248.37596108758,245.153679407949
1.20673025399207,493.360006945814,490.441384374804,-2.91862257101081,-491.900695660309,248.139314758413,243.761380901896
1.20887364698317,491.371655349984,488.701204372897,-2.67045097708677,-490.036429861441,247.021053163535,243.015376697905
1.21101703997428,489.650313077281,486.890832384538,-2.75948069274301,-488.270572730909,246.204896885012,242.065675845897
1.21316043296538,487.853689688562,485.029231210889,-2.82445847767355,-486.441460449725,245.339074083118,241.102386366608
1.21530382595649,486.002122844956,483.400396946457,-2.60172589849975,-484.701259895707,244.301924371728,240.399335523978
1.21744721894759,485.19108070959,481.671289952927,-3.51979075666253,-483.431185331258,244.355435733126,239.075749598132
1.2195906119387,484.058834221439,480.40931195469,-3.64952226674836,-482.234073088064,243.854178244094,238.379894843971
1.2217340049298,483.232471155431,479.488265151922,-3.74420600350896,-481.360368153677,243.48833857947,237.872029574207
1.22387739792091,482.629355204967,478.816044864347,-3.81331034062049,-480.722700034657,243.221332772794,237.501367261863
1.22602079091201,482.189174775,477.785116639463,-4.40405813553735,-479.987145707231,243.296616455269,236.690529251963
1.22816418390312,481.327599398789,477.032700078525,-4.29489932026462,-479.180149738657,242.811249359527,236.36890037913
1.23030757689422,480.698783962458,476.213397313568,-4.48538664889008,-478.456090638013,242.592085305674,235.864005332339
1.23245096988533,479.699534498629,475.345278068096,-4.35425643053287,-477.522406283362,242.026895464581,235.495510818781
1.23459436287643,478.970238484662,474.17137420569,-4.79886427897225,-476.570806345176,241.884551381817,234.686254963359
1.23673775586754,478.708122531034,473.314607763853,-5.39351476718048,-476.011365147444,242.050818649107,233.960546498336
1.23888114885864,478.78697504238,472.959458310274,-5.82751673210669,-475.873216676327,242.307245887244,233.565970789084
1.24102454184975,478.574368846093,473.240567111465,-5.33380173462871,-475.907467978779,241.954085290361,233.953382688418
1.24316793484085,479.229668170031,473.445732623802,-5.78393554622852,-476.337700396916,242.50680185813,233.830898538787
1.24531132783196,478.897465675356,473.59547139852,-5.30199427683624,-476.246468536938,242.099729976096,234.146738560842
1.24745472082306,478.925165960089,473.434601101218,-5.49056485887087,-476.179883530653,242.20786540948,233.972018121173
1.24959811381417,478.405070417087,473.587347125909,-4.81772329117769,-475.996208771498,241.611396854132,234.384811917366
1.25174150680527,478.295638127665,473.968984075063,-4.32665405260224,-476.132311101364,241.311146090134,234.82116501123
1.25388489979638,478.485925862882,474.247519431723,-4.23840643115869,-476.366722647303,241.36216614702,235.004556500282
1.25602829278748,478.624806184387,474.720962943428,-3.90384324095942,-476.672884563907,241.264324712673,235.408559851234
1.25817168577859,478.996323336202,474.526190325731,-4.47013301047093,-476.761256830967,241.733228173337,235.02802865763
1.26031507876969,478.997316609766,474.384036740608,-4.61327986915791,-476.690676675187,241.805298239462,234.885378435725
1.2624584717608,479.268197756178,474.280286829546,-4.98791092663237,-476.774242292862,242.128054341405,234.646187951457
1.2646018647519,480.816679737567,475.285190448925,-5.53148928864169,-478.050935093246,243.174084513104,234.876850580142
1.26674525774301,482.487142116455,476.288769325068,-6.19837279138682,-479.387955720761,244.342757453921,235.045198266841
1.26888865073411,482.895850071374,477.021225133718,-5.87462493765571,-479.958537602546,244.385237504515,235.573300098031
1.27103204372522,481.843361974071,476.475178608253,-5.36818336581848,-479.159270291162,243.605772669945,235.553497621217
1.27317543671632,479.99458522669,475.53633751987,-4.45824770681986,-477.76546137328,242.226416466755,235.539044906525
1.27531882970743,478.915423213849,474.310817759731,-4.6046054541182,-476.61312048679,241.760014333984,234.853106152806
1.27746222269853,478.938272158008,473.686535987436,-5.25173617057158,-476.312404072722,242.09500416429,234.217399908432
1.27960561568964,479.765416953582,473.771220237628,-5.99419671595376,-476.768318595605,242.879806834768,233.888511760837
1.28174900868074,480.639259656387,474.643495147199,-5.99576450918806,-477.641377401793,243.317512082787,234.323865319005
1.28389240167185,482.89796559606,475.820431995232,-7.07753360082785,-479.359198795646,244.987749598444,234.371449197202
1.28603579466295,484.81662430721,477.489880678403,-7.32674362880709,-481.153252492807,246.071683968009,235.081568524798
1.28817918765406,485.94678923721,478.978473641287,-6.96831559592374,-482.462631439248,246.457552416567,236.005079022681
1.29032258064516,486.771633090931,480.064913968299,-6.70671912263276,-483.418273529615,246.739176106782,236.679097422833
1.29246597363627,486.833327830002,480.587689480269,-6.24563834973338,-483.710508655135,246.539483089868,237.171025565268
1.29460936662737,487.148511563945,481.239390152137,-5.9091214118074,-484.193950858041,246.528816487876,237.665134370165
1.29675275961848,487.648702666154,481.985186051092,-5.66351661506212,-484.816944358623,246.656109640608,238.160834718015
1.29889615260958,488.013764034978,482.529500555155,-5.48426347982303,-485.271632295066,246.7490137574,238.522618537666
1.30103954560069,488.2802018073,482.926765114734,-5.35343669256628,-485.603483461017,246.816819249933,238.786664211084
1.30318293859179,487.664191124737,482.946549973914,-4.71764115082283,-485.305370549325,246.19091613778,239.114454411546
1.3053263315829,487.484755766519,482.960989830486,-4.52376593603333,-485.222872798502,246.004260851276,239.218611947226
1.307469724574,488.43442083244,483.241684881978,-5.19273595046212,-485.838052857209,246.813578391451,239.024474465758
1.30961311756511,489.397684193476,483.446548421668,-5.95113577180871,-486.422116307572,247.674409982643,238.74770632493
1.31175651055621,490.100715973861,484.136379227268,-5.96433674659289,-487.118547600564,248.032526360227,239.086021240337
1.31389990354732,490.073506927887,484.099535531851,-5.9739713960364,-487.086521229869,248.023739161962,239.062782067907
1.31604329653842,489.783492362831,484.342801601491,-5.44069076134025,-487.063146982161,247.612091562086,239.451055420075
1.31818668952953,489.84198324593,484.790504043152,-5.05147920277807,-487.316243644541,247.446731224354,239.869512420187
1.32033008252063,489.61451624175,484.847100677257,-4.76741556449372,-487.230808459503,247.190965903122,240.039842556381
1.32247347551174,488.097719802387,484.077938743472,-4.01978105891544,-486.087829272929,246.058750430651,240.029078842278
1.32461686850284,487.260851555134,483.516570684034,-3.74428087110039,-485.388711119584,245.502566213117,239.886144906467
1.32676026149394,487.190380887139,483.377015904871,-3.81336498226705,-485.283698396005,245.501872934703,239.781825461302
1.32890365448505,488.219573155343,483.815475139939,-4.40409801540363,-486.017524147641,246.311835585373,239.705688562268
1.33104704747615,489.511035162825,484.405638100873,-5.10539706195226,-486.958336631849,247.308216112389,239.65012051946
1.33319044046726,490.993913110333,485.106521083765,-5.8873920265678,-488.050217097049,248.44065256845,239.609564528599
1.33533383345836,491.535869945131,485.888212386906,-5.64765755822509,-488.712041166018,248.591763751678,240.12027741434
1.33747722644947,491.66125756257,486.188568716865,-5.47268884570497,-488.924913139717,248.566973204137,240.35793993558
1.33962061944057,491.482614724395,486.407781918511,-5.07483280588366,-488.945198321453,248.278723765139,240.666474556314
1.34176401243168,491.62238957053,486.027460888265,-5.59492868226567,-488.824925229397,248.608659126398,240.216266102999
1.34390740542278,491.184090949976,486.020042158716,-5.16404879125935,-488.602066554346,248.174069870618,240.427996683729
1.34605079841389,490.594045212547,485.744471433168,-4.849573779379,-488.169258322858,247.721809495963,240.447448826895
1.34819419140499,490.703716420117,485.813504062808,-4.89021235730814,-488.258610241463,247.796964388712,240.46164585275
1.3503375843961,492.134540329056,486.674355734345,-5.46018459471134,-489.4044480317,248.797362461884,240.607085569817
1.3524809773872,493.448974482772,487.302642979315,-6.14633150345736,-490.375808731044,249.797652993115,240.578155737929
1.35462437037831,494.138149872894,488.031350734089,-6.10679913880585,-491.084750303492,250.12247450585,240.962275797641
1.35676776336941,494.370984038434,488.293037350399,-6.07794668803496,-491.332010694417,250.224465363235,241.107545331182
1.35891115636052,494.540916607818,488.213871489879,-6.32704511793918,-491.377394048848,250.433980862878,240.94341318597
1.36105454935162,494.12462841424,488.426248990217,-5.69837942402233,-491.275438702228,249.911503919131,241.363934783097
1.36319794234273,494.090959273957,488.581251389578,-5.5097078843794,-491.336105331767,249.800333579168,241.535771752599
1.36534133533383,493.796229849199,488.424222716024,-5.37200713317435,-491.110226282611,249.584118491186,241.526107791425
1.36748472832494,494.121435833103,488.579772525945,-5.54166330715839,-491.350604179524,249.831549570131,241.519054609393
1.36962812131604,495.169254035933,489.503768224075,-5.66548581185828,-492.336511130004,250.417369923896,241.919141206108
1.37177151430715,495.123529006741,489.637828320869,-5.4857006858723,-492.380678663805,250.304614846307,242.076063817498
1.37391490729825,494.820000666352,489.73567124975,-5.08432941660197,-492.277835958051,249.952165041477,242.325670916574
1.37605830028936,493.788003756983,488.996612667992,-4.79139108899182,-491.392308212487,249.289697422988,242.1026107895
1.37820169328046,492.764651011441,488.18705914116,-4.5775918702808,-490.475855076301,248.671121440861,241.80473363544
1.38034508627157,492.017763367043,487.326055316574,-4.69170805046957,-489.671909341808,248.354735708756,241.317173633052
1.38248847926267,492.283120694964,486.967813235516,-5.31530745944849,-489.62546696524,248.799214077206,240.826252888034
1.38463187225378,492.476790092382,486.976508689881,-5.50028140250066,-489.726649391132,248.988535747441,240.73811364369
1.38677526524488,493.158450922781,486.982855013235,-6.17559590954619,-490.070652968008,249.667023416164,240.403629551844
1.38891865823599,494.196269269202,487.797955473527,-6.39831379567465,-490.997112371364,250.297291532438,240.699820838926
1.39106205122709,495.764183178157,488.933163904915,-6.8310192732423,-492.348673541536,251.2976012257,241.051072315836
1.3932054442182,496.908515404928,490.031844938666,-6.87667046626251,-493.470180171797,251.892592935595,241.577587236202
1.3953488372093,497.473542960321,490.833710466284,-6.63983249403725,-494.153626713302,252.056687727179,242.096938986123
1.39749223020041,498.426237235489,491.689103252401,-6.7371339830874,-495.057670243945,252.581685609288,242.475984634657
1.39963562319151,498.581242810462,492.043250151887,-6.53799265857469,-495.312246481175,252.559617734518,242.752628746656
1.40177901618262,499.234685090225,492.571878278434,-6.66280681179103,-495.903281684329,252.948745951008,242.954535733321
1.40392240917372,499.171283455267,492.957694232824,-6.2135892224432,-496.064488844045,252.692436338855,243.37205250519
1.40606580216483,498.854853953964,492.969123398624,-5.88573055533965,-495.911988676294,252.370292254652,243.541696421642
1.40820919515593,497.813441212443,492.437152480544,-5.37628873189851,-495.125296846493,251.594864972171,243.530431874323
1.41035258814704,497.053372592166,492.31905302239,-4.73431956977555,-494.686212807278,250.893846080971,243.792366726307
1.41249598113814,495.68817259549,491.692546442732,-3.99562615275846,-493.690359519111,249.841899374124,243.848460144987
1.41463937412925,493.881321222749,490.424825871732,-3.45649535101728,-492.15307354724,248.668908286883,243.484165260357
1.41678276712035,492.832758184154,489.499587887905,-3.33317029624942,-491.166173036029,248.082964240202,243.083208795828
1.41892616011146,493.148095811461,489.364621116611,-3.78347469484982,-491.256358464036,248.465785253155,242.790573210881
1.42106955310256,494.458867867401,490.076585092594,-4.38228277480681,-492.267726479998,249.420575321104,242.847151158894
1.42321294609367,496.766307769439,491.676832425323,-5.08947534411618,-494.221570097381,250.927891556778,243.293678540603
1.42535633908477,499.260847084036,493.385075424327,-5.87577165970879,-496.322961254182,252.568309371872,243.754651882309
1.42749973207588,501.081471107037,494.901982177636,-6.17948892940063,-497.991726642336,253.630480018219,244.361246624118
1.42964312506698,501.329617393254,495.468774724965,-5.86084266828925,-498.39919605911,253.595230030772,244.803966028338
1.43178651805809,500.159944359439,494.801819897304,-5.35812446213509,-497.480882128372,252.759034410787,244.721847717584
1.43392991104919,499.036109549696,494.315047059373,-4.72106249032282,-496.675578304535,251.87858602001,244.796992284525
1.4360733040403,497.405417059308,493.149310291765,-4.2561067675428,-495.277363675537,250.830761913425,244.446601762111
1.4382166970314,495.945110062979,492.028348341462,-3.9167617215171,-493.98672920222,249.930935892248,244.055793309972
1.44036009002251,495.419626496691,491.210221225305,-4.2094052713864,-493.314923860998,249.814515884039,243.500407976959
1.44250348301361,494.495793156329,490.342960019807,-4.1528331365227,-492.419376588068,249.324313146426,243.095063441642
1.44464687600472,494.091695343472,489.709994816289,-4.38170052718289,-491.90084507988,249.236697935327,242.664147144553
1.44679026899582,494.066923276833,489.518185306272,-4.54873797056138,-491.792554291553,249.307830623697,242.484723667855
1.44893366198693,495.129468385364,489.648350538754,-5.48111784661097,-492.388909462059,250.305293115988,242.083616346071
1.45107705497803,495.634804120561,490.283663248854,-5.35114087170672,-492.959233684707,250.492972496134,242.466261188574
1.45322044796914,496.543932691556,491.017498495711,-5.52643419584479,-493.780715593634,251.0351834437,242.745532149933
1.45536384096024,498.017923167322,492.093396015883,-5.92452715143895,-495.055659591602,251.97122515938,243.084434432222
1.45750723395134,499.363862171692,493.148789349515,-6.21507282217698,-496.256325760603,252.789467496934,243.466858263669
1.45965062694245,500.076031181359,493.919061618098,-6.1569695632611,-496.997546399728,253.11650037231,243.881046027418
1.46179401993355,500.325647097291,494.211083836619,-6.11456326067133,-497.268365466955,253.220105178981,244.048260287974
1.46393741292466,499.967515299208,494.154058226931,-5.81345707227706,-497.060786763069,252.890486185743,244.170300577327
1.46608080591576,499.435978819174,494.112438439936,-5.32354037923881,-496.774208629555,252.379759599207,244.394449030348
1.46822419890687,498.507727797315,493.811906285062,-4.69582151225285,-496.159817041189,251.601774654784,244.558042386405
1.47036759189797,497.560093343316,493.052252334952,-4.50784100836381,-495.306172839134,251.03396717584,244.272205663294
1.47251098488908,497.678936859263,492.767979830208,-4.91095702905443,-495.223458344735,251.294946944158,243.928511400577
1.47465437788018,497.765674061136,493.100817732229,-4.66485632890721,-495.433245896682,251.215265195021,244.217980701661
1.47679777087129,498.909603516609,493.613893619344,-5.29570989726562,-496.261748567976,252.102656706937,244.159091861039
1.47894116386239,500.554961959358,494.528671292136,-6.02629066722227,-497.541816625747,253.29062631329,244.251190312457
1.4810845568535,501.485660386172,495.736628517886,-5.74903186828624,-498.611144452029,253.617346127229,244.9937983248
1.4832279498446,502.705237275346,496.618248595424,-6.08698867992217,-499.661742935385,254.396112977634,245.265629957751
1.48537134283571,503.865494103926,497.261693532504,-6.60380057142197,-500.563593818215,255.234647337674,245.328946480541
1.48751473582681,504.171987919155,497.461151610963,-6.71083630819231,-500.816569765059,255.441412113674,245.375157651385
1.48965812881792,503.315055678814,497.336568638647,-5.97848704016695,-500.32581215873,254.64677135949,245.67904079924
1.49180152180902,502.419472794482,496.43517389458,-5.9842988999016,-499.427323344531,254.201885847192,245.225437497339
1.49394491480013,500.685212342112,495.777296539972,-4.90791580213983,-498.231254441042,252.796564072126,245.434690368916
1.49608830779123,500.229941759567,495.567305051232,-4.66263670833536,-497.8986234054,252.446289233951,245.452334171448
1.49823170078234,501.248446412338,496.22451270323,-5.02393370910767,-498.736479557784,253.136190060723,245.600289497061
1.50037509377344,503.882889189444,497.784796473038,-6.09809271640569,-500.833842831241,254.990490952925,245.843351878316
1.50251848676455,507.156401944853,500.274340949509,-6.88206099534426,-503.715371447181,257.019231470099,246.696139977082
1.50466187975565,510.356023530362,502.631631944673,-7.72439158568892,-506.493827737517,259.040207558025,247.453620179492
1.50680527274676,512.961403680779,505.702867193663,-7.25853648711592,-509.332135437221,260.109970083947,249.222165353273
1.50894866573786,515.133080411145,507.944389162019,-7.18869124912612,-511.538734786582,261.160885830135,250.377848956446
1.51109205872897,516.988221394497,509.580350046577,-7.40787134792049,-513.284285720537,262.198046371209,251.086239349328
1.51323545172007,518.072028305427,510.774345935792,-7.29768236963537,-514.42318712061,262.684855337531,251.738331783078
1.51537884471118,517.512256987542,511.375620206715,-6.13663678082719,-514.443938597129,261.824446884185,252.619491712944
1.51752223770228,516.563398944668,511.003987862695,-5.55941108197334,-513.783693403682,261.061405013321,252.722288390361
1.51966563069339,515.330568372518,510.192441881201,-5.13812649131677,-512.761505126859,260.234347431917,252.527157694942
1.52180902368449,513.620326002004,508.789671452212,-4.83065454979186,-511.204998727108,259.225490275898,251.97950845121
1.5239524166756,511.831803807947,507.495711956573,-4.33609185137453,-509.66375788226,258.083947829661,251.579810052599
1.5260958096667,510.526461994685,506.011011232847,-4.51545076183788,-508.268736613766,257.520956378262,250.747780235505
1.52823920265781,508.763297745277,505.197567844278,-3.56572990099846,-506.980432794778,256.164513823138,250.81591897164
1.53038259564891,508.016775694139,504.333725028266,-3.68305066587379,-506.175250361202,255.849913180007,250.325337181196
1.53252598864002,508.282399848031,504.243567138823,-4.03883270920824,-506.262983493427,256.16061627862,250.102367214807
1.53466938163112,508.476263986725,504.447922175133,-4.02834181159187,-506.462093080929,256.252302899159,250.209790181771
1.53681277462223,508.617754524092,504.326913217086,-4.29084130700625,-506.472333870589,256.454297915549,250.01803595504
1.53895616761333,508.180708090125,503.968439368876,-4.21226872124964,-506.074573729501,256.196488405687,249.878085323813
1.54109956060444,507.051263829556,503.16649703381,-3.88476679574632,-505.108880431683,255.468015312651,249.640865119032
1.54324295359554,504.876164892584,501.77073576651,-3.1054291260744,-503.323450329547,253.990797009329,249.332653320218
1.54538634658665,503.28868244487,500.481891863989,-2.80679058088157,-501.88528715443,253.047736512876,248.837550641554
1.54752973957775,501.5897558179,499.000924724124,-2.58883109377689,-500.295340271012,252.089293455839,248.206046815173
1.54967313256886,499.269179925234,497.109581421056,-2.15959850417823,-498.189380673145,250.714389214706,247.474991458439
1.55181652555996,498.115834448834,495.459040048222,-2.65679440061234,-496.787437248528,250.386314424723,246.401122823805
1.55395991855107,497.54422862919,494.25440268021,-3.28982594897934,-495.8993156547,250.417027289085,245.482288365616
1.55610331154217,497.667358096207,493.645361792091,-4.02199630411587,-495.656359944149,250.844677200162,244.811682743988
1.55824670453328,498.297535796589,493.741169506925,-4.55636628966403,-496.019352651757,251.426951043127,244.59240160863
1.56039009752438,499.027623288501,493.811094172451,-5.21652911605025,-496.419358730476,252.122076202276,244.2972825282
1.56253349051549,498.750004473649,493.59197204335,-5.15803243029819,-496.1709882585,251.954018451973,244.216969806526
1.56467688350659,498.277229894289,493.432047118585,-4.84518277570436,-495.854638506437,251.561206334997,244.29343217144
1.5668202764977,497.932178304359,493.315326905678,-4.61685139868086,-495.623752605018,251.27451485152,244.349237753499
1.5689636694888,497.680344544864,493.230139383339,-4.4502051615255,-495.455241964102,251.065274853195,244.389967110907
1.57110706247991,496.956232816113,492.62765337559,-4.32857944052267,-494.791943095852,250.642406128318,244.149536967534
1.57325045547101,495.617275733358,491.647620281657,-3.96965545170053,-493.632448007508,249.793465592529,243.838982414978
1.57539384846212,493.829577588324,490.392036792147,-3.43754079617679,-492.110807190235,248.63355919225,243.477247997985
1.57753724145322,493.605462049609,489.745813193723,-3.85964885588567,-491.675637621666,248.732555452747,242.943082168919
1.57968063444433,493.712048927726,489.544327126543,-4.16772180118306,-491.628188027134,248.939885364455,242.68830266268
1.58182402743543,494.330153122359,489.667429983889,-4.66272313847043,-491.998791553124,249.496438130415,242.502353422709
1.58396742042654,495.861897476715,490.567744475238,-5.2941530014765,-493.214820975977,250.578025239096,242.636795736881
1.58611081341764,496.439519154999,490.95467720224,-5.48484195275859,-493.69709817862,250.962180553879,242.734917624741
1.58825420640875,496.861092748783,491.507233861338,-5.35385888744486,-494.18416330506,251.107475818114,243.076687486946
1.59039759939985,496.628463193701,491.370201482826,-5.25826171087562,-493.999332338263,250.943362452288,243.055969885975
1.59254099239095,496.998992381734,491.540345464468,-5.45864691726564,-494.269668923101,251.2288196495,243.040849273601
1.59468438538206,496.999264596067,491.664523992557,-5.33474060351057,-494.331894294312,251.167002599789,243.164891694523
1.59682777837316,496.999463270008,491.755154919901,-5.24430835010656,-494.377309094955,251.121885810057,243.255423284897
1.59897117136427,496.189139635335,491.551145127365,-4.63799450796984,-493.87014238135,250.413567071652,243.456575309697
1.60111456435537,494.78726132858,490.591781211949,-4.19548011663016,-492.689521270264,249.491370722605,243.19815054766
1.60325795734648,493.493952942811,489.621439205857,-3.87251373695347,-491.557696074334,248.683233339882,242.874462734452
1.60540135033758,492.279883639452,488.102772484736,-4.17711115471542,-490.191328062094,248.228497397084,241.96283066501
1.60754474332869,491.123646488166,486.994383012089,-4.12926347607731,-489.059014750127,247.626454982122,241.432559768006
1.60968813631979,491.090242621312,486.18543184065,-4.90481078066188,-488.637837230981,247.997526700987,240.640310529994
1.6118315293109,490.795706804717,485.865180065148,-4.93052673956925,-488.330443434933,247.863116772143,240.467326662789
1.613974922302,491.661366516081,485.901602508032,-5.75976400804848,-488.781484512057,248.710565262065,240.070919249992
1.61611831529311,492.293162879053,486.468497625463,-5.82466525358933,-489.380830252258,249.058914066321,240.321916185937
1.61826170828421,493.024431741801,487.152398717312,-5.8720330244891,-490.088415229557,249.448232383145,240.640182846412
1.62040510127532,493.287987566858,487.381383469021,-5.90660409783777,-490.33468551794,249.597295832348,240.737389685591
1.62254849426642,494.290810784216,488.358975203246,-5.93183558097024,-491.324892993731,250.111323182593,241.213569811138
1.62469188725753,496.103339927483,489.882933093411,-6.22040683407135,-492.993136510447,251.161873380777,241.83126312967
1.62683528024863,501.2083900297,493.696746411634,-7.51164361806622,-497.452568220667,254.360016823883,243.092551396784
1.62897867323974,509.526934736705,499.722108913479,-9.80482582322594,-504.624521825092,259.665880279966,244.958641545127
1.63112206623084,522.081922002301,508.982494120363,-13.0994278819381,-515.532208061332,267.590674942119,247.941533119212
1.63326545922195,537.188538129302,520.874096764843,-16.3144413644591,-529.031317447073,276.751489746881,252.279827700192
1.63540885221305,554.967913366025,535.226389535113,-19.7415238309125,-545.097151450569,287.354718598469,257.7424328521
1.63755224520416,573.887516600526,551.374601708198,-22.5129148923286,-562.631059154362,298.200215746427,264.430843407935
1.63969563819526,593.098995732513,568.563398289535,-24.5355974429776,-580.831197011024,308.817296587745,272.013900423279
1.64183903118637,611.172717615826,585.701190301645,-25.4715273141812,-598.436953958735,318.322122465004,280.114831493732
1.64398242417747,625.984648531951,600.640507250763,-25.3441412811881,-613.312577891357,325.66439490657,287.648182984788
1.64612581716858,633.823325970684,611.543874924958,-22.2794510457256,-622.683600447821,328.051388508205,294.632211939616
1.64826921015968,635.762149040281,617.340380396676,-18.4217686436058,-626.551264718478,327.091958841944,299.459305876535
1.65041260315079,630.153125505244,617.518580729986,-12.6345447752585,-623.835853117615,321.393835140251,302.442017977364
1.65255599614189,619.845821647684,613.055983534477,-6.78983811320722,-616.450902591081,313.317829880446,303.133072710635
1.654699389133,606.91997571746,605.206329090598,-1.71364662686176,-606.063152404029,304.316811172161,301.746341231868
1.6568427821241,592.623315545291,594.344339530217,1.72102398492586,-593.483827537754,295.451145780183,298.032681757572
1.65898617511521,576.515706478348,582.094284532912,5.57857805456433,-579.30499550563,285.468564211892,293.836431293738
1.66112956810631,560.977481093036,569.101314810824,8.12383371778753,-565.03939795193,276.426823687624,288.612574264306
1.66327296109742,546.66528548644,556.376602027358,9.71131654091789,-551.520943756899,268.476984472761,283.043959284138
1.66541635408852,534.86883736913,544.387987327911,9.5191499587819,-539.62841234852,262.674843705174,276.953568643347
1.66755974707963,525.718960564989,534.017234090026,8.29827352503742,-529.868097327507,258.710343519976,271.157753807532
1.66970314007073,519.311136029219,526.178048049272,6.86691202005352,-522.744592039245,256.222112004583,266.522480034663
1.67184653306184,514.364268884499,519.916354389702,5.55208550520331,-517.1403116371,254.406091689648,262.734219947453
1.67398992605294,511.294141051972,514.535827533487,3.24168648151516,-512.914984292729,254.026227285228,258.888757007501
1.67613331904405,507.972802477155,510.338727218749,2.36592474159352,-509.155764847952,252.803438867781,256.352325980171
1.67827671203515,505.278587938183,506.735187202142,1.45659926395956,-506.006887570163,251.910994337112,254.095893233051
1.68042010502626,503.042075981157,503.564853482007,0.522777500849941,-503.303464731582,251.259649240154,252.043815491429
1.68256349801736,501.95008404599,500.980848898201,-0.969235147789618,-501.465466472096,251.45965959689,250.005806875206
1.68470689100847,499.532163244193,498.824772992343,-0.707390251849915,-499.178468118268,250.119776748021,249.058691370246
1.68685028399957,497.767458766814,496.170549538233,-1.59690922858175,-496.969004152524,249.682183997698,247.286820154825
1.68899367699068,494.858562894888,493.422912402331,-1.43565049255687,-494.140737648609,248.147106693722,245.993630954887
1.69113706998178,492.465367100578,490.877254082919,-1.58811301765934,-491.671310591749,247.026740059119,244.64457053263
1.69328046297289,491.25902044007,489.28947738367,-1.96954305639935,-490.27424891187,246.614281748235,243.659967163636
1.69542385596399,490.108419611697,487.860492210917,-2.24792740077936,-488.984455911307,246.178173506238,242.806282405069
1.6975672489551,490.079129380108,487.087712471127,-2.99141690898057,-488.583420925618,246.535273144544,242.048147781073
1.6997106419462,489.787595874659,486.52370397845,-3.26389189620818,-488.155649926555,246.525743885433,241.629906041121
1.70185403493731,490.38529059229,486.652378307362,-3.7329122849282,-488.518834449826,247.059101438609,241.459733011217
1.70399742792841,490.551358157279,486.476134255138,-4.07522390214109,-488.513746206208,247.31329102971,241.200455176498
1.70614082091952,490.402405326124,486.347503628427,-4.05490169769644,-488.374954477276,247.22865351191,241.146300965365
1.70828421391062,490.563849239453,486.25362336456,-4.31022587489309,-488.408736302006,247.437037557173,240.971698744833
1.71042760690173,490.681678076727,485.914949225277,-4.76672885145069,-488.298313651002,247.724203464089,240.574110186913
1.71257099989283,491.037830933546,485.937926220393,-5.09990471315336,-488.487878576969,248.06886782335,240.41901075362
1.71471439288394,491.027610671848,485.954695837548,-5.0729148342997,-488.491153254698,248.050262753074,240.440890501624
1.71685778587504,490.479839053591,485.696778826586,-4.7830602270044,-488.088308940089,247.631449640298,240.456859299791
1.71900117886615,490.350207552565,485.508539698283,-4.84166785428118,-487.929373625424,247.595937703423,240.333435922001
1.72114457185725,490.525753018667,485.371154539809,-5.15459847885774,-487.948453779238,247.840175748762,240.108278030476
1.72328796484836,490.113561362892,485.270884835315,-4.84267652757677,-487.692223099103,247.478118945234,240.214104153869
1.72543135783946,489.542569631535,484.65739119061,-4.88517844092513,-487.099980411072,247.21387403623,239.886106374842
1.72757475083056,489.125834863331,484.479792876837,-4.64604198649437,-486.802813870084,246.885938424913,239.916875445171
1.72971814382167,489.361996005204,484.620330062619,-4.74166594258469,-486.991163033911,247.051830973894,239.939332060017
1.73186153681277,490.344825383212,485.263212678407,-5.08161270480508,-487.804019030809,247.713219044008,240.090799986801
1.73400492980388,491.062137299541,486.272728985778,-4.78940831376269,-488.66743314266,247.925772806652,240.741660336008
1.73614832279498,492.396131581439,486.739361979856,-5.65676960158311,-489.567746780648,249.026450591511,240.541296189137
1.73829171578609,493.09958280961,487.350087383791,-5.74949542581857,-490.224835096701,249.424539117714,240.800295978986
1.74043510877719,493.883148530613,487.795821526105,-6.08732700450759,-490.839485028359,249.98523776756,240.854247260799
1.7425785017683,494.725185316549,488.661450244773,-6.06373507177574,-491.693317780661,250.394460194162,241.298857586499
1.7447218947594,496.150209269755,489.56338019979,-6.58682906996472,-492.856794734773,251.36851916986,241.488275564913
1.74686528775051,496.649941726193,490.221648174786,-6.42829355140691,-493.43579495049,251.5391176388,241.89667731169
1.74900868074161,497.284824567123,491.242393391004,-6.0424311761181,-494.263608979064,251.66362787162,242.599981107443
1.75115207373272,497.748189864764,491.717221734451,-6.03096813031277,-494.732705799608,251.889578997538,242.843126802069
1.75329546672382,498.356530360754,492.333928463215,-6.02260189753872,-495.345229411984,252.189566129146,243.155663282838
1.75543885971493,499.07068010469,492.513871826428,-6.55680827826183,-495.792275965559,252.813744191476,242.978531774083
1.75758225270603,499.862054070967,493.185514796028,-6.6765392749395,-496.523784433497,253.269296672953,243.254487760544
1.75972564569714,500.439633444341,493.405553033358,-7.03408041098277,-496.92259323885,253.736856927662,243.185736311188
1.76186903868824,500.320863738406,493.836302785897,-6.48456095250936,-497.078583262151,253.402712345458,243.675870916694
1.76401243167935,501.044649041926,494.150682817024,-6.89396622490182,-497.597665929475,253.969307633414,243.628358296061
1.76615582467045,501.302743037767,494.650287341726,-6.65245569604116,-497.976515189747,253.977599366904,243.998915822842
1.76829921766156,502.301579973,495.825389236216,-6.47619073678459,-499.063484604608,254.388885354892,244.674599249715
1.77044261065266,503.570887329276,496.953186266198,-6.61770106307813,-500.262036797737,255.094294196177,245.16774260156
1.77258600364377,504.767439630352,498.046458134672,-6.7209814956795,-501.406948882512,255.744210563016,245.662738319496
1.77472939663487,506.181048318206,499.114532028485,-7.06651628972048,-502.647790173345,256.623782303963,246.024007869382
1.77687278962598,507.21276183788,500.43437154889,-6.77839028899024,-503.823566693385,256.995576063435,246.82799062995
1.77901618261708,507.965751541342,501.397648224183,-6.56810331715894,-504.681699882763,257.266927429251,247.414772453512
1.78115957560819,508.785472610811,501.830533510024,-6.95493910078687,-505.308003060417,257.870205855799,247.437797204618
1.78330296859929,508.303116093873,501.876315934995,-6.42680015887851,-505.089716014434,257.364958126376,247.724757888058
1.7854463615904,506.600290126965,500.829105105979,-5.77118502098637,-503.714697616472,256.185737573976,247.528960042496
1.7875897545815,505.357493172754,500.064804787561,-5.29268838519289,-502.711148980158,255.325090778973,247.386058201184
1.78973314757261,505.801226595176,500.047297371642,-5.75392922353365,-502.924261983409,255.777577909355,247.146684074054
1.79187654056371,506.935551312731,500.844988328503,-6.09056298422774,-503.890269820617,256.513057148479,247.377212672138
1.79401993355482,508.303743585302,501.967490541957,-6.33625304334464,-505.135617063629,257.319998314323,247.815618749306
1.79616332654592,509.572466428274,503.32705423335,-6.24541219492437,-506.449760330812,257.908939311599,248.540821019213
1.79830671953703,511.30890454969,504.859635771822,-6.44926877786816,-508.084270160756,258.879086663779,249.205183496977
1.80045011252813,512.846389337945,506.248337099347,-6.59805223859871,-509.547363218646,259.722220788272,249.825142430374
1.80259350551924,515.319294119354,508.342496984293,-6.97679713506074,-511.830895551824,261.148045627207,250.682849924616
1.80473689851034,517.394284524569,510.141062779541,-7.2532217450289,-513.767673652055,262.323753134799,251.443920517256
1.80688029150145,518.368390958499,511.18357864087,-7.18481231762831,-514.775984799685,262.776601638064,251.999383161621
1.80902368449255,518.539024064535,511.944452366287,-6.59457169824736,-515.241738215411,262.566797881391,252.67494033402
1.81116707748366,518.393403365152,512.499771328333,-5.89363203681944,-515.446587346742,262.143517700986,253.303069645757
1.81331047047476,518.016966790414,512.364754999468,-5.65221179094522,-515.190860894941,261.834589290679,253.356271604262
1.81545386346587,517.472070682845,512.266214170551,-5.20585651229385,-514.869142426698,261.338963597569,253.530178829128
1.81759725645697,517.884850279175,512.46445097056,-5.42039930861506,-515.174650624867,261.652624793895,253.522025830972
1.81974064944808,518.996583539038,513.149445291368,-5.84713824766936,-516.073014415203,262.421860893353,253.651153521849
1.82188404243918,520.348287576547,514.189696565057,-6.15859101149078,-517.268992070802,263.253439294019,254.015552776783
1.82402743543029,521.604976583584,515.219073707122,-6.38590287646127,-518.412025145353,263.995439730022,254.416585415331
1.82617082842139,521.981850825235,515.970358219901,-6.01149260533452,-518.976104522568,263.996671715285,254.979432807283
1.8283142214125,522.25691014941,516.518678554669,-5.73823159474125,-519.387794352039,263.997570872076,255.390223479964
1.8304576144036,522.997972912269,516.918866744904,-6.07910616736524,-519.958419828586,264.538539539817,255.419880288769
1.83260100739471,523.268676754483,517.751254033372,-5.51742272111096,-520.509965393928,264.393049737797,256.116915656131
1.83474440038581,524.546873119632,518.358766725178,-6.18810639445428,-521.452819922405,265.367489757043,256.085330165362
1.83688779337692,525.479756796744,519.342468513245,-6.13728828349963,-522.411112654995,265.808522540122,256.602590114873
1.83903118636802,526.971084789146,520.60072957638,-6.37035521276664,-523.785907182763,266.670720000956,257.115187181806
1.84117457935913,528.599833684206,522.059376020895,-6.54045766331035,-525.329604852551,267.570145673758,257.759459178793
1.84331797235023,531.409503218916,524.474741126859,-6.93476209205664,-527.942122172887,269.172132655486,258.769989517401
1.84546136534134,535.081060346747,527.048048981124,-8.03301136562357,-531.064554663935,271.557035856185,259.50751880775
1.84760475833244,537.760723509253,529.736630369115,-8.02409314013801,-533.748676939184,272.892408324696,260.856268614489
1.84974815132355,539.716459022685,531.96903100589,-7.74742801679452,-535.842745014288,273.73194351974,262.110801494548
1.85189154431465,541.143840438385,533.868490955126,-7.27534948325888,-537.506165696755,274.209594960822,263.296570735934
1.85403493730575,541.104981050437,534.714487576131,-6.39049347430591,-537.909734313284,273.747737262371,264.161997050913
1.85617833029686,541.076619767533,535.061776742877,-6.01484302465519,-538.069198255205,273.545731396094,264.523466859111
1.85832172328796,540.78576424951,535.04508737204,-5.74067687747004,-537.915425810775,273.26322056349,264.652205247285
1.86046511627907,540.573485156438,535.032906738406,-5.54057841803183,-537.803195947422,273.057031787235,264.746164160187
1.86260850927017,541.229023214625,535.564329202357,-5.66469401226834,-538.396676208491,273.446858613447,264.949817595044
1.86475190226128,541.977619806146,536.492497010286,-5.48512279586021,-539.235058408216,273.731371301003,265.503687107213
1.86689529525238,543.604603225769,537.710226942987,-5.89437628278131,-540.657415084378,274.749489754275,265.907925330103
1.86903868824349,545.332359391711,539.409448205602,-5.92291118610899,-542.370903798657,275.62763528891,266.743268509747
1.87118208123459,547.133663920568,540.649614288777,-6.48404963179075,-543.891639104673,276.808856776179,267.082782328493
1.8733254742257,547.637866205867,541.55474180083,-6.08312440503664,-544.596304003348,276.860495305452,267.735808697897
1.8754688672168,548.276011323624,542.215343492966,-6.06066783065785,-545.245677408295,277.168339577141,268.077337831154
1.87761226020791,547.390976514385,541.887010898783,-5.50396561560149,-544.638993706584,276.447471064993,268.191522641591
1.87975565319901,547.285351780328,541.647379394479,-5.63797238584868,-544.466365587404,276.461662083088,268.004703504315
1.88189904619012,547.478418436175,541.742642041495,-5.73577639468078,-544.610530238835,276.607097415428,268.003432823407
1.88404243918122,547.889483147512,542.082325104531,-5.80715804298097,-544.985904126022,276.848320595246,268.137583530775
1.88618583217233,547.919339961728,542.330240678021,-5.58909928370747,-545.124790319874,276.754219622718,268.370570697157
1.88832922516343,549.291911831475,542.781336531184,-6.51057530029129,-546.03662418133,277.901243565883,268.135380615446
1.89047261815454,550.29367488437,543.650878461209,-6.64279642316103,-546.97227667279,278.468235653766,268.504041019024
1.89261601114564,551.294961637573,544.825820661098,-6.46914097647516,-548.060391149336,278.882051307024,269.178339842312
1.89475940413675,550.404807283304,544.872876291482,-5.53193099182204,-547.638841787393,277.968369137563,269.67047264983
1.89690279712785,548.404352598007,543.826594703528,-4.57775789447942,-546.115473650768,276.491055246243,269.624418404524
1.89904619011896,545.323395901281,541.98234773844,-3.34104816284139,-543.65287181986,274.332222032061,269.320649787799
1.90118958311006,542.53446637094,539.825866911581,-2.70859945935911,-541.18016664126,272.621532915149,268.558633726111
1.90333297610117,540.498983477692,537.711660352136,-2.78732312555599,-539.105321914914,271.643153301624,267.46216861329
1.90547636909227,538.473086508471,535.628307404162,-2.84477910430849,-537.050696956317,270.65893280639,266.391764149927
1.90761976208338,535.91387334261,533.29731656099,-2.61655678162015,-534.6055949518,269.265215062115,265.340379889685
1.90976315507448,532.965422663524,530.785588738301,-2.17983392522217,-531.875505700913,267.572628294373,264.30287740654
1.91190654806559,529.732889403303,528.4121073657,-1.32078203760318,-529.072498384501,265.526835720453,263.545662664048
1.91404994105669,527.103488871541,525.869368094053,-1.23412077748787,-526.486428482797,264.168804824514,262.317623658283
1.9161933340478,524.373968591318,523.203096996197,-1.1708715951213,-523.788532793758,262.77242009322,261.016112700538
1.9183367270389,521.571376534612,520.446666962345,-1.12470957226685,-521.009021748479,261.34804305344,259.660978695039
1.92048012003001,518.445297283881,517.624434989114,-0.820862294767494,-518.034866136497,259.633079789324,258.401786347173
1.92262351302111,514.542810490308,514.213865455435,-0.328945034873186,-514.378337972871,257.435877762591,256.942460210281
1.92476690601222,510.884136110151,510.644057619813,-0.240078490337851,-510.764096864982,255.562107300244,255.201989564738
1.92691029900332,507.673562917265,507.498343122429,-0.175219794836323,-507.585953019847,253.924391356051,253.661561663796
1.92905369199443,506.410970863593,505.47261914916,-0.938351714433338,-505.941795006377,253.674661289013,252.267133717363
1.93119708498553,505.759632108152,503.994157090807,-1.76547501734535,-504.876894599479,253.762553562749,251.114341036731
1.93334047797664,505.014100351654,502.644954529662,-2.36914582199188,-503.829527440658,253.691623086823,250.137904353835
1.93548387096774,502.849041359092,500.579622573998,-2.26941878509427,-501.714331966545,252.559230072093,249.155101894452
1.93762726395885,500.728574078696,497.991628028247,-2.73694605044938,-499.360101053471,251.732760064573,247.627340988899
1.93977065694995,497.56002693494,495.292327649705,-2.26769928523458,-496.426177292322,249.913863110087,246.512314182235
1.94191404994106,495.517638696549,493.322260036134,-2.19537866041486,-494.419949366341,248.856508678482,245.563440687859
1.94405744293216,494.567326751556,491.614262214304,-2.95306453725158,-493.09079448293,248.760195644404,244.330598838526
1.94620083592327,493.603591269847,490.367690613905,-3.23590065594175,-491.985640941876,248.419745962894,243.565894978982
1.94834422891437,492.089746279508,488.917575651154,-3.17217062835448,-490.503660965331,247.630958453931,242.8727025114
1.95048762190548,489.36393864589,486.508437194159,-2.85550145173107,-487.936187920025,246.109720048811,241.826467871214
1.95263101489658,487.10436866499,484.209830032837,-2.89453863215238,-485.657099348914,244.999453648571,240.657645700343
1.95477440788769,484.914923126845,481.991893451056,-2.92302967578894,-483.45340828895,243.918976401317,239.534431887634
1.95691780087879,484.127438536999,480.913458638123,-3.213979898876,-482.520448587561,243.670709217938,238.849739369624
1.9590611938699,484.363166436469,480.666682112747,-3.69648432372225,-482.514924274608,244.029825380096,238.485098894512
1.961204586861,485.3456796152,481.026886222388,-4.31879339281238,-483.186282918794,244.832236504006,238.354046414788
1.96334797985211,486.873229391066,481.559935166139,-5.31329422492701,-484.216582278603,246.093261807997,238.123320470606
1.96549137284321,487.447789682296,482.219133838376,-5.22865584391946,-484.833461760336,246.338222763108,238.495238997228
1.96763476583432,487.05666030614,481.889777258836,-5.16688304730388,-484.473218782488,246.111771676722,238.361447105766
1.96977815882542,485.690572113111,480.838929769564,-4.85164234354704,-483.264750941338,245.271107228329,237.993643713009
1.97192155181653,483.612916283908,479.531662833506,-4.08125345040162,-481.572289558707,243.847084867155,237.725204691552
1.97406494480763,481.556239659351,478.037249757055,-3.51898990229631,-479.796744708203,242.537614780824,237.259129927379
1.97620833779874,480.325343212602,476.676405444438,-3.64893776816399,-478.50087432852,241.987140490383,236.513733838137
1.97835173078984,479.697137298984,476.223514100007,-3.47362319897633,-477.960325699495,241.58538024898,236.374945450515
1.98049512378095,480.049113750879,476.433286589321,-3.615827161558,-478.2412001701,241.832470456219,236.408729713882
1.98263851677205,481.386626425349,476.586387737567,-4.80023868778204,-478.986507081458,243.093432556566,235.893074524892
1.98478190976315,482.362801742354,477.508596295184,-4.85420544716931,-479.935699018769,243.608503594762,236.327195424008
1.98692530275426,483.885725869209,478.18166448232,-5.7040613868885,-481.033695175765,244.794893628049,236.238801547716
1.98906869574536,484.727066371113,478.672899117688,-6.05416725342491,-481.699982744401,245.390616812269,236.309365932132
1.99121208873647,485.611269722001,479.301579876697,-6.30968984530375,-482.456424799349,245.960479783652,236.495945015697
1.99335548172757,485.716287621345,479.760418623375,-5.95586899796973,-482.73835312236,245.836078309657,236.902274812703
1.99549887471868,485.792934282823,480.095299232391,-5.69763505043272,-482.944116757607,245.745284666628,237.198832090979
1.99764226770978,485.578718160713,480.609865976517,-4.96885218419567,-483.094292068615,245.273785172454,237.820506896161
1.99978566070089,484.88206143093,480.445106894552,-4.43695453637815,-482.663584162741,244.659507983654,238.004076179087
2.00192905369199,484.103454632369,480.05470229017,-4.04875234219844,-482.079078461269,244.076103487283,238.002974973986
2.0040724466831,483.805349508916,479.499611702934,-4.30573780598189,-481.652480605925,244.055543657449,237.596936948476
2.0062158396742,483.857935548226,479.364638497862,-4.49329705036354,-481.611287023044,244.175616299295,237.435670723749
2.00835923266531,484.706783777974,479.536285354449,-5.1704984235248,-482.121534566211,244.938641100749,237.182893465462
2.01050262565641,485.326310385519,480.201873170224,-5.12443721529525,-482.764091777871,245.225373800407,237.538717977464
2.01264601864752,486.588936667231,481.227960726764,-5.36097594046686,-483.908448696998,245.974956303849,237.933492393149
2.01478941163862,487.780612827538,481.706688144109,-6.07392468342846,-484.743650485824,246.927268755483,237.81638173034
2.01693280462973,488.380194058727,482.596396799609,-5.78379725911793,-485.488295429168,247.081995658922,238.406299770245
2.01907619762083,488.547638483917,482.705432711326,-5.84220577259089,-485.626535597621,247.194922128254,238.431613469367
2.02121959061194,487.859378121883,482.514855682304,-5.34452243957969,-485.187116902093,246.601950280732,238.585166621362
2.02336298360304,487.62721178391,482.375764221512,-5.25144756239808,-485.001488002711,246.439329673154,238.562158329557
2.02550637659415,487.727922836199,482.544405394743,-5.18351744145627,-485.136164115471,246.455720138828,238.680443976643
2.02764976958525,487.261113748365,482.127174683705,-5.13393906466013,-484.694144216035,246.197526406513,238.496617809522
2.02979316257636,486.920416035368,482.362973864781,-4.55744217058663,-484.641694950074,245.738929102977,238.902765847097
2.03193655556746,487.21207234965,482.535070432335,-4.67700191731507,-484.873571390993,245.944537133483,238.92903425751
2.03407994855857,487.965248322641,482.930830254994,-5.03441806764664,-485.448039288817,246.499833195144,238.948206093674
2.03622334154967,489.325417763511,484.030141738768,-5.29527602474292,-486.677779751139,247.310346894127,239.367432857012
2.03836673454078,491.939066251961,485.372779820161,-6.56628643180005,-488.655923036061,249.252676341881,239.403246694181
2.04051012753188,493.306308941865,486.893008307314,-6.41330063455064,-490.099658624589,249.859804788208,240.239853836382
2.04265352052299,494.574338737826,488.27269383707,-6.30164490075629,-491.423516287448,250.437991819291,240.985524468157
2.04479691351409,495.229646195699,489.009492538661,-6.22015365703754,-492.11956936718,250.724899926368,241.394669440812
2.0469403065052,495.978074485013,489.547240494119,-6.43083399089426,-492.762657489566,251.204454237954,241.558203251612
2.0490836994963,494.903372951599,489.129243863373,-5.77412908822544,-492.016308407486,250.338751019912,241.677557387574
2.05122709248741,493.578696289601,488.554015407093,-5.02468088250754,-491.066355848347,249.301688586054,241.764667262293
2.05337048547851,492.611889256563,487.59387606778,-5.01801318878364,-490.102882662171,248.814951222673,241.287931439498
2.05551387846962,491.365958725439,486.893124335244,-4.47283439019486,-489.129541530341,247.919396557817,241.210144972524
2.05765727146072,491.537248914344,486.921997459976,-4.61525145436883,-489.22962318716,248.076250184357,241.153373002803
2.05980066445183,491.932420206556,486.943070330705,-4.9893498758513,-489.437745268631,248.460885041204,240.976860227427
2.06194405744293,492.490989731295,487.498762658248,-4.99222707304727,-489.994876194772,248.741608402171,241.2532677926
2.06408745043404,492.898658229164,487.904331251616,-4.99432697754798,-490.40149474039,248.946492603356,241.455002137034
2.06623084342514,494.276817397436,488.200332970146,-6.07648442729004,-491.238575183791,250.176650912363,241.061924271428
2.06837423641625,495.012502093579,488.41636798569,-6.5961341078895,-491.714435039634,250.804318100734,240.9101169389
2.07051762940735,495.819593210952,489.384508435418,-6.43508477553456,-492.602050823185,251.127338993243,241.474711829942
2.07266102239846,496.678799861292,490.091099728688,-6.58770013260471,-493.38494979499,251.633249996948,241.751699798041
2.07480441538956,497.305886497761,490.876957206698,-6.42892929106381,-494.09142185223,251.867407894413,242.224013957817
2.07694780838067,497.493405572135,491.180354193506,-6.31305137862921,-494.336879882821,251.903228475382,242.433651407438
2.07909120137177,497.630265203722,491.671942811537,-5.95832239218589,-494.651104007629,251.794293797954,242.856810209675
2.08123459436288,498.000307567554,492.030725710721,-5.96958185683286,-495.015516639137,251.984944712193,243.030571926944
2.08337798735398,498.27038068814,492.562737392849,-5.7076432952914,-495.416559040494,251.989011991716,243.427547048779
2.08552138034509,498.737648089412,492.951022814261,-5.78662527515075,-495.844335451837,252.262136682281,243.582198769555
2.08766477333619,499.348836511497,493.774722940844,-5.57411357065354,-496.56177972617,252.461475041075,244.100304685095
2.0898081663273,500.335221008475,494.646051573382,-5.68916943509328,-497.490636290928,253.012195221784,244.478441069144
2.0919515593184,499.974502758814,494.741672939515,-5.23282981929907,-497.358087849164,252.603666289057,244.754421560108
2.09409495230951,498.630609937548,494.000992963985,-4.62961697356315,-496.315801450766,251.630113455555,244.685687995211
2.09623834530061,497.649778110036,493.460412284853,-4.18936582518359,-495.555095197445,250.91957196761,244.635523229835
2.09838173829172,496.393611669785,492.525560410463,-3.86805125932239,-494.459586040124,250.130831464554,244.32875457557
2.10052513128282,495.746962608384,491.843264577119,-3.90369803126509,-493.795113592752,249.825330319825,243.969783272927
2.10266852427393,495.545166019693,491.345295201487,-4.19987081820597,-493.44523061059,249.87251841895,243.572712191641
2.10481191726503,496.208354668587,491.522167769748,-4.68618689883908,-493.865261219167,250.447270783713,243.417990435454
2.10695531025614,497.232691208082,492.191569538726,-5.04112166935607,-494.712130373404,251.136906438719,243.575223934685
2.10909870324724,499.060921715872,493.490596897192,-5.57032481868032,-496.275759306532,252.315623267276,243.960136039256
2.11124209623835,500.39524439525,494.168527733506,-6.22671666174421,-497.281886064378,253.310980528497,243.970905535881
2.11338548922945,500.288466666666,494.66331134317,-5.62515532349596,-497.475889004918,252.956810995081,244.519078009837
2.11552888222056,500.210535604748,495.024426087151,-5.18610951759723,-497.617480845949,252.698322561173,244.919158284777
2.11767227521166,499.34318946769,494.747671016104,-4.5955184515866,-497.045430241897,251.969353959638,245.076076282259
2.11981566820277,498.44000606553,494.275526834795,-4.16447923073463,-496.357766450163,251.302242648132,245.05552380203
2.12195906119387,498.861448117409,493.930935336966,-4.93051278044271,-496.396191727188,251.895980448926,244.500211278262
2.12410245418497,499.979503616644,494.489906008449,-5.48959760819508,-497.234704812547,252.73455061242,244.500154200127
2.12624584717608,501.335821901287,495.168023492648,-6.16779840863865,-498.251922696967,253.751810154963,244.500112542005
