t,leadI,leadII,leadIII,aVR,aVL,aVF
0,13.622940445619,-0.0578077179932392,-13.6807481636122,-6.78256636381286,13.6518443046156,-6.86927794080272
0.00193180720564088,28.0615234258568,-0.290064397880309,-28.3515878237371,-13.8857295139882,28.2065556247969,-14.3208261108087
0.00386361441128175,42.7331414387966,-0.509519163470523,-43.2426606022671,-21.111811137663,42.9879010205318,-21.8760898828688
0.00579542161692263,56.8403635478115,-0.678269042928928,-57.5186325907404,-28.0810472524413,57.1794980692759,-29.0984508168347
0.00772722882256351,69.5007826209292,-0.742465290379347,-70.2432479113086,-34.3791586652749,69.8720152661189,-35.492856600844
0.00965903602820439,79.7854040434866,-0.677000220147669,-80.4624042636343,-39.5542019116695,80.1239041535604,-40.569702241891
0.0115908432338453,86.9803763054612,-0.517604511098227,-87.4979808165594,-43.2313858971815,87.2391785610103,-44.0077926638288
0.0135226504394861,90.8884194279992,-0.328339063521158,-91.2167584915204,-45.280040182239,91.0525889597598,-45.7725487775208
0.015454457645127,91.9898313335851,-0.155908867915277,-92.1457402015004,-45.9169612328349,92.0677857675428,-46.1508245347078
0.0173862648507679,91.2939715905957,-0.0211454172720134,-91.3151170078677,-45.6364130866619,91.3045442992317,-45.6681312125699
0.0193180720564088,89.8598690379706,0.0720410777243738,-89.7878279602462,-44.9659550578475,89.8238484991084,-44.8578934412609
0.0212498792620496,88.2433491051386,0.129170898181316,-88.1141782069573,-44.18626000166,88.178763656048,-43.992503654388
0.0231816864676905,86.2325151220195,0.159690961913052,-86.0728241601065,-43.1961030419663,86.152669641063,-42.9565665990967
0.0251134936733314,83.1113605594359,0.173365953704383,-82.9379946057315,-41.6423632565701,83.0246775825837,-41.3823143260136
0.0270453008789723,78.2790973577229,0.178172237103071,-78.1009251206198,-39.228634797413,78.1900112391714,-38.9613764417584
0.0289771080846132,71.7194626743222,0.179223498973729,-71.5402391753484,-35.9493430866479,71.6298509248353,-35.6805078381874
0.030908915290254,64.0571279924048,0.178317233066647,-63.8788107593382,-32.1177226127357,63.9679693758715,-31.8502467631358
0.0328407224958949,56.3389200881025,0.173829126501686,-56.1650909616008,-28.2563746073021,56.2520055248517,-27.9956309175496
0.0347725297015358,49.7390953084613,0.16085723487242,-49.5782380735889,-24.9499762716669,49.6586666910251,-24.7086904193582
0.0367043369071767,45.2452536551327,0.13170263502622,-45.1135510201065,-22.6884781450795,45.1794023376196,-22.4909241925401
0.0386361441128175,43.2880894243132,0.0769463318093337,-43.2111430925039,-21.6825178780613,43.2496162584085,-21.5670983803473
0.0405679513184584,43.3779911963042,-0.0124825955533998,-43.3904737918576,-21.6827543003754,43.3842324940809,-21.7014781937055
0.0424997585240993,44.0341585002024,-0.141794717301261,-44.1759532175036,-21.9461818914506,44.105055858853,-22.1588739674024
0.0444315657297402,43.2629653194339,-0.30700915744358,-43.5699744768775,-21.4779780809951,43.4164698981557,-21.9384918171605
0.0463633729353811,39.4419833137029,-0.487722388183755,-39.9297057018866,-19.4771304627596,39.6858445077948,-20.2087140450352
0.0482951801410219,32.0269352073512,-0.638495959649083,-32.6654311670002,-15.694219623851,32.3461831871757,-16.6519635633247
0.0502269873466628,21.5543953218124,-0.69775627750606,-22.2521515993185,-10.4283195221532,21.9032734605655,-11.4749539384123
0.0521587945523037,9.09280972306888,-0.633817582559086,-9.72662730562797,-4.2294960702549,9.40971851434842,-5.18022244409353
0.0540906017579446,-4.22336857776747,-0.477526314307125,3.74584226346035,2.3504474460373,-3.98460542061391,1.63415797457661
0.0560224089635854,-17.2881790364511,-0.289863503437594,16.9983155330135,8.78902126994432,-17.1432472847323,8.35422601478793
0.0579542161692263,-29.0166766452652,-0.116206382361262,28.900470262904,14.5664415138133,-28.9585734540846,14.3921319402714
0.0598860233748672,-38.4899841766752,0.0222267182409195,38.5122108949161,19.2338787292171,-38.5010975357956,19.2672188065785
0.0618178305805081,-45.1871252678431,0.119369784309712,45.3064950521528,22.5338777417667,-45.246810159998,22.7129324182313
0.0637496377861489,-49.1380090039317,0.176696303884927,49.3147053078166,24.4806563500234,-49.2263571558742,24.7457008058508
0.0656814449917898,-50.8819918148546,0.197653457469492,51.0796452723241,25.3421691786926,-50.9808185435894,25.6386493648968
0.0676132521974307,-51.2146044249125,0.184284366200287,51.3988887911128,25.5151600293561,-51.3067466080126,25.7915865786565
0.0695450594030716,-50.8931718124306,0.135978586828228,51.0291503992589,25.3785966128012,-50.9611611058448,25.5825644930435
0.0714768666087125,-50.5286561435914,0.0502849873081391,50.5789411308996,25.2391855781416,-50.5537986372455,25.3146130591039
0.0734086738143533,-50.607575701008,-0.074211086264383,50.5333646147436,25.3408933936362,-50.5704701578758,25.2295767642396
0.0753404810199942,-51.3649544414789,-0.232923040950598,51.1320314005283,25.7989387412148,-51.2484929210036,25.4495541797889
0.0772722882256351,-52.5031093984221,-0.408330777220122,52.094778621202,26.4557200878211,-52.2989440098121,25.8432239219909
0.079204095431276,-53.1192963513973,-0.561622399727925,52.5576739516694,26.8404593755626,-52.8384851515333,25.9980257759707
0.0811359026369168,-52.0880706820504,-0.641628509335251,51.4464421727151,26.3648495956928,-51.7672564273828,25.4024068316899
0.0830677098425577,-48.6562000061624,-0.630281397752971,48.0259186084094,24.6432407019577,-48.3410593072859,23.6978186053282
0.0849995170481986,-42.7686980071607,-0.573527510506769,42.1951704966539,21.6711127588337,-42.4819342519073,20.8108214930736
0.0869313242538395,-34.9992571405897,-0.545324168736625,34.4539329718531,17.7722906546632,-34.7265950562214,16.9543044015582
0.0888631314594804,-26.4039154690035,-0.595707416386398,25.8082080526171,13.4998114426949,-26.1060617608103,12.6062503181153
0.0907949386651212,-18.5145564541567,-0.732966317394601,17.7815901367621,9.62376138577563,-18.1480732954594,8.52431190968373
0.0927267458707621,-13.2732921288937,-0.920411483548742,12.352880645345,7.09685180622124,-12.8130863871194,5.71623458089812
0.094658553076403,-12.59715231886,-1.08739632529515,11.5097559935649,6.84227432207759,-12.0534541562125,5.21117983413486
0.0965903602820439,-17.636503405862,-1.17361809304867,16.4628853128133,9.40506074945534,-17.0496943593377,7.64463360988233
0.0985221674876847,-28.2390000177262,-1.15678327712054,27.0822167406057,14.6978916474234,-27.6606083791659,12.9627167317426
0.100453974693326,-43.0097864836646,-1.03118808133464,41.97859840233,22.0204872824996,-42.4941924429973,20.4737051604977
0.102385781898966,-59.8351283150295,-0.808880966844672,59.0262473481848,30.3220046409371,-59.4306878316071,29.1086831906701
0.104317589104607,-76.5453313985577,-0.543685152749319,76.0016462458083,38.5445082756535,-76.273488822183,37.7289805465295
0.106249396310248,-91.4628874309938,-0.306892400918584,91.1559950300752,45.8848899159562,-91.3094412305345,45.4245513145783
0.108181203515889,-103.572228038043,-0.147310648785597,103.424917389257,51.8597693434141,-103.49857271365,51.6388033702357
0.11011301072153,-112.295474509399,-0.0853683926226002,112.210106116777,56.190421451011,-112.252790313088,56.0623688620771
0.112044817927171,-117.219216818998,-0.121351313947203,117.097865505051,58.6702840664725,-117.158541162024,58.4882570955517
0.113976625132812,-117.903194195949,-0.238891799920512,117.664302396029,59.0710429979348,-117.783748295989,58.7127052980541
0.115908432338453,-113.593563013399,-0.403554032381315,113.190008981017,56.9985585228899,-113.391785997208,56.3932274743179
0.117840239544094,-102.842652847983,-0.557504110699526,102.285148737283,51.7000784793411,-102.563900792633,50.8638223132918
0.119772046749734,-83.1978159830495,-0.629824894393995,82.5679910886555,41.9138204387217,-82.8829035358525,40.9690830971308
0.121703853955375,-51.1934680574099,-0.582735542541133,50.6107325148688,25.8881017999755,-50.9021002861394,25.0139984861638
0.123635661161016,-2.97755246661592,-0.443738177995325,2.53381428862059,1.71064532230562,-2.75568337761826,1.04503805531263
0.125567468366657,64.377179617842,-0.272395603764822,-64.6495752216069,-32.0523920070386,64.5133774197245,-32.4609854126858
0.127499275572298,151.388601247072,-0.113665081146392,-151.502266328219,-75.637468082963,151.445433787646,-75.8079657046826
0.129431082777939,255.25238849344,0.0115694788955038,-255.240819014544,-127.631978986168,255.246603753992,-127.614624767824
0.13136288998358,369.855998450146,0.0983276955192084,-369.757670754627,-184.977163072833,369.806834602387,-184.829671529554
0.133294697189221,486.530945414242,0.150627857597193,-486.380317556644,-243.340786635919,486.455631485443,-243.114844849524
0.135226504394861,595.183184443193,0.176409805833859,-595.00677463736,-297.679797124514,595.094979540276,-297.415182415763
0.137158311600502,685.536942422687,0.18426191006022,-685.352680512627,-342.860602166373,685.444811467657,-342.584209301283
0.139090118806143,748.390862269786,0.181632204206072,-748.20923006558,-374.286247236996,748.300046167683,-374.013798930687
0.141021926011784,776.864711262972,0.174106809661431,-776.690604453311,-388.519409036317,776.777657858142,-388.258248821825
0.142953733217425,767.519325177916,0.165360587377765,-767.353964590538,-383.842342882647,767.436644884227,-383.59430200158
0.144885540423066,721.070613955803,0.157463837593688,-720.913150118209,-360.614038896698,720.991882037006,-360.377843140308
0.146817347628707,642.430081383689,0.151323336056803,-642.278758047632,-321.290702359873,642.354419715661,-321.063717355788
0.148749154834348,540.116358969401,0.147121958514651,-539.969237010886,-270.131740463958,540.042797990143,-269.911057526186
0.150680962039988,425.19898382243,0.14468747468913,-425.054296347741,-212.671835648559,425.126640085085,-212.454804436526
0.152612769245629,309.766488957105,0.143765188170016,-309.622723768935,-154.955127072637,309.69460636302,-154.739479290382
0.15454457645127,205.045553156537,0.14419321163276,-204.901359944904,-102.594873184085,204.97345655072,-102.378583366636
0.156476383656911,119.549532232093,0.145987799582476,-119.403544432511,-59.8477600158379,119.476538332302,-59.6287783164642
0.158408190862552,57.7173613214551,0.149344510222257,-57.5680168112328,-28.9333529158387,57.6426890663439,-28.7093361505053
0.160339998068193,19.4994777855676,0.154554223731611,-19.344923561836,-9.8270160046496,19.4222006737018,-9.59518466905219
0.162271805273834,1.08924859893096,0.161826273069422,-0.927422325861543,-0.625537436000193,1.00833546239625,-0.382798026396061
0.164203612479475,-3.52234371065299,0.171009268724855,3.69335297937785,1.67566722096407,-3.60784834501542,1.93218112405135
0.166135419685115,-0.849155635889588,0.181208979036976,1.03036461492656,0.333973328426306,-0.939760125408076,0.60578679698177
0.168067226890756,3.4045560164534,0.190327335055982,-3.21422868139742,-1.79744167575469,3.30939234892541,-1.51195067317072
0.169999034096397,5.12401378054898,0.194592128245552,-4.92942165230343,-2.65930295439726,5.0267177164262,-2.36741476202894
0.171930841302038,2.11402502717931,0.188215914064776,-1.92580911311453,-1.15112047062204,2.01991707014692,-0.868796599524879
0.173862648507679,-5.88657467702541,0.163412767853829,6.04998744487924,2.86158095458579,-5.96828106095232,3.10670010636653
0.17579445571332,-17.5033698783203,0.11110185875772,17.614471737078,8.6961340097813,-17.5589208076992,8.86278679791788
0.177726262918961,-30.4324450542928,0.0227128748854474,30.4551579291783,15.2048660897037,-30.4438014917356,15.2389354020319
0.179658070124602,-42.4473918080317,-0.106462450497587,42.3409293575342,21.2769271292647,-42.3941605827829,21.1172334535183
0.181589877330242,-52.2588946944156,-0.272020036785761,51.9868746576298,26.2654573656007,-52.1228846760227,25.857427310422
0.183521684535883,-59.7800914600703,-0.4532384308409,59.3268530292294,30.1166649454556,-59.5534722446498,29.4368072991942
0.185453491741524,-65.7387372485683,-0.604461149543784,65.1342760990245,33.1715991990561,-65.4365066737964,32.2649074747404
0.187385298947165,-70.9696883913521,-0.663977827731673,70.3057105636204,35.8168331095419,-70.6376994774862,34.8208663679444
0.189317106152806,-75.8615734439417,-0.60002849628867,75.261544947653,38.2308009701152,-75.5615591957973,37.3307582256822
0.191248913358447,-80.2279749373029,-0.443437717368627,79.7845372199343,40.3357063273358,-80.0062560786186,39.6705497512828
0.193180720564088,-83.551427542109,-0.255219860871208,83.2962076812378,41.9033237014901,-83.4238176116734,41.5204939101833
0.195112527769729,-85.3923930142498,-0.080857839617537,85.3115351746323,42.7366254269337,-85.351964094441,42.6153386675074
0.197044334975369,-85.7154107786919,0.0582232211363727,85.7736339998283,42.8285937787778,-85.7445223892601,42.9159286104823
0.19897614218101,-84.9530639408334,0.155616160910346,85.1086801017437,42.3987238899615,-85.0308720212885,42.632148131327
0.200907949386651,-83.859343279437,0.212294390454993,84.071637669892,41.823524444491,-83.9654904746645,42.1419660301735
0.202839756592292,-83.2727604548426,0.23105058757639,83.503811042419,41.5208549336331,-83.3882857486308,41.8674308149977
0.204771563797933,-83.7732233555878,0.213180837852064,83.9864041934399,41.7800212588679,-83.8798137745139,42.099792515646
0.206703371003574,-85.3726124321038,0.157389187947857,85.5300016200517,42.607611622078,-85.4513070260778,42.8436954039998
0.208635178209215,-87.4966611453376,0.0608830690283472,87.5575442143659,43.7178890381546,-87.5271026798518,43.8092136416971
0.210566985414856,-89.2408136044947,-0.0773108735041994,89.1635027309905,44.6590622389994,-89.2021581677426,44.5430959287431
0.212498792620496,-89.8007460859254,-0.250785516345182,89.5499605695803,45.0257658011353,-89.6753533277528,44.6495875266175
0.214430599826137,-88.9378427057816,-0.43811591746067,88.499726788321,44.6879793116212,-88.7187847470513,44.0308054354302
0.216362407031778,-87.1241994809244,-0.5938195536563,86.5303799272681,43.8590095172904,-86.8272897040963,42.9682801868059
0.218294214237419,-85.2184409059061,-0.656882705867721,84.5615582000383,42.9376618058869,-84.8899995529722,41.9523377470853
0.22022602144306,-83.9366895991879,-0.596481748508569,83.3402078506793,42.2665856738482,-83.6384487249336,41.3718630510854
0.222157828648701,-83.4562085211502,-0.444377828858204,83.011830692292,41.9502931750042,-83.2340196067211,41.2837264317169
0.224089635854342,-83.3703089530485,-0.262282567164293,83.1080263858842,41.8162957601064,-83.2391676694664,41.42287190936
0.226021443059983,-83.0036335298015,-0.0958534325732392,82.9077800972282,41.5497434811873,-82.9557068135148,41.4059633323275
0.227953250265623,-81.8548741687484,0.0341879899096599,81.8890621586581,40.9103430894194,-81.8719681637032,40.9616250742839
0.229885057471264,-79.8746048604309,0.123439199023839,79.9980440594547,39.8755828307035,-79.9363244599428,40.0607416292393
0.231816864676905,-77.4043408960134,0.176612854244745,77.5809537502582,38.6138640208843,-77.4926473231358,38.8787833022515
0.233748671882546,-74.8342519605551,0.202287686719454,75.0365396472745,37.3159821369178,-74.9353958039148,37.619413666997
0.235680479088187,-72.2868048633295,0.209557998202339,72.4963628615318,36.0386234325636,-72.3915838624306,36.3529604298671
0.237612286293828,-69.6124094340344,0.206228552360041,69.8186379863945,34.7030904408372,-69.7155237102145,35.0124332693773
0.239544093499469,-66.6555027782602,0.198109828886675,66.8536126071468,33.2286964746867,-66.7545576927035,33.5258612180168
0.24147590070511,-63.493328294012,0.188997581876459,63.6823258758885,31.6521653560678,-63.5878270849503,31.9356617288825
0.243407707910751,-60.3858755113283,0.181006573969373,60.5668820852976,30.1024344686794,-60.476378798313,30.3739443296335
0.245339515116391,-57.4693707848822,0.175028796635362,57.6443995815175,28.6471709941234,-57.5568851831998,28.9097141890764
0.247271322322032,-54.5559405142657,0.171177201399166,54.7271177156649,27.1923816564333,-54.6415291149653,27.449147458532
0.249203129527673,-51.2657633132546,0.16914619945018,51.4349095127048,25.5483085569022,-51.3503364129797,25.8020278560775
0.251134936733314,-47.3058591776043,0.16846792425667,47.4743271018609,23.5686956266738,-47.3900931397326,23.8213975130588
0.253066743938955,-42.6799034194559,0.168671304610162,42.848574724066,21.2556160574229,-42.764239071761,21.5086230143381
0.254998551144596,-37.7329749250277,0.169364167175774,37.9023390922035,18.781805378926,-37.8176570086156,19.0358516296896
0.256930358350237,-32.9596896241842,0.17026188144658,33.1299515056308,16.3947138713688,-33.0448205649075,16.6501066935387
0.258862165555878,-28.6681175828316,0.171183726960974,28.8393013097925,14.2484669279353,-28.7537094463121,14.5052425183768
0.260793972761518,-24.763022917021,0.172033341901954,24.935056258923,12.2954947875595,-24.849039587972,12.5535448004125
0.262725779967159,-20.8482362196788,0.17277433710567,21.0210105567845,10.3377309412866,-20.9346233882317,10.5968924469451
0.2646575871728,-16.5799148389338,0.173407549990858,16.7533223889247,8.20325364447147,-16.6666186139292,8.46336496945776
0.266589394378441,-11.9834682602971,0.173952930677091,12.1574211909742,5.90475766480999,-12.0704447256356,6.16568706082562
0.268521201584082,-7.51494553710061,0.174436744940197,7.68938228204081,3.67025439608021,-7.60216390957071,3.9319095134905
0.270453008789723,-3.88033928537494,0.174883475094828,4.05522276046977,1.85272790514006,-3.96778102292235,2.1150531177823
0.272384815995364,-1.75058090259551,0.175311250251361,1.92589215284687,0.787634826172074,-1.83823652772119,1.05060170154912
0.274316623201005,-1.48259900650841,0.175729596298793,1.6583286028072,0.65343470510481,-1.57046380465781,0.917029099552999
0.276248430406645,-2.90641642452727,0.176138564051016,3.08255498857829,1.36513893023813,-2.99448570655278,1.62934677631465
0.278180237612286,-5.27085929192625,0.176528728296571,5.44738802022282,2.54716528181484,-5.35912365607453,2.81195837425969
0.280112044817927,-7.46405159726146,0.176882054958442,7.64093365221991,3.64358477115151,-7.55249262474069,3.90890785358917
0.282043852023568,-8.45565326266336,0.177174138203958,8.63282740086732,4.1392395622297,-8.54424033176534,4.40500076953564
0.283975659229209,-7.67602131856917,0.177378744300916,7.85340006287009,3.74932128713413,-7.76471069071963,4.0153894035855
0.28590746643485,-5.0627622463187,0.177475868682967,5.24023811500166,2.44264318881786,-5.15150018066018,2.70885699184232
0.287839273640491,-0.840005188113746,0.17746447477607,1.01746966288982,0.331270356668838,-0.928737425501782,0.597467068832943
0.289771080846132,4.64423635926456,0.177380539074537,-4.46685582019002,-2.41080844916955,4.55554608972729,-2.14473764055774
0.291702888051772,10.9245086116334,0.177319732066773,-10.7471888795666,-5.55091417185009,10.8358487456,-5.28493457374993
0.293634695257413,17.4615570003242,0.17746176900424,-17.28409523132,-8.81950938466422,17.3728261158221,-8.55331673115786
0.295566502463054,23.8000564253985,0.178089996925345,-23.6219664284732,-11.9890732111619,23.7110114269358,-11.7219382157739
0.297498309668695,29.7257078758266,0.179595189844168,-29.5461126859824,-14.9526515328354,29.6359102809045,-14.6832587480691
0.299430116874336,35.2848392959251,0.182447259645943,-35.1023920362791,-17.7336432777855,35.1936156661021,-17.4599723883166
0.301361924079977,40.6257752698045,0.187113768269868,-40.4386615015346,-20.4064445190372,40.5322183856696,-20.1257738666324
0.303293731285618,45.8221940753176,0.193901769585461,-45.6282923057321,-23.0080479224515,45.7252431905248,-22.7171952680733
0.305225538491259,50.903140615003,0.202702742371925,-50.7004378726311,-25.5529216786875,50.801789243817,-25.2488675651296
0.307157345696899,56.0321362778509,0.212633435317303,-55.8195028425336,-28.1223848565841,55.9258195601922,-27.8034347036081
0.30908915290254,61.5135994290587,0.221593322840859,-61.2920061062179,-30.8675963759498,61.4028027676383,-30.5352063916885
0.311020960108181,67.5127054764156,0.225806868602977,-67.2868986078127,-33.8692561725093,67.3998020421142,-33.5305458696048
0.312952767313822,73.7434136277989,0.219488741540736,-73.5239248862582,-36.9814511846698,73.6336692570285,-36.6522180723587
0.314884574519463,79.4581366349175,0.194860565044171,-79.2632760698733,-39.8264985999808,79.3607063523954,-39.5342077524146
0.316816381725104,83.8079113460535,0.142848044702984,-83.6650633013505,-41.9753796953782,83.736487323702,-41.7611076283238
0.318748188930745,86.2534344920929,0.0548733382662056,-86.1985611538267,-43.1541539151796,86.2259978229598,-43.0718439077802
0.320679996136386,86.7284290513604,-0.0738129271753586,-86.8022419785357,-43.3273080620925,86.7653355149481,-43.4380274528556
0.322611803342026,85.5794545942936,-0.238906098518882,-85.8183606928125,-42.6702742478874,85.6989076435531,-43.0286333956657
0.324543610547667,83.3752835829739,-0.419869112078263,-83.7951526950522,-41.4777072354478,83.585218139013,-42.1075109035652
0.326475417753308,80.6781067902857,-0.571336631982353,-81.2494434222681,-40.0533850791517,80.9637751062769,-40.9103900271252
0.328407224958949,77.9620143131712,-0.632001765852098,-78.5940160790233,-38.6650062736596,78.2780151960973,-39.6130089224377
0.33033903216459,75.7195575036688,-0.570592874422492,-76.2901503780912,-37.5744823146231,76.00485394088,-38.4303716262569
0.332270839370231,74.5860182672354,-0.418425331508417,-75.0044435987438,-37.0837964678635,74.7952309329896,-37.7114344651261
0.334202646575872,75.3613933552865,-0.236845033985137,-75.5982383892717,-37.5622741606507,75.4798158722791,-37.9175417116284
0.336134453781513,78.8061062798553,-0.0712445625772902,-78.8773508424326,-39.367430858639,78.841728561144,-39.474297702505
0.338066260987153,85.1383727826528,0.0578348001102538,-85.0805379825425,-42.5981037913815,85.1094553825976,-42.5113515912161
0.339998068192794,93.5926479898344,0.146123807087592,-93.4465241827468,-46.869385898461,93.5195860862906,-46.6502001878296
0.341929875398435,102.513911386019,0.198468363331183,-102.315443022688,-51.3561898746751,102.414677204353,-51.0584873296783
0.343861682604076,109.958050277947,0.223627485765861,-109.734422792181,-55.0908388818565,109.846236535064,-54.7553976532077
0.345793489809717,114.416384416523,0.230960369256977,-114.185424047266,-57.32367239289,114.300904231894,-56.9772318390045
0.347725297015358,115.380736517678,0.228637575250359,-115.152098942428,-57.8046870464641,115.266417730053,-57.4617306835886
0.349657104220999,113.499246309632,0.222915566442025,-113.27633074319,-56.8610809380368,113.387788526411,-56.5267075883738
0.35158891142664,110.032682761934,0.218038530797737,-109.814644231136,-55.1253606463658,109.923663496535,-54.7983028501692
0.353520718632281,105.874440576912,0.216415105752099,-105.65802547116,-53.0454278413323,105.766233024036,-52.7208051827041
0.355452525837921,101.040698287587,0.218821117147358,-100.821877170439,-50.629759702367,100.931287729013,-50.3015280266459
0.357384333043562,95.0350325114203,0.22448294574353,-94.8105495656768,-47.6297577285819,94.9227910385486,-47.2930333099666
0.359316140249203,87.4460458865668,0.230993961579086,-87.2150519249877,-43.8385199240729,87.3305489057772,-43.4920289817043
0.361247947454844,78.1389610988677,0.234111467953549,-77.9048496309141,-39.1865362834106,78.0219053648909,-38.8353690814803
0.363179754660485,67.1437831521442,0.227579440360742,-66.9162037117834,-33.6856812962524,67.0299934319638,-33.3443121357113
0.365111561866126,54.5998847980412,0.203225882259426,-54.3966589157818,-27.4015553401503,54.4982718569115,-27.0967165167612
0.367043369071767,40.9661409561321,0.151687194732922,-40.8144537613991,-20.5589140754325,40.8902973587656,-20.3313832833331
0.368975176277408,27.3585003160365,0.0641957424325893,-27.2943045736039,-13.7113480292345,27.3264024448202,-13.6150544155857
0.370906983483048,15.5058759273144,-0.0641083067024263,-15.5699842340169,-7.720883810306,15.5379300806656,-7.81704627035964
0.372838790688689,7.08874807842,-0.228975349778257,-7.31772342819825,-3.42988636432087,7.20323575330912,-3.77334938898826
0.37477059789433,2.87546023356686,-0.409888378258152,-3.28534861182501,-1.23278592765435,3.08040442269593,-1.84761849504158
0.376702405099971,2.27333648584488,-0.561480058389896,-2.83481654423478,-0.855928213727492,2.55407651503983,-1.69814830131234
0.378634212305612,3.52974569338363,-0.622423251612214,-4.15216894499585,-1.45366122088571,3.84095731918974,-2.38729609830403
0.380566019511253,4.36538285992049,-0.561402451612403,-4.92678531153289,-1.90199020415404,4.64608408572669,-2.74409388157265
0.382497826716894,2.74895534822798,-0.409652364798477,-3.15860771302646,-1.16965149171475,2.95378153062722,-1.78413003891247
0.384429633922535,-2.45325632982713,-0.22838346519814,2.22487286462899,1.34081989751263,-2.33906459722806,0.998244699715424
0.386361441128175,-11.2285616819495,-0.0627807450459103,11.1657809369036,5.6456712134977,-11.1971713094265,5.55150009592883
0.388293248333816,-22.6195285887197,0.0669027152877308,22.6864313040075,11.276312936716,-22.6529799463636,11.3766670096476
0.390225055539457,-35.1775159570077,0.156753805404958,35.3342697624127,17.5103810758014,-35.2558928597102,17.7455117839088
0.392156862745098,-47.4782933499916,0.211992791361392,47.690286141353,23.6331502793151,-47.5842897456723,23.9511394663572
0.394088669950739,-58.5875871655594,0.241666259717835,58.8292534252772,29.1729604529208,-58.7084202954183,29.5354598424975
0.39602047715638,-68.2607295676204,0.255156783512787,68.5158863511331,34.0027863920538,-68.3883079593767,34.385521567323
0.397952284362021,-76.6781935277947,0.260135118168091,76.9383286459628,38.2090292048133,-76.8082610868787,38.5992318820654
0.399884091567662,-83.9676164865131,0.261503288125137,84.2291197746382,41.853056599194,-84.0983681305756,42.2453115313817
0.401815898773302,-90.0254562919563,0.260934373423566,90.2863906653799,44.8822609592664,-90.1559234786681,45.2736625194017
0.403747705978943,-94.7077494348181,0.256748387836041,94.9644978226542,47.225500523491,-94.8361236287361,47.6106231052451
0.405679513184584,-98.0231178818441,0.244033969870867,98.267151851715,48.8895419559866,-98.1451348667795,49.2555929107929
0.407611320390225,-100.13721073018,0.215106656671069,100.352317386851,49.9610520367543,-100.244764058515,50.2837120217609
0.409543127595866,-101.292206769352,0.16056495913349,101.452771728485,50.5658209051091,-101.372489248918,50.8066683438093
0.411474934801507,-101.756876571835,0.0713392433869284,101.828215815222,50.8427686642242,-101.792546193529,50.9497775293046
0.413406742007148,-101.830194333865,-0.0578139085762636,101.772380425288,50.9440041212205,-101.801287379577,50.8572832583561
0.415338549212789,-101.883044796913,-0.222996517440473,101.660048279472,51.0530206571767,-101.771546538193,50.718525881016
0.417270356418429,-102.34977900263,-0.403949398668112,101.945829603962,51.3768642006492,-102.147804303296,50.770940102647
0.41920216362407,-103.561921230485,-0.555441589957784,103.006479640527,52.0586814102212,-103.284200435506,51.2255190252845
0.421133970829711,-105.492923745423,-0.616153835451829,104.876769909972,53.0545387904376,-105.184846827697,52.1303080372598
0.423065778035352,-107.596615585279,-0.554656120255468,107.041959465024,54.0756358527672,-107.319287525151,53.243651672384
0.424997585240993,-108.88645074688,-0.4019647865343,108.484485960346,54.6442077667073,-108.685468353613,54.0412605869059
0.426929392446634,-108.283461206181,-0.219004835131542,108.064456371049,54.2512330206563,-108.173958788615,53.922725767959
0.428861199652275,-105.118595611538,-0.050674586209715,105.067921025328,52.5846350988739,-105.093258318433,52.5086232195593
0.430793006857916,-99.5872337266764,0.0829520816144336,99.6701858082908,49.752140822531,-99.6287097674836,49.8765689449526
0.432724814063556,-92.8801034399217,0.1778704253307,93.0579738652524,46.3511165072955,-92.9690386525871,46.6179221452916
0.434656621269197,-86.8351174168709,0.238716581638598,87.0738339985095,43.2982004176161,-86.9544757076902,43.656275290074
0.436588428474838,-83.212827804238,0.273194729607343,83.4860225338454,41.4698165373153,-83.3494251690417,41.8796086317263
0.438520235680479,-82.9372922750149,0.288320870719233,83.2256131457341,41.3244857021478,-83.0814527103745,41.7569670082267
0.44045204288612,-85.8411603556972,0.288196243251169,86.1293565989483,42.776482056223,-85.9852584773228,43.2087764210998
0.442383850091761,-91.0638634737512,0.273000754451164,91.3368642282023,45.39543135965,-91.2003638509768,45.8049324913267
0.444315657297402,-97.5574765429125,0.239013518348363,97.7964900612609,48.6592315122821,-97.6769833020867,49.0177517898046
0.446247464503043,-104.276864810936,0.179649421718046,104.456514232654,52.0486076946088,-104.366689521795,52.3180818271858
0.448179271708683,-110.175648452483,0.0876817533811922,110.263330205865,55.0439833495511,-110.219489329174,55.1755059796229
0.450111078914324,-114.258887767989,-0.0410638695346533,114.217823898454,57.1499758187618,-114.238355833222,57.0883800144598
0.452042886119965,-115.784724346059,-0.202281973226928,115.582442372832,57.9935031596432,-115.683583359446,57.6900801998028
0.453974693325606,-114.489668271352,-0.376007722775963,114.113660548576,57.432837997064,-114.301664409964,56.8688264129001
0.455906500531247,-110.662085008174,-0.518220884397087,110.143864123777,55.5901529462856,-110.402974565976,54.81282161969
0.457838307736888,-105.006387806336,-0.57009263811521,104.436295168221,52.7882402222258,-104.721341487279,51.933101265053
0.459770114942529,-98.408680671326,-0.50439158682631,97.9042890844996,49.4565361290761,-98.1564848779128,48.6999487488367
0.46170192214817,-91.8513290675683,-0.358375322111009,91.4929537454572,46.1048521948396,-91.6721414065128,45.5672892116731
0.463633729353811,-86.4642069605872,-0.201240485360356,86.2629664752269,43.3327237229738,-86.3635867179071,43.0308629949333
0.465565536559451,-83.3417042971839,-0.087473501412817,83.2542307957711,41.7145888992984,-83.2979675464775,41.5833786471791
0.467497343765092,-82.9990057413223,-0.0461949238073026,82.952810817515,41.5226003325648,-82.9759082794186,41.4533079468538
0.469429150970733,-84.8966224305777,-0.0864418574831065,84.8101805730946,42.4915321440304,-84.8534015018362,42.3618693578058
0.471360958176374,-87.544538317321,-0.199133439659556,87.3454048776615,43.8718358784903,-87.4449715974912,43.573135719001
0.473292765382015,-89.1603409926938,-0.355125191892642,88.8052158008011,44.7577330922932,-88.9827783967474,44.2250453044542
0.475224572587656,-88.4528820288248,-0.499948120872522,87.9529339079522,44.4764150748486,-88.2029079683885,43.7264928935399
0.477156379793297,-85.21888883002,-0.564488079803863,84.6544007502162,42.891688454912,-84.9366447901181,42.0449563352062
0.479088186998938,-80.4890610584402,-0.511658973273738,79.9774020851665,40.500360015857,-80.2332315718034,39.7328715559464
0.481019994204578,-76.0381127368397,-0.368971199982955,75.6691415368567,38.2035419684113,-75.8536271368482,37.6500851684369
0.482951801410219,-73.5153675271031,-0.195642639923164,73.3197248871799,36.8555050835131,-73.4175462071415,36.5620411236284
0.48488360861586,-73.6862182387816,-0.0361632526600008,73.6500549861216,36.8611907457208,-73.6681366124516,36.8069458667308
0.486815415821501,-76.1035936967832,0.0890340458561056,76.1926277426393,38.0072798254635,-76.1481107197112,38.1408308942477
0.488747223027142,-79.3181808804705,0.17533600166737,79.4935168821378,39.5714224394015,-79.4058488813042,39.8344264419026
0.490679030232783,-81.5053059769736,0.22702476812746,81.7323307451011,40.6391406044231,-81.6188183610374,40.9796777566143
0.492610837438424,-81.1484954693396,0.252209433976867,81.4007049033164,40.4481430176813,-81.274600186328,40.8264571686466
0.494542644644065,-77.508358346173,0.259574308117781,77.7679326542907,38.6243920190276,-77.6381455002319,39.0137534812043
0.496474451849705,-70.874679560826,0.256613522263884,71.1312930830899,35.3090330192811,-71.002986321958,35.6939533026769
0.498406259055346,-62.5988828913049,0.24892866908076,62.8478115603857,31.1749771111121,-62.7233472258453,31.5483701147332
0.500338066260987,-54.7847484839537,0.240191013851529,55.0249394978052,27.2722787350511,-54.9048439908794,27.6325652558284
0.502269873466628,-49.5902959781033,0.232450750103704,49.822746728207,24.6789226139998,-49.7065213531551,25.0275987391553
0.504201680672269,-48.3795005237624,0.226571689581459,48.6060722133438,24.0764644170905,-48.4927863685531,24.4163219514626
0.50613348787791,-51.1393182528461,0.2226570401267,51.3619752929728,25.4583306063597,-51.2506467729094,25.7923161665497
0.508065295083551,-56.4555546041601,0.220399859560171,56.6759544637203,28.1175773723,-56.5657545339402,28.4481771616402
0.509997102289192,-62.0840595951809,0.219338141096936,62.3033977362779,30.932360727042,-62.1937286657294,31.2613679386874
0.511928909494832,-65.8270531574581,0.21902170225089,66.046074859709,32.8040157276036,-65.9365640085835,33.1325482809799
0.513860716700473,-66.268110552106,0.219110446464268,66.4872209985703,33.0245000528209,-66.3776657753381,33.3531657225173
0.515792523906114,-63.1310042268901,0.219425667241386,63.3504298941315,31.4557892798244,-63.2407170605108,31.7849277806864
0.517724331111755,-57.3285730053979,0.219971692356585,57.5485446977545,28.5543006565207,-57.4385588515762,28.8842581950555
0.519656138317396,-50.8022905436898,0.220937172097456,51.0232277157873,25.2906766857962,-50.9127591297385,25.6220824439424
0.521587945523037,-46.0548761392094,0.222675712993195,46.2775518522026,22.9161002131081,-46.166213995706,23.2501137825979
0.523519752728678,-45.2842588150409,0.225655894658426,45.5099147096993,22.5293014601912,-45.3970867623701,22.8677853021789
0.525451559934319,-49.4111581074393,0.230362549332583,49.6415206567719,24.5903977790534,-49.5263393821056,24.9359416030522
0.527383367139959,-57.5923309479993,0.237126605064737,57.829457553064,28.6776021714673,-57.7108942505317,29.0332920790644
0.5293151743456,-67.5517578269775,0.245862755355573,67.7976205823331,33.652947535811,-67.6746892046553,34.0217416688443
0.531246981551241,-76.5036669704945,0.255706710013675,76.7593736805082,38.1239801302404,-76.6315203255014,38.5075401952609
0.533178788756882,-82.1687051733758,0.264571549111787,82.4332767224876,40.952066812132,-82.3009909479317,41.3489241357997
0.535110595962523,-83.4272158824366,0.268690341521149,83.6959062239577,41.5792627704577,-83.5615610531972,41.9822982827394
0.537042403168164,-80.3480040154161,0.262282383620276,80.6102863990364,40.0428608158979,-80.4791452072263,40.4362843913283
0.538974210373805,-73.7073462220841,0.23757110737698,73.944917329461,36.7348875573535,-73.8261317757726,37.091244218419
0.540906017579446,-64.4657244061846,0.185482192873962,64.6512065990585,32.1401211066553,-64.5584655026215,32.4183443959662
0.542837824785086,-53.6485561663928,0.0974366061538164,53.7459927725466,26.7755597801195,-53.6972744694697,26.9217146893502
0.544769631990727,-42.5984192980584,-0.0313170581009563,42.5671022399574,21.3148681780797,-42.5827607690079,21.2678925909282
0.546701439196368,-33.0955981725371,-0.19647698202083,32.8991211905162,16.6460375772789,-32.9973596815266,16.3513221042477
0.548633246402009,-26.9701006717496,-0.377509875447055,26.5925907963026,13.6738052735983,-26.7813457340261,13.1075404604277
0.55056505360765,-25.4149364738581,-0.529055256138982,24.8858812177191,12.9719958649986,-25.1504088457886,12.1784129807901
0.552496860813291,-28.5673480402507,-0.589812092897931,27.9775359473528,14.5785800665743,-28.2724419938018,13.6938619272274
0.554428668018932,-35.6198621053504,-0.528515054718678,35.0913470506317,18.0741885800345,-35.3556045779911,17.2814159979565
0.556360475224573,-45.1707299470561,-0.37648491115044,44.7942450359057,22.7736074291033,-44.9824874914809,22.2088800623776
0.558292282430213,-55.4979253154632,-0.195069579162146,55.302855736301,27.8464974473127,-55.4003905258821,27.5538930785695
0.560224089635854,-64.8428470894984,-0.029656509515238,64.8131905799831,32.4362517995068,-64.8280188347408,32.391767035234
0.562155896841495,-71.7903408113502,0.0992303434335985,71.8895711547838,35.8455552339583,-71.839955983067,35.9944007491087
0.564087704047136,-75.5343346174067,0.187357085030018,75.7216917024367,37.6734887661883,-75.6280131599217,37.9545243937334
0.566019511252777,-75.9077439448561,0.239628377584202,76.1473723224403,37.8340577836359,-76.0275581336482,38.1935003500122
0.567951318458418,-73.256113324969,0.264888105264708,73.5210014302337,36.4956126098522,-73.3885573776014,36.8929447677492
0.569883125664059,-68.2565334934383,0.272603012952915,68.5291365063912,33.9919652402427,-68.3928349999148,34.4008697596721
0.5718149328697,-61.7737689009806,0.271059640335265,62.0448285413159,30.7513546303227,-61.9092987211482,31.1579440908256
0.573746740075341,-54.7556111587404,0.266608224944899,55.0222193836853,27.2445014668978,-54.8889152712129,27.6444138043151
0.575678547280981,-48.1224332716015,0.263512149736278,48.3859454213378,23.9294605609326,-48.2541893464696,24.324728785537
0.577610354486622,-42.6883391782027,0.264047321920511,42.9523865001232,21.2121459281411,-42.8203628391629,21.6082169110219
0.579542161692263,-39.1168220118665,0.268604630752451,39.385426642619,19.424108690557,-39.2511243272428,19.8270156366857
0.581473968897904,-37.831588210256,0.275661710742945,38.1072499209989,18.7779632497565,-37.9694190656274,19.1914558158709
0.583405776103545,-38.917892401629,0.281602887126084,39.1994952887551,19.3181447572515,-39.058693845192,19.7405490879406
0.585337583309186,-42.0637692460589,0.280481292928614,42.3442505389876,20.8916439765652,-42.2040098925232,21.3123659159581
0.587269390514827,-46.5039160251853,0.263938715868393,46.7678547410537,23.1199886546584,-46.6358853831195,23.515896728461
0.589201197720468,-51.0557943829252,0.221625138298521,51.2774195212237,25.4170846223133,-51.1666069520744,25.7495223297611
0.591133004926108,-54.3596129007336,0.142577080944016,54.5021899816776,27.1085179098948,-54.4309014412056,27.3223835313108
0.593064812131749,-55.2929299357134,0.0180885542372842,55.3110184899507,27.6374206907381,-55.301974212832,27.664553522094
0.59499661933739,-53.3945906638325,-0.1534169714405,53.241173692392,26.7740038176365,-53.3178821781122,26.5438783604758
0.596928426543031,-48.9971361672268,-0.359214633352041,48.6379215338748,24.6781754002894,-48.8175288505508,24.1393534502614
0.598860233748672,-42.9843012238503,-0.563006389697753,42.4212948341525,21.773653806774,-42.7027980290014,20.9291442222274
0.600792040954313,-36.4425878837133,-0.712031785456141,35.7305560982572,18.5773098345847,-36.0865719909852,17.5092621564005
0.602723848159954,-30.3966404426344,-0.779724117218205,29.6169163254162,15.5881822799263,-30.0067783840253,14.418596104099
0.604655655365595,-25.6293823625912,-0.793044290012083,24.8363380725791,13.2112133263017,-25.2328602175852,12.0216468912835
0.606587462571235,-22.6053554848755,-0.792752098840759,21.8126033860347,11.6990537918581,-22.2089794354551,10.509925643597
0.608519269776876,-21.4731495073185,-0.778833774937203,20.6943157323813,11.1259916411279,-21.0837326198499,9.95774097872205
0.610451076982517,-22.0508327443789,-0.710501557425936,21.3403311869529,11.3806671509024,-21.6955819656659,10.3149148147635
0.612382884188158,-23.8038924552496,-0.560766092007755,23.2431263632419,12.1823292736287,-23.5235094092458,11.3411801356171
0.614314691393799,-25.8964700830476,-0.356167491206585,25.540302591841,13.1263187871271,-25.7183863374443,12.5920675503172
0.61624649859944,-27.3442648008093,-0.14944774205036,27.1948170587589,13.7468562714298,-27.2695409297841,13.5226846583543
0.618178305805081,-27.2410016299501,0.0230940100752887,27.2640956400254,13.6089538099374,-27.2525486349878,13.6435948250503
0.620110113010722,-24.9836931159864,0.148695005156339,25.1323881211427,12.417499055415,-25.0580406185646,12.6405415631495
0.622041920216362,-20.4696766628957,0.228834845207002,20.6985115081027,10.1204209088444,-20.5840940854992,10.4636731766549
0.623973727422003,-14.1875102919618,0.272039367999335,14.4595496599611,6.95773546198124,-14.3235299759615,7.36579451398024
0.625905534627644,-6.99530576965486,0.288989024415651,7.28429479407051,3.35315837261961,-7.13980028186269,3.78664190924308
0.627837341833285,0.345453473285602,0.289643871580364,-0.0558096017052376,-0.317548672432983,0.20063153749542,0.116917134937563
0.629769149038926,7.51083590447513,0.281893055100254,-7.22894284937488,-3.89636447978769,7.369889376925,-3.47352489713731
0.631700956244567,14.5989754395511,0.271216063200843,-14.3277593763502,-7.43509575137595,14.4633674079506,-7.02827165657468
0.633632763450208,21.8120169100408,0.260920093280286,-21.5510968167605,-11.0364685016606,21.6815568634007,-10.6450883617401
0.635564570655849,29.1556515867935,0.252631833764787,-28.9030197530287,-14.7041417102791,29.0293356699111,-14.325193959632
0.637496377861489,36.4176170446538,0.246835410162391,-36.1707816344914,-18.3322262274081,36.2941993395726,-17.9619731121645
0.63942818506713,43.304026105615,0.243342097092478,-43.0606840085226,-21.7736841013538,43.1823550570688,-21.408670955715
0.641359992272771,49.4793611195098,0.241645234658303,-49.2377158848515,-24.8605031770841,49.3585385021807,-24.4980353250966
0.643291799478412,54.4209588057241,0.241156752232161,-54.179802053492,-27.3310577789781,54.300380429608,-26.9693226506299
0.645223606684053,57.2694236718798,0.241344597383529,-57.0280790744963,-28.7553841346317,57.1487513731881,-28.3933672385564
0.647155413889694,56.9541463722804,0.241799010293091,-56.7123473619873,-28.5979726912868,56.8332468671339,-28.2352741758471
0.649087221095335,52.5856541996305,0.242255269483423,-52.3433989301471,-26.413954734557,52.4645265648888,-26.0505718303318
0.651019028300976,43.899171099955,0.242595328614484,-43.6565757713405,-22.0708832142848,43.7778734356478,-21.706990221363
0.652950835506616,31.6082917746681,0.24284335619947,-31.3654484184686,-15.9255675654338,31.4868700965684,-15.5613025311346
0.654882642712257,17.5131095289872,0.243162082165262,-17.269947446822,-8.87813580557625,17.3915284879046,-8.51339268232835
0.656814449917898,4.09180616691526,0.243848722230104,-3.84795744468516,-2.16782744457268,3.96988180580021,-1.80205436122753
0.658746257123539,-6.47554957020589,0.245321375892976,6.72087094609886,3.11511409715645,-6.59821025815237,3.48309616099592
0.66067806432918,-13.2747538924616,0.248079518801879,13.5228334112635,6.51333718682986,-13.3987936518625,6.88545646503268
0.662609871534821,-16.9195936392381,0.252616372070298,17.1722100113084,8.33348863358389,-17.0459018252732,8.71241319168934
0.664541678740462,-19.0802883199776,0.259258241274415,19.339546561252,9.4105150393516,-19.2099174406148,9.79940240126323
0.666473485946103,-21.6273888690775,0.267909226124766,21.8952980952023,10.6797398214764,-21.7613434821399,11.0816036606635
0.668405293151743,-25.7130286858341,0.277693034121649,25.9907217199558,12.7176678258562,-25.8518752028949,13.1342073770387
0.670337100357384,-31.2589901196028,0.286511838881197,31.545501958484,15.4862391403608,-31.4022460390434,15.9160068986826
0.672268907563025,-37.2064616637522,0.290589926842285,37.4970515905945,18.457935868455,-37.3517566271734,18.8938207587184
0.674200714768666,-42.2958671667979,0.284140067434032,42.5800072342319,21.0058635496819,-42.4379372005149,21.432073650833
0.676132521974307,-45.8145341218774,0.259381150650422,46.0739152725278,22.7775764856135,-45.9442246972026,23.1666482115891
0.678064329179948,-47.9539145408962,0.207236009628106,48.1611505505243,23.873339265634,-48.0575325457102,24.1841932800762
0.679996136385589,-49.6460643702233,0.119124419352208,49.7651887895755,24.7634699754355,-49.7056265798994,24.9421566044638
0.68192794359123,-51.944617367084,-0.00970418543119239,51.9349131816529,25.9771607762576,-51.9397652743685,25.9626044981108
0.68385975079687,-55.4262901001651,-0.17494427356884,55.2513458265963,27.800617186867,-55.3388179633807,27.5382007765137
0.685791558002511,-60.168114135171,-0.356054741500048,59.812059393671,30.2620844383355,-59.990086764421,29.7280023260855
0.687723365208152,-66.1815520991262,-0.507661843044541,65.6738902560816,33.3446069710854,-65.9277211776039,32.5831142065186
0.689655172413793,-73.6036299951412,-0.568444858393549,73.0351851367477,37.0860374267674,-73.3194075659444,36.2333701391771
0.691586979619434,-82.3411974351318,-0.507112540468146,81.8340848946637,41.4241549878,-82.0876411648978,40.6634861770978
0.693518786825075,-91.6094612299197,-0.354955997471889,91.2545052324478,45.9822086136958,-91.4319832311838,45.449774617488
0.695450594030716,-99.9102361571495,-0.173295882921496,99.736940274228,50.0417660200355,-99.8235882156887,49.7818221956532
0.697382401236357,-105.547639789562,-0.00750602748991541,105.540133762072,52.7775729085258,-105.543886775817,52.7663138672909
0.699314208441998,-107.328529710098,0.121872144908436,107.450401855006,53.6033287825948,-107.389465782552,53.7861369999574
0.701246015647638,-104.994477027602,0.210532462563734,105.205009490166,52.3919722825192,-105.099743258884,52.7077709763648
0.703177822853279,-99.1924128480021,0.26322446737709,99.4556373153792,49.4645941903125,-99.3240250816906,49.8594308913781
0.70510963005892,-91.1215331797611,0.288526975742097,91.4100601555032,45.4165031020095,-91.2657966676322,45.8492935656227
0.707041437264561,-82.1467784349982,0.295515476027082,82.4422939110252,40.9256314794855,-82.2945361730117,41.3689046935262
0.708973244470202,-73.6043334502128,0.291969438056306,73.8963028882691,36.6561820060783,-73.750318169241,37.0941361631627
0.710905051675843,-66.7640317353684,0.283675074015009,67.0477068093834,33.2401783306767,-66.9058692723759,33.6656909416992
0.712836858881484,-62.752397418757,0.274408628846391,63.0268060476034,31.2389943949553,-62.8896017331802,31.6506073382249
0.714768666087125,-62.4366399349852,0.266271302395597,62.7029112373808,31.0851843162948,-62.569775586183,31.4845912698882
0.716700473292765,-66.3491887698738,0.260147176205369,66.6093359460791,33.0445207968342,-66.4792623579765,33.4347415611423
0.718632280498406,-74.5368925984221,0.256145953488025,74.7930385519102,37.140373322467,-74.6649655751661,37.5245922526991
0.720564087704047,-86.3454176469604,0.253962259661085,86.5993799066215,43.0457276936497,-86.472398776791,43.4266710831413
0.722495894909688,-100.405633911196,0.253130730884763,100.658764642081,50.0762515901555,-100.532199276638,50.4559476864826
0.724427702115329,-114.929339285844,0.253183972608275,115.182523258452,57.3380776566178,-115.055931272148,57.7178536155302
0.72635950932097,-128.154372051984,0.253733509019709,128.408105561004,63.9503192714822,-128.281238806494,64.3309195350117
0.728291316526611,-138.710078549244,0.254497072802916,138.964575622047,69.2277907382207,-138.837327085646,69.609536347425
0.730223123732252,-145.76275331607,0.255293258539718,146.018046574609,72.7537300287649,-145.890399945339,73.1366699165745
0.732154930937892,-148.908943667601,0.2560198328462,149.164963500447,74.3264619173774,-149.036953584024,74.7104916666467
0.734086738143533,-147.798885233091,0.25662691001592,148.055512143107,73.7711291615376,-147.927198688099,74.1560695265614
0.736018545349174,-141.52826934314,0.257091899963626,141.785361243103,70.635588721588,-141.656815293121,71.0212265715334
0.737950352554815,-128.034061691654,0.257400081967279,128.291461773621,63.8883308048433,-128.162761732637,64.2744309277942
0.739882159760456,-103.900577009491,0.257532875566887,104.158109885057,51.8215220669618,-104.029343447274,52.2078213803122
0.741813966966097,-64.8228359952544,0.257465120597796,65.0803011158522,32.2826854373283,-64.9515685555533,32.668883118225
0.743745774171738,-6.67704970214709,0.257172533992027,6.93422223613911,3.20993858407753,-6.8056359691431,3.59569738506557
0.745677581377379,72.9996403522275,0.256650474363926,-72.7429898778636,-36.6281454132957,72.8713151150455,-36.2431697017498
0.747609388583019,173.553494536168,0.255944638334165,-173.297549897834,-86.9047195872511,173.425522217001,-86.5208026297499
0.74954119578866,290.379068203027,0.255192711463423,-290.123875491563,-145.317130457245,290.251471847295,-144.93434139005
0.751473002994301,415.03639435857,0.254672686671047,-414.781721671899,-207.645533522621,414.909058015235,-207.263524492614
0.753404810199942,536.265136355573,0.254848053945509,-536.010288301628,-268.259992204759,536.1377123286,-267.877720123841
0.755336617405583,641.674881761483,0.256392199931377,-641.418489561552,-320.965636980707,641.546685661517,-320.58104868081
0.757268424611224,719.763316576329,0.260164630736115,-719.503151945593,-360.011740603533,719.633234260961,-359.621493657429
0.759200231816865,761.7739212109,0.267101623323329,-761.506819587576,-381.020511417112,761.640370399238,-380.619858982127
0.761132039022506,763.069327830275,0.277976768757818,-762.791351061517,-381.673652299516,762.930339445896,-381.25668714638
0.763063846228146,723.924703954204,0.292987757043224,-723.631716197161,-362.108845855623,723.778210075682,-361.669364220059
0.764995653433787,649.590801131886,0.311142043252125,-649.279659088634,-324.950971587569,649.43523011026,-324.484258522691
0.766927460639428,549.469384447034,0.329454966603307,-549.139929480431,-274.899419706819,549.304656963732,-274.405237256914
0.768859267845069,435.482962108557,0.342049268920747,-435.140912839636,-217.912505688739,435.311937474096,-217.399431785358
0.77079107505071,320.003592026406,0.339362412075695,-319.664229614331,-160.171477219241,319.833910820368,-159.662433601127
0.772722882256351,213.857916743779,0.307828493997156,-213.550088249782,-107.082872618888,213.704002496781,-106.621129877893
0.774654689461992,124.844743968518,0.230592285897422,-124.61415168262,-62.5376681272075,124.729447825569,-62.1917796983613
0.776586496667633,56.9385214649608,0.0899992177542652,-56.8485222472065,-28.5142603413575,56.8935218560836,-28.3792615147261
0.778518303873273,10.288194060907,-0.127279293860214,-10.4154733547672,-5.08045738352339,10.3518337078371,-5.27137632431371
0.780450111078914,-17.8846056186692,-0.421686778276488,17.4629188403928,9.15314619847287,-17.673762229531,8.52061603105814
0.782381918284555,-31.8978569014803,-0.768375705828436,31.1294811956519,16.3331163036544,-31.5136690485661,15.1805527449117
0.784313725490196,-36.4467744435624,-1.10143075974564,35.3453436838167,18.774102601654,-35.8960590636895,17.1219564620355
0.786245532695837,-35.8849828756452,-1.31415722193033,34.5708256537149,18.5995700487878,-35.22790426468,16.6283342158923
0.788177339901478,-33.8325468941273,-1.3139428795984,32.5186040145289,17.5732448868628,-33.1755754543281,15.6023305674652
0.790109147107119,-33.0525541360887,-1.10078717274188,31.9517669633468,17.0766706544153,-32.5021605497177,15.4254898953025
0.79204095431276,-35.4124296430581,-0.767301134014629,34.6451285090435,18.0898653885364,-35.0287790760508,16.9389136875144
0.7939727615184,-41.7393992186416,-0.420178156141895,41.3192210624997,21.0797886873917,-41.5293101405706,20.4495214531789
0.795904568724041,-51.6781729551362,-0.125332107458213,51.552840847678,25.9017525312972,-51.6155069014071,25.7137543701099
0.797836375929682,-63.8223751986829,0.0923908482421107,63.9147660469251,31.8649921752204,-63.868570622804,32.0035784475836
0.799768183135323,-76.2041753793334,0.233435058785574,76.437610438119,37.9853701602739,-76.3208929087262,38.3355227484523
0.801699990340964,-86.8721567902471,0.311128594167881,87.183285384415,43.2805140980396,-87.027721087331,43.7472069892914
0.803631797546605,-94.3158728010034,0.343123058303271,94.6589958593067,46.9863748713501,-94.487434330155,47.501059458805
0.805563604752246,-97.778927913997,0.346266877252438,98.1251947912494,48.7163305183723,-97.9520613526232,49.2357308342509
0.807495411957887,-97.4296620634146,0.334113889939891,97.7637759533545,48.5477740867374,-97.5967190083846,49.0489449216472
0.809427219163528,-94.2865579246516,0.316208290747399,94.602766215399,46.9851748169521,-94.4446620700253,47.4594872530732
0.811359026369168,-89.961329067588,0.29840282372777,90.2597318913158,44.8314631219301,-90.1105304794519,45.2790673575218
0.813290833574809,-86.3285086630869,0.283653744616966,86.6121624077038,43.0224274592349,-86.4703355353953,43.4479080761604
0.81522264078045,-85.1300090644046,0.27292705365313,85.4029361180578,42.4285410053757,-85.2664725912312,42.8379315858554
0.817154447986091,-87.4933988210568,0.266010983476877,87.7594098045337,43.61369391879,-87.6264043127953,44.0127103940053
0.819086255191732,-93.527513702612,0.262146877313643,93.7896605799256,46.6326834126492,-93.6585871412688,47.0259037286196
0.821018062397373,-102.243032435213,0.260465017301026,102.503497452514,50.9912837089559,-102.373264943863,51.3819812349075
0.822949869603014,-111.82979395977,0.260250997008804,112.090044956778,55.7847714813804,-111.959919458274,56.1751479768936
0.824881676808655,-120.162166956257,0.261081407776177,120.423248364033,59.9505427742405,-120.292707660145,60.3421648859048
0.826813484014295,-125.406551355064,0.262864044792501,125.669415399856,62.5718436551355,-125.53798337746,62.9661397223243
0.828745291219936,-126.549400214444,0.265805123590392,126.815205338034,63.1417975454268,-126.682302776239,63.5405052308124
0.830677098425577,-123.6333468831,0.270310083174046,123.903656966274,61.6815183999627,-123.768501924687,62.0869835247238
0.832608905631218,-117.714855846665,0.276810239028349,117.991666085693,58.7190228038184,-117.853260966179,59.1342381623609
0.834540712836859,-110.612211879826,0.285499199098493,110.897711078925,55.1633563403638,-110.754961479375,55.5916051390115
0.8364725200425,-104.306946194859,0.295965129490989,104.60291132435,52.0054905326838,-104.454928759604,52.4494382269202
0.838404327248141,-100.075775667178,0.306722706009993,100.382498373188,49.8845264805839,-100.229137020183,50.3446105395989
0.840336134453782,-97.8662976868137,0.314687127466388,98.1809848142801,48.7758052796736,-98.0236412505469,49.2478359708732
0.842267941659422,-96.4425917850373,0.314696052848751,96.757287837886,48.0639478660943,-96.5999398114617,48.5359919453674
0.844199748865063,-94.2630615663381,0.29927449075013,94.5623360570882,46.981893537794,-94.4126988117132,47.4308052739192
0.846131556070704,-90.3779652424982,0.258946181957759,90.6369114244559,45.0595095302702,-90.5074383334771,45.4479288032069
0.848063363276345,-84.7376120675315,0.183504650389568,84.9211167179211,42.277053708571,-84.8293643927263,42.5523106841553
0.849995170481986,-77.9876275736926,0.0647322946357158,78.0523598683284,38.9614476395285,-78.0199937210105,39.058546081482
0.851926977687627,-71.1100509561022,-0.0989610484691626,71.011089907633,35.6045060022857,-71.0605704318676,35.4560644295819
0.853858784893268,-65.0792105909875,-0.29569950871917,64.7835110822683,32.6874550498533,-64.9313608366279,32.2439057867746
0.855790592098909,-60.5251192964525,-0.491288413756719,60.0338308826958,30.5082038551046,-60.2794750895741,29.7712712344695
0.857722399304549,-57.4667975123822,-0.636764459499646,56.8300330528825,29.0517809859409,-57.1484152826324,28.0966342966914
0.85965420651019,-55.3337800612048,-0.711374100983344,54.6224059602214,28.0225770810941,-54.9780930107131,26.955515929619
0.861586013715831,-53.3086195922247,-0.749883153041027,52.5587364391837,27.0292513726329,-52.9336780157042,25.9044266430713
0.863517820921472,-50.7135259786968,-0.802147207104172,49.9113787715926,25.7578365929005,-50.3124523751447,24.5546157822442
0.865449628127113,-47.2287128968554,-0.876745480786303,46.3519674160691,24.0527291888208,-46.7903401564622,22.7376109676414
0.867381435332754,-42.9548480657692,-0.937648285357346,42.0171997804118,21.9462481755633,-42.4860239230905,20.5397757475272
0.869313242538395,-38.4222113183292,-0.953564161899051,37.4686471564302,19.6878877401141,-37.9454292373797,18.2575414972656
0.871245049744036,-34.5230736467316,-0.930492725377267,33.5925809213544,17.7267831860545,-34.057827284043,16.3310440979885
0.873176856949677,-32.2007642946384,-0.875801101890369,31.324963192748,16.5382826982644,-31.7628637436932,15.2245810454288
0.875108664155317,-31.9614698787981,-0.764465742597409,31.1970041362007,16.3629678106978,-31.5792370074994,15.2162691968017
0.877040471360958,-33.5919581599346,-0.577955977725988,33.0140021822086,17.0849570688303,-33.3029801710716,16.2180231022413
0.878972278566599,-36.3091652130833,-0.346081450558533,35.9630837625248,18.3276233318209,-36.136124487804,17.8085011559831
0.88090408577224,-39.1391501253875,-0.121635941780685,39.0175141836068,19.6303930335841,-39.0783321544972,19.4479391209131
0.882835892977881,-41.2244260565276,0.0606868022009407,41.2851128587285,20.5818696271633,-41.2547694576281,20.6728998304647
0.884767700183522,-41.9810377559755,0.190302970705282,42.1713407266808,20.8953673926351,-42.0761892413282,21.180821848693
0.886699507389163,-41.1131105941084,0.270790287065701,41.3839008811741,20.4211601535214,-41.2485057376413,20.8273455841199
0.888631314594803,-38.5001607183825,0.312369109464028,38.8125298278465,19.0938958044592,-38.6563452731145,19.5624494686553
0.890563121800444,-34.0654879848767,0.326913182077553,34.3924011669542,16.8692874013995,-34.2289445759154,17.3596571745159
0.892494929006085,-27.7421310554894,0.325109577452089,28.0672406329415,13.7085107390186,-27.9046858442154,14.1961751051968
0.894426736211726,-19.6290437063758,0.31520632226572,19.9442500286415,9.65691869205504,-19.7866468675087,10.1297281754536
0.896358543417367,-10.2828447098847,0.302789612062816,10.5856343219475,4.99002754891093,-10.4342395159161,5.44421196700515
0.898290350623008,-0.832203484593094,0.291129826377377,1.12333331097047,0.270536829107858,-0.977768397781783,0.707231568673925
0.900222157828649,7.27791152032745,0.281764176982535,-6.99614734334491,-3.77983784865499,7.13702943183618,-3.35719158318119
0.90215396503429,12.827007089765,0.275106161756837,-12.5519009280082,-6.55105662576092,12.6894540088866,-6.13839738312567
0.90408577223993,15.444561831709,0.270969631404603,-15.1735922003044,-7.8577657315568,15.3090770160067,-7.45131128444989
0.906017579445571,15.9299060005935,0.268962732610714,-15.6609432679827,-8.09943436660209,15.7954246342881,-7.69599026768602
0.907949386651212,15.9443839560431,0.268746405935293,-15.6756375501078,-8.1065651809892,15.8100107530755,-7.70344557208626
0.909881193856853,17.2686916401649,0.270169308256364,-16.9985223319085,-8.76943047421063,17.1336069860367,-8.36417651182608
0.911813001062494,21.1344167906101,0.273293017666475,-20.8611237729437,-10.7038549041383,20.9977702817769,-10.2939153776386
0.913744808268135,27.9204179916053,0.278315121708292,-27.642102869897,-14.0993665566568,27.7812604307511,-13.6818938740944
0.915676615473776,37.1561670804047,0.285389789941696,-36.870777290463,-18.7207784351732,37.0134721854338,-18.2926937502606
0.917608422679417,47.6886607187172,0.294341828835314,-47.3943188898819,-23.9915012737763,47.5414898042995,-23.5499885305233
0.919540229885057,57.9634227210514,0.304276995628199,-57.6591457254232,-29.1338498583398,57.8112842232373,-28.6774343648975
0.921472037090698,66.4043791552995,0.313114301172521,-66.091264854127,-33.358746728236,66.2478220047133,-32.8890752764772
0.923403844296339,71.7745786607898,0.317110140937913,-71.4574685198519,-36.0458444008639,71.6160235903209,-35.570179189457
0.92533565150198,73.419117772619,0.31051201872641,-73.1086057538925,-36.8648148956727,73.2638617632558,-36.3990468675831
0.927267458707621,71.468288284841,0.285569088987088,-71.1827191958539,-35.8769286869141,71.3255037403475,-35.4485750534334
0.929199265913262,66.9605053054206,0.233226743341617,-66.7272785620789,-33.5968660243811,66.8438919337497,-33.2470259093687
0.931131073118903,61.6640316914766,0.144918639060621,-61.5191130524159,-30.9044751652686,61.5915723719463,-30.6870972066777
0.933062880324544,57.5977080583348,0.0158994665125693,-57.5818085918223,-28.8068037624237,57.5897583250785,-28.7829545626548
0.934994687530185,56.4648539457112,-0.149528337986032,-56.6143822836972,-28.1576628038626,56.5396181147042,-28.3819553108416
0.936926494735825,59.203743261003,-0.330834924201266,-59.5345781852043,-29.4364541684009,59.3691607231036,-29.9327065547028
0.938858301941466,65.8017848226924,-0.482665681906764,-66.2844505045992,-32.6595595703928,66.0431176636458,-33.383558093253
0.940790109147107,75.3622430876334,-0.543725920688732,-75.9059690083221,-37.4092585834723,75.6341060479777,-38.2248474645054
0.942721916352748,86.3346049536777,-0.482754564220444,-86.8173595178982,-42.9259251947286,86.5759822357879,-43.6500570410593
0.944653723558389,96.8982080002058,-0.331071146881618,-97.2292791470874,-48.2835684266621,97.0637435736466,-48.7801751469845
0.94658553076403,105.450256549841,-0.150012503848517,-105.600269053689,-52.6501220229961,105.525262801765,-52.8751407787689
0.948517337969671,111.038839432644,0.0150599052913857,-111.023779527353,-55.5269496689678,111.031309479999,-55.5043598110307
0.950449145175312,113.553994444013,0.143667959039342,-113.410326484974,-56.8488312015264,113.482160464494,-56.6333292629673
0.952380952380952,113.601634749085,0.231646558748273,-113.369988190336,-56.9166406539165,113.485811469711,-56.5691708157941
0.954312759586593,112.175993566073,0.283990699176645,-111.892002866897,-56.2299921326249,112.033998216485,-55.80400608386
0.956244566792234,110.300527534969,0.309646297064639,-109.990881237904,-55.3050869160168,110.145704386437,-54.8406174704199
0.958176373997875,108.768993539258,0.318170835876563,-108.450822703381,-54.5435821875672,108.60990812132,-54.0663259337524
0.960108181203516,108.043168633966,0.317889265243666,-107.725279368723,-54.180528949605,107.884224001345,-53.7036950517395
0.962039988409157,108.213988453383,0.31507531859408,-107.898913134789,-54.2645318859885,108.056450794086,-53.7919189080973
0.963971795614798,108.966607673512,0.31371716600128,-108.65289050751,-54.6401624197565,108.809749090511,-54.1695866707546
0.965903602820439,109.684678347712,0.315519533056713,-109.369158814656,-55.0000989403845,109.526918581184,-54.5268196407994
0.967835410026079,109.724946877391,0.319915039940202,-109.405031837451,-55.0224309586657,109.564989357421,-54.5425583987554
0.96976721723172,108.625433097275,0.323987203278201,-108.301445893997,-54.4747101502766,108.463439495636,-53.9887293453593
0.971699024437361,106.13635217162,0.322340529409971,-105.81401164221,-53.229346350515,105.975181906915,-52.7458355564
0.973630831643002,102.220522981585,0.307089067299301,-101.913433914285,-51.2638060244419,102.066978447935,-50.803172423493
0.975562638848643,97.1070054635346,0.268271201164069,-96.8387342623705,-48.6876383323493,96.9728698629526,-48.2852315306032
0.977494446054284,91.328385527927,0.195123085644543,-91.1332624422825,-45.7617543067858,91.2308239851048,-45.469069678319
0.979426253259925,85.6054741951391,0.0787266445965727,-85.5267475505425,-42.8421004198678,85.5661108728408,-42.724010452973
0.981358060465566,80.5711301544802,-0.0834618144269825,-80.6545919689072,-40.2438341700266,80.6128610616937,-40.3690268916671
0.983289867671206,76.5466741403742,-0.280877468148784,-76.827551608523,-38.1328983361127,76.6871128744486,-38.5542145383359
0.985221674876847,73.4655673136526,-0.481034651756573,-73.9466019654091,-36.492266330948,73.7060846395308,-37.2138183085829
0.987153482082488,70.8943719469809,-0.636977142255939,-71.5313490892368,-35.1286974023625,71.2128605181089,-36.0841631157464
0.989085289288129,68.1713204283219,-0.729923027539342,-68.9012434558612,-33.7206987003913,68.5362819420916,-34.8155832417003
0.99101709649377,64.5946652555567,-0.795906312162523,-65.3905715677192,-31.8993794716971,64.9926184116379,-33.0932389399409
0.992948903699411,59.6039755937415,-0.884259566830388,-60.4882351605719,-29.3598580134556,60.0461053771567,-30.6862473637011
0.994880710905052,52.9870224721216,-0.999711973957551,-53.9867344460791,-25.993655249082,53.4868784591004,-27.4932232100183
0.996812518110693,44.9619828674395,-1.09716482498209,-46.0591476924216,-21.9324090212287,45.5105652799306,-23.5781562587019
0.998744325316334,35.9699001498676,-1.12908628887048,-37.0989864387381,-17.4204069304986,36.5344432943029,-19.1140363638043
1.00067613252197,26.347192592197,-1.07664696562813,-27.4238395578252,-12.6352728132845,26.8855160750111,-14.2502432617266
1.00260793972762,16.2313677976405,-0.93127925932874,-17.1626470569693,-7.6500442691559,16.6970074273049,-9.04696315814901
1.00453974693326,5.7019764730525,-0.698009844215624,-6.39998631726812,-2.50198331441844,6.05098139516031,-3.54899808074187
1.0064715541389,-5.20438017015965,-0.420918515040558,4.78346165511909,2.81264934260011,-4.99392091263937,2.18127157003927
1.00840336134454,-16.6101259675076,-0.159876638038807,16.4502493294688,8.38500130277322,-16.5301876484882,8.14518634571501
1.01033516855018,-28.6588372412328,0.0482394921987301,28.7070767334315,14.305298874517,-28.6829569873321,14.3776581128151
1.01226697575582,-41.0872555008044,0.193554121876565,41.280809622681,20.4468506894639,-41.1840325617427,20.7371818722788
1.01419878296146,-52.9508780424703,0.281737637836385,53.2326156803067,26.3345702023169,-53.0917468613885,26.7571766590715
1.0161305901671,-62.8594864372556,0.32550064969914,63.1849870869547,31.2669928937782,-63.0222367621052,31.7552438683269
1.01806239737274,-69.5582938387675,0.33905740491788,69.8973512436854,34.6096182169248,-69.7278225412265,35.1182043243016
1.01999420457838,-72.4236827146971,0.335058361700793,72.7587410763979,36.0443121764982,-72.5912118955475,36.5468997190493
1.02192601178402,-71.6816031344355,0.323306291718433,72.004909426154,35.6791484213585,-71.8432562802947,36.1641078589362
1.02385781898966,-68.3231740373295,0.310587261398394,68.6337612987279,34.0062933879655,-68.4784676680287,34.4721742800631
1.02578962619531,-63.7080290618659,0.3010649743528,64.0090940362187,31.7034820437566,-63.8585615490423,32.1550795052858
1.02772143340095,-59.0583483994533,0.296836011696703,59.35518441115,29.3807561938783,-59.2067664053016,29.8260102114233
1.02965324060659,-55.1516271575691,0.298386368528181,55.4500135260973,27.4266203945205,-55.3008203418332,27.8741999473127
1.03158504781223,-52.3114322400488,0.304811414430503,52.6162436544793,26.0033104128091,-52.463837947264,26.4605275344549
1.03351685501787,-50.5653227364603,0.313762704971034,50.8790854414313,25.1257800157446,-50.7222040889458,25.5964240732012
1.03544866222351,-49.8060578357171,0.321175320063012,50.1272331557801,24.742441257827,-49.9666454957486,25.2242042379216
1.03738046942915,-49.8958575699573,0.320920513787908,50.2167780837452,24.7874685280847,-50.0563178268513,25.2688492987666
1.03931227663479,-50.7329929268673,0.304629246867364,51.0376221737347,25.21418184,-50.885307550301,25.671125710301
1.04124408384043,-52.2684783426225,0.262042817559947,52.5305211601825,26.0032177625313,-52.3994997514025,26.3962819888712
1.04317589104607,-54.3736889674834,0.182353103674185,54.5560420711576,27.0956679319046,-54.4648655193205,27.3691975874159
1.04510769825171,-56.6539582243766,0.0570625582643132,56.7110207826409,28.2984478330561,-56.6824895035087,28.3840416704526
1.04703950545736,-58.5532906113145,-0.11513603590392,58.4381545754106,29.3342133236092,-58.4957225933626,29.1615092697533
1.048971312663,-59.733670377107,-0.321173297246006,59.412497079861,30.0274218371765,-59.573083728484,29.5456618913075
1.05090311986864,-60.2933474197599,-0.52432648877197,59.769020930988,30.4088369542659,-60.0311841753739,29.622347221108
1.05283492707428,-60.6607005573704,-0.671354505170584,59.9893460521998,30.6660275312705,-60.3250233047851,29.6589957735146
1.05476673427992,-61.3535833846421,-0.73523066106478,60.6183527235773,31.0444070228535,-60.9859680541097,29.9415610312563
1.05669854148556,-62.6937779228463,-0.742629853396111,61.9511480694502,31.7182038881212,-62.3224629961482,30.604259108027
1.0586303486912,-64.5281339958628,-0.734449833745927,63.7936841621168,32.6312919148043,-64.1609090789898,31.5296171641855
1.06056215589684,-66.2100810724561,-0.711591616214866,65.4984894562413,33.4608363443355,-65.8542852643487,32.3934489200132
1.06249396310248,-66.9726626533851,-0.635392660611885,66.3372699927732,33.8040276569985,-66.6549663230791,32.8509386660807
1.06442577030812,-66.4193327250058,-0.482644000847999,65.9366887241578,33.4509883629269,-66.1780107245818,32.7270223616549
1.06635757751376,-64.721787715106,-0.2856381274437,64.4361495876623,32.5037129212749,-64.5789686513842,32.0752557301093
1.06828938471941,-62.4003604722726,-0.104802179128322,62.2955582931443,31.2525813257005,-62.3479593827084,31.095378057008
1.07022119192505,-59.894667941228,0.014668088035657,59.9093360292636,29.9399999265962,-59.9020019852458,29.9620020586496
1.07215299913069,-57.2251223364946,0.0517138337784057,57.276836170273,28.5867042513581,-57.2509792533838,28.6642750020257
1.07408480633633,-54.046840068067,0.00345526573922762,54.0502953338062,27.0216924011639,-54.0485677009366,27.0268752997727
1.07601661354197,-50.1273722912671,-0.116806488959039,50.0105658023081,25.1220893901131,-50.0689690467876,24.9468796566745
1.07794842074761,-45.7966357023329,-0.277382976216114,45.5192527261168,23.0370093392745,-45.6579442142249,22.6209348749504
1.07988022795325,-41.8773762538306,-0.422634268765793,41.4547419850649,21.1500052612982,-41.6660591194478,20.5160538581495
1.08181203515889,-39.0975682281737,-0.483459751658782,38.6141084765149,19.7905139899162,-38.8558383523443,19.0653243624281
1.08374384236453,-37.5005076544676,-0.423971739478741,37.0765359149888,18.9622396969732,-37.2885217847282,18.3262820877551
1.08567564957017,-36.356467415481,-0.274252532372391,36.0822148831086,18.3153599739267,-36.2193411492948,17.9039811753681
1.08760745677581,-34.5770192819822,-0.0977663340660578,34.4792529479162,17.3373928080241,-34.5281361149492,17.1907433069251
1.08953926398145,-31.291798821487,0.0548215567296693,31.3466203782167,15.6184886323787,-31.3192095998519,15.7007209674732
1.0914710711871,-26.2787363716026,0.155017768558319,26.433754140161,13.0618593015222,-26.3562452558818,13.2943859543596
1.09340287839274,-20.1061086019738,0.188955829062918,20.2950644310367,9.95857638645544,-20.2005865165053,10.2420101300498
1.09533468559838,-13.9933172193,0.152243841637363,14.1455610609374,6.92053668883133,-14.0694391401187,7.14890245128738
1.09726649280402,-9.45056902938813,0.0482029451780982,9.49877197456623,4.70118304210502,-9.47467050197718,4.77348745987217
1.09919830000966,-7.78163084079171,-0.110182082919448,7.67144875787226,3.94590646185558,-7.72653979933198,3.78063333747641
1.1011301072153,-9.57495245464168,-0.294868094197207,9.28008436044447,4.93491027441944,-9.42751840754307,4.49260813312363
1.10306191442094,-14.3728280178615,-0.454872363897563,13.9179556539639,7.41385019087952,-14.1453918359127,6.73154164503318
1.10499372162658,-20.6896634946785,-0.525203613052248,20.1644598816262,10.6074335538654,-20.4270616881524,9.81962813428699
1.10692552883222,-26.4046815488926,-0.472530940235295,25.9321506086573,13.4386062445639,-26.1684160787749,12.729809834211
1.10885733603786,-29.4935084177676,-0.327297820515944,29.1662105972517,14.9104031191418,-29.3298595075096,14.4194563883679
1.1107891432435,-28.8595904110563,-0.15073295822512,28.7088574528312,14.5051616846407,-28.7842239319437,14.279062247303
1.11272095044915,-24.7387358678603,0.0114939552399461,24.7502298231002,12.3636209563102,-24.7444828454802,12.3808618891701
1.11465275765479,-18.4099956944723,0.138437129153554,18.5484328236259,9.13577928265939,-18.4792142590491,9.34343497638973
1.11658456486043,-11.506646566519,0.225473814708274,11.7321203812272,5.64058637590534,-11.6193834738731,5.97879709796775
1.11851637206607,-5.4385277874452,0.277253152066362,5.71578093951156,2.58063731768942,-5.57715436347838,2.99651704578896
1.12044817927171,-1.13418018466598,0.302543049308222,1.4367232339742,0.415818567678879,-1.28545170932009,0.869633141641212
1.12237998647735,1.07138791377241,0.310918585939261,-0.760469327833151,-0.691153249855837,0.915928620802781,-0.224775370946945
1.12431179368299,1.46904132490795,0.310926397390135,-1.15811492751781,-0.889983861149041,1.31357812621288,-0.42359426506384
1.12624360088863,0.806676602743096,0.309253859667358,-0.497422743075737,-0.557965231205227,0.652049672909417,-0.0940844417041895
1.12817540809427,-0.0210120059826409,0.310449855671438,0.331461861654079,-0.144718924844399,-0.17623693381836,0.320955858662759
1.13010721529991,-0.176091750130468,0.31682750890528,0.492919259035747,-0.0703678793874062,-0.334505504583107,0.404873383970514
1.13203902250555,1.10467280511341,0.328293719736302,-0.776379085377107,-0.716483262424856,0.940525945245258,-0.224042682820402
1.13397082971119,4.40452856478407,0.341980643218538,-4.06254792156554,-2.37325460400131,4.2335382431748,-1.8602836391735
1.13590263691684,9.73842569274973,0.351699307784119,-9.38672638496561,-5.04506250026692,9.56257603885767,-4.51751353859075
1.13783444412248,16.1944425474663,0.347400808319952,-15.8470417391463,-8.27092167789312,16.0207421433063,-7.74982046541319
1.13976625132812,22.0879237112566,0.315019366709869,-21.7729043445468,-11.2014715389832,21.9304140279017,-10.7289424889184
1.14169805853376,25.6045101916858,0.2372759723353,-25.3672342193505,-12.9208930820105,25.4858722055181,-12.5649791235076
1.1436298657394,25.4457720916052,0.0962112807173052,-25.3495608108879,-12.7709916861613,25.3976664512466,-12.6266747650853
1.14556167294504,21.2591791404064,-0.121670431358345,-21.3808495717647,-10.568754354524,21.3200143560856,-10.7512600015615
1.14749348015068,13.9263671915151,-0.416831249429496,-14.3431984409446,-6.75476797104278,14.1347828162298,-7.38001484518702
1.14942528735632,5.54429931052141,-0.764281267524341,-6.30858057804575,-2.39000902149853,5.92643994428358,-3.53643092278505
1.15135709456196,-1.15872686833001,-1.09778755234283,0.0609393159871809,1.12825721033642,-0.609833092158594,-0.518424118177822
1.1532889017676,-3.84207996535878,-1.31015494941672,2.53192501594206,2.57611745738775,-3.18700249065042,0.610885033262673
1.15522070897324,-1.49522804277393,-1.30810553452289,0.187122508251042,1.40166678864841,-0.841175275512487,-0.560491513135923
1.15715251617889,5.15742581681889,-1.09087822413302,-6.2483040409519,-2.03327379634293,5.7028649288854,-3.66959113254246
1.15908432338453,13.9740897238547,-0.750387165055282,-14.7244768889099,-6.61185127939969,14.3492833063823,-7.73743202698261
1.16101613059017,22.3422555173394,-0.392975850655421,-22.7352313679948,-10.974639833342,22.5387434426671,-11.5641036093251
1.16294793779581,28.2819712314682,-0.0849917231819157,-28.3669629546501,-14.0984897541431,28.3244670930591,-14.225977338916
1.16487974500145,31.045073699702,0.146910096609939,-30.8981636030921,-15.595991898156,30.9716186513971,-15.3756267532411
1.16681155220709,30.9165098151512,0.29929090659275,-30.6172189085585,-15.607900360872,30.7668643618549,-15.1589640009829
1.16874335941273,28.5812826437879,0.378847403083218,-28.2024352407046,-14.4800650234355,28.3918589422462,-13.9117939188107
1.17067516661837,24.7443133345807,0.393450167790026,-24.3508631667906,-12.5688817511853,24.5475882506856,-11.9787064995003
1.17260697382401,20.2750772982836,0.347282472351736,-19.9277948259318,-10.3111798853177,20.1014360621077,-9.79025617679005
1.17453878102965,16.4312120100719,0.239827605245464,-16.1913844048264,-8.33551980765868,16.3112982074492,-7.97577839979049
1.17647058823529,14.6158146859159,0.0685073837173563,-14.5473073021985,-7.34216103481663,14.5815609940572,-7.23939995924059
1.17840239544094,15.6935227161158,-0.165105371821805,-15.8586280879376,-7.764208672147,15.7760754020267,-8.01186672987971
1.18033420264658,19.4215053114056,-0.445604672387522,-19.8671099837931,-9.48795031950902,19.6443076475993,-10.1563573280903
1.18226600985222,24.4384565548905,-0.731080461522326,-25.1695370164128,-11.8536880466841,24.8039967856516,-12.9503087389676
1.18419781705786,28.7215691680096,-0.956231500469436,-29.677800668479,-13.8826688337701,29.1996849182443,-15.3170160844742
1.1861296242635,30.3271942535094,-1.07090613646861,-31.3981003899781,-14.6281440585204,30.8626473217438,-16.2345032632233
1.18806143146914,28.2744853255082,-1.06408390097733,-29.3385692264855,-13.6052007122654,28.8065272759968,-15.2013265637314
1.18999323867478,23.0733795858573,-0.940419369243994,-24.0137989551013,-11.0664801083067,23.5435892704793,-12.4771091621726
1.19192504588042,16.4447214791016,-0.720455507404445,-17.165176986506,-7.86213298584856,16.8049492328038,-8.94281624695522
1.19385685308606,10.4755400149194,-0.464232765802073,-10.9397727807214,-5.00565362455865,10.7076563978204,-5.70200277326176
1.1957886602917,6.87569021575848,-0.246638123048008,-7.12232833880649,-3.31452604635524,6.99900927728249,-3.68448323092725
1.19772046749734,6.6816061793109,-0.116836455711818,-6.79844263502272,-3.28238486179954,6.74002440716681,-3.45763954536727
1.19965227470298,10.2174544925422,-0.0913072683033073,-10.3087617608455,-5.06307361211943,10.2631081266938,-5.20003451457439
1.20158408190863,17.0650141393478,-0.160585101266311,-17.2255992406141,-8.45221451904073,17.1453066899809,-8.69309217094019
1.20351588911427,26.077185221949,-0.291109674944656,-26.3682948968936,-12.8930377735022,26.2227400594213,-13.3297022859191
1.20544769631991,35.5800813078757,-0.42265011862618,-36.0027314265019,-17.5787155946248,35.7914063671888,-18.212690772564
1.20737950352555,43.7513411426307,-0.48070177391396,-44.2320429165446,-21.6353196843583,43.9916920295876,-22.3563723452293
1.20931131073119,49.0287311482627,-0.424167918799968,-49.4528990670627,-24.3022816147314,49.2408151076627,-24.9385334929313
1.21124311793683,50.410342487183,-0.278494074015705,-50.6888365611987,-25.0659242065837,50.5495895241909,-25.4836653176072
1.21317492514247,47.5841665081633,-0.103107762561116,-47.6872742707244,-23.7405293728011,47.6357203894438,-23.8951910166428
1.21510673234811,41.0084087265618,0.0548208894493476,-40.9535878371125,-20.5316148080056,40.9809982818371,-20.4493834738316
1.21703853955375,31.9570663049648,0.169664907766133,-31.7874013971986,-16.0633656063655,31.8722338510817,-15.8088682447163
1.21897034675939,22.2594687826169,0.229366766141367,-22.0301020164755,-11.2444177743791,22.1447853995462,-10.9003676251671
1.22090215396503,13.7760439400721,0.229370042594036,-13.5466738974781,-7.00270699133307,13.6613589187751,-6.65865192744201
1.22283396117068,7.97925963552603,0.169388507955168,-7.80987112757087,-4.0743240717406,7.89456538154845,-3.82024130980785
1.22476576837632,5.75930988945271,0.0534027738545069,-5.7059071155982,-2.90635633165361,5.73260850252545,-2.82625217087185
1.22669757558196,7.34376619334921,-0.107099060154129,-7.45086525350334,-3.61833356659754,7.39731572342628,-3.77898215682873
1.2286293827876,12.1968246787987,-0.286994481696569,-12.4838191604953,-5.95491509855108,12.340321919647,-6.38540682109593
1.23056118999324,19.0109401478182,-0.439415367304832,-19.4503555151231,-9.28576239025671,19.2306478314707,-9.94488544121396
1.23249299719888,26.1345947350017,-0.504794152098821,-26.6393888871005,-12.8149002914514,26.3869918110511,-13.5720915195997
1.23442480440452,32.2847904256731,-0.456754033571865,-32.741544459245,-15.9140181960506,32.5131674424591,-16.5991492464084
1.23635661161016,36.9142175231966,-0.334232496209021,-37.2484500194057,-18.2899925134938,37.0813337713012,-18.7913412578073
1.2382884188158,39.9958253938333,-0.207893463827134,-40.2037188576604,-19.8939659650031,40.0997721257469,-20.2058061607438
1.24022022602144,41.5949512593409,-0.132116526165513,-41.7270677855064,-20.7314173665877,41.6610095224236,-20.929592155836
1.24215203322708,41.7345631069425,-0.132627638595119,-41.8671907455376,-20.8009677341737,41.8008769262401,-20.9999091920664
1.24408384043272,40.6248738150686,-0.209791113767159,-40.8346649288357,-20.2075413506507,40.7297693719521,-20.5222280213014
1.24601564763837,38.8469311638281,-0.338581692583951,-39.185512856412,-19.2541747356221,39.0162220101201,-19.762047274498
1.24794745484401,37.2100465451022,-0.465217071568736,-37.6752636166709,-18.3724147367667,37.4426550808865,-19.0702403441198
1.24987926204965,36.4469416003638,-0.519395237393392,-36.9663368377572,-17.9637731814852,36.7066392190605,-18.7428660375753
1.25181106925529,36.9909648103506,-0.462088101173388,-37.453052911524,-18.2644383545886,37.2220088609373,-18.9575705063487
1.25374287646093,38.8721808564197,-0.318815194577551,-39.1909960509972,-19.2766828309211,39.0315884537085,-19.7549056227874
1.25567468366657,41.7292334790589,-0.147126838060931,-41.8763603171198,-20.791053320499,41.8027968980894,-21.0117435775904
1.25760649087221,44.9521727915346,0.0096938011775507,-44.9424789903571,-22.4809332963561,44.9473258909459,-22.4663925945898
1.25953829807785,47.8667586202692,0.131967670281945,-47.7347909499873,-23.9993631452756,47.8007747851283,-23.8014116398527
1.26147010528349,49.9006170391533,0.215466532071688,-49.6851505070816,-25.0580417856125,49.7928837731174,-24.7348419875049
1.26340191248913,50.7629368355067,0.264602701961075,-50.4983341335456,-25.5137697687339,50.6306354845261,-25.1168657157923
1.26533371969477,50.5761290234436,0.287477939761096,-50.2886510836825,-25.4318034816024,50.4323900535631,-25.0005865719607
1.26726552690042,49.8837770952882,0.292740313569337,-49.5910367817189,-25.0882587044288,49.7374069385035,-24.6491482340748
1.26919733410606,49.5971156846242,0.28791462652941,-49.3092010580948,-24.9425151555768,49.4531583713595,-24.5106432157827
1.2711291413117,50.8512396990519,0.278781316033356,-50.5724583830186,-25.5650105075426,50.7118490410353,-25.1468385334926
1.27306094851734,54.6032744148048,0.269400332816608,-54.3338740819881,-27.4363373738107,54.4685742483965,-27.0322368745858
1.27499275572298,61.0457769025844,0.262449792107535,-60.7833271104769,-30.654113347346,60.9145520065306,-30.2604386591847
1.27692456292862,69.2391359586239,0.259634461261726,-68.9795014973622,-34.7493852099428,69.1093187279931,-34.3599335180502
1.27885637013426,77.3492847293687,0.261995032373325,-77.0872896969954,-38.805639880871,77.218287213182,-38.412647332311
1.2807881773399,83.4477207345091,0.27000857905669,-83.1777121554525,-41.8588646567829,83.3127164449808,-41.4538517881979
1.28271998454554,86.354941654156,0.283416861933682,-86.0715247922223,-43.3191792580448,86.2132332231891,-42.8940539651443
1.28465179175118,86.0120291150701,0.300762251003069,-85.7112668640671,-43.1563956830366,85.8616479895686,-42.705252306532
1.28658359895682,83.2760960735008,0.318664733950096,-82.9574313395507,-41.7973804037254,83.1167637065257,-41.3193833028003
1.28851540616247,79.4119648170367,0.330952260526266,-79.0810125565105,-39.8714585387815,79.2464886867736,-39.3750301479921
1.29044721336811,75.6342266810485,0.327872097208568,-75.3063545838399,-37.9810493891285,75.4702906324442,-37.4892412433157
1.29237902057375,72.8895130506272,0.295766621488679,-72.5937464291385,-36.5926398360579,72.7416297398829,-36.1489899038249
1.29431082777939,71.8533641013066,0.217782161199705,-71.6355819401068,-36.0355731312531,71.7444730207067,-35.7088998894536
1.29624263498503,72.9488410468035,0.0763601423738929,-72.8724809044296,-36.5126005945887,72.9106609756165,-36.3980603810278
1.29817444219067,76.2781208466346,-0.1416301938247,-76.4197510404593,-38.0682453264049,76.3489359435469,-38.280690617142
1.30010624939631,81.6369530524798,-0.436324872117547,-82.0732779245973,-40.6003140901811,81.8551154885385,-41.2548013983574
1.30203805660195,88.6751058252732,-0.782462447380319,-89.4575682726535,-43.9463216889464,89.0663370489633,-45.1200153600169
1.30396986380759,96.9472061907898,-1.11363904704188,-98.0608452378317,-47.916783571874,97.5040257143107,-49.5872421424368
1.30590167101323,105.819718960616,-1.32267931829761,-107.142398278913,-52.248519821159,106.481058619764,-54.2325387986054
1.30783347821887,114.471785613799,-1.31665617502188,-115.788441788821,-56.5775647193888,115.13011370131,-58.5525489819216
1.30976528542451,122.008590661937,-1.09567405814645,-123.104264720083,-60.4564583018953,122.55642769101,-62.099969389115
1.31169709263016,127.572981097245,-0.753226921892751,-128.326208019137,-63.4098770876759,127.949594558191,-64.539717470515
1.3136288998358,130.467027473533,-0.398110525214995,-130.865137998748,-65.034458474159,130.666082736141,-65.6316242619815
1.31556070704144,130.344816713686,-0.100017409932748,-130.444834123619,-65.1223996518768,130.394825418653,-65.2724257667759
1.31749251424708,127.404138509304,0.110417294911801,-127.293721214392,-63.7572779021078,127.348929861848,-63.5916519597401
1.31942432145272,122.415190554923,0.225856303012813,-122.18933425191,-61.3205234289677,122.302262403416,-60.9817389744484
1.32135612865836,116.573876433282,0.250551631050214,-116.323324802232,-58.4122140321662,116.448600617757,-58.0363865855909
1.323287935864,111.228671654592,0.193578293140086,-111.035093361452,-55.7111249738659,111.131882508022,-55.4207575341557
1.32521974306964,107.476131242229,0.0670415511695794,-107.40908969106,-53.7715863966994,107.442610466644,-53.671024069945
1.32715155027528,105.773177630963,-0.111186708287003,-105.88436433925,-52.8309954613382,105.828770985107,-52.9977755237687
1.32908335748092,105.78012674592,-0.311002574039734,-106.09112931996,-52.7345620859401,105.93562803294,-53.2010659469997
1.33101516468656,106.466921023566,-0.481154982775479,-106.948076006341,-52.9928830203952,106.707498514954,-53.7146154945584
1.33294697189221,106.3933259533,-0.557338733280692,-106.950664686581,-52.9179936100097,106.67199531994,-53.7540017099308
1.33487877909785,104.088753963246,-0.507270481333618,-104.59602444458,-51.7907417409562,104.342389203913,-52.5516474629566
1.33681058630349,98.5114807527716,-0.362439761195213,-98.8739205139669,-49.0745204957882,98.6927006333693,-49.618180137581
1.33874239350913,89.4612417426673,-0.1849418240212,-89.6461835666885,-44.638149959323,89.5537126546779,-44.9155626953548
1.34067420071477,77.7271224021848,-0.0210879568679632,-77.7482103590528,-38.8530172226584,77.7376663806188,-38.8846491579604
1.34260600792041,64.8892571813994,0.107719790093643,-64.7815373913057,-32.4984884857465,64.8353972863525,-32.336908800606
1.34453781512605,52.824323128042,0.196501223136942,-52.6278219049051,-26.5104121755895,52.7260725164736,-26.2156603408841
1.34646962233169,43.1229426454979,0.249542910250303,-42.8733997352476,-21.6862427778741,42.9981711903728,-21.3119284124987
1.34840142953733,36.6659288573427,0.275148260705828,-36.3907805966369,-18.4705385590243,36.5283547269898,-18.0578161679655
1.35033323674297,33.4249679358085,0.282260837412191,-33.1427070983963,-16.8536143866103,33.2838375171024,-16.4302231304921
1.35226504394861,32.532540956368,0.278624448172174,-32.2539165081958,-16.4055827022701,32.3932287322819,-15.9876460300118
1.35419685115425,32.6372548336809,0.270044980166051,-32.3672098535149,-16.4536499069235,32.5022323435979,-16.0485824366744
1.3561286583599,32.3710370987467,0.26034274329612,-32.1106943554506,-16.3156899210214,32.2408657270987,-15.9251758060772
1.35806046556554,30.7603049025993,0.251666556926437,-30.5086383456728,-15.5059857297629,30.6344716241361,-15.1284858943732
1.35999227277118,27.5381131818482,0.244939287258042,-27.2931738945902,-13.8915262345531,27.4156435382192,-13.5241173036661
1.36192407997682,23.2610546053709,0.240294434335644,-23.0207601710353,-11.7506745198533,23.1409073882031,-11.3902328683498
1.36385588718246,19.0675621421344,0.237433557674069,-18.8301285844604,-9.65249784990426,18.9488453632974,-9.29634751339315
1.3657876943881,16.1078306522586,0.235882490298456,-15.8719481619601,-8.17185657127853,15.9898894071094,-7.81803283583084
1.36771950159374,14.9685988137524,0.235152984752331,-14.733445829,-7.60187589925234,14.8510223213762,-7.24914642212384
1.36965130879938,15.4155705134719,0.234830266323311,-15.1807402471486,-7.82520038989763,15.2981553803103,-7.47295499041266
1.37158311600502,16.5173826526485,0.234610765697516,-16.282771886951,-8.375996709173,16.4000772697997,-8.02408056062672
1.37351492321066,17.0203904754149,0.234312132199556,-16.7860783432153,-8.62735130380723,16.9032344093151,-8.27588310550789
1.3754467304163,15.8035747990387,0.233872415159054,-15.5697023838796,-8.01872360709888,15.6866385914592,-7.6679149843603
1.37737853762195,12.3275245968273,0.233348834363071,-12.0941757624642,-6.28043671559519,12.2108501796458,-5.93041346405059
1.37931034482759,6.98413380669371,0.232919719363901,-6.7512140873298,-3.6085267630288,6.86767394701176,-3.25914718398295
1.38124215203323,1.10285763163603,0.232886281553312,-0.869971350082715,-0.66787195659467,0.986414490859371,-0.318542534264701
1.38317395923887,-3.51334305807322,0.233663991447668,3.74700704952089,1.63983953331278,-3.63017505379705,1.99033552048428
1.38510576644451,-5.33597382966596,0.235746754645936,5.5717205843119,2.55011353751001,-5.45384720698893,2.90373366947892
1.38703757365015,-3.83293026887762,0.23962167142962,4.07255194030724,1.796654298724,-3.95274110459243,2.15608680586843
1.38896938085579,0.177554874649587,0.245609694934133,0.0680548202845457,-0.21158228479186,0.0547500271825208,0.156832257609339
1.39090118806143,4.7683007884871,0.25361088575115,-4.51468990273595,-2.51095583711912,4.64149534561152,-2.1305395084924
1.39283299526707,7.62030538573035,0.262746280668325,-7.35755910506202,-3.94152583319934,7.48893224539618,-3.54740641219685
1.39476480247271,6.93134963759707,0.270916545627307,-6.66043309196976,-3.60113309161219,6.79589136478341,-3.19475827317123
1.39669660967835,2.19424797388086,0.274345318591247,-1.91990265528962,-1.23429664623605,2.05707531458524,-0.822778668349185
1.398628416884,-5.60554926369949,0.267245277119383,5.87279454081887,2.66915199329005,-5.73917190225918,3.07001990896913
1.40056022408964,-14.4563978501142,0.241835525325342,14.6982333754396,7.10728116239444,-14.5773156127769,7.47003445038246
1.40249203129528,-21.9145865579428,0.189039234742189,22.103625792685,10.8627736616003,-22.0091061753139,11.1463325137136
1.40442383850092,-25.4126090992205,0.100276526933426,25.512885626154,12.6561662861436,-25.4627473626872,12.8065810765437
1.40635564570656,-22.3040116548806,-0.0292028720867346,22.2748087827938,11.1666072634836,-22.2894102188372,11.1228029553535
1.4082874529122,-9.75447782328769,-0.195093221703052,9.55938460158463,4.97478552249537,-9.65693121243616,4.68214568994079
1.41021926011784,15.3309430028839,-0.376853294148593,-15.7077962970325,-7.47704485436766,15.5193696499582,-8.04232479559055
1.41215106732348,56.0757864779889,-0.529109294916431,-56.6048957729053,-27.7733385915362,56.3403411254471,-28.5670025339109
1.41408287452912,115.015312927831,-0.590540515430322,-115.605853443261,-57.2123862062004,115.310583185546,-58.0981969793459
1.41601468173476,193.237365413197,-0.529855757977035,-193.767221171174,-96.3537548276102,193.502293292186,-97.1485384645758
1.4179464889404,289.536306721828,-0.378346190378416,-289.914652912206,-144.578980265725,289.725479817017,-145.146499551292
1.41987829614604,399.830393483162,-0.197332498425216,-400.027725981588,-199.816530492369,399.929059732375,-200.112529240006
1.42181010335169,516.952184753984,-0.0321884669524106,-516.984373220937,-258.459998143516,516.96827898746,-258.508280843944
1.42374191055733,630.879108119442,0.0965446693807461,-630.782563450061,-315.487826394411,630.830835784751,-315.34300939034
1.42567371776297,729.594502615148,0.184561147710923,-729.409941467437,-364.889531881429,729.502222041292,-364.612690159863
1.42760552496861,800.81968017081,0.236611213145437,-800.583068957664,-400.528145691978,800.701374564237,-400.173228872259
1.42953733217425,834.501346779929,0.261274728282852,-834.240072051646,-417.381310754106,834.370709415787,-416.989398661682
1.43146913937989,825.262568486246,0.267628552773317,-824.994939933473,-412.76509851951,825.12875420986,-412.36365569035
1.43340094658553,773.77850914303,0.263453711041141,-773.515055431989,-387.020981427036,773.646782287509,-386.625800860474
1.43533275379117,686.614888331741,0.254537816810703,-686.360350514931,-343.434713074276,686.487619423336,-343.05290634906
1.43726456099681,574.844890498904,0.244657759147557,-574.600232739756,-287.544774129026,574.72256161933,-287.177787490304
1.43919636820245,451.978226325327,0.23591369846596,-451.742312626861,-226.107070011897,451.860269476094,-225.753199464198
1.44112817540809,331.646181387053,0.229185747754054,-331.416995639299,-165.937683567404,331.531588513176,-165.593904945772
1.44305998261374,225.479252961601,0.224575258694686,-225.254677702906,-112.851914110148,225.366965332253,-112.515051222106
1.44499178981938,141.512352930342,0.221762746481855,-141.29059018386,-70.8670578384119,141.401471557101,-70.5344137186891
1.44692359702502,83.3713614497569,0.22026221367461,-83.1510992360823,-41.7958118317158,83.2612303429196,-41.4654185112039
1.44885540423066,50.337754121176,0.219579791307539,-50.1181743298684,-25.2786669562418,50.2279642255222,-24.9492972692804
1.4507872114363,38.0647912402239,0.219297967427078,-37.8454932727969,-19.1420446038255,37.9551422565104,-18.8130976526849
1.45271901864194,39.7486553028986,0.219110129460296,-39.5295451734383,-19.9838827161794,39.6391002381684,-19.655217521989
1.45465082584758,47.6940382231172,0.218827806053824,-47.4752104170634,-23.9564330145855,47.5846243200903,-23.6281913055048
1.45658263305322,54.9900267478391,0.218377780903994,-54.7716489669351,-27.6042022643716,54.8808378573871,-27.2766355930156
1.45851444025886,56.8498582006063,0.21779993135174,-56.6320582692545,-28.533829065979,56.7409582349304,-28.2071291689514
1.4604462474645,51.2587076663369,0.217250050468634,-51.0414576158683,-25.7379788584028,51.1500826411026,-25.4121037826998
1.46237805467014,38.7761598875427,0.217005268276899,-38.5591546192658,-19.4965825779098,38.6676572534042,-19.1710746754944
1.46430986187578,21.6334936261479,0.217462980302083,-21.4160306458458,-10.925478303225,21.5247621359969,-10.5992838327719
1.46624166908143,2.58235015161063,0.219117542938362,-2.36323260867226,-1.40073384727449,2.47279138014145,-1.07205753286695
1.46817347628707,-15.9252146864532,0.22249304367924,16.1477077301324,7.85136082138696,-16.0364612082928,8.18510038690582
1.47010528349271,-32.0359863842006,0.228006707064245,32.2639930912648,15.9039898385682,-32.1499897377327,16.2459998991645
1.47203709069835,-44.5407853169362,0.235738607585914,44.7765239245221,22.1525233546751,-44.6586546207292,22.506131266054
1.47396889790399,-52.8562402010438,0.245093234778963,53.1013334358227,26.3055734831324,-52.9787868184332,26.6732133353008
1.47590070510963,-56.9779847143672,0.254362030746075,57.2323467451132,28.3618113418105,-57.1051657297402,28.7433543879297
1.47783251231527,-57.4925452229846,0.260238503428516,57.7527837264131,28.6161533597781,-57.6226644746989,29.0065111149208
1.47976431952091,-55.6303049558727,0.257402833196652,55.8877077890694,27.686451061338,-55.759006372471,28.072555311133
1.48169612672655,-53.0806367908269,0.2383810968858,53.3190178877127,26.4211278469706,-53.1998273392698,26.7786994922993
1.48362793393219,-51.4370665823629,0.193987808527779,51.6310543908907,25.6215393869176,-51.5340604866268,25.9125210997093
1.48555974113783,-51.6158609120203,0.114759591266401,51.7306205032867,25.7505506603769,-51.6732407076535,25.9226900472765
1.48749154834348,-53.6153496275421,-0.00615478087513655,53.6091948466669,26.8107522042086,-53.6122722371045,26.8015200328959
1.48942335554912,-56.7299698289127,-0.168225773943795,56.5617440549689,28.4490978014282,-56.6458569419408,28.1967591405125
1.49135516275476,-60.0887949647563,-0.356698439496202,59.7320965252601,30.2227467021262,-59.9104457450082,29.6876990428819
1.4932869699604,-63.0502485935233,-0.533978549884879,62.5162700436384,31.7921135717041,-62.7832593185809,30.9911457468768
1.49521877716604,-65.1737630199876,-0.647820964848785,64.5259420551388,32.9107919924182,-64.8498525375632,31.939060545145
1.49715058437168,-66.1015803610221,-0.675513344506963,65.4260670165151,33.3885468527645,-65.7638236887686,32.3752768360041
1.49908239157732,-65.641311222643,-0.653096402604548,64.9882148200385,33.1472038126238,-65.3147630213408,32.167559208717
1.50101419878296,-63.8229319046318,-0.637584641639677,63.1853472629921,32.2302582731357,-63.5041395838119,31.2738813106762
1.5029460059886,-60.799812358066,-0.653810437356857,60.1460019207091,30.7268113977114,-60.4729071393876,29.7460957416761
1.50487781319424,-56.8220461070956,-0.67694129671618,56.1451048103794,28.7494937019059,-56.4835754587375,27.7340817568316
1.50680962039988,-52.2570427590653,-0.649962598870434,51.6070801601948,26.4535026789678,-51.93206145963,25.4785587806622
1.50874142760553,-47.4684785750527,-0.536833514250334,46.9316450608024,24.0026560446515,-47.2000618179275,23.197405773276
1.51067323481117,-42.6940181321199,-0.360266282153509,42.3337518499664,21.5271422071367,-42.5138849910432,20.9867427839065
1.51260504201681,-38.1146309964932,-0.172505983343396,37.9421250131498,19.1435684899183,-38.0283780048215,18.8848095149032
1.51453684922245,-34.0470172161702,-0.0111468686222969,34.0358703475479,17.0290820423962,-34.041443781859,17.0123617394628
1.51646865642809,-31.0498454679716,0.109055950853796,31.1589014188254,15.4703947585589,-31.1043734433985,15.6339786848396
1.51840046363373,-29.782409216704,0.187572572328531,29.9699817890325,14.7974183221877,-29.8761955028682,15.0787771806805
1.52033227083937,-30.6938919731882,0.231253584773915,30.9251455579621,15.2313191942071,-30.8095187655752,15.578199571368
1.52226407804501,-33.7442284859497,0.249561427760985,33.9937899137107,16.7473335290944,-33.8690091998302,17.1216756707359
1.52419588525065,-38.177027614631,0.251680387318063,38.4287080019491,18.9626736136565,-38.30286780829,19.3401941946336
1.52612769245629,-42.4255503498732,0.245083085304391,42.6706334351776,21.0902336322844,-42.5480918925254,21.457858260241
1.52805949966193,-44.4246038874946,0.235088287552314,44.659692175047,22.0947577999712,-44.5421480312708,22.4473902312996
1.52999130686757,-42.3528345361594,0.225002278402551,42.577836814562,21.0639161288784,-42.4653356753607,21.4014195464823
1.53192311407322,-35.4584725917433,0.216535140304725,35.675007732048,17.6209687257193,-35.5667401618957,17.9457714361764
1.53385492127886,-24.4652577292635,0.210286792463469,24.675544521727,12.1274854684,-24.5704011254952,12.4429156570952
1.5357867284845,-11.2720654001508,0.206185739653281,11.4782511398041,5.53293983024878,-11.3751582699775,5.8422184397287
1.53771853569014,1.76995394588232,0.203828626880758,-1.56612531900156,-0.98689128638154,1.66803963244194,-0.681148346060403
1.53965034289578,12.4732576046071,0.202710947815202,-12.2705466567919,-6.33798427621113,12.3719021306995,-6.03391785448833
1.54158215010142,19.1537090810693,0.202362556847989,-18.9513465242213,-9.67803581895866,19.0525278026453,-9.37449198368668
1.54351395730706,20.8920671646711,0.202411244063321,-20.6896559206077,-10.5472392043672,20.7908615426394,-10.2436223382722
1.5454457645127,17.7503704417727,0.202598583100175,-17.5477718586725,-8.97648451243644,17.6490711502226,-8.67258663778617
1.54737757171834,10.6913189100172,0.202768612843299,-10.4885502971739,-5.44704376143026,10.5899346035956,-5.14289084216532
1.54930937892398,1.21775983488783,0.202844531057073,-1.01491530383076,-0.710302182972451,1.11633756935929,-0.406035386386842
1.55124118612962,-8.94294351495296,0.202803226393692,9.14574674134665,4.37007014427963,-9.0443451281498,4.67427498387017
1.55317299333527,-18.0260554801656,0.202653053811778,18.2287085339774,8.91170121317692,-18.1273820070715,9.21568079389458
1.55510480054091,-24.413712171737,0.20241706917752,24.6161292409145,12.1056475512797,-24.5149207063257,12.409273155046
1.55703660774655,-26.8050375015663,0.202121925865054,27.0071594274313,13.3014577878506,-26.9060984644988,13.6046406766482
1.55896841495219,-24.3531080545188,0.201791569947894,24.5548996244667,12.0756582422854,-24.4540038394927,12.3783455972073
1.56090022215783,-16.8894745684156,0.201444471679959,17.0909190400956,8.34401504836782,-16.9901968042556,8.64618175588776
1.56283202936347,-5.20587257640852,0.201093142207536,5.40696571861606,2.50238971710049,-5.30641914751229,2.8040294304118
1.56476383656911,8.9041781777255,0.200744903956758,-8.70343327376874,-4.55246154084113,8.80380572574712,-4.25134418490599
1.56669564377475,23.0297242235715,0.200403171869328,-22.8293210517022,-11.6150636977204,22.9295226376369,-11.3144589399164
1.56862745098039,34.8133188700682,0.200068777534031,-34.6132500925342,-17.5066938238011,34.7132844813012,-17.2065906575001
1.57055925818603,42.6015643425352,0.199741089074841,-42.4018232534604,-21.400652715805,42.5016937979978,-21.1010410821928
1.57249106539167,45.8008097504132,0.199418835039442,-45.6013909153738,-23.0001142927263,45.7011003328935,-22.7009860401672
1.57442287259731,44.8613534628756,0.199100635836971,-44.6622528270387,-22.5302270493563,44.7618031449571,-22.2315760956008
1.57635467980296,40.9767487571897,0.198785294508122,-40.7779634626816,-20.5877670258489,40.8773561099357,-20.2895890840867
1.5782864870086,35.6585469204147,0.198471914482044,-35.4600750059326,-17.9285094174484,35.5593109631736,-17.6308015457253
1.58021829421424,30.3268959687621,0.198159908549337,-30.1287360602127,-15.2625279386557,30.2278160144874,-14.9652880758317
1.58215010141988,25.9517456859868,0.197848950551827,-25.753896735435,-13.0747973182693,25.8528212107109,-12.7780238924416
1.58408190862552,22.9390158301752,0.197538905968352,-22.7414769242069,-11.5682773680718,22.840246377191,-11.2719690091193
1.58601371583116,21.4370588804439,0.197229763543601,-21.2398291169003,-10.8171443219938,21.3384439986721,-10.5212996766784
1.5879455230368,21.7497826497093,0.196921579133371,-21.552861070576,-10.9733521144214,21.6513218601427,-10.6779697457213
1.58987733024244,24.4488599349015,0.196614435408588,-24.2522454994929,-12.3227371851551,24.3505527171972,-12.0278155320422
1.59180913744808,30.1284128201095,0.196308416580707,-29.9321044035288,-15.1623606183451,30.0302586118191,-14.867897993474
1.59374094465372,39.0055026958142,0.19600359516042,-38.8094991006538,-19.6007531454873,38.907500898234,-19.3067477527467
1.59567275185936,50.6616254370149,0.195700027171385,-50.4659254098435,-25.4286627320931,50.5637754234292,-25.1351126913361
1.59760455906501,64.114507799098,0.195397752549259,-63.9191100465487,-32.1549527758236,64.0168089228233,-31.8618561469997
1.59953636627065,78.1542240928009,0.195096798169739,-77.9591272946311,-39.1746604454853,78.056675693716,-38.8820152482307
1.60146817347629,91.6731015540912,0.194797181743366,-91.4783043723478,-45.9339493679173,91.5757029632195,-45.6417535953022
1.60339998068193,103.784248934475,0.194498915507648,-103.589750018967,-51.9893739249913,103.686999476721,-51.6976255517298
1.60533178788757,113.717474474567,0.194202009161323,-113.523272465406,-56.9558382418644,113.620373469987,-56.6645352281224
1.60726359509321,120.564697085074,0.193906471811963,-120.370790613262,-60.3793017784431,120.467743849168,-60.0884420707252
1.60919540229885,123.172368624457,0.193612312876703,-122.978756311581,-61.682990468667,123.075562468019,-61.3925719993519
1.61112720950449,120.602016427132,0.193319541935889,-120.408696885196,-60.3976679845338,120.505356656164,-60.1076886716299
1.61305901671013,112.9626320801,0.193028167548298,-112.769603912552,-56.5778301238242,112.866117996326,-56.2882878725018
1.61499082391577,101.817717489201,0.192738195053323,-101.624979294148,-51.0052278421271,101.721348391674,-50.7161205495472
1.61692263112141,89.7619028558835,0.192449623468866,-89.5694532324146,-44.9771762396762,89.665678044149,-44.6885018044729
1.61885443832706,79.5297675842385,0.192162441797762,-79.3376051424407,-39.8609650130181,79.4336863633396,-39.5727213503215
1.6207862455327,73.2030339890578,0.191876625423676,-73.0111573636341,-36.6974553072407,73.1070956763459,-36.4096403691052
1.62271805273834,71.7400819969957,0.19159213382851,-71.5484898631672,-35.9658370654121,71.6442859300815,-35.6784488646694
1.62464985994398,74.8325293419967,0.191308911569901,-74.6412204304268,-37.5119191267833,74.7368748862118,-37.2249557594285
1.62658166714962,81.1443838304809,0.191026895215587,-80.9533569352653,-40.6677053628483,81.0488703828731,-40.3811650200249
1.62851347435526,88.8547502005387,0.190746029524988,-88.6640041710137,-44.5227481150318,88.7593771857762,-44.2366290707443
1.6304452815609,96.2279740436658,0.19046629623395,-96.0375077474318,-48.2092201699499,96.1327408955488,-47.9235207255989
1.63237708876654,102.013763593545,0.190187757806931,-101.823575835738,-51.1019756756762,101.918669714642,-50.8166940389658
1.63430889597218,105.586144820662,0.189910615794069,-105.396234204868,-52.8880277182282,105.491189512765,-52.6031617945371
1.63624070317782,106.730400043607,0.189635278226493,-106.540764765381,-53.4600176609169,106.635582404494,-53.1755647435772
1.63817251038346,105.243935552714,0.189362422180166,-105.054573130534,-52.7166489874471,105.149254341624,-52.4326053541768
1.6401043175891,100.848777901627,0.189093026057458,-100.65968487557,-50.5189354638423,100.754231388598,-50.2352959247561
1.64203612479475,93.5872199242203,0.188828332019818,-93.3983915922005,-46.8880241281201,93.4928057582104,-46.6047816300904
1.64396793200039,84.2485012719928,0.188569684649763,-84.0599315873431,-42.2185354783213,84.154216429668,-41.9356809513467
1.64589973920603,74.4070606912924,0.188318181884705,-74.2187425094077,-37.2976894365885,74.31290160035,-37.0152121637615
1.64783154641167,66.0258596825045,0.188074076004232,-65.8377856065002,-33.1069668792543,65.9318226445023,-32.824855765248
1.64976335361731,60.7597292699054,0.187835886588812,-60.5718933833166,-30.4737825782471,60.665811326611,-30.1920287483639
1.65169516082295,59.3096651308372,0.187599247162406,-59.1220658836748,-29.7486321889998,59.215865507256,-29.4672333182562
1.65362696802859,61.2118700873928,0.187355616672665,-61.0245144707201,-30.6996128520327,61.1181922790564,-30.4185794270237
1.65555877523423,65.0822921380984,0.187091156795422,-64.895200981303,-32.6346916474469,64.9887465597007,-32.3540549122538
1.65749058243987,69.072446560328,0.186786307108653,-68.8856602532193,-34.6296164337183,68.9790534067737,-34.3494369730553
1.65942238964551,71.3014198774461,0.186416863680076,-71.115003013766,-35.7439183705631,71.208211445606,-35.464293075043
1.66135419685115,70.1780492766907,0.185957631747201,-69.9920916449435,-35.1820034542189,70.0850704608171,-34.9030670065981
1.6632860040568,64.6378546864498,0.185389883589805,-64.45246480286,-32.4116222850198,64.5451597446549,-32.1335374596351
1.66521781126244,54.201946194227,0.184713755301897,-54.0172324389251,-27.1933299747645,54.1095893165761,-26.9162593418116
1.66714961846808,38.8987728165428,0.183966148162924,-38.7148066683798,-19.5413694823528,38.8067897424613,-19.2654202601085
1.66908142567372,19.3920431959118,0.183243403334616,-19.2087997925772,-9.78764329962321,19.3004214942445,-9.51277819462129
1.67101323287936,-2.69197319918999,0.182725731564409,2.8746989307544,1.25462373381279,-2.78333606497219,1.5287123311594
1.672945040085,-24.7755177722734,0.182696923025002,24.9582146952984,12.2964104246242,-24.8668662337859,12.5704558091617
1.67487684729064,-44.0317110381511,0.183548276121014,44.2152593142721,21.924081381015,-44.1234851762116,22.1994037951966
1.67680865449628,-58.3751635463782,0.185750422270835,58.560913968649,29.0947065620537,-58.4680387575136,29.3733321954599
1.67874046170192,-67.0100393831622,0.189771897879032,67.1998112810412,33.4101337426416,-67.1049253321017,33.6947915894601
1.68067226890756,-70.4062199499947,0.195920948611448,70.6021408986061,35.1051495006916,-70.5041804243004,35.3990309236088
1.6826040761132,-70.0453688454252,0.204090273503989,70.2494591189292,34.9206392859606,-70.1474139821772,35.2267746962166
1.68453588331884,-68.0594620504005,0.213397469678725,68.2728595200792,33.9230322903609,-68.1661607852399,34.243128494879
1.68646769052449,-66.7441514918025,0.221741823251747,66.9658933150543,33.2612048342754,-66.8550224034284,33.593817569153
1.68839949773013,-68.0711777940508,0.225345621953015,68.2965234160038,33.9229160860489,-68.1838506050273,34.2609345189784
1.69033130493577,-73.2799982451118,0.2184181835624,73.4984164286742,36.5307900307747,-73.389207336893,36.8584173061183
1.69226311214141,-82.5049805177596,0.193171352822856,82.6981518705824,41.1559045824684,-82.601566194171,41.4456616117026
1.69419491934705,-94.5564642153545,0.140515667775503,94.69697988313,47.2079742737895,-94.6267220492422,47.4187477754527
1.69612672655269,-107.135013081814,0.0518526550994582,107.186865736914,53.5415802133573,-107.160939409364,53.6193591960065
1.69805853375833,-117.572723819459,-0.0775914734967365,117.495132345962,58.8251576464779,-117.533928082711,58.7087704362328
1.69999034096397,-123.820174445897,-0.243535724230604,123.576638721667,62.031855085064,-123.698406583782,61.6665514987181
1.70192214816961,-125.14791010061,-0.425457327904525,124.722452772705,62.7866837142571,-124.935181436657,62.1484977224003
1.70385395537525,-122.198887440676,-0.577982201424756,121.620905239251,61.3884348210502,-121.909896339963,60.5214615189131
1.70578576258089,-116.570369211584,-0.639752657044688,115.930616554539,58.6050609343143,-116.250492883062,57.6454319487473
1.70771756978654,-110.340120423494,-0.579381142401041,109.760739281093,55.4597507829475,-110.050429852293,54.5906790693459
1.70964937699218,-105.569379952427,-0.4279786933768,105.14140125905,52.998679322902,-105.355390605739,52.3567112828368
1.71158118419782,-103.666972011161,-0.246582443692971,103.420389567468,51.9567772274269,-103.543680789314,51.5869035618875
1.71351299140346,-104.905281778317,-0.0801753774309625,104.825106400886,52.4927285778741,-104.865194089602,52.3724655117276
1.7154447986091,-108.444606521549,0.05117102774241,108.495777549292,54.1967177469035,-108.470192035421,54.2734742885171
1.71737660581474,-112.814618716122,0.143618191739213,112.958236907862,56.3355002621916,-112.886427811992,56.5509275498005
1.71930841302038,-116.551033586287,0.202222737522949,116.75325632381,58.1744054243821,-116.652144955049,58.4777395306665
1.72124022022602,-118.663070133964,0.23545495445116,118.898525088415,59.2138075897563,-118.780797611189,59.566990021433
1.72317202743166,-118.770235944816,0.251506977651822,119.021742922468,59.2593644835822,-118.895989433642,59.6366249500599
1.7251038346373,-116.994105869745,0.256057460974289,117.250163330719,58.3690242043852,-117.122134600232,58.7531103958466
1.72703564184294,-113.718056405896,0.251116489819897,113.969172895716,56.7334699580382,-113.843614650806,57.110144692768
1.72896744904859,-109.37418995611,0.234673978306922,109.608863934417,54.5697579889015,-109.491526945263,54.9217689563619
1.73089925625423,-104.470203760326,0.201051272205484,104.671255032531,52.1345762440602,-104.570729396429,52.4361531523684
1.73283106345987,-99.7435925539208,0.142056236224392,99.8856487901452,49.8007681588482,-99.814620672033,50.0138525131848
1.73476287066551,-96.1299098358031,0.0492185812064386,96.1791284170096,48.0403456272983,-96.1545191264063,48.114173499108
1.73669467787115,-94.4522171264092,-0.082518315075268,94.3696988113339,47.2673677207422,-94.4109579688716,47.1435902481293
1.73862648507679,-95.0343483369502,-0.249315871084598,94.7850324658656,47.6418321040174,-94.9096904014079,47.2678582973905
1.74055829228243,-97.5891659800833,-0.431102606871564,97.1580633732117,49.0101342934774,-97.3736146766475,48.3634803831701
1.74249009948807,-101.437413649008,-0.582895535257875,100.854518113751,51.0101545921332,-101.14596588138,50.1358112892464
1.74442190669371,-105.786548180323,-0.643657518912113,105.142890661411,53.2151028496178,-105.464719420867,52.2496165712496
1.74635371389935,-109.957907226553,-0.58227751857557,109.375629707977,55.2700923725643,-109.666768467265,54.396676094701
1.74828552110499,-113.563405945598,-0.430143084846773,113.133262860751,56.9967745152224,-113.348334403175,56.3515598879522
1.75021732831063,-116.541596037843,-0.248611907463865,116.292984130379,58.3951039726533,-116.417290084111,58.0221861114575
1.75214913551628,-118.986820341893,-0.0830580782005498,118.903762263693,59.534939210047,-118.945291302793,59.4103520927462
1.75408094272192,-120.799252462198,0.0459956148864827,120.845248077084,60.3766284236557,-120.822250269641,60.4456218459855
1.75601274992756,-121.425337573563,0.134268145559593,121.559605719122,60.6455347140015,-121.492471646342,60.8469369323409
1.7579445571332,-120.087235640762,0.186533253925151,120.273768894687,59.9503511934186,-120.180502267725,60.2301510743063
1.75987636433884,-116.419225203501,0.211389350470702,116.630614553971,58.103917926515,-116.524919878736,58.4210019522211
1.76180817154448,-110.90386491486,0.217925826669657,111.12179074153,55.3429695440954,-111.012827828195,55.6698582840998
1.76373997875012,-104.728690886772,0.213930775846614,104.942621662618,52.2573800554625,-104.835656274695,52.5782762192325
1.76567178595576,-99.2503520891063,0.205194855615297,99.4555469447216,49.5225786167455,-99.3529495169139,49.8303709001684
1.7676035931614,-95.4200119416182,0.195495834670422,95.6155077762886,47.6122580534739,-95.5177598589534,47.9055018054795
1.76953540036704,-93.4114806639407,0.186934622623858,93.5984152865645,46.6122730206584,-93.5049479752526,46.8926749545942
1.77146720757268,-92.6736778258397,0.180394024655767,92.8540718504955,46.246641900592,-92.7638748381676,46.5172329375756
1.77339901477833,-92.4301711886537,0.175982013010462,92.6061532016642,46.1270945878216,-92.518162195159,46.3910676073373
1.77533082198397,-92.1676515232299,0.173391314382103,92.341042837612,45.9971301044239,-92.254347180421,46.257217075997
1.77726262918961,-91.7032515426174,0.17215462807617,91.8754061706936,45.7655484572706,-91.7893288566555,46.0237803993849
1.77919443639525,-91.0310539766638,0.171802660318007,91.2028566369818,45.4296256581729,-91.1169553068228,45.6873296486499
1.78112624360089,-90.2773010936544,0.171945203322752,90.4492462969771,45.0526779451658,-90.3632736953158,45.3105957501499
1.78305805080653,-89.7143055176518,0.172298711935569,89.8866042295874,44.7710034028581,-89.8004548736196,45.0294514707615
1.78498985801217,-89.686247497305,0.17268148870891,89.8589289860139,44.756783004298,-89.7725882416594,45.0158052373614
1.78692166521781,-90.486496936384,0.172992822278624,90.6594897586626,45.1567520570527,-90.5729933475233,45.4162412904706
1.78885347242345,-92.2239645633798,0.173187271453354,92.3971518348332,46.0253886459632,-92.3105581991065,46.2851695531433
1.79078527962909,-94.6845584419843,0.173250870807081,94.8578093127914,47.2556537855886,-94.7711838773879,47.5155300917992
1.79271708683473,-97.3262061343296,0.173182807783772,97.4993889421134,48.5765116632729,-97.4127975382215,48.8362858749486
1.79464889404037,-99.4893698424698,0.172984107332893,99.6623539498027,49.6581928675685,-99.5758618961363,49.9176690285678
1.79658070124602,-100.654209406123,0.172653827656534,100.826863233779,50.240777789233,-100.740536319951,50.4997585307178
1.79851250845166,-100.528204449486,0.172192862359138,100.700397311846,50.1780057935637,-100.614300880666,50.4362950871024
1.8004443156573,-99.007686098929,0.171615248833075,99.179301347762,49.4180354250479,-99.0934937233455,49.6754582982976
1.80237612286294,-96.2400892839504,0.17096647474045,96.4110557586908,48.034561404605,-96.3255725213206,48.2910111167157
1.80430793006858,-92.7555488709596,0.17034724291223,92.9258961138718,46.2926008140237,-92.8407224924157,46.548121678392
1.80623973727422,-89.3586148726801,0.169939142977152,89.5285540156573,44.5943378648515,-89.4435844441687,44.8492465793172
1.80817154447986,-86.7368864255178,0.170025455982154,86.9069118815,43.2834304847678,-86.8218991535089,43.5384686687411
1.8101033516855,-85.1389825207547,0.17099590781098,85.3099784285657,42.4839933064719,-85.2244804746602,42.7404871681883
1.81203515889114,-84.3564460803022,0.173319043844265,84.5297651241465,42.091563518229,-84.4431056022244,42.3515420839954
1.81396696609678,-83.9092385921778,0.177461143187178,84.086699735365,41.8658887244953,-83.9979691637714,42.1320804392761
1.81589877330242,-83.3001382847808,0.18372826233012,83.4838665471109,41.5582050112253,-83.3920024159458,41.8337974047205
1.81783058050807,-82.2681867201056,0.192011234440812,82.4601979545464,41.0380877428324,-82.364192337326,41.3261045944936
1.81976238771371,-80.9201973339595,0.201426499210958,81.1216238331704,40.3593854173743,-81.020910583565,40.6615251661907
1.82169419491935,-79.6803428390584,0.209873499324731,79.8902163383832,39.7352346698668,-79.7852795887208,40.0500449188539
1.82362600212499,-79.1406902371258,0.213576860291429,79.3542670974172,39.4635566884172,-79.2474786672715,39.7839219788543
1.82555780933063,-79.8467143556063,0.206751503550048,80.0534658591563,39.8199814260281,-79.9500901073813,40.1301086813532
1.82748961653627,-82.0101205702073,0.18161926828299,82.1917398384903,40.9142506509621,-82.1009302043488,41.1866795533866
1.82942142374191,-85.2859622387406,0.129105878015792,85.4150681167564,42.5784281803624,-85.3505151777485,42.7720869973861
1.83135323094755,-88.78483299193,0.0406331097497413,88.8254661016798,44.3720999410902,-88.8051495468049,44.4330496057148
1.83328503815319,-91.3914373694509,-0.0885494223841011,91.3028879470668,45.7399933959175,-91.3471626582589,45.6071692623414
1.83521684535883,-92.3056413431867,-0.254138945674752,92.0515023975119,46.2798901444307,-92.1785718703493,45.8986817259186
1.83714865256447,-91.4652344764871,-0.435601314083145,91.029633162404,45.9504178952851,-91.2474338194455,45.2970159241604
1.83908045977011,-89.5138489848898,-0.587575137212883,88.9262738476769,45.0507120610513,-89.2200614162834,44.169349355232
1.84101226697576,-87.3710247923343,-0.64875814162019,86.7222666507141,44.0098914669773,-87.0466457215242,43.036754254547
1.8429440741814,-85.7501800554428,-0.587883070838657,85.1622969846041,43.1690315631407,-85.4562385200235,42.2872069568827
1.84487588138704,-84.9044888414807,-0.436267754310892,84.4682210871698,42.6703782978958,-84.6863549643253,42.0159766664295
1.84680768859268,-84.6398354260177,-0.255255963727002,84.3845794622907,42.4475456948723,-84.5122074441542,42.0646617492818
1.84873949579832,-84.4929875716134,-0.0902299250707755,84.4027576465426,42.2916087483421,-84.447872609078,42.1562638607359
1.85067130300396,-83.9745463295807,0.038292038547916,84.0128383681286,41.9681271455164,-83.9936923488546,42.0255652033383
1.8526031102096,-82.7367912526242,0.126080579291963,82.8628718319162,41.3053553366661,-82.7998315422702,41.4944762056041
1.85453491741524,-80.6179804993326,0.178041252491398,80.796021751824,40.2199696234206,-80.7070011255783,40.4870315021577
1.85646672462088,-77.6854180977498,0.203011378466166,77.888429476216,38.7412033596418,-77.7869237869829,39.0457204273411
1.85839853182652,-74.267377652553,0.210438747359635,74.4778163999127,37.0284694525967,-74.3725970262328,37.3441275736361
1.86033033903216,-70.8644620742718,0.208573061464043,71.0730351357358,35.3279445064039,-70.9687486050038,35.6408040985999
1.86226214623781,-68.0121994425185,0.203705090267559,68.215904532786,33.9042471761255,-68.1140519876522,34.2098048115268
1.86419395344345,-66.1762136238965,0.200014403830561,66.3762280277271,32.988099610033,-66.2762208258118,33.2881212157788
1.86612576064909,-65.6189394933205,0.199673527619042,65.8186130209396,32.7096329828507,-65.71877625713,33.0091432742793
1.86805756785473,-66.3036643004262,0.202966247185836,66.506630547612,33.0503490266202,-66.4051474240191,33.3547983973989
1.86998937506037,-67.9986552331306,0.208291536978244,68.2069467701088,33.8951818480762,-68.1028010016197,34.2076191535435
1.87192118226601,-70.509724088828,0.212036790273471,70.7217608791014,35.1488436492772,-70.6157424839647,35.4668988346875
1.87385298947165,-73.8538160731955,0.208416665996461,74.062232739192,36.8226997035995,-73.9580244061937,37.1353247025942
1.87578479667729,-78.2386036938709,0.189489834258923,78.4280935281298,39.024556929806,-78.3333486110004,39.3087916811944
1.87771660388293,-83.7436485090711,0.145682466694173,83.8893309757652,41.7989830211885,-83.8164897424182,42.0175067212297
1.87964841108857,-89.9127847107978,0.0672496354773566,89.9800343462752,44.9227675376602,-89.9464095285365,45.0236419908763
1.88158021829421,-95.7737723611818,-0.0528391429053225,95.7209332182765,47.9133057520436,-95.7473527897291,47.8340470376856
1.88351202549986,-100.379939340212,-0.214151804363275,100.165787535848,50.2970455722874,-100.27286343803,49.9758178657425
1.8854438327055,-103.281511487575,-0.401974558204561,102.87953692937,51.8417430228897,-103.080524208473,51.2387811855828
