t,leadI,leadII,leadIII,aVR,aVL,aVF
0,-5.52229447948637,0.294195586088909,5.81649006557528,2.61404944669873,-5.66939227253083,3.0553428258321
0.00193180720564088,-4.5738732821198,0.262820489729432,4.83669377184923,2.15552639619518,-4.70528352698451,2.54975713078933
0.00386361441128175,8.56109855016025,0.194467914466183,-8.36663063569406,-4.37778323231321,8.46386459292715,-4.08608136061394
0.00579542161692263,17.6364112611516,0.122781178390365,-17.5136300827612,-8.87959621977097,17.5750206719564,-8.69542445218543
0.00772722882256351,37.5185928420413,-3.79609439809333,-41.3146872401346,-16.861249221974,39.416640041088,-22.555390819114
0.00965903602820439,48.5232383392707,0.105649125736597,-48.4175892135341,-24.3144437325037,48.4704137764025,-24.1559700438988
0.0115908432338453,54.8113469535009,0.168517863610794,-54.6428290898901,-27.4899324085558,54.7270880216955,-27.2371556131396
0.0135226504394861,60.9767557922156,0.240593587499913,-60.7361622047157,-30.6086746898578,60.8564589984657,-30.2477843086079
0.015454457645127,44.5301138245574,0.286327059097754,-44.2437867654596,-22.4082204418276,44.3869502950085,-21.9787298531809
0.0173862648507679,40.9092008259777,0.284618023288159,-40.6245828026895,-20.5969094246329,40.7668918143336,-20.1699823897007
0.0193180720564088,30.6129082897951,0.238535647892417,-30.3743726419027,-15.4257219688438,30.4936404658489,-15.0679184970051
0.0212498792620496,36.2786480398714,0.172668112290848,-36.1059799275806,-18.2256580760811,36.192313983726,-17.9666559076449
0.0231816864676905,53.1114400890156,0.119985905428349,-52.9914541835872,-26.615712997222,53.0514471363014,-26.4357341390794
0.0251134936733314,57.1205960671406,0.105242339128118,-57.0153537280125,-28.6129192031344,57.0679748975765,-28.4550556944422
0.0270453008789723,52.0997014809137,0.133317877719356,-51.9663836031943,-26.1165096793165,52.033042542054,-25.9165328627375
0.0289771080846132,38.6284578106982,0.188015480253058,-38.4404423304452,-19.4082366454756,38.5344500705717,-19.1262134250961
0.030908915290254,29.2950422923267,0.241299785444734,-29.0537425068819,-14.7681710388857,29.1743923996043,-14.4062213607186
0.0328407224958949,17.1421991549986,0.267761092450079,-16.8744380625485,-8.70498012372432,17.0083186087735,-8.3033384850492
0.0347725297015358,10.1919837541008,0.256796272253932,-9.93518748184691,-5.22439001317739,10.0635856179739,-4.83919560479649
0.0367043369071767,0.259694207136764,0.216628761531653,-0.0430654456051116,-0.238161484334209,0.151379826370938,0.0867816579632706
0.0386361441128175,-5.76637979270373,0.168778769799825,5.93515856250355,2.79880051145195,-5.85076917760364,3.05196866615169
0.0405679513184584,6.74995962419848,0.136479369512128,-6.61348025468635,-3.4432194968553,6.68171993944241,-3.23850044258711
0.0424997585240993,17.9364705940452,0.133295674649161,-17.803174919396,-9.03488313434718,17.8698227567206,-8.83493962237343
0.0444315657297402,39.6587187761864,0.157577680750063,-39.5011410954364,-19.9081482284682,39.5799299358114,-19.6717817073432
0.0463633729353811,26.1393456903373,0.194934835003355,-25.9444108553339,-13.1671402626703,26.0418782728356,-12.8747380101653
0.0482951801410219,9.44302468149117,0.226658577842279,-9.21636610364889,-4.83484162966672,9.32969539257003,-4.4948537629033
0.0502269873466628,-13.657058616423,-3.64124744040782,10.0158111760151,8.6491530284154,-11.8364348962191,3.18728186780366
0.0521587945523037,-12.1862568900704,0.235560949790684,12.4218178398611,5.97534797013988,-12.3040373649658,6.32868939482591
0.0540906017579446,-21.8816108214618,0.211599700269446,22.0932105217313,10.8350055605962,-21.9874106715965,11.1524051110004
0.0560224089635854,-32.1578506294402,0.178585484761926,32.3364361142021,15.9896325723391,-32.2471433718211,16.257510799482
0.0579542161692263,-47.640506648759,0.152116537614913,47.792623186374,23.7441950555721,-47.7165649175665,23.9723698619944
0.0598860233748672,-56.7141709365949,0.144674878334532,56.8588458149294,28.2847480291302,-56.7865083757621,28.501760346632
0.0618178305805081,-66.4521783772862,0.159701543704719,66.6118799209909,33.1462384167907,-66.5320291491386,33.3857907323478
0.0637496377861489,-64.1651611416838,0.190045822422904,64.3552069641067,31.9875576596305,-64.2601840528953,32.2726263932648
0.0656814449917898,-60.6610271511783,0.221464446548981,60.8824915977273,30.2197813523146,-60.7717593744528,30.5519780221381
0.0676132521974307,-55.7392700537207,0.239404775882935,55.9786748296036,27.7499326389189,-55.8589724416621,28.1090398027433
0.0695450594030716,-61.5777550009627,0.235783475160514,61.8135384761232,30.6709857629011,-61.695646738543,31.0246609756419
0.0714768666087125,-55.870101268843,0.212577051264933,56.0826783201079,27.828762108789,-55.9763897944754,28.1476276856864
0.0734086738143533,-47.3293891710404,0.180657431774074,47.5100466028145,23.5743658696332,-47.4197178869275,23.8453520172943
0.0753404810199942,-44.1357693552352,0.154590805691825,44.2903601609271,21.9905892747717,-44.2130647580811,22.2224754833094
0.0772722882256351,-53.7007769991638,0.145951209292225,53.846728208456,26.7774128949358,-53.7737526038099,26.9963397088741
0.079204095431276,-71.1947772354273,0.15824674840672,71.353023983834,35.5182652435103,-71.2739006096307,35.7556353661204
0.0811359026369168,-76.1748800869097,-3.69481585607318,72.4800642308365,39.9348479714914,-74.3274721588731,34.3926241873817
0.0830677098425577,-68.0891941586796,0.221499356852635,68.3106935155322,33.9338474009135,-68.1999438371059,34.2660964361924
0.0849995170481986,-54.9126485680826,0.240808139321664,55.1534567074043,27.3359202143805,-55.0330526377434,27.697132423363
0.0869313242538395,-52.9991630326399,0.233793131445271,53.2329561640852,26.3826849505973,-53.1160595983626,26.7333746477652
0.0888631314594804,-43.9205740611825,0.205180177399158,44.1257542385817,21.8576969418917,-44.0231641498821,22.1654672079904
0.0907949386651212,-36.0838957407532,0.171095124725485,36.2549908654787,17.9564003080139,-36.169443303116,18.2130429951021
0.0927267458707621,-13.955975090003,0.149923706297818,14.1058987963008,6.90302569185257,-14.0309369431519,7.12791125129929
0.094658553076403,-4.08510742106309,-3.72813115838203,0.356976262681062,3.90661928972256,-2.22104184187208,-1.68557744785048
0.0965903602820439,-13.300613606826,0.18151831246505,13.482131919291,6.55954764718045,-13.3913727630585,6.83182511587803
0.0985221674876847,-33.0727364381743,0.212084674993662,33.284821113168,16.4303258815903,-33.1787787756712,16.7484528940808
0.100453974693326,-51.5733445015677,-3.65467746525604,47.9186670363116,27.6140109834119,-49.7460057689396,22.1319947855278
0.102385781898966,-73.1914497754383,0.22229273110095,73.4137425065393,36.4845785221687,-73.3025961409888,36.8180176188201
0.104317589104607,-91.0809470304116,0.198689514192825,91.2796365446045,45.4411287581094,-91.1802917875081,45.7391630293986
0.106249396310248,-90.5529807213738,0.17062715111229,90.7236078724861,45.1911767851308,-90.6382942969299,45.4471175117992
0.108181203515889,-95.2086953250472,0.156764780811565,95.3654601058587,47.5259652721178,-95.287077715453,47.7611124433352
0.11011301072153,-108.510937422072,0.166928674679163,108.677866096751,54.1720043736964,-108.594401759411,54.4223973857151
0.112044817927171,-106.243477601442,0.195636088601257,106.439113690044,53.0239207564206,-106.341295645743,53.3173748893225
0.113976625132812,-99.1553608087451,0.225062150585849,99.3804229593309,49.4651493290796,-99.267891884038,49.8027425549584
0.115908432338453,-94.6313276618211,0.23584029900415,94.8671679608252,47.1977436814085,-94.7492478113231,47.5515041299147
0.117840239544094,-73.6065877243772,0.219274937562774,73.82586266194,36.6936563934072,-73.7162251931586,37.0225687997514
0.119772046749734,-68.0266942487097,-3.69697094366025,64.3297233050495,35.861832596185,-66.1782087768796,30.3163761806946
0.121703853955375,-59.409095188823,0.155106115092352,59.5642013039153,29.6269945368653,-59.4866482463691,29.8596537095038
0.123635661161016,-52.1015931713171,0.143996511447863,52.245589682765,25.9787983299346,-52.173591427041,26.1947930971064
0.125567468366657,-14.8133028944013,0.15781241140862,14.9711153058099,7.32774524149632,-14.8922091001056,7.56446385860925
0.127499275572298,57.1204583453353,0.191318431639502,-56.9291399136957,-28.6558883884874,57.0247991295155,-28.3689107410281
0.129431082777939,149.092063925799,0.228098270190896,-148.863965655609,-74.6600810979952,148.978014790704,-74.3179336927088
0.13136288998358,257.829479876599,0.248629981758689,-257.58084989484,-129.039054929179,257.705164885719,-128.666109956541
0.133294697189221,367.809781455836,0.240743699708569,-367.569037756128,-184.025262577772,367.689409605982,-183.66414702821
0.135226504394861,470.675645985128,0.206817409554735,-470.468828575573,-235.441231697341,470.57223728035,-235.131005583009
0.137158311600502,561.643348710412,0.163476913677563,-561.479871796734,-280.903412812045,561.561610253573,-280.658197441528
0.139090118806143,628.289494133042,0.13345240582469,-628.156041727218,-314.211473269434,628.22276793013,-314.011294660697
0.141021926011784,662.573967482867,0.133579436699494,-662.440388046167,-331.353773459783,662.507177764517,-331.153404304734
0.142953733217425,657.089316551402,0.165314455788006,-656.924002095614,-328.627315503595,657.006659323508,-328.379343819913
0.144885540423066,601.00241312995,0.21311937707144,-600.789293752878,-300.607766253511,600.895853441414,-300.288087187903
0.146817347628707,533.989282830861,0.252030442117447,-533.737252388744,-267.120656636489,533.863267609802,-266.742610973313
0.148749154834348,429.32532597135,0.260743946331018,-429.064582025019,-214.793034958841,429.194953998185,-214.401919039344
0.150680962039988,310.15236508785,0.233335885708018,-309.919029202142,-155.192850486779,310.035697144996,-154.842846658217
0.152612769245629,199.099726644283,0.183148444798847,-198.916578199484,-99.6414375445409,199.008152421883,-99.3667148773426
0.15454457645127,87.566350982532,0.136366695497627,-87.4299842870343,-43.8513588390148,87.4981676347832,-43.6468087957684
0.156476383656911,21.5609220352112,0.118340240288452,-21.4425817949227,-10.8396311377498,21.501751915067,-10.6621207773171
0.158408190862552,-26.1253096707871,0.139803277843762,26.2651129486309,12.9927531964717,-26.195211309709,13.2024581132373
0.160339998068193,-20.0136884495848,0.190500070987227,20.2041885205721,9.9115941892988,-20.1089384850784,10.1973442957796
0.162271805273834,-17.4867686258521,0.243981312687368,17.7307499385395,8.62139365658238,-17.6087592821958,8.98736562561343
0.164203612479475,1.62457717965967,0.271385780697084,-1.35319139896259,-0.947981480178379,1.48888428931113,-0.540902809132753
0.166135419685115,10.4072259433782,0.257033675583658,-10.1501922677946,-5.33212980948094,10.2787091055864,-4.94657929610545
0.168067226890756,20.0969671265976,0.207400869490533,-19.889566257107,-10.1521839980441,19.9932666918523,-9.84108269380826
0.169999034096397,22.0030277912847,0.148345681603939,-21.8546821096807,-11.0756867364443,21.9288549504827,-10.8531682140384
0.171930841302038,19.0110940521889,0.111684683652818,-18.8994093685361,-9.56138936792087,18.9552517103625,-9.39386234244164
0.173862648507679,2.81496160436855,0.118064820836599,-2.69689678353195,-1.46651321260257,2.75592919395025,-1.28941598134768
0.17579445571332,-26.3438778607382,0.165344536906704,26.5092223976449,13.0892666619157,-26.4265501291915,13.3372834672758
0.177726262918961,-55.867479059758,0.229011119382427,56.0964901791405,27.8192339701878,-55.9819846194492,28.1627506492614
0.179658070124602,-69.0388502858705,0.274817744906756,69.3136680307772,34.3820162704818,-69.1762591583238,34.794242887842
0.181589877330242,-68.9363882502625,0.277159012469152,69.2135472627316,34.3296146188967,-69.0749677564971,34.7453531376004
0.183521684535883,-59.4491498746728,0.233347274795792,59.6824971494686,29.6079012999385,-59.5658235120707,29.9579222121322
0.185453491741524,-49.1713743544386,0.165851905799004,49.3372262602376,24.5027612243198,-49.2543003073381,24.7515390830183
0.187385298947165,-54.870896782655,-3.76959981958695,51.1012969630681,29.320248301121,-52.9860968728616,23.6658485717406
0.189317106152806,-58.16417046423,0.104589065631034,58.2687595298611,29.0297906992995,-58.2164649970456,29.1866742977461
0.191248913358447,-74.8892258621719,0.143251886565025,75.0324777487369,37.3729869878034,-74.9608518054544,37.587864817651
0.193180720564088,-81.183106261506,0.205779817855101,81.3888860793611,40.4886632218254,-81.2859961704335,40.7973329486081
0.195112527769729,-91.4040050407752,0.259505366687273,91.6635104074625,45.572249837044,-91.5337577241189,45.9615078870749
0.197044334975369,-81.0588619010569,0.277178277126038,81.3360401781829,40.3908418119654,-81.1974510396199,40.8066092276545
0.19897614218101,-84.4453300249236,0.250827318814551,84.6961573437382,42.0972513530545,-84.5707436843309,42.4734923312764
0.200907949386651,-74.6093006458504,0.195399015621144,74.8046996614715,37.2069508151146,-74.707000153661,37.5000493385463
0.202839756592292,-60.3133264400934,0.140481633387578,60.453808073481,30.0864224033529,-60.3835672567872,30.2971448534343
0.204771563797933,-62.2606350578381,0.114610678707191,62.3752457365453,31.0730121895654,-62.3179403971917,31.2449282076262
0.206703371003574,-69.7435346398685,0.130435339801935,69.8739699796705,34.8065496500333,-69.8087523097695,35.0022026597362
0.208635178209215,-71.2531164333491,0.178461533441257,71.4315779667903,35.5373274499539,-71.3423472000697,35.8050197501158
0.210566985414856,-93.2367550995817,0.232507029737217,93.4692621293189,46.5021240349222,-93.3530086144503,46.8508845795281
0.212498792620496,-95.6224075016573,0.263830703998779,95.8862382056561,47.6792883988293,-95.7543228536567,48.0750344548275
0.214430599826137,-88.9123858743555,0.256375691174364,89.1687615655298,44.3280050915906,-89.0405737199427,44.7125686283521
0.216362407031778,-76.5023642001353,0.215059954439944,76.7174241545753,38.1436521228477,-76.6098941773553,38.4662420545076
0.218294214237419,-66.5395960249373,-3.71766179537802,62.8219342295593,35.1286289101577,-64.6807651272483,29.5521362170906
0.22022602144306,-60.0765789091,0.133609406102731,60.2101883152027,29.9714847514986,-60.1433836121514,30.1718988606527
0.222157828648701,-66.0915919526756,0.134200473375743,66.2257924260513,32.9786957396499,-66.1586921893634,33.1799964497135
0.224089635854342,-73.742621627137,0.162007674060859,73.9046293011979,36.7903069765381,-73.8236254641674,37.0333184876294
0.226021443059983,-79.1849710947875,0.201919076018967,79.3868901708065,39.4915260093843,-79.285930632797,39.7944046234127
0.227953250265623,-81.6874010251769,0.234372547861747,81.9217735730386,40.7265142386576,-81.8045872991078,41.0780730604502
0.229885057471264,-72.3299632605475,0.244895047432369,72.5748583079799,36.0425341065576,-72.4524107842637,36.4098766777061
0.231816864676905,-65.5910237085149,0.230459271550486,65.8214829800654,32.6802822184822,-65.7062533442902,33.0259711258079
0.233748671882546,-60.9909993688999,0.199916800275709,61.1909161691756,30.3955412843121,-61.0909577690378,30.6954164847257
0.235680479088187,-66.5996283671433,0.16880925110468,66.768437618248,33.2154095580193,-66.6840329926957,33.4686234346763
0.237612286293828,-63.9733507221014,0.151504694859113,64.1248554169605,31.9109230136211,-64.0491030695309,32.1381800559098
0.239544093499469,-62.0923076348972,0.154617587389811,62.246925222287,30.9688450237537,-62.1696164285921,31.2007714048384
0.24147590070511,-50.2214564216327,0.174698411330942,50.3961548329637,25.0233790051509,-50.3088056272982,25.2854266221473
0.243407707910751,-40.1754127777471,0.200864969785432,40.3762777475325,19.9872739039808,-40.2758452626398,20.288571358659
0.245339515116391,-50.6600747976886,0.220628871886825,50.8807036695754,25.2197229629009,-50.770389233632,25.5506662707311
0.247271322322032,-53.2119350402453,0.225828462653634,53.4377635028989,26.4930532887958,-53.3248492715721,26.8317959827763
0.249203129527673,-54.3468989576025,0.215860986462544,54.562759944065,27.06551898557,-54.4548294508337,27.3893104652638
0.251134936733314,-53.4717380489227,0.197012206520092,53.6687502554428,26.6373629212013,-53.5702441521828,26.9328812309815
0.253066743938955,-43.1954052199912,0.178688142071501,43.3740933620627,21.5083585389598,-43.2847492910269,21.7763907520671
0.254998551144596,-28.5934845020467,0.168732756075257,28.762217258122,14.2123758729857,-28.6778508800844,14.4654750070986
0.256930358350237,-18.875383297177,0.170159416957014,19.0455427141341,9.35261194011001,-18.9604630056555,9.60785106554554
0.258862165555878,-15.0215034577464,0.18061073589779,15.2021141936442,7.42044636092431,-15.1118088256953,7.69136246477099
0.260793972761518,-24.8116604646345,0.194344922379265,25.0060053870138,12.3086577711276,-24.9088329258241,12.6001751546965
0.262725779967159,-27.862035345624,0.205359734875999,28.0673950805,13.828337805374,-27.964715213062,14.136377407688
0.2646575871728,-30.4540758073162,0.209965856209486,30.6640416635257,15.1220549755533,-30.5590587354209,15.4370037598676
0.266589394378441,-19.674459399954,0.207730439262498,19.8821898392165,9.73336448034574,-19.7783246195852,10.0449601392395
0.268521201584082,-14.5027519647751,0.200761777011732,14.7035137417868,7.15099509388168,-14.603132853281,7.45213775939928
0.270453008789723,-0.0223443704367003,0.192155369722423,0.214499740159123,-0.0849054996428611,-0.118422055297912,0.203327554940773
0.272384815995364,2.99045526450428,0.184632011525901,-2.80582325297838,-1.58754363801509,2.89813925874133,-1.31059562072624
0.274316623201005,12.4886860251247,0.17996404373354,-12.3087219813912,-6.33432503442914,12.398704003258,-6.06437896882883
0.276248430406645,4.33314862168317,0.179089705299087,-4.15405891638408,-2.25611916349113,4.24360376903363,-1.9874846055425
0.278180237612286,-5.76006302341926,0.182357442509081,5.94242046592834,2.78885279045509,-5.8512417446738,3.06238895421871
0.280112044817927,-20.5448052908817,0.189412702740431,20.7342179936221,10.1776962940706,-20.6395116422519,10.4618153481813
0.282043852023568,-22.9786642315872,0.198741543487719,23.1774057750749,11.3899613440497,-23.078035003331,11.6880736592813
0.283975659229209,-15.7863845641307,0.207408866576893,15.9937934307076,7.78948784877689,-15.8900889974191,8.10060114864223
0.28590746643485,-6.47991253709342,0.21163469725881,6.69154723435223,3.1341389199173,-6.58572988572282,3.45159096580552
0.287839273640491,-7.45329752573259,0.208379440657119,7.66167696638971,3.62245904253774,-7.55748724606115,3.93502820352341
0.289771080846132,3.20575806292475,0.197314763136225,-3.00844329978853,-1.70153641303049,3.10710068135664,-1.40556426832615
0.291702888051772,12.4766365426125,0.181979468049905,-12.2946570745626,-6.32930800533118,12.3856468085875,-6.05633880325633
0.293634695257413,19.6440241069872,0.169042952283593,-19.4749811547036,-9.90653352963538,19.5595026308454,-9.65296910120999
0.295566502463054,24.9955800578033,0.165510587296617,-24.8300694705067,-12.58054532255,24.912824764155,-12.332279441605
0.297498309668695,21.9229211394261,0.174975384463629,-21.7479457549625,-11.0489482619449,21.8354334471943,-10.7864851852494
0.299430116874336,19.6664549307014,0.194897367687874,-19.4715575630136,-9.93067614919465,19.5690062468575,-9.63833009766284
0.301361924079977,23.1901998334653,0.216734771414772,-22.9734650620505,-11.70346730244,23.0818324477579,-11.3783651453179
0.303293731285618,36.5369206513117,0.229450959056777,-36.3074696922549,-18.3831858051842,36.4221951717833,-18.0390093665991
0.305225538491259,47.2280450987808,0.225054616073496,-47.0029904827073,-23.7265498574271,47.115517790744,-23.3889679333169
0.307157345696899,42.2151084025917,0.20341463848162,-42.01169376411,-21.2092615205366,42.1134010833508,-20.9041395628142
0.30908915290254,47.37708581227,0.173535224811329,-47.2035505874587,-23.7753105185407,47.2903181998644,-23.5150076813237
0.311020960108181,42.706900505178,0.150028189193452,-42.5568723159845,-21.4284643471857,42.6318864105813,-21.2034220633955
0.312952767313822,59.6358168124461,0.146024619572488,-59.4897921928736,-29.8909207160093,59.5628045026599,-29.6718837866506
0.314884574519463,68.2638912879603,0.165930840243382,-68.0979604477169,-34.2149110641018,68.1809258678386,-33.9660148037367
0.316816381725104,70.0131701254998,0.201980748135992,-69.8111893773638,-35.1075754368179,69.9121797514319,-34.8046043146139
0.318748188930745,69.7971855052776,0.236949402249738,-69.5602361030279,-35.0170674537637,69.6787108041528,-34.6616433503891
0.320679996136386,71.6350817890662,0.25229442941749,-71.3827873596487,-35.9436881092419,71.5089345743575,-35.5652464651156
0.322611803342026,66.9200288108008,0.23792886930429,-66.6820999414965,-33.5789788400526,66.8010643761487,-33.2220855360961
0.324543610547667,65.8608589348638,0.19850602152633,-65.6623529133374,-33.029682478195,65.7616059241006,-32.7319234459056
0.326475417753308,70.9721336566457,0.152438903916977,-70.8196947527288,-35.5622862802813,70.8959142046872,-35.3336279244059
0.328407224958949,69.967703779329,-3.75703347818503,-73.724737257514,-33.105335150572,71.8462205184215,-38.7408853678495
0.33033903216459,63.2783543219066,0.133959195396125,-63.1443951265104,-31.7061567586513,63.2113747242085,-31.5052179655572
0.332270839370231,63.8718401160489,0.172599256351535,-63.6992408596974,-32.0222196862002,63.7855404878732,-31.7633208016729
0.334202646575872,50.0454344346606,0.220208801373072,-49.8252256332875,-25.1328216180168,49.935330033974,-24.8025084159572
0.336134453781513,38.4306648784059,0.253707986705647,-38.1769568917003,-19.3421864325558,38.3038108850531,-18.9616244524973
0.338066260987153,52.3622280833918,0.25717844708941,-52.1050496363024,-26.3097032652406,52.2336388598471,-25.9239355946065
0.339998068192794,71.3385306053981,0.229372667267197,-71.1091579381309,-35.7839516363326,71.2238442717645,-35.4398926354318
0.341929875398435,97.5468542432185,0.184123395955903,-97.3627308472626,-48.8654888195872,97.4547925452406,-48.5893037256534
0.343861682604076,106.243888315484,0.143540774471034,-106.100347541013,-53.1937145449778,106.172117928249,-52.9784033832712
0.345793489809717,120.250381409974,0.127300115858248,-120.123081294115,-60.1888407629159,120.186731352045,-59.9978905891286
0.347725297015358,109.253158710708,0.143158551541131,-109.110000159167,-54.6981586311245,109.181579434937,-54.4834208038128
0.349657104220999,78.7496810968263,0.183239081358867,-78.5664420154674,-39.4664600890926,78.6580615561468,-39.1916014670543
0.35158891142664,61.4711211733011,0.227867696739922,-61.2432534765612,-30.8494944350205,61.3571873249311,-30.5076928899106
0.353520718632281,73.7957286258427,0.255135457369447,-73.5405931684732,-37.0254320416061,73.668160897158,-36.6427288555519
0.355452525837921,92.0254507861148,0.251591439329907,-91.7738593467849,-46.1385211127223,91.8996550664498,-45.7611339537275
0.357384333043562,83.7119992444033,0.218883403721688,-83.4931158406816,-41.9654413240625,83.6025575425425,-41.63711621848
0.359316140249203,78.2822680783268,0.173065915257966,-78.1092021630688,-39.2276669967924,78.1957351206978,-38.9680681239054
0.361247947454844,70.7655677015722,0.136819246796116,-70.628748454776,-35.4511934741841,70.6971580781741,-35.24596460399
0.363179754660485,57.2285962017605,0.128294836941316,-57.1003013648192,-28.6784455193509,57.1644487832899,-28.4860032639389
0.365111561866126,61.9326284500578,0.152032696268521,-61.7805957537893,-31.0423305731632,61.8566121019236,-30.8142815287604
0.367043369071767,47.5405005300119,0.196490386201747,-47.3440101438101,-23.8684954581068,47.442255336911,-23.5737598788042
0.368975176277408,23.1227136818894,0.239551823565648,-22.8831618583237,-11.6811327527275,23.0029377701065,-11.321805017379
0.370906983483048,-3.04215857121337,0.259445557225672,3.30160412843904,1.39135650699385,-3.1718813498262,1.78052484283236
0.372838790688689,-15.9526649303233,0.245728553129182,16.1983934834525,7.85346818859708,-16.0755292068879,8.22206101829085
0.37477059789433,-9.15885448112784,0.204807735967516,9.36366221709535,4.47702337258016,-9.2612583491116,4.78423497653144
0.376702405099971,4.2435409251391,0.157061879585318,-4.08647904555378,-2.20030140236221,4.16500998534644,-1.96470858298423
0.378634212305612,11.7597622100531,-3.75367683136428,-15.5134390414174,-4.00304268934442,13.6366006257353,-9.63355793639084
0.380566019511253,29.0896416902047,0.135499789546946,-28.9541419006578,-14.6125707398758,29.0218917954312,-14.4093210555554
0.382497826716894,22.3771236615927,0.170516569440106,-22.2066070921526,-11.2738201155164,22.2918653768726,-11.0180452613562
0.384429633922535,16.3633156841773,0.212838619514297,-16.150477064663,-8.28807715184581,16.2568963744202,-7.96881922257437
0.386361441128175,-3.41193457697079,0.241690953321749,3.65362553029254,1.58512181182452,-3.53278005363167,1.94765824180715
0.388293248333816,-13.5070797282656,0.244653716674904,13.7517334449405,6.63121300579536,-13.6294065866031,6.99819358080772
0.390225055539457,-30.2877699124267,0.22285729592528,30.5106272083519,15.0324563082507,-30.3991985603893,15.3667422521386
0.392156862745098,-43.4770896050885,0.18915670866948,43.666246313758,21.6439664482095,-43.5716679594232,21.9277015112137
0.394088669950739,-46.5064519467565,0.160802180897928,46.6672541276544,23.1728248829293,-46.5868530372054,23.4140281542762
0.39602047715638,-39.7988362908973,0.150678953766454,39.9495152446637,19.8240786685654,-39.8741757677805,20.0500970992151
0.397952284362021,-46.0820178677482,0.161528465108316,46.2435463328565,22.96024470132,-46.1627821003024,23.2025373989824
0.399884091567662,-64.0828350451975,0.185699426555651,64.2685344717531,31.9485678093209,-64.1756847584753,32.2271169491544
0.401815898773302,-73.0843052663694,0.210014417063362,73.2943196834327,36.437145424653,-73.189312474901,36.752167050248
0.403747705978943,-72.4578894251878,0.22283874127891,72.6807281664667,36.1175253419545,-72.5693087958273,36.4517834538728
0.405679513184584,-74.2217875111404,0.219613448842198,74.4414009599826,37.0010870311491,-74.3315942355615,37.3305072044124
0.407611320390225,-67.8767691354114,0.204240393661253,68.0810095290727,33.8362643708751,-67.978889332242,34.142624961367
0.409543127595866,-74.1329772873193,0.18605554941804,74.3190328367373,36.9734608689506,-74.2260050620283,37.2525441930777
0.411474934801507,-66.5769959047999,0.174403149043201,66.7513990538431,33.2012963778783,-66.6641974793215,33.4629011014431
0.413406742007148,-79.9909214487587,0.173865249050057,80.1647866978087,39.9085280998543,-80.0778540732837,40.1693259734294
0.415338549212789,-70.6968714037725,0.182565889334713,70.8794372931072,35.2571527572189,-70.7881543484399,35.531001591221
0.417270356418429,-72.3927787944496,0.194115374145507,72.5868941685951,36.099331710152,-72.4898364815223,36.3905047713703
0.41920216362407,-68.6880335968649,0.201756446656999,68.8897900435219,34.243138575104,-68.7889118201934,34.5457732450895
0.421133970829711,-67.3014027644712,-3.67826240503523,63.623140359436,35.4898325847532,-65.4622715619536,29.9724389772004
0.423065778035352,-76.7635258431259,0.202656230672024,76.9661820737979,38.2804348062269,-76.8648539584619,38.584419152235
0.424997585240993,-78.8158167844171,0.196133666950063,79.0119504513672,39.3098415587335,-78.9138836178922,39.6040420591586
0.426929392446634,-89.9245711426578,0.185874703862372,90.1104458465202,44.8693482193977,-90.017508494589,45.1481602751913
0.428861199652275,-90.9204140036626,0.178173878314998,91.0985878819776,45.3711200626738,-91.0095009428201,45.6383808801463
0.430793006857916,-81.2547112791156,0.178624338954826,81.4333356180705,40.5380434700804,-81.344023448593,40.8059799785126
0.432724814063556,-67.6604874209176,0.188351138486733,67.8488385594043,33.7360681412154,-67.7546629901609,34.0185948489455
0.434656621269197,-49.1557018923574,0.202653188942915,49.3583550813004,24.4765243517073,-49.2570284868289,24.7805041351216
0.436588428474838,-33.066596601052,0.213193976851762,33.2797905779038,16.4267013121001,-33.1731935894779,16.7464922773778
0.438520235680479,-50.7472566242838,0.2127673863279,50.9600240106116,25.2672446189779,-50.8536403174477,25.5863956984698
0.44045204288612,-60.3509620213303,0.199955020432005,60.5509170417623,30.0755035004491,-60.4509395315463,30.3754360310972
0.442383850091761,-59.0171581505066,0.180774306839043,59.1979324573457,29.4181919218338,-59.1075453039261,29.6893533820923
0.444315657297402,-66.8426994572102,0.165959319176722,67.0086587763869,33.3383700690167,-66.9256791167986,33.5873090477818
0.446247464503043,-68.2832089483174,0.165038807662174,68.4482477559796,34.0590850703276,-68.3657283521485,34.3066432818209
0.448179271708683,-82.0314652458739,0.180440405823669,82.2119056516976,40.9255124200251,-82.1216854487858,41.1961730287606
0.450111078914324,-91.4928367802173,0.205171259213707,91.698008039431,45.6438327605018,-91.5954224098241,45.9515896493223
0.452042886119965,-91.9247615467023,0.225851329953136,92.1506128766554,45.8494551083746,-92.0376872116788,46.1882321033043
0.453974693325606,-90.8833224504966,0.229871828457156,91.1131942789537,45.3267253110197,-90.9982583647252,45.6715330537054
0.455906500531247,-77.2655951012735,0.212886307828487,77.4784814091019,38.5263543967225,-77.3720382551877,38.8456838584652
0.457838307736888,-67.6117579539262,-3.69819566723794,63.9135622866883,35.6549768105821,-65.7626601203072,30.1076833097252
0.459770114942529,-70.6287185362702,0.159728293359455,70.7884468296296,35.2344951214554,-70.7085826829499,35.4740875614945
0.46170192214817,-63.4189242174637,0.149885350698573,63.5688095681623,31.6345194333826,-63.493866892813,31.8593474594304
0.463633729353811,-49.5512771579485,0.158727705016733,49.7100048629653,24.6962747264659,-49.6306410104569,24.934366283991
0.465565536559451,-35.9471946952545,0.1843766299481,36.1315713252026,17.8814090326532,-36.0393830102286,18.1579739775754
0.467497343765092,-37.1773639892946,0.216618942649831,37.3939829319445,18.4803725233224,-37.2856734606196,18.8053009372972
0.469429150970733,-56.5104822841172,0.240591335893399,56.7510736200106,28.1349454741119,-56.6307779520639,28.495832477952
0.471360958176374,-66.8119415573576,0.24354545189043,67.055487009248,33.2841980527336,-66.9337142833028,33.6495162305692
0.473292765382015,-72.6615601310107,0.221662441182538,72.8832225721933,36.2199488449141,-72.772391351602,36.5524425066879
0.475224572587656,-82.818587216761,0.183257342229656,83.0018445589906,41.3176649372657,-82.9102158878758,41.5925509506101
0.477156379793297,-63.1207645879442,-3.73440560944729,59.3863589784969,33.4275850986957,-61.2535617832205,27.8259766845248
0.479088186998938,-48.6755172971888,0.134764058769594,48.8102813559584,24.2703766192096,-48.7428993265736,24.472522707364
0.481019994204578,-31.162771219223,0.148178351746374,31.3109495709694,15.5072964337383,-31.2368603950962,15.7295639613579
0.482951801410219,-28.9848872078863,0.180598262562216,29.1654854704485,14.402144472662,-29.0751863391674,14.6730418665053
0.48488360861586,-29.5613250343573,0.218436421234348,29.7797614555917,14.6714443065615,-29.6705432449745,14.999098938413
0.486815415821501,-44.1900347660237,0.245616758071884,44.4356515240956,21.9722090039759,-44.3128431450597,22.3406341410837
0.488747223027142,-57.7865317138986,0.250163135879989,58.0366948497785,28.7681842890093,-57.9116132818385,29.1434289928293
0.490679030232783,-59.737123128308,0.229422703639599,59.9665458319476,29.7538502123342,-59.8518344801278,30.0979842677936
0.492610837438424,-62.7694502555718,0.19166947354541,62.9611197291172,31.2888903910132,-62.8652849923445,31.5763946013313
0.494542644644065,-63.5219399328629,0.153101040116836,63.6750409729797,31.684419446373,-63.5984904529213,31.9140710065483
0.496474451849705,-53.8803164696224,0.131119929138169,54.0114363987606,26.8745982702421,-53.9458764341915,27.0712781639494
0.498406259055346,-44.4363437016832,0.136550845663618,44.5728945473469,22.1498964280098,-44.5046191245151,22.3547226965052
0.500338066260987,-14.5763674836518,0.168241007165631,14.7446084908174,7.20406323824309,-14.6604879872346,7.45642474899153
0.502269873466628,-10.1871291402948,0.212775570495469,10.3999047107903,4.98717678489966,-10.2935169255425,5.30634014064286
0.504201680672269,3.48559148606065,0.249921849635142,-3.2356696364255,-1.86775666784789,3.36063056124308,-1.49287389339518
0.50613348787791,-13.3914374110325,0.261734124497882,13.6531715355304,6.56485164326732,-13.5223044732815,6.95745283001414
0.508065295083551,-27.2011127890252,0.241265871887143,27.4423786609123,13.479923458569,-27.3217457249687,13.8418222663997
0.509997102289192,-46.662967442125,0.196633445540581,46.8596008876655,23.2331669982922,-46.7612841648952,23.5281171666031
0.511928909494832,-52.4396198347388,0.148067333504232,52.587687168243,26.1457762506173,-52.5136535014909,26.3678772508736
0.513860716700473,-55.2908634939765,0.118846462072568,55.4097099560491,27.586008515952,-55.3502867250128,27.7642782090608
0.515792523906114,-53.7792674704318,0.124123566036006,53.9033910364679,26.8275719521979,-53.8413292534498,27.0137573012519
0.517724331111755,-46.6392855922625,0.163018882332476,46.802304474595,23.238133354965,-46.7207950334287,23.4826616784637
0.519656138317396,-25.6942276171634,0.218131919984373,25.9123595371478,12.7380478485895,-25.8032935771556,13.0652457285661
0.521587945523037,0.585709950410902,0.263203413296178,-0.322506537114724,-0.42445668185354,0.454108243762813,-0.0296515619092729
0.523519752728678,15.180180605611,0.275620155333923,-14.904560450277,-7.72790038047244,15.042370527944,-7.31447014747156
0.525451559934319,4.93676148436842,0.247807056022327,-4.68895442834609,-2.59228427019537,4.81285795635725,-2.22057368616188
0.527383367139959,-19.2314693901121,0.191741638040524,19.4232110281526,9.51986387603578,-19.3273402091324,9.80747633309657
0.5293151743456,-45.2643569992952,0.133948216160924,45.3983052154561,22.5652043915671,-45.3313311073757,22.7661267158085
0.531246981551241,-67.9309618740276,0.102976271288563,68.0339381453162,33.9139928013695,-67.9824500096719,34.0684572083024
0.533178788756882,-73.9800735667329,0.115263976686847,74.0953375434198,36.932404795023,-74.0377055550764,37.1053007600533
0.535110595962523,-62.3585630672434,0.166406642171268,62.5249697094147,31.0960782125361,-62.4417663883291,31.345688175793
0.537042403168164,-48.6065518723309,0.232471127403103,48.839022999734,24.1870403724639,-48.7227874360325,24.5357470635686
0.538974210373805,-33.7683097464766,0.28115047120218,34.0494602176788,16.7435796376372,-33.9088849820777,17.1653053444405
0.540906017579446,-38.7980781727286,0.287580506769735,39.0856586794983,19.2552488329794,-38.9418684261135,19.686619593134
0.542837824785086,-30.0467935191058,0.247062518692895,30.2938560377987,14.8998655002064,-30.1703247784522,15.2704592782458
0.544769631990727,-19.6109155097742,0.178169757408513,19.7890852671827,9.71637287618286,-19.7000003884785,9.98362751229563
0.546701439196368,4.74339996000733,0.114299385963142,-4.62910057404419,-2.42884967298524,4.68625026702576,-2.25740059404052
0.548633246402009,13.3063463215167,0.0874796826150508,-13.2188666389017,-6.69691300206589,13.2626064802092,-6.56569347814331
0.55056505360765,7.56869172557872,0.112288660661681,-7.45640306491704,-3.8404901931202,7.51254739524788,-3.67205720212768
0.552496860813291,-3.78365996485489,-3.70249365525209,0.0811663096027946,3.74307681005349,-1.93241313722884,-1.81066367282465
0.554428668018932,-9.22558610425133,0.258617211946585,9.48420331619792,4.48348444615237,-9.35489471022463,4.87141026407225
0.556360475224573,-9.89030008291848,0.305239821362388,10.1955399042809,4.79253013077805,-10.0429199935997,5.25038986282163
0.558292282430213,-30.6570286825787,0.292085061158212,30.9491137437369,15.1824718107102,-30.8030712131578,15.6205994024476
0.560224089635854,-37.832334113628,0.22513712981573,38.0574712434437,18.8035984919061,-37.9449026785358,19.1413041866297
0.562155896841495,-43.3714493791528,0.139405843045528,43.5108552221983,21.6160217680536,-43.4411523006755,21.8251305326219
0.564087704047136,-50.3664898641856,0.0806031631701432,50.4470930273557,25.1429433505077,-50.4067914457707,25.2638480952629
0.566019511252777,-45.6543695051776,0.0808065141735243,45.7351760193511,22.786781495502,-45.6947727622644,22.9079912667623
0.567951318458418,-47.1451959929696,0.141047665245456,47.2862436582151,23.5020741638621,-47.2157198255924,23.7136456617303
0.569883125664059,-38.5583080723628,0.230236189787225,38.78854426215,19.1640359412878,-38.6734261672564,19.5093902259686
0.5718149328697,-31.9206754522291,0.301231916624445,32.2219073688535,15.8097217678023,-32.0712914105413,16.261569642739
0.573746740075341,-16.9241587325273,0.315743649218252,17.2399023817456,8.30420754165453,-17.0820305571364,8.77782301548191
0.575678547280981,-14.6226529828716,0.264911226233375,14.887564209105,7.17887087831912,-14.7551085959883,7.57623771766918
0.577610354486622,-6.73834563735268,0.174541344748748,6.91288698210143,3.28190214630196,-6.82561630972705,3.54371416342509
0.579542161692263,-1.10634053662679,0.0919752843238855,1.19831582095067,0.507182626151451,-1.15232817878873,0.645145552637279
0.581473968897904,-8.33565873973449,0.0612874100767149,8.39694614981121,4.13718566482889,-8.36630244477285,4.22911677994396
0.583405776103545,-7.36877421888511,0.0998083799341848,7.46858259881929,3.63448291947546,-7.4186784088522,3.78419548937674
0.585337583309186,-8.41858816591716,0.188453922155376,8.60704208807253,4.11506712188089,-8.51281512699485,4.39774800511396
0.587269390514827,-18.729524587928,0.281203700841845,19.0107282887699,9.22416044354309,-18.8701264383489,9.64596599480586
0.589201197720468,-19.53854517842,0.3290089612999,19.8675541397199,9.60476810856004,-19.7030496590699,10.0982815505099
0.591133004926108,-31.7650382040804,0.305700744983041,32.0707389490635,15.7296687295487,-31.9178885765719,16.1882198470233
0.593064812131749,-33.7415343923595,0.222228319133816,33.9637627114933,16.7596530366128,-33.8526485519264,17.0929955153136
0.59499661933739,-22.542665789581,0.121521171829287,22.6641869614103,11.2105723088759,-22.6034263754956,11.3928540666198
0.596928426543031,-17.3909311564841,0.056383873804699,17.4473150302888,8.66727364133972,-17.4191230933865,8.75184945204677
0.598860233748672,-13.1308148004907,0.061819561525564,13.1926343620162,6.53449761948255,-13.1617245812534,6.6272269617709
0.600792040954313,-8.02160639967295,-3.74418154118032,4.27742485849262,5.88289397042664,-6.14951562908279,0.266621658656149
0.602723848159954,-0.724498087499009,0.247495262326878,0.971993349825887,0.238501412586066,-0.848245718662448,0.609744306076383
0.604655655365595,1.25928542845003,0.328716153882267,-0.930569274567762,-0.794000791166148,1.0949273515089,-0.300926560342747
0.606587462571235,8.61982010561166,0.335202808585491,-8.28461729702617,-4.47751145709857,8.45221870131891,-3.97470724422034
0.608519269776876,15.7543352877918,0.263083684409851,-15.4912516033819,-8.00870948610081,15.6227934455868,-7.61408395948603
0.610451076982517,13.2698281417154,-3.72886192421683,-16.9986900659322,-4.77048310874928,15.1342591038238,-10.3637759950745
0.612382884188158,12.0986713998701,0.0674592471051288,-12.031212152765,-6.08306532348761,12.0649417763175,-5.98187645282992
0.614314691393799,1.15693096784457,0.0484554251803437,-1.10847554266423,-0.602693196512456,1.1327032552544,-0.530010058741941
0.61624649859944,-6.33903655446102,0.10412473400999,6.44316128847101,3.11745591022552,-6.39109892146602,3.2736430112405
0.618178305805081,-8.59703512817637,0.205332018191251,8.80236714636762,4.19585155499256,-8.699701137272,4.50384958227944
0.620110113010722,-12.259872181578,0.299531054719537,12.5594032362975,5.98017056342921,-12.4096377089377,6.42946714550851
0.622041920216362,-5.78547946718421,0.338065561269225,6.12354502845343,2.72370695295749,-5.95451224781882,3.23080529486133
0.623973727422003,21.1792112391508,0.301319998908955,-20.8778912402418,-10.7402656190299,21.0285512396963,-10.2882856206664
0.625905534627644,27.978204148298,0.208710012325057,-27.769494135973,-14.0934570803115,27.8738491421355,-13.780392061824
0.627837341833285,40.3534123022463,0.108420258494148,-40.2449920437522,-20.2309162803702,40.2992021729993,-20.068285892629
0.629769149038926,34.6847047751128,0.0523134867612203,-34.6323912883516,-17.368509130937,34.6585480317322,-17.2900389007952
0.631700956244567,27.4288393916799,0.0690851899832045,-27.3597542016967,-13.7489622908316,27.3942967966883,-13.6453345058567
0.633632763450208,35.8011446751997,0.149572191421799,-35.6515724837779,-17.9753584333108,35.7263585794888,-17.7510001461781
0.635564570655849,41.9756559901517,0.251745642687871,-41.7239103474639,-21.1137008164198,41.8497831688078,-20.736082352388
0.637496377861489,50.5611857103585,0.322676114857275,-50.2385095955012,-25.4419309126079,50.3998476529299,-24.957916740322
0.63942818506713,57.221897858324,0.325984130414801,-56.8959137279092,-28.7739409943694,57.0589057931166,-28.2849647987472
0.641359992272771,56.6965365468736,0.260524749448409,-56.4360117974252,-28.478530648161,56.5662741721494,-28.0877435239884
0.643291799478412,66.7759566525072,0.160695896770584,-66.6152607557366,-33.4683262746389,66.6956087041219,-33.227282429483
0.645223606684053,78.6028870053898,0.0783515165370982,-78.5245354888527,-39.3406192609634,78.5637112471212,-39.2230919861578
0.647155413889694,80.4836127706837,0.055833131249419,-80.4277796394343,-40.2697229509665,80.455696205059,-40.1859732540924
0.649087221095335,81.193058609372,0.104161292213456,-81.0888973171586,-40.6486099507927,81.1409779632653,-40.4923680124726
0.651019028300976,74.5226629695619,0.19763838406726,-74.3250245854946,-37.3601506768146,74.4238437775283,-37.0636931007137
0.652950835506616,61.8127787978194,0.287509893524714,-61.5252689042947,-31.0501443456721,61.669023851057,-30.618879505385
0.654882642712257,35.7867510697446,0.327425563576945,-35.4593255061676,-18.0570883166608,35.6230382879561,-17.5659499712953
0.656814449917898,-0.252634407252215,0.297389658783038,0.550024066035253,-0.0223776257654112,-0.401329236643734,0.423706862409145
0.658746257123539,-1.09228931767705,0.21380207503948,1.30609139271653,0.439243621318787,-1.19919035519679,0.759946733878008
0.66067806432918,4.56885059061798,0.120533812760444,-4.44831677785754,-2.34469220168921,4.50858368423776,-2.16389148254855
0.662609871534821,11.9480423307556,0.0658765832195963,-11.882165747536,-6.00695945698762,11.9151040391458,-5.90814458215822
0.664541678740462,25.1201521906243,0.0774871758315593,-25.0426650147928,-12.5988196832279,25.0814086027086,-12.4825889194806
0.666473485946103,33.6290190683618,0.148351189310173,-33.4806678790516,-16.888685128836,33.5548434737067,-16.6661583448707
0.668405293151743,19.6661183021829,0.240912382528679,-19.4252059196542,-9.95351534235577,19.5456621109185,-9.59214676856275
0.670337100357384,-0.028303156822163,0.306985102394461,0.335288259216624,-0.139340972786149,-0.181795708019394,0.321136680805543
0.672268907563025,-17.5136958459418,0.312890983780417,17.8265868297222,8.60040243108067,-17.670141337832,9.0697389067513
0.674200714768666,-18.2465384555911,0.256682877595031,18.5032213331862,8.99492778899804,-18.3748798943886,9.37995210539059
0.676132521974307,-23.2881078620963,0.168617482335718,23.456725344432,11.5597451898803,-23.3724166032642,11.8126714133839
0.678064329179948,-6.9111234625645,0.0948874882930485,7.00601095085754,3.40811798713572,-6.95856720671102,3.5504492195753
0.679996136385589,3.22631897876096,0.0733473304558947,-3.15297164830506,-1.64983315460843,3.18964531353301,-1.53981215892458
0.68192794359123,0.132078534118151,0.114008252630452,-0.018070281487699,-0.123043393374301,0.0750744078029248,0.0479689855713762
0.68385975079687,-22.3050806008992,0.194387739798616,22.4994683406978,11.0553464305503,-22.4022744707985,11.3469280402482
0.685791558002511,-35.2604073944111,0.271875913896408,35.5322833083075,17.4942657402573,-35.3963453513593,17.902079611102
0.687723365208152,-22.4871307992083,0.306350264235976,22.7934810634443,11.0903902674862,-22.6403059313263,11.5499156638401
0.689655172413793,-19.5424498621731,-3.59943788706858,15.9430119751045,11.5709438746208,-17.7427309186388,6.17178704401795
0.691586979619434,-16.371165851384,0.216295362499176,16.5874612138832,8.07743524444242,-16.4793135326336,8.40187828819118
0.693518786825075,-37.9580693513622,0.138203068288077,38.0962724196503,18.9099331415371,-38.0271708855063,19.1172377439692
0.695450594030716,-54.1304654428184,0.0859649993210606,54.2164304421395,27.0222502217487,-54.1734479424789,27.1511977207303
0.697382401236357,-72.2890100047002,0.0865595335243565,72.3755695382246,36.1012252355879,-72.3322897714624,36.2310645358745
0.699314208441998,-71.6296312009805,0.140726673310954,71.7703578742914,35.7444522638348,-71.699994537636,35.9555422738012
0.701246015647638,-66.0070660272152,0.222049775901721,66.2291158031169,32.8925081256567,-66.118090915166,33.2255827895093
0.703177822853279,-54.3309939256782,0.289869954630806,54.620863880309,27.0205619855237,-54.4759289029936,27.4553669174699
0.70510963005892,-40.524882902238,0.309702928433922,40.8345858306719,20.107589986902,-40.6797343664549,20.5721443795529
0.707041437264561,-37.3644047168222,0.27085990781871,37.6352646246409,18.5467724045017,-37.4998346707315,18.9530622662298
0.708973244470202,-23.1782970889858,0.192224226471813,23.3705213154576,11.493036431257,-23.2744092022217,11.7813727709647
0.710905051675843,-14.786522249101,0.113054210140537,14.8995764592416,7.33673401948025,-14.8430493541713,7.50631533469106
0.712836858881484,-12.485578242001,0.0733004934478422,12.5588787354488,6.20613887427658,-12.5222284887249,6.31608961444834
0.714768666087125,-19.3109246750362,0.0933490323173326,19.4042737073535,9.60878782135943,-19.3575991911949,9.74881136983542
0.716700473292765,-10.4393995650244,0.163511191084844,10.6029107561093,5.13794418696979,-10.5211551605668,5.38321097359706
0.718632280498406,-23.2816505254096,0.248707922493075,23.5303584479027,11.5164713014583,-23.4060044866561,11.8895331851979
0.720564087704047,-33.9535807549749,0.306083125943349,34.2596638809183,16.8237488145158,-34.1066223179466,17.2828735034308
0.722495894909688,-50.7448568970156,0.306664152820551,51.0515210498361,25.2190963720975,-50.8981889734258,25.6790926013283
0.724427702115329,-67.2558501002969,0.250068718532288,67.5059188188292,33.5028906908823,-67.380884459563,33.8779937686807
0.72635950932097,-73.3412459864363,0.164752767045178,73.5059987534814,36.5882466096955,-73.4236223699588,36.8353757602633
0.728291316526611,-85.3965943303379,0.0936400678398161,85.4902343981778,42.6514771312491,-85.4434143642579,42.7919372330088
0.730223123732252,-83.7924015916321,0.0724220630103095,83.8648236546424,41.8599897643109,-83.8286126231373,41.9686228588264
0.732154930937892,-82.876023370562,0.11155204614001,82.987575416702,41.382235662211,-82.931799393632,41.549563731421
0.734086738143533,-69.4688489366977,0.191065735524573,69.6599146722222,34.6388916005865,-69.5643818044599,34.9254902038734
0.736018545349174,-58.0086198115448,0.270811682846085,58.2794314943908,28.8689040643493,-58.1440256529678,29.2751215886185
0.737950352554815,-56.1587219088653,0.310828037419959,56.4695499462853,27.9239469357227,-56.3141359275753,28.3901889918526
0.739882159760456,-45.4461846304978,0.29147310709417,45.737657737592,22.5773557617018,-45.5919211840449,23.0145654223431
0.741813966966097,-35.1482994937378,0.223114172162491,35.3714136659003,17.4625926607877,-35.2598565798191,17.7972639190314
0.743745774171738,-14.9335696189305,0.140568102217656,15.0741377211482,7.39650075835643,-15.0038536700393,7.60735291168291
0.745677581377379,34.1595461136143,0.0852759613319406,-34.0742701522824,-17.1224110374731,34.1169081329483,-16.9944970954752
0.747609388583019,112.773106300894,0.0843831978689669,-112.688723103025,-56.4287447493816,112.73091470196,-56.3021699525782
0.74954119578866,218.454088644358,0.137345327288592,-218.316743317069,-109.295716985823,218.385415980713,-109.08969899489
0.751473002994301,337.199186615099,0.21670579917679,-336.982480815922,-168.707946207138,337.090833715511,-168.382887508373
0.753404810199942,465.995339449067,0.282400609991221,-465.712938839076,-233.138870029529,465.854139144071,-232.715269114542
0.755336617405583,581.313635820374,0.302104174887196,-581.011531645487,-290.807869997631,581.16258373293,-290.3547137353
0.757268424611224,658.620330280752,0.267223109915557,-658.353107170837,-329.443776695334,658.486718725795,-329.042942030461
0.759200231816865,711.783314358737,0.196576596558904,-711.586737762178,-355.989945477648,711.685026060458,-355.69508058281
0.761132039022506,712.328730280777,0.126222912487778,-712.202507368289,-356.227476596633,712.265618824533,-356.038142227901
0.763063846228146,671.608800173096,0.0909381698117087,-671.517862003284,-335.849869171454,671.56333108819,-335.713461916736
0.764995653433787,582.731574877117,0.106918374461688,-582.624656502656,-291.419246625789,582.678115689886,-291.258869064097
0.766927460639428,470.623554148851,0.164366910475569,-470.459187238375,-235.393960529663,470.541370693613,-235.14741016395
0.768859267845069,348.532934112842,0.233352253417251,-348.299581859425,-174.38314318313,348.416257986134,-174.033114803004
0.77079107505071,236.65834667095,0.279499829419864,-236.37884684153,-118.468923250185,236.51859675624,-118.049673506055
0.772722882256351,150.117692137185,0.281246164768864,-149.836445972416,-75.1994691509768,149.9770690548,-74.7775999038235
0.774654689461992,75.8696893836184,0.239928859723836,-75.6297605238946,-38.0548091216711,75.7497249537565,-37.6949158320854
0.776586496667633,39.4122252686064,0.177978762411374,-39.234246506195,-19.7951020155089,39.3232358874007,-19.5281338718918
0.778518303873273,35.711776120539,0.126703414308712,-35.5850727062303,-17.9192397674238,35.6484244133846,-17.7291846459608
0.780450111078914,22.0104946409471,0.110329219237403,-21.9001654217097,-11.0604119300922,21.9553300313284,-10.8949181012361
0.782381918284555,14.9265682115038,0.134505000461695,-14.7920632110421,-7.53053660598276,14.859315711273,-7.32877910529021
0.784313725490196,16.1177577041405,0.184754309695822,-15.9330033944447,-8.15125600691816,16.0253805492926,-7.87412454237443
0.786245532695837,15.3016646790099,-3.64545434736344,-18.9471190263734,-5.82810516582324,17.1243918526916,-11.2962866868684
0.788177339901478,12.8673225958041,-3.61357770644977,-16.4809003022538,-4.62687244467715,14.674111449029,-10.0472390043518
0.790109147107119,23.5704330513106,0.26380760260202,-23.3066254487085,-11.9171203269563,23.4385292500095,-11.5214089230533
0.79204095431276,26.4705266519253,0.219677252560777,-26.2508493993645,-13.345101952243,26.3606880256449,-13.0155860734019
0.7939727615184,23.9724610317694,0.157536690512396,-23.814924341257,-12.0649988611409,23.8936926865132,-11.8286938253723
0.795904568724041,7.64952100737325,0.111800306295061,-7.53772070107819,-3.88066065683415,7.59362085422572,-3.71296019739156
0.797836375929682,-22.0226184169379,0.109197243919668,22.1318156608576,10.9567105865091,-22.0772170388977,11.1205064523886
0.799768183135323,-28.7814240399764,0.153341597457192,28.9347656374336,14.3140412212596,-28.858094838705,14.5440536174454
0.801699990340964,-49.9984711840862,0.221746695231351,50.2202178793175,24.8883622444274,-50.1093445317019,25.2209822872744
0.803631797546605,-57.6425429505189,0.277375878463471,57.9199188289824,28.6825835360277,-57.7812308897506,29.0986473537229
0.805563604752246,-55.7483201436978,0.288748628385278,56.0370687720831,27.7297857576563,-55.8926944578904,28.1629087002342
0.807495411957887,-49.2418575972356,0.247667812974848,49.4895254102104,24.4970948921304,-49.365691503723,24.8685966115926
0.809427219163528,-39.4797568527131,0.174633010833552,39.6543898635466,19.6525619209398,-39.5670733581298,19.9145114371901
0.811359026369168,-31.3066720839473,0.108546665474169,31.4152187494214,15.5990627092366,-31.3609454166844,15.7618827074478
0.813290833574809,-24.8223655206605,0.0859158482458351,24.9082813689064,12.3682248362073,-24.8653234447834,12.4970986085761
0.81522264078045,-11.5042192874069,0.1207013804078,11.6249206678147,5.69175895349954,-11.5645699776108,5.87281102411124
0.817154447986091,-21.228196314194,0.195922353692907,21.4241186678869,10.5161369802506,-21.3261574910405,10.8100205107899
0.819086255191732,-25.8302154429798,0.27196751297732,26.1021829559571,12.7791239650012,-25.9661991994684,13.1870752344672
0.821018062397373,-44.4317603421921,0.307532737311146,44.7392930795032,22.0621138024405,-44.5855267108477,22.5234129084072
0.822949869603014,-54.2623770708175,0.2820824611121,54.5444595319296,26.9901473048527,-54.4034183013735,27.4132709965208
0.824881676808655,-71.8716496597496,0.207613883989465,72.079263543739,35.83201788788,-71.9754566017443,36.1434387138642
0.826813484014295,-78.8007366091704,0.123033199432702,78.9237698086031,39.3388517048688,-78.8622532088867,39.5234015040179
0.828745291219936,-71.5604465495061,0.0737635992923641,71.6342101487985,35.7433414751069,-71.5973283491523,35.8539868740454
0.830677098425577,-76.974627060404,0.0873035074198655,77.0619305678239,38.4436617764921,-77.018278814114,38.5746170376219
0.832608905631218,-63.098994994195,0.157904481921404,63.2568994761164,31.4705452561368,-63.1779472351557,31.7074019790189
0.834540712836859,-40.6790299944991,0.24888771337117,40.9279177078702,20.2150711405639,-40.8034738511846,20.5884027106207
0.8364725200425,-24.8144982480027,0.311742997425319,25.126241245428,12.2513776252887,-24.9703697467153,12.7189921214266
0.838404327248141,-15.7405710543692,0.312044495053306,16.0526155494225,7.71426327965797,-15.8965933018959,8.18233002223792
0.840336134453782,-37.4814072940852,0.248317768737343,37.7297250628226,18.6165447626739,-37.6055661784539,18.98902141578
0.842267941659422,-52.0302300662117,0.153518754798493,52.1837488210102,25.9383556557066,-52.106989443611,26.1686337879044
0.844199748865063,-52.1245014928146,0.0779740611755577,52.2024755539901,26.0232637158195,-52.1634885234024,26.1402248075829
0.846131556070704,-41.5986634663885,0.0626218396361012,41.6612853060246,20.7680208133762,-41.6299743862066,20.8619535728304
0.848063363276345,-35.3990602765695,0.116798371658716,35.5158586482282,17.6411309524554,-35.4574594623988,17.8163285099434
0.849995170481986,-24.932653430923,0.212631485589179,25.1452849165121,12.3600109726669,-25.0389691737175,12.6789582010507
0.851926977687627,-17.3262659412002,0.299368287986272,17.6256342291865,8.51344882660696,-17.4759500851933,8.96250125858637
0.853858784893268,-4.71396818790042,0.330277344114049,5.04424553201447,2.19184542189319,-4.87910685995745,2.68726143806426
0.855790592098909,4.63980168279075,0.287856252128545,-4.35194543066221,-2.46382896745965,4.49587355672648,-2.03204458926683
0.857722399304549,-5.62590457384712,-3.68672624788508,1.93917832596204,4.6563154108661,-3.78254144990458,-0.873773960961522
0.85965420651019,-5.17595163406635,0.103321537153548,5.27927317121989,2.5363150484564,-5.22761240264312,2.69129735418672
0.861586013715831,-9.78920678398064,0.0563932332976306,9.84560001727827,4.86640677534151,-9.81740340062946,4.95099662528795
0.863517820921472,-7.45960264384976,0.0772667264369034,7.53686937028666,3.69116795870643,-7.49823600706821,3.80706804836178
0.865449628127113,-5.1590459175532,0.156453368904257,5.31549928645746,2.50129627432447,-5.23727260200533,2.73597632768086
0.867381435332754,-5.94482809651603,-3.62560855682633,2.3192195396897,4.78521832667118,-4.13202381810287,-0.653194508568311
0.869313242538395,2.25712521242008,0.328701360251855,-1.92842385216823,-1.29291328633597,2.09277453229415,-0.799861245958186
0.871245049744036,19.2326405249393,0.331374736290328,-18.901265788649,-9.78200763061481,19.0669531567941,-9.28494552617932
0.873176856949677,28.7016362535038,0.259167999339025,-28.4424682541647,-14.4804021264214,28.5720522538342,-14.0916501274129
0.875108664155317,25.9007358860262,-3.73165270322824,-29.6323885892544,-11.084541591399,27.7665622376403,-16.6820206462413
0.877040471360958,14.16720378981,0.0644224085833887,-14.1027813812266,-7.11581309919668,14.1349925855183,-7.01917948632159
0.878972278566599,9.08922777417734,0.0434385391845499,-9.04578923499279,-4.56633315668094,9.06750850458506,-4.50117534790412
0.88090408577224,3.51655672332195,0.0975889835837155,-3.41896773973824,-1.80707285345283,3.4677622315301,-1.66068937807726
0.882835892977881,-1.69554367823167,0.200674582075771,1.89621826030744,0.747434548077951,-1.79588096926956,1.04844642119161
0.884767700183522,1.87999530793758,0.301181087787557,-1.57881422015003,-1.09058819786257,1.7294047640438,-0.638816566181235
0.886699507389163,6.61204709528576,0.348062096930013,-6.26398499835575,-3.48005459610789,6.43801604682076,-2.95796145071287
0.888631314594803,8.16961662681559,0.316765135005896,-7.85285149180969,-4.24319088091074,8.01123405931264,-3.7680431784019
0.890563121800444,17.405860924966,0.222180276148388,-17.1836806488176,-8.81402060055721,17.2947707868918,-8.48075018633463
0.892494929006085,10.2944186528438,0.111640407267949,-10.1827782455759,-5.20302953005588,10.2385984492098,-5.03556891915396
0.894426736211726,13.7109645100815,0.0412170219004871,-13.669747488181,-6.87609076599098,13.6903559991312,-6.81426523314025
0.896358543417367,27.9107117115323,0.0471930807692187,-27.8635186307631,-13.9789523961507,27.8871151711477,-13.9081627749969
0.898290350623008,38.0325518658393,0.127270490073019,-37.9052813757663,-19.0799111779562,37.9689166208028,-18.8890054428466
0.900222157828649,56.4786964693411,0.241294366955497,-56.2374021023856,-28.3599954181483,56.3580492858633,-27.998053867715
0.90215396503429,72.0709973135669,0.331385290524572,-71.7396120230423,-36.2011913020457,71.9053046683046,-35.7041133662589
0.90408577223993,65.3658882476694,0.351386488742163,-65.0145017589272,-32.8586373682058,65.1901950032983,-32.3315576350925
0.906017579445571,55.2717099151068,0.290608965653065,-54.9811009494537,-27.7811594403799,55.1264054322803,-27.3452459919003
0.907949386651212,41.0413836800047,0.179610046384421,-40.8617736336203,-20.6104968631946,40.9515786568125,-20.3410817936179
0.909881193856853,45.3166665335736,0.0748523582996805,-45.2418141752739,-22.6957594459366,45.2792403544237,-22.5834809084871
0.911813001062494,44.5640128570234,0.0299344035902043,-44.5340784534332,-22.2969736303068,44.5490456552283,-22.2520720249215
0.913744808268135,54.6338048022937,0.06807719664959,-54.5657276056441,-27.3509409994716,54.5997662039689,-27.2488252044972
0.915676615473776,60.7510399009889,0.170036089194781,-60.5810038117941,-30.4605379950918,60.6660218563915,-30.2054838612997
0.917608422679417,75.3927490175942,0.283771453169932,-75.1089775644243,-37.8382602353821,75.2508632910092,-37.4126030556272
0.919540229885057,91.2803466359219,0.351038198294102,-90.9293084376278,-45.815692417108,91.1048275367749,-45.2891351196669
0.921472037090698,100.530435372522,0.337292792560069,-100.193142579962,-50.433864082541,100.361788976242,-49.9279248937009
0.923403844296339,106.338112837336,0.249520888700251,-106.088591948636,-53.2938168630182,106.213352392986,-52.9195355299678
0.92533565150198,119.403647078378,0.132740440629308,-119.270906637748,-59.7681937595035,119.337276858063,-59.5690830985596
0.927267458707621,111.810215490973,0.0469033877853844,-111.763312103188,-55.9285594393793,111.78676379708,-55.8582043577012
0.929199265913262,98.9540130092973,0.0360526521488271,-98.9179603571485,-49.4950328307231,98.9359866832229,-49.4409538524998
0.931131073118903,85.2801429386714,0.105635646490584,-85.1745072921808,-42.692889292581,85.2273251154261,-42.5344358228451
0.933062880324544,71.7769685018714,0.219704871758698,-71.5572636301127,-35.9983366868151,71.6671160659921,-35.668779379177
0.934994687530185,67.1360551241186,0.319477474244221,-66.8165776498744,-33.7277662991814,66.9763163869965,-33.2485500878151
0.936926494735825,75.6319040912912,0.353676707237715,-75.2782273840535,-37.9927903992645,75.4550657376724,-37.4622753384079
0.938858301941466,81.3885513877186,0.304968858263579,-81.083582529455,-40.8467601229911,81.2360669585868,-40.3893068355957
0.940790109147107,99.0182321870418,-3.68164169843951,-102.699873885481,-47.6682952443012,100.859053036262,-53.1907577919604
0.942721916352748,115.832319971318,0.0958471707898051,-115.736472800528,-57.964083571054,115.784396385923,-57.8203128148693
0.944653723558389,131.185502948076,0.0402242573903842,-131.145278690686,-65.6128636027331,131.165390819381,-65.5525272166476
0.94658553076403,141.279157007527,0.0586413182397146,-141.220515689287,-70.6688991628832,141.249836348407,-70.5809371855236
0.948517337969671,139.130308436534,0.141824819329379,-138.988483617204,-69.6360666279315,139.059396026869,-69.4233293989374
0.950449145175312,133.596133617772,0.249179095134891,-133.346954522637,-66.9226563564533,133.471544070204,-66.548887713751
0.952380952380952,129.400907476919,0.32860368150302,-129.072303795416,-64.8647555792112,129.236605636168,-64.3718500569566
0.954312759586593,122.818071067805,0.341809373890561,-122.476261693915,-61.5799402208479,122.64716638086,-61.067226160012
0.956244566792234,124.88201971106,0.282810290433614,-124.599209420627,-62.582415000747,124.740614565844,-62.1581995650966
0.958176373997875,126.758068799851,0.18063823560812,-126.577430564243,-63.4693535177298,126.667749682047,-63.1983961643176
0.960108181203516,123.594640749355,0.0850446296069951,-123.509596119748,-61.8398426894808,123.552118434551,-61.7122757450703
0.962039988409157,122.792798674468,0.0422397941198456,-122.750558880348,-61.4175192342939,122.771678777408,-61.3541595431141
0.963971795614798,128.654105479228,0.0725229709365774,-128.581582508291,-64.3633142250823,128.61784399376,-64.2545297686774
0.965903602820439,134.393982018529,0.160654343707832,-134.233327674821,-67.2773181811184,134.313654846675,-67.0363366655566
0.967835410026079,125.533032984103,0.263540024583631,-125.26949295952,-62.8982865043434,125.401262971811,-62.5029764674679
0.96976721723172,129.828806502695,0.331346330241269,-129.497460172454,-65.0800764164684,129.663133337575,-64.5830569211064
0.971699024437361,127.664299874993,0.331672109973038,-127.33262776502,-63.9979859924832,127.498463820007,-63.5004778275236
0.973630831643002,129.795990376602,0.265030166582487,-129.53096021002,-65.0305102715924,129.663475293311,-64.6329650217187
0.975562638848643,127.346085533988,0.164237074776976,-127.181848459211,-63.7551613043824,127.263966996599,-63.508805692217
0.977494446054284,115.680972978085,0.0782009666192415,-115.602772011466,-57.879586972352,115.641872494775,-57.7622855224231
0.979426253259925,102.573618285904,0.0481465043836128,-102.52547178152,-51.3108823951436,102.549545033712,-51.2386626385682
0.981358060465566,104.304976586468,0.0878625887277024,-104.217113997741,-52.1964195875981,104.261045292105,-52.0646257045065
0.983289867671206,90.9213322720411,0.177441552908571,-90.7438907191326,-45.5493869124749,90.8326114955869,-45.283224583112
0.985221674876847,94.3803121084962,0.273317591797687,-94.1069945166985,-47.3268148501469,94.2436533125973,-46.9168384624504
0.987153482082488,99.3725233944295,-3.55095347229331,-102.923476866723,-47.9107849610681,101.148000130576,-53.2372151695081
0.989085289288129,93.6829907334506,0.325305971848399,-93.3576847616022,-47.0041483526495,93.5203377475264,-46.5161893948769
0.99101709649377,103.427865030459,0.254478809482472,-103.173386220977,-51.8411719199708,103.300625625718,-51.4594537057471
0.992948903699411,100.411714249673,0.149982697584598,-100.261731552089,-50.2808484736289,100.336722900881,-50.055874427252
0.994880710905052,91.9549773893406,0.0630194479443832,-91.8919579413962,-46.0089984186425,91.9234676653684,-45.9144692467259
0.996812518110693,74.5413629936249,-3.8425685162815,-78.3839315099064,-35.3493972386717,76.4626472517656,-41.1132500130939
0.998744325316334,60.7958729482693,0.0950459614491331,-60.7008269868202,-30.4454594548592,60.7483499675448,-30.3028905126855
1.00067613252197,63.4336461142844,0.199464730955541,-63.2341813833289,-31.81655542262,63.3339137488066,-31.5173583261867
1.00260793972762,55.8894848889299,-3.58150768693432,-59.4709925758642,-26.1539886009978,57.680238732397,-31.5262501313993
1.00453974693326,38.0386392128837,0.350315505276214,-37.6883237076075,-19.19447735908,37.8634814602456,-18.6690041011656
1.0064715541389,36.2662979376182,0.320255206995839,-35.9460427306223,-18.293276572307,36.1061703341203,-17.8128937618133
1.00840336134454,37.8475371211538,0.223279050556377,-37.6242580705974,-19.0354080858551,37.7358975958756,-18.7004895100205
1.01033516855018,38.0855587365453,0.108987374938849,-37.9765713616065,-19.0972730557421,38.0310650490759,-18.9337919933338
1.01226697575582,21.336001150157,0.0366088500936291,-21.2993923000634,-10.6863050001253,21.3176967251102,-10.6313917249849
1.01419878296146,-3.98329212635758,0.044261355906908,4.02755348226449,1.96951538522534,-4.00542280431103,2.0359074190857
1.0161305901671,-21.2774441670629,0.128918800913566,21.4063629679764,10.5742626830747,-21.3419035675197,10.767640884445
1.01806239737274,-25.7662713840782,0.247593034016345,26.0138644180945,12.7593391750309,-25.8900679010863,13.1307287260554
1.01999420457838,-32.7090747093134,0.339268990188185,33.0483436995016,16.1849028595626,-32.8787092044075,16.6938063448449
1.02192601178402,-19.2853709056203,0.356345864674241,19.6417167702945,9.46451252047301,-19.4635438379574,9.99903131748438
1.02385781898966,-5.86105772318334,0.28934646442181,6.15040418760515,2.78585562938076,-6.00573095539424,3.21987532601348
1.02578962619531,2.76660633927843,0.172070557887597,-2.59453578139083,-1.46933844858301,2.68057106033463,-1.21123261175162
1.02772143340095,6.20554003323157,0.0644366581057907,-6.14110337512578,-3.13498834566868,6.17332170417868,-3.03833335850999
1.02965324060659,0.883343465117885,0.0217776374989677,-0.861565827618917,-0.452560551308426,0.872454646368401,-0.419894095059975
1.03158504781223,3.13727223424994,0.066370618107193,-3.07090161614274,-1.60182142617857,3.10408692519634,-1.50226549901778
1.03351685501787,-1.71076210741422,0.175862813688927,1.88662492110315,0.767449646862648,-1.79869351425869,1.03124386739604
1.03544866222351,2.31910436179232,0.294578764412974,-2.02452559737935,-1.30684156310265,2.17181497958583,-0.864973416483186
1.03738046942915,-0.461048059351724,0.361936195845478,0.822984255197203,0.049555931753123,-0.642016157274463,0.59246022552134
1.03931227663479,0.953231809148965,0.343413567566969,-0.609818241581996,-0.648322688357967,0.781525025365481,-0.133202337007513
1.04124408384043,9.68028187480076,0.248212754805419,-9.43206911999534,-4.96424731480309,9.55617549739805,-4.59192818259496
1.04317589104607,9.71437501616682,0.124593834463602,-9.58978118170322,-4.91948442531521,9.65207809893502,-4.73259367361981
1.04510769825171,-10.5260712892549,0.0352954010612897,10.5613666903162,5.24538794409682,-10.5437189897856,5.29833104568875
1.04703950545736,-11.6858231579468,0.0256179621877823,11.7114411201346,5.83010259787949,-11.6986321390407,5.86852954116117
1.048971312663,-12.5275846996867,0.100446525972346,12.628031225659,6.21356908685716,-12.5778079626728,6.36423887581568
1.05090311986864,-4.88419056970729,0.221866647633764,5.10605721734106,2.33116196103676,-4.99512389352417,2.66396193248741
1.05283492707428,-8.19172359634008,-3.55196940936138,4.63975418697869,5.87184650285073,-6.41573889165938,0.543892388808655
1.05476673427992,4.33322129846428,0.372230470554873,-3.9609908279094,-2.35272588450957,4.14710606318684,-1.79438017867727
1.05669854148556,4.99999074217496,0.322293316894812,-4.67769742528014,-2.66114202953488,4.83884408372755,-2.17770205419267
1.0586303486912,-6.51753721069215,0.202478641509185,6.72001585220134,3.15752928459148,-6.61877653144674,3.46124724685526
1.06056215589684,-14.662988974404,0.0741235076210655,14.7371124820251,7.29443273339147,-14.7000507282145,7.40561799482307
1.06249396310248,-26.8932433342865,-3.87586607179689,23.0173772624896,15.3845547030417,-24.955310298388,9.57075559534635
1.06442577030812,-11.7908234068907,0.0375620433373198,11.828385450228,5.87663068177669,-11.8096044285594,5.93297374678267
1.06635757751376,-11.8721038419502,0.149253072230682,12.0213569141809,5.86142538485977,-11.9467303780656,6.08530499320579
1.06828938471941,3.87044583134228,0.281565333825846,-3.58888049751644,-2.07600558258406,3.72966316442936,-1.6536575818453
1.07022119192505,4.16478403876386,0.366755413641615,-3.79802862512224,-2.26576972620274,3.98140633194305,-1.71563660574031
1.07215299913069,-3.42619120932584,0.362199406975568,3.78839061630141,1.53199590117514,-3.60729091281363,2.07529501163849
1.07408480633633,-15.0748592589869,0.271708426841522,15.3465676858284,7.40157541607268,-15.2107134724076,7.80913805633496
1.07601661354197,-7.40202884604058,0.1427473256534,7.54477617169398,3.62964076019359,-7.47340250886729,3.84376174867369
1.07794842074761,4.18509622331719,0.0414398843494247,-4.14365633896776,-2.11326805383331,4.16437628114248,-2.05110822730917
1.07988022795325,27.5094466638372,0.0185669334850781,-27.4908797303522,-13.7640067986612,27.5001631970947,-13.7361563984335
1.08181203515889,23.7157767240641,-3.79637460497399,-27.5121513290381,-9.95970105954507,25.6139640265511,-15.6542629670061
1.08374384236453,19.9027769631432,0.208615672668042,-19.6941612904752,-10.0556963179056,19.7984691268092,-9.74277280890357
1.08567564957017,8.2339578642625,0.319132555671796,-7.91482530859071,-4.27654520996715,8.0743915864266,-3.79784637645945
1.08760745677581,4.21528778950537,0.358504286110569,-3.8567835033948,-2.28689603780797,4.03603564645008,-1.74913960864211
1.08953926398145,4.01065770830225,0.309435723065112,-3.70122198523714,-2.16004671568368,3.8559398467697,-1.69589313108601
1.0914710711871,11.6022136504189,0.201859102405684,-11.4003545480132,-5.9020363764123,11.5012840992161,-5.59924772280377
1.09340287839274,19.3326131477281,0.0950881572591753,-19.2375249904689,-9.71385065249363,19.2850690690985,-9.57121841660487
1.09533468559838,35.0186024086743,0.0451924447467943,-34.9734099639275,-17.5318974267105,34.9960061863009,-17.4641087595903
1.09726649280402,43.086018463543,0.0754928591986359,-43.0105256043443,-21.5807556613708,43.0482720339437,-21.4675163725729
1.09919830000966,55.0494828835933,0.165731058475351,-54.883751825118,-27.6076069710343,54.9666173543556,-27.3590103833213
1.1011301072153,51.3382287242656,0.264907007459214,-51.0733217168064,-25.8015678658624,51.205775220536,-25.4042073546736
1.10306191442094,39.6206924869501,0.319935769963085,-39.300756716987,-19.9703141284566,39.4607246019686,-19.490410473512
1.10499372162658,31.5614769501089,-3.57635596152262,-35.1378329116315,-13.9925604942932,33.3496549308702,-19.3570944365771
1.10692552883222,0.115700271323727,0.235702947622243,0.120002676298515,-0.175701609472985,-0.00215120248739392,0.177852811960379
1.10885733603786,-4.06064034122863,0.146116199553804,4.20675654078243,1.95726207083741,-4.13369844100553,2.17643637016812
1.1107891432435,-0.254508252697372,0.0828272099308501,0.337335462628222,0.0858405213832611,-0.295921857662797,0.210081336279536
1.11272095044915,19.3015242963694,0.0785106864655517,-19.2230136099038,-9.69001749141745,19.2622689531366,-9.57225146171912
1.11465275765479,35.1027661196666,0.134084879004351,-34.9686812406622,-17.6184254993355,35.0357236801644,-17.4172981808289
1.11658456486043,39.2702325149635,0.21890713477741,-39.0513253801861,-19.7445698248705,39.1607789475748,-19.4162091227043
1.11851637206607,43.3720123498405,0.287675946237345,-43.0843364036031,-21.8298441480389,43.2281743767218,-21.3983302286829
1.12044817927171,55.1253773848302,0.304721285939231,-54.820656098891,-27.7150493353847,54.9730167418606,-27.2579674064759
1.12237998647735,47.3313869674101,0.262619129883791,-47.0687678375263,-23.797003048647,47.2000774024682,-23.4030743538213
1.12431179368299,47.1755656278905,0.185362200375681,-46.9902034275148,-23.6804639141331,47.0828845277027,-23.4024206135696
1.12624360088863,35.2823400297053,0.114766220063412,-35.1675738096419,-17.6985531248844,35.2249569196736,-17.5264037947893
1.12817540809427,42.7672476245613,0.0877702691226724,-42.6794773554386,-21.427508946842,42.72336249,-21.295853543158
1.13010721529991,42.5278249884199,0.116977667209525,-42.4108473212104,-21.3224013278147,42.4693361548152,-21.1469348270004
1.13203902250555,34.6615635112526,0.184748990899473,-34.4768145203532,-17.4231562510761,34.5691890158029,-17.1460327647268
1.13397082971119,27.025085783754,0.253632177357466,-26.7714536063965,-13.6393589805557,26.8982696950752,-13.2589107145195
1.13590263691684,31.2716764841936,0.287064100727573,-30.984612383466,-15.7793702924606,31.1281444338298,-15.3487741413692
1.13783444412248,55.0299094953295,0.268907684476182,-54.7610018108533,-27.6494085899028,54.8954556530914,-27.2460470631886
1.13976625132812,70.8912174062487,0.211328071827587,-70.6798893344211,-35.5512727390381,70.7855533703349,-35.2342806312967
1.14169805853376,70.9066228628884,0.147114496163612,-70.7595083667247,-35.526868679526,70.8330656148065,-35.3061969352806
1.1436298657394,82.2253691781928,0.111109184567808,-82.114259993625,-41.1682391813803,82.1698145859089,-41.0015754045286
1.14556167294504,77.8139301829352,0.121206141517297,-77.6927240414179,-38.9675681622262,77.7533271121765,-38.7857589499503
1.14749348015068,65.696936369673,0.169319294862993,-65.52761707481,-32.933127832268,65.6122767222415,-32.6791488899735
1.14942528735632,38.3668042123087,0.226951212414823,-38.1398529998939,-19.2968777123618,38.2533286061013,-18.9564508937395
1.15135709456196,15.3434469965646,0.261813946615456,-15.0816330499491,-7.80263047159001,15.2125400232568,-7.40990955166682
1.1532889017676,12.0236106579323,-3.62453468500139,-15.6481453429337,-4.19953798646547,13.835878000433,-9.63634001396756
1.15522070897324,12.5542786442388,-3.65977208051417,-16.214050724753,-4.44725328186232,14.3841646844959,-9.93691140263358
1.15715251617889,39.8966110288291,0.175178384573731,-39.7214326442554,-20.0358947067014,39.8090218365423,-19.7731271298408
1.15908432338453,62.8517356224636,0.13580569739832,-62.7159299250653,-31.4937706599309,62.7838327737644,-31.2900621138335
1.16101613059017,85.4706224234074,0.122948851419797,-85.3476735719877,-42.7967856374136,85.4091479976975,-42.6123623602839
1.16294793779581,77.1127111243215,0.144591460419095,-76.9681196639024,-38.6286512923703,77.040415394112,-38.4117641017417
1.16487974500145,69.265303377052,0.191421776548968,-69.073881600503,-34.7283625768005,69.1695924887775,-34.441229911977
1.16681155220709,54.3078964696753,0.240727276206616,-54.0671691934687,-27.274311872941,54.187532831572,-26.913220958631
1.16874335941273,66.8920131916097,0.26752381970925,-66.6244893719004,-33.5797685056595,66.758251281755,-33.1784827760956
1.17067516661837,71.4877969306078,0.257402999065889,-71.2303939315419,-35.8725999648368,71.3590954310748,-35.486495466238
1.17260697382401,63.7018145843042,0.214397630756725,-63.4874169535475,-31.9581061075305,63.5946157689258,-31.6365096613954
1.17453878102965,47.3382439339021,0.159521304998801,-47.1787226289033,-23.7488826194504,47.2584832814027,-23.5096006619522
1.17647058823529,26.715728288926,0.120413270651491,-26.5953150182745,-13.4180707797887,26.6555216536002,-13.2374508738115
1.17840239544094,33.5944149851767,0.117239574879855,-33.4771754102968,-16.8558272800283,33.5357951977368,-16.6799679177085
1.18033420264658,45.2243494247197,0.152132853754782,-45.0722165709649,-22.6882411392372,45.1482829978423,-22.4600418586051
1.18226600985222,53.9132321364074,0.207778223571846,-53.7054539128356,-27.0605051799896,53.8093430246215,-26.7488378446319
1.18419781705786,78.6128110333885,-3.62439992783428,-82.2372109612228,-37.4942055527771,80.4250109973056,-42.9308054445285
1.1861296242635,95.261943275133,0.27806831748582,-94.9838749576472,-47.7700057963094,95.1229091163901,-47.3529033200807
1.18806143146914,83.8152460010161,0.253656173667231,-83.5615898273489,-42.0344510873417,83.6884179141825,-41.6539668268408
1.18999323867478,63.5614863672092,-3.68677070182916,-67.2482570690384,-29.93735783269,65.4048717181238,-35.4675138854338
1.19192504588042,38.8340456425813,0.13528057477941,-38.6987650678019,-19.4846631086803,38.7664053551916,-19.2817422465112
1.19385685308606,37.5673807983122,0.102062584757964,-37.4653182135542,-18.8347216915351,37.5163495059332,-18.6816278143981
1.1957886602917,33.2337454842408,0.112444235355936,-33.1213012488849,-16.6730948597984,33.1775233665629,-16.5044285067645
1.19772046749734,33.8125386139737,0.163714459192293,-33.6488241547814,-16.988126536583,33.7306813843776,-16.7425548477946
1.19965227470298,35.1062460703723,0.23211030492842,-34.8741357654438,-17.6691781876503,34.9901909179081,-17.3210127302577
1.20158408190863,44.2009069697618,0.283834810266152,-43.9170721594956,-22.242370890014,44.0589895646287,-21.8166186746147
1.20351588911427,60.4051063613509,0.291911530418317,-60.1131948309326,-30.3485089458846,60.2591505961418,-29.9106416502571
1.20544769631991,71.7305461931694,0.25038784351003,-71.4801583496594,-35.9904670183397,71.6053522714144,-35.6148852530747
1.20737950352555,82.2523890673359,-3.70211781811832,-85.9545068854542,-39.2751356246088,84.103447976395,-44.8283123517863
1.20931131073119,88.707138668917,0.116786424955212,-88.5903522439618,-44.4119625469361,88.6487454564394,-44.2367829095033
1.21124311793683,80.1614931470743,0.0880693390450576,-80.0734238080292,-40.1247812430597,80.1174584775517,-39.9926772344921
1.21317492514247,91.9727698963454,0.106264265845767,-91.8665056304996,-46.0395170810956,91.9196377634225,-45.8801206823269
1.21510673234811,81.3228966409751,0.164559461620769,-81.1583371793544,-40.743728051298,81.2406169101648,-40.4968888588668
1.21703853955375,59.3072026203044,0.237526499789061,-59.0696761205154,-29.7723645600467,59.1884393704099,-29.4160748103632
1.21897034675939,52.4102605769979,0.292048880904847,-52.118211696093,-26.3511547289514,52.2642361365455,-25.9130814075941
1.22090215396503,40.7400962081646,0.30230121191652,-40.4377949962481,-20.5211987100406,40.5889456022063,-20.0677468921658
1.22283396117068,35.9412028082632,0.262021945693381,-35.6791808625698,-18.1016123769783,35.8101918354165,-17.7085794584382
1.22476576837632,34.6167026763212,0.188222751189868,-34.4284799251313,-17.4024627137555,34.5225913007263,-17.1201285869707
1.22669757558196,25.8406439140398,0.114187488210345,-25.7264564258294,-12.9774157011251,25.7835501699346,-12.8061344688095
1.2286293827876,33.4739143648365,0.0745435948572226,-33.3993707699793,-16.7742289798469,33.4366425674079,-16.662413587561
1.23056118999324,65.3561392750041,0.0890659432912345,-65.2670733317129,-32.7226026091477,65.3116063033585,-32.5890036942108
1.23249299719888,70.5612271721094,-3.7276706072124,-74.2888977793218,-33.4167782824485,72.4250624757156,-39.0082841932671
1.23442480440452,75.5608382035786,0.243030485811376,-75.3178077177672,-37.901934344695,75.4393229606729,-37.5373886159779
1.23635661161016,64.2525576492843,0.308763983359668,-63.9437936659246,-32.280660816322,64.0981756576044,-31.8175148412825
1.2382884188158,63.6560711423765,0.316668379953105,-63.3394027624234,-31.9863697611648,63.4977369524,-31.5113671912352
1.24022022602144,74.0862148289984,0.262421647156317,-73.8237931818421,-37.1743182380774,73.9550040054203,-36.7806857673429
1.24215203322708,76.7493521893684,0.173004740973651,-76.5763474483947,-38.461178465171,76.6628498188815,-38.2016713537105
1.24408384043272,72.2714707603791,0.0931682723846455,-72.1783024879945,-36.1823195163819,72.2248866241868,-36.0425671078049
1.24601564763837,60.972769371402,0.0629160432182112,-60.9098533281838,-30.5178427073101,60.9413113497929,-30.4234686424828
1.24794745484401,62.0960639607833,0.0973970603714524,-61.9986669004119,-31.0967305105774,62.0473654305976,-30.9506349200202
1.24987926204965,59.5226755614075,-3.70111974843712,-63.2237953098446,-27.9107779064852,61.3732354356261,-33.4624575291409
1.25181106925529,60.3181160871269,0.273443018400523,-60.0446730687264,-30.2957795527637,60.1813945779267,-29.8856150251629
1.25374287646093,64.0472198279178,0.323844076056315,-63.7233757518614,-32.185531951987,63.8852977898896,-31.6997658379026
1.25567468366657,70.7741561833449,0.304039257425635,-70.4701169259193,-35.5390977203853,70.6221365546321,-35.0830388342468
1.25760649087221,69.3973579103787,0.225163069184556,-69.1721948411942,-34.8112604897816,69.2847763757864,-34.4735158860048
1.25953829807785,76.1910713723595,0.129720140654713,-76.0613512317048,-38.1603957565071,76.1262113020322,-37.9658155455251
1.26147010528349,80.0463365308026,0.0686512717081118,-79.9776852590945,-40.0574939012553,80.0120108949485,-39.9545169936932
1.26340191248913,81.0000176315421,0.0741228496820259,-80.9258947818601,-40.5370702406121,80.9629562067011,-40.425885966089
1.26533371969477,78.5607633902509,0.142580462055165,-78.4181829281957,-39.351671926153,78.4894731592233,-39.1378012330703
1.26726552690042,83.6023673380644,0.236992946428531,-83.3653743916359,-41.9196801422465,83.4838708648501,-41.5641907226037
1.26919733410606,76.0697634587385,0.306899341645367,-75.7628641170932,-38.188331400192,75.9163137879159,-37.7279823877239
1.2711291413117,63.5799709855963,0.315401731119953,-63.2645692544764,-31.9476863583581,63.4222701200363,-31.4745837616782
1.27306094851734,58.2166928969679,0.258658081188115,-57.9580348157798,-29.237675489078,58.0873638563738,-28.8496883672958
1.27499275572298,60.761248360335,0.167572466055225,-60.5936758942798,-30.4644104131951,60.6774621273074,-30.2130517141123
1.27692456292862,87.444132068802,0.090969040435894,-87.3531630283661,-43.7675505546189,87.3986475485841,-43.6310969939651
1.27885637013426,107.458723726124,0.06940657423877,-107.389317151886,-53.7640651501816,107.424020439005,-53.6599552888234
1.2807881773399,120.499611143337,0.113680647216269,-120.38593049612,-60.3066458952765,120.442770819729,-60.1361249244521
1.28271998454554,118.110839104436,0.199415697954658,-117.911423406481,-59.1551274011952,118.011131255458,-58.8560038542632
1.28465179175118,107.326098513601,0.280454940822872,-107.045643572778,-53.8032767272117,107.185871043189,-53.3825943159774
1.28658359895682,99.3709410097322,0.313707817665847,-99.0572331920663,-49.842324413699,99.2140871008992,-49.3717626872002
1.28851540616247,90.4458838752865,0.282082776169036,-90.1638010991175,-45.3639833257278,90.304842487202,-44.9408591614742
1.29044721336811,88.864121852946,0.203294458988994,-88.660827393957,-44.5337081559675,88.7624746234515,-44.228766467484
1.29237902057375,87.6159723378602,0.119998609298114,-87.4959737285621,-43.8679854735792,87.5559730332112,-43.687987559632
1.29431082777939,83.4262853193905,0.07672223215263,-83.3495630872379,-41.7515037757716,83.3879242033142,-41.6364204275426
1.29624263498503,80.3454970713809,0.0960525582605589,-80.2494445131204,-40.2207748148207,80.2974707922506,-40.0766959774299
1.29817444219067,93.529062970011,0.16681843975795,-93.362244530253,-46.8479407048845,93.445653750132,-46.5977130452475
1.30010624939631,102.813926966188,0.250459722466163,-102.563467243722,-51.5321933443273,102.688697104955,-51.1565037606281
1.30203805660195,95.8087804053766,0.301990085613107,-95.5067903197634,-48.0553852454948,95.65778536257,-47.6024001170752
1.30396986380759,110.967540058559,0.294181208094707,-110.673358850464,-55.6308606333267,110.820449454511,-55.1895888211847
1.30590167101323,113.520741788348,-3.64848856880993,-117.169230357158,-54.9361266097689,115.344986072753,-60.4088594629838
1.30783347821887,123.521050652081,-3.72535108905898,-127.24640174114,-59.8978497815113,125.383726196611,-65.4858764150997
1.30976528542451,126.246376799941,0.102059796248449,-126.144317003692,-63.1742182980947,126.195346901817,-63.021128603722
1.31169709263016,133.920508704933,0.0906980362784066,-133.829810668655,-67.0056033706059,133.875159686794,-66.8695563161883
1.3136288998358,142.715956468352,0.125502734662042,-142.59045373369,-71.4207296015069,142.653205101021,-71.2324754995139
1.31556070704144,144.36914586355,0.190282539983367,-144.178863323566,-72.2797142017664,144.274004593558,-71.9942903917914
1.31749251424708,138.07778811849,0.255678988345191,-137.822109130145,-69.1667335534178,137.949948624318,-68.7832150709
1.31942432145272,134.771286053928,0.292340833949561,-134.478945219978,-67.5318134439387,134.625115636953,-67.0933021930143
1.32135612865836,122.51491041672,0.283929667265394,-122.230980749454,-61.3994200419926,122.372945583087,-60.9735255410945
1.323287935864,105.482252336586,0.234285318659549,-105.247967017927,-52.8582688276229,105.365109677256,-52.5068408496335
1.32521974306964,103.809245377283,0.165675004957993,-103.643570372325,-51.9874601911202,103.726407874804,-51.7389476836833
1.32715155027528,98.8809378871171,0.108927439225235,-98.7720104478919,-49.4949326631712,98.8264741675045,-49.3315415043333
1.32908335748092,106.718170096473,0.0897599283835015,-106.628410168089,-53.4039650124282,106.673290132281,-53.269325119853
1.33101516468656,111.748463973283,0.117265133606697,-111.631198839676,-55.9328645534446,111.689831406479,-55.7569668530346
1.33294697189221,117.306781613596,-3.70083174335547,-121.007613356951,-56.8029749351202,119.157197485274,-62.3542225501534
1.33487877909785,130.367071821512,0.254718752553131,-130.112353068959,-65.3108952870327,130.239712445236,-64.928817158203
1.33681058630349,123.095421640634,0.299162134440542,-122.796259506193,-61.6972918875373,122.945840573414,-61.2485486858765
1.33874239350913,114.697656134818,0.290420717420988,-114.407235417397,-57.4940384261197,114.552445776108,-57.0584073499882
1.34067420071477,97.7355554632785,0.232570299245236,-97.5029851640333,-48.9840628812619,97.6192703136559,-48.635207432394
1.34260600792041,69.0165152554464,0.154384249951182,-68.8621310054953,-34.5854497526988,68.9393231304709,-34.353873377772
1.34453781512605,60.3118491099383,0.094991946420973,-60.2168571635173,-30.2034205281796,60.2643531367278,-30.0609326085482
1.34646962233169,44.8375531306355,0.0842818966442942,-44.7532712339912,-22.4609175136399,44.7954121823133,-22.3344946686734
1.34840142953733,41.9223937060697,0.127871042602118,-41.7945226634676,-21.0251323743359,41.8584581847686,-20.8333258104327
1.35033323674297,47.1924887581388,0.20419146237278,-46.9882972957661,-23.6983401102558,47.0903930269524,-23.3920529166966
1.35226504394861,56.113245469109,0.275186881487612,-55.8380585876214,-28.1942161752983,55.9756520283652,-27.7814358530669
1.35419685115425,60.4231319067662,0.305298729308249,-60.117833177458,-30.3642153180372,60.2704825421121,-29.9062672240749
1.3561286583599,63.8783899493081,0.279264265553759,-63.5991256837544,-32.0788271074309,63.7387578165312,-31.6599307091003
1.35806046556554,66.7412368027754,0.209826057800662,-66.5314107449748,-33.4755314302881,66.6363237738751,-33.1607923435871
1.35999227277118,57.8610559622541,0.131475088993444,-57.7295808732607,-28.9962655256238,57.7953184177574,-28.7990528921336
1.36192407997682,45.4971394852397,0.0833132724884245,-45.4138262127513,-22.7902263788641,45.4554828489955,-22.6652564701314
1.36385588718246,26.0435949115614,0.0895542270732971,-25.9540406844882,-13.0665745693174,25.9988177980248,-12.9322432287074
1.3657876943881,26.6259730435173,0.147377149335418,-26.4785958941818,-13.3866750964263,26.5522844688495,-13.1656093724232
1.36771950159374,23.6227689998699,0.228209811773471,-23.3945591880965,-11.9254894058217,23.5086640939832,-11.5831746881615
1.36965130879938,36.0264588261256,0.291848449500422,-35.7346103766252,-18.159153637813,35.8805346013754,-17.7213809635624
1.37158311600502,40.2366886120174,0.306434442124488,-39.9302541698929,-20.2715615270709,40.0834713909551,-19.8119098638842
1.37351492321066,47.8312226501382,0.264372407171748,-47.5668502429664,-24.047797528655,47.6990364465523,-23.6512389178973
1.3754467304163,51.2014664899059,0.186254567650056,-51.0152119222559,-25.693860528778,51.1083392060809,-25.4144786773029
1.37737853762195,54.4942566624809,0.110781431532842,-54.3834752309481,-27.3025190470069,54.4388659467145,-27.1363468997076
1.37931034482759,34.6608430305528,0.0756133355043236,-34.5852296950485,-17.3682281830286,34.6230363628007,-17.2548081797721
1.38124215203323,22.8936749878193,0.0986145146605016,-22.7950604731588,-11.4961447512399,22.844367730489,-11.3482229792491
1.38317395923887,3.64786320867901,0.168809972811766,-3.47905323586725,-1.90833659074539,3.56345822227313,-1.65512163152774
1.38510576644451,-3.79000260901082,0.251614384135727,4.04161699314654,1.76919411243754,-3.91580980107868,2.14661568864114
1.38703757365015,0.42079063427965,0.305843442562959,-0.114947191716691,-0.363317038421304,0.26786891299817,0.095448125423134
1.38896938085579,20.036814735121,0.304155065092532,-19.7326596700285,-10.1704849001068,19.8847372025748,-9.71425230246798
1.39090118806143,31.7219410093432,0.246798442702097,-31.4751425666411,-15.9843697260227,31.5985417879922,-15.6141720619695
1.39283299526707,51.0484695226495,0.161778520494914,-50.8866910021545,-25.6051240215722,50.967580262402,-25.3624562408298
1.39476480247271,58.6822198010433,0.0912159497234201,-58.5910038513199,-29.3867178753834,58.6366118261816,-29.2498939507982
1.39669660967835,35.2857488007917,0.0705290561206118,-35.2152197446711,-17.6781389284562,35.2504842727314,-17.5723453442752
1.398628416884,19.7211624315109,0.110700162762698,-19.6104622687482,-9.91593129713678,19.6658123501295,-9.74988105299273
1.40056022408964,11.951996826237,0.192480261812386,-11.7595165644247,-6.07223854402472,11.8557566953309,-5.78351815130614
1.40249203129528,4.13552889026755,0.275571324583179,-3.85995756568437,-2.20555010742536,3.99774322797596,-1.79219312055059
1.40442383850092,4.00305427328921,0.318427114142768,-3.68462715914644,-2.16074069371599,3.84384071621783,-1.68310002250184
1.40635564570656,11.6098748546064,0.298973583894711,-11.3109012707116,-5.95442421925053,11.460388062659,-5.50596384340847
1.4082874529122,19.3121415341389,0.22594448087399,-19.0861970532649,-9.76904300750643,19.1991692937019,-9.43012628619544
1.41021926011784,27.2195106743576,0.135030287191479,-27.0844803871661,-13.6772704807745,27.1519955307618,-13.4747250499873
1.41215106732348,50.8586476421916,0.0714999026118818,-50.7871477395797,-25.4650737724017,50.8228976908856,-25.3578239184839
1.41408287452912,78.4229768045084,-3.81274183854074,-82.2357186430491,-37.3051174829838,80.3293477237787,-43.0242302407949
1.41601468173476,136.836833192216,0.132339215975768,-136.70449397624,-68.484586204096,136.770663584228,-68.2860773801323
1.4179464889404,206.49038036419,0.22512460301549,-206.265255761174,-103.357752483603,206.377818062682,-103.020065579079
1.41987829614604,295.163312430912,0.298476319545152,-294.864836111367,-147.730894375229,295.01407427114,-147.283179895911
1.42181010335169,395.36972511818,0.316150949529678,-395.05357416865,-197.842938033855,395.211649643415,-197.36871160956
1.42374191055733,503.652410084746,0.271112637573943,-503.381297447172,-251.96176136116,503.516853765959,-251.555092404799
1.42567371776297,624.227126937,0.188115388692074,-624.039011548308,-312.207621162846,624.133069242654,-311.925448079808
1.42760552496861,722.178046970953,0.110214168295817,-722.067832802657,-361.144130569624,722.122939886805,-360.978809317181
1.42953733217425,773.887175408045,0.0765012608748727,-773.81067414717,-386.98183833446,773.848924777607,-386.867086443148
1.43146913937989,759.417252921293,0.102543993610668,-759.314708927682,-379.759898457452,759.365980924487,-379.606082467036
1.43340094658553,693.808560096314,0.173282785154657,-693.63527731116,-346.990921440734,693.721918703737,-346.730997263003
1.43533275379117,600.110917032434,0.251579621144463,-599.859337411289,-300.181248326789,599.985127221862,-299.803878895073
1.43726456099681,470.682576587546,0.297634366174203,-470.384942221372,-235.49010547686,470.533759404459,-235.043653927599
1.43919636820245,344.824537255052,0.289158183023479,-344.535379072029,-172.556847719038,344.679958163541,-172.123110444503
1.44112817540809,227.067645504148,0.232109915236359,-226.835535588912,-113.649877709692,226.95159054653,-113.301712836838
1.44305998261374,125.727936648775,0.156852438190392,-125.571084210585,-62.9423945434827,125.64951042968,-62.7071158861971
1.44499178981938,68.1837337771702,0.102084481556842,-68.0816492956134,-34.1429091293635,68.1326915363918,-33.9897824070283
1.44692359702502,34.7522578949429,0.0950067462382883,-34.6572511487046,-17.4236323205906,34.7047545218237,-17.2811222012332
1.44885540423066,20.91243205258,0.137853243468778,-20.7745788091112,-10.5251426480244,20.8435054308456,-10.3183627828212
1.4507872114363,37.5732303862348,0.207434194499096,-37.3657961917357,-18.890332290367,37.4695132889853,-18.5791809986183
1.45271901864194,64.8007782700413,0.267585277142174,-64.5331929928991,-32.5341817735917,64.6669856314702,-32.1328038578785
1.45465082584758,87.0192538072806,0.287887886830911,-86.7313659204496,-43.6535708470557,86.8753098638651,-43.2217390168094
1.45658263305322,104.715829567736,0.25900866871119,-104.456820899025,-52.4874191182237,104.586325233381,-52.098906115157
1.45851444025886,95.4173602791879,0.196946507247946,-95.2204137719399,-47.8071533932179,95.3188870255639,-47.511733632346
1.4604462474645,79.3108020463706,0.134279193366403,-79.1765228530042,-39.7225406198685,79.2436624496874,-39.5211218298189
1.46237805467014,45.0844940110921,0.103148843167502,-44.9813451679246,-22.5938214271298,45.0329195895084,-22.4390981623785
1.46430986187578,19.6078928779548,0.118829412037876,-19.4890634659169,-9.86336114499632,19.5484781719358,-9.6851170269395
1.46624166908143,9.80052288377813,0.172249192220172,-9.62827369155795,-4.98638603799915,9.71439828766804,-4.72801224966889
1.46817347628707,-4.722893009966,0.235119419816009,4.95801242978201,2.24388679507499,-4.840452719874,2.59656592479901
1.47010528349271,-20.6540497927783,0.274821060711341,20.9288708534896,10.1896143660335,-20.791460323134,10.6018459571005
1.47203709069835,-26.1974139983822,0.271261516889612,26.4686755152718,12.9630762407463,-26.333044756827,13.3699685160807
1.47396889790399,-39.9457980078382,0.22702455686469,40.1728225647029,19.8593867254868,-40.0593102862706,20.1999235607838
1.47590070510963,-41.3987833236212,0.165696700265953,41.5644800238872,20.6165433116776,-41.4816316737542,20.8650883620766
1.47783251231527,-53.0543033413236,0.11938675487542,53.1736900961991,26.4674582932241,-53.1139967187614,26.6465384255372
1.47976431952091,-28.2633533461363,0.11199631143527,28.3753496575715,14.0756785173505,-28.3193515018539,14.2436729845034
1.48169612672655,-18.2388215668173,0.146916827799661,18.385738394617,9.04595236950882,-18.3122799807171,9.26632761120831
1.48362793393219,-12.4895327656231,0.205468442097034,12.6950012077201,6.14203216176303,-12.5922669866716,6.45023482490858
1.48555974113783,-11.9800831710043,0.256802894956961,12.2368860659612,5.86164013802365,-12.1084846184827,6.24684448045909
1.48749154834348,-28.633050991049,0.27406336563974,28.9071143566888,14.1794938127046,-28.7700826738689,14.5905888611643
1.48942335554912,-46.3543574098812,0.248381781670083,46.6027391915513,23.0529878141056,-46.4785483007162,23.4255604866107
1.49135516275476,-40.7505879526029,0.193445595157113,40.94403354776,20.2785711787229,-40.8473107501814,20.5687395714585
1.4932869699604,-41.813441817523,0.138277435405923,41.951719252929,20.8375821910586,-41.882580535226,21.0449983441674
1.49521877716604,-45.1350171242982,-3.76846355315505,41.3665535711431,24.4517403387266,-43.2507853477206,18.799045008994
1.49715058437168,-54.8590798589204,0.134162704308926,54.9932425632293,27.3624585773057,-54.9261612110749,27.5637026337691
1.49908239157732,-36.9857702657808,0.184316579453659,37.1700868452344,18.4007268431636,-37.0779285555076,18.677201712344
1.50101419878296,-39.2728991421669,0.234355645832332,39.5072547879992,19.5192717481673,-39.390076965083,19.8708052169158
1.5029460059886,-43.1046314790977,0.258423352190523,43.3630548312883,21.4231040634536,-43.233843155193,21.8107390917394
1.50487781319424,-32.9816073630874,0.246213225762733,33.2278205888502,16.3676970686624,-33.1047139759688,16.7370169073065
1.50680962039988,-31.4592241775012,-3.67323852606281,27.7859856514384,17.566231351782,-29.6226049144698,12.0563735626878
1.50874142760553,-29.6123461665829,0.16994113232319,29.7822872989061,14.7212025171298,-29.6973167327445,14.9761142156146
1.51067323481117,-34.1859761574517,0.145682560743146,34.3316587181948,17.0201467983543,-34.2588174378233,17.238670639469
1.51260504201681,-29.2852399071409,0.144127408238854,29.4293673153797,14.570556249451,-29.3573036112603,14.7867473618093
1.51453684922245,-27.0428916729151,0.164123696705915,27.207015369621,13.4393839881046,-27.1249535212681,13.6855695331635
1.51646865642809,-9.1577802917888,0.19522621229372,9.35300650408252,4.48127703974754,-9.25539339793566,4.77411635818812
1.51840046363373,-7.87229198813789,0.223085156520472,8.09537714465836,3.82460341580871,-7.98383456639813,4.15923115058942
1.52033227083937,-8.30679271425856,0.235941012999968,8.54273372725852,4.03542585062929,-8.42476322075854,4.38933737012925
1.52226407804501,-2.48948327564231,0.229359634871159,2.71884291051346,1.13006182038557,-2.60416309307788,1.47410127269231
1.52419588525065,-16.6345240686276,0.20744254342648,16.8419666120541,8.21354076260058,-16.7382453403409,8.5247045777403
1.52612769245629,-33.9557419378334,0.180414392644818,34.1361563304782,16.8876637725943,-34.0459491341558,17.1582853615615
1.52805949966193,-49.6548000508236,0.159950795488241,49.8147508463119,24.7474246276677,-49.7347754485678,24.9873508209001
1.52999130686757,-59.7539140913256,0.154323994005719,59.9082380853313,29.7997950486599,-59.8310760883285,30.0312810396685
1.53192311407322,-41.7525071464982,0.165268962827972,41.9177761093262,20.7936190918351,-41.8351416279122,21.0415225360771
1.53385492127886,-16.3522288238134,0.187625404937419,16.5398542287508,8.08230170943799,-16.4460415262821,8.36373981684412
1.5357867284845,3.69884759127441,0.211696707218134,-3.48715088405628,-1.95527214924627,3.59299923766535,-1.63772708841907
1.53771853569014,14.202351753339,0.227291538561886,-13.9750602147771,-7.21482164595044,14.0887059840581,-6.87388433810761
1.53965034289578,19.6714444043492,0.227864642158359,-19.4435797621909,-9.94965452325378,19.55751208327,-9.60785756001625
1.54158215010142,32.9764209723167,0.213179769881195,-32.7632412024356,-16.594800371099,32.8698310873761,-16.2750307162772
1.54351395730706,31.9867790349865,0.189458259671133,-31.7973207753154,-16.0881186473288,31.892049905151,-15.8039312578221
1.5454457645127,17.2165356319562,0.166893903969633,-17.0496417279866,-8.69171476796292,17.1330886799714,-8.44137391200847
1.54737757171834,11.5591904413424,0.155430082816585,-11.4037603585258,-5.85731026207951,11.4814753999341,-5.62416513785463
1.54930937892398,6.12849442079408,0.160453353557765,-5.96804106723632,-3.14447388717592,6.0482677440152,-2.90379385683928
1.55124118612962,-4.20645070579944,0.180227498916488,4.38667820471593,2.01311160344148,-4.29656445525769,2.28345285181621
1.55317299333527,-16.2680715999081,0.206311999768748,16.4743835996769,8.03087980006968,-16.3712275997925,8.3403477997228
1.55510480054091,-22.0826401865782,0.227013034904059,22.3096532214823,10.9278135758371,-22.1961467040302,11.2683331281932
1.55703660774655,-28.4045962619733,0.232549475171216,28.6371457371445,14.086023393401,-28.5208709995589,14.4348476061578
1.55896841495219,-37.8274957474283,0.219693661245548,38.0471894086738,18.8039010430914,-37.9373425780511,19.1334415349597
1.56090022215783,-33.9337295162273,0.193672168308792,34.1274016845361,16.8700286739593,-34.0305656003817,17.1605369264225
1.56283202936347,-16.7217183764078,0.166202382976929,16.8879207593847,8.27775799671545,-16.8048195678963,8.52706157118084
1.56476383656911,9.03256584551185,0.150296358180883,-8.88226948733097,-4.59143110184637,8.95741766642141,-4.36598656457504
1.56669564377475,30.3771760130573,0.154091446558837,-30.2230845664985,-15.2656337298081,30.3001302897779,-15.0344965599698
1.56862745098039,50.1800775123361,0.176638088223997,-50.0034394241121,-25.17835780028,50.0917584682241,-24.913400667944
1.57055925818603,44.9669798737899,0.207850109545057,-44.7591297642449,-22.5874149916675,44.8630548190174,-22.2756398273499
1.57249106539167,50.4173217047228,0.232930910706674,-50.1843907940161,-25.3251263077147,50.3008562493694,-24.9757299416547
1.57442287259731,28.952989023347,0.23938232878877,-28.7136066945582,-14.5961856760679,28.8332978589526,-14.2371121828847
1.57635467980296,28.2446563034237,0.223277459079251,-28.0213788443444,-14.2339668812515,28.1330175738841,-13.8990506926326
1.5782864870086,17.5727739741602,0.191624925609982,-17.3811490485502,-8.8821994498851,17.4769615113552,-8.59476206147012
1.58021829421424,4.14130756115115,0.159415632370758,-3.98189192878039,-2.15036159676095,4.06159974496577,-1.91123814820482
1.58215010141988,17.8600129580696,0.142538336056769,-17.7174746220129,-9.0012756470632,17.7887437900412,-8.78746814297804
1.58408190862552,22.6598346043491,0.149905109622281,-22.5099294947268,-11.4048698569857,22.5848820495379,-11.1800121925522
1.58601371583116,21.943924302528,0.178709808578193,-21.7652144939499,-11.0613170555531,21.854569398239,-10.7932523426858
1.5879455230368,16.1438703901794,0.215358964416916,-15.9285114257625,-8.17961467729818,16.036190907971,-7.85657623067281
1.58987733024244,6.34527132773288,0.241863087118962,-6.10340824061392,-3.29356720742592,6.2243397841734,-2.93077257674748
1.59180913744808,5.32051419294711,0.244695271411041,-5.07581892153607,-2.78260473217908,5.19816655724159,-2.41556182506252
1.59374094465372,13.6051862012602,0.221738626687917,-13.3834475745723,-6.91346241397406,13.4943168879162,-6.58085447394218
1.59567275185936,30.8606231119575,0.18373191070386,-30.6768912012536,-15.5221775113307,30.7687571566055,-15.2465796452749
1.59760455906501,52.204344958591,0.14927764950068,-52.0550673090903,-26.1768113040459,52.1297061338407,-25.9528948297948
1.59953636627065,61.0280603690201,0.13571634000266,-60.8923440290174,-30.5818883545114,60.9602021990188,-30.3783138445074
1.60146817347629,72.3106277383436,0.150355673474971,-72.1602720648686,-36.2304917059093,72.2354499016061,-36.0049581956968
1.60339998068193,74.6665948082395,0.186514027583664,-74.4800807806559,-37.4265544179116,74.5733377944477,-37.1467833765361
1.60533178788757,72.8814249867627,0.226528594236467,-72.6548963925262,-36.5539767904996,72.7681606896444,-36.2141838991449
1.60726359509321,79.6186065032552,0.250397397689089,-79.3682091055662,-39.9345019504722,79.4934078044107,-39.5589058539385
1.60919540229885,110.944093190338,0.245818503833836,-110.698274686504,-55.5949558470858,110.821183938421,-55.226228091335
1.61112720950449,112.287312728477,0.214565651468382,-112.072747077009,-56.2509391899729,112.180029902743,-55.9290907127703
1.61305901671013,102.276554005624,0.171878269497353,-102.104675736126,-51.2242161375605,102.190614870875,-50.9663987333145
1.61499082391577,72.2593726195453,0.139022366715273,-72.12035025283,-36.1991974931303,72.1898614361877,-35.9906639430574
1.61692263112141,52.7661104548179,0.132658612161217,-52.6334518426566,-26.4493845334895,52.6997811487373,-26.2503966152477
1.61885443832706,39.9894365717195,0.156353371367408,-39.8330832003521,-20.0728949715434,39.9112598860358,-19.8383649144923
1.6207862455327,26.780268421325,0.198579217381045,-26.581689203944,-13.489423819353,26.6809788126345,-13.1915549932815
1.62271805273834,29.4913514077148,0.238325758131646,-29.2530256495832,-14.8648385829232,29.372188528649,-14.5073499457258
1.62464985994398,40.9470891930208,0.255588047680764,-40.69150114534,-20.6013386203508,40.8192951691804,-20.2179565488296
1.62658166714962,57.3247349709055,0.241478288554724,-57.0832566823508,-28.7831066297301,57.2039958266281,-28.420889196898
1.62851347435526,66.5091319214751,0.202827018543103,-66.306304902932,-33.3559794700091,66.4077184122036,-33.0517389421945
1.6304452815609,79.4163216595534,0.158878833244837,-79.2574428263085,-39.7876002463991,79.3368822429309,-39.5492819965318
1.63237708876654,79.9023982266598,0.131679677293106,-79.7707185493667,-40.0170389519765,79.8365583880133,-39.8195194360368
1.63430889597218,71.6595240241644,0.134973664641737,-71.5245503595227,-35.8972488444031,71.5920371918436,-35.6947883474405
1.63624070317782,62.754926046926,0.167224870539168,-62.5877011763869,-31.4610754587326,62.6713136116564,-31.2102381529238
1.63817251038346,77.0729443552392,0.21232469705674,-76.8606196581824,-38.642634526148,76.9667820067108,-38.3241474805628
1.6401043175891,80.2343382050296,0.247664569863444,-79.9866736351662,-40.2410013874465,80.1105059200979,-39.8695045326514
1.64203612479475,72.5354951610174,0.255514396888939,-72.2799807641285,-36.3955047789532,72.4077379625729,-36.0122331836198
1.64396793200039,61.6691427814317,0.231956575485632,-61.4371862059461,-30.9505496784587,61.5531644936889,-30.6026148152302
1.64589973920603,43.3631720013067,0.188852971999978,-43.1743190293067,-21.7760124866533,43.2687455153067,-21.4927330286534
1.64783154641167,20.9861248008107,0.147850382643082,-20.8382744181676,-10.5669875917269,20.9121996094892,-10.3452120177623
1.64976335361731,17.4193008035258,0.12946477939319,-17.2898360241326,-8.77438279145951,17.3545684138292,-8.58018562236973
1.65169516082295,20.8690161138471,0.142772084052106,-20.726244029795,-10.5058940989496,20.7976300718211,-10.2917359728715
1.65362696802859,27.6420412843842,0.180909383228753,-27.4611319011555,-13.9114753338065,27.5515865927699,-13.6401112589634
1.65555877523423,38.1912037079328,0.224627354236184,-37.9665763536966,-19.2079155310845,38.0788900308147,-18.8709744997302
1.65749058243987,41.3877721844692,0.252049294139183,-41.1357228903301,-20.8199107393042,41.2617475373996,-20.4418367980954
1.65942238964551,45.3430889553432,0.249667077030268,-45.0934218783129,-22.7963780161867,45.2182554168281,-22.4218774006413
1.66135419685115,53.9350425054645,0.219021172189749,-53.7160213332747,-27.0770318388271,53.8255319193696,-26.7485000805425
1.6632860040568,35.7432289357833,0.175746440580721,-35.5674824952025,-17.959487688182,35.6553557154929,-17.6958680273109
1.66521781126244,32.917663484096,0.141556754613311,-32.7761067294827,-16.5296101193547,32.8468851067894,-16.3172749874347
1.66714961846808,33.2920767654815,0.133296702684533,-33.1587800627969,-16.712686734083,33.2254284141392,-16.5127416800562
1.66908142567372,17.2276724532296,0.154608358153509,-17.0730640950761,-8.69114040569156,17.1503682741529,-8.45922786846129
1.67101323287936,-7.29140386511825,0.194355031164818,7.48575889628307,3.54852441697672,-7.38858138070066,3.84005696372394
1.672945040085,-59.0858960228687,0.232468417684067,59.3183644405528,29.4267138025923,-59.2021302317107,29.7754164291184
1.67487684729064,-75.3766802767619,0.250136793059402,75.6268170698213,37.5632717418512,-75.5017486732916,37.9384769314403
1.67680865449628,-82.9772020571997,0.239133458531228,83.2163355157309,41.3690342993342,-83.0967687864653,41.7277344871311
1.67874046170192,-85.8796246092738,0.205635482532546,86.0852600918063,42.8369945633706,-85.9824423505401,43.1454477871694
1.68067226890756,-84.5794272652935,0.16676464769774,84.7461919129913,42.2063313087979,-84.6628095891424,42.4564782803445
1.6826040761132,-75.8233157696282,0.141781551829187,75.9650973214573,37.8407671088995,-75.8942065455427,38.0534394366433
1.68453588331884,-63.9531946275142,0.142488730526224,64.0956833580404,31.905352948494,-64.0244389927773,32.1190860442833
1.68646769052449,-64.5675679835648,0.167653443531803,64.7352214270966,32.1999572700165,-64.6513947053307,32.4514374353142
1.68839949773013,-57.9138526606335,0.204088689142618,58.1179413497762,28.8548819857455,-58.0158970052049,29.1610150194594
1.69033130493577,-58.963620802906,0.233607772097519,59.1972285750035,29.3650065154042,-59.0804246889548,29.7154181735505
1.69226311214141,-67.2180520320403,0.242164480399368,67.4602165124396,33.4879437758205,-67.33913427224,33.8511904964195
1.69419491934705,-90.2274923760286,0.226552385559996,90.4540447615886,45.0004699952343,-90.3407685688086,45.3402985735743
1.69612672655269,-116.504237328211,0.19545710049645,116.699694428707,58.1543901138571,-116.601965878459,58.4475757646018
1.69805853375833,-138.738132499419,0.164617224239748,138.902749723658,69.2867576375894,-138.820441111538,69.533683473949
1.69999034096397,-141.938894758949,0.148790207676773,142.087684966626,70.8950522756362,-142.013289862788,71.1182375871514
1.70192214816961,-130.354175544856,0.154658963958864,130.508834508815,65.0997582904487,-130.431505026836,65.331746736387
1.70385395537525,-123.38628805677,0.178108339646589,123.564396396416,61.6040898585615,-123.475342226593,61.8712523680314
1.70578576258089,-120.624986819835,-3.67353984193803,116.951446977897,62.1492633308864,-118.788216898866,56.6389535679793
1.70771756978654,-102.060306172316,0.232843546109656,102.293149718425,50.9137313131029,-102.17672794537,51.2629966322674
1.70964937699218,-86.647051054267,0.235240411634892,86.8822914659018,43.205905321316,-86.7646712600844,43.5587659387684
1.71158118419782,-89.8281180843217,0.212759455230404,90.0408775395521,44.8076793145457,-89.9344978119369,45.1268184973913
1.71351299140346,-96.3982924450825,0.178427970521574,96.576720415604,48.1099322372804,-96.4875064303432,48.3775741930628
1.7154447986091,-110.830458393349,0.152163248202454,110.982621641552,55.3391475725734,-110.906540017451,55.5673924448771
1.71737660581474,-122.050569317138,0.149330405295715,122.199899722434,60.9506194559211,-122.125234519786,61.1746150638647
1.71930841302038,-126.443208763819,0.171868766432869,126.615077530252,63.1356699986929,-126.529143147035,63.3934731483422
1.72124022022602,-123.818023508735,0.207057486683835,124.025080995419,61.8054830110255,-123.921552252077,62.1160692410512
1.72317202743166,-129.11422283896,0.234671995003331,129.348894833963,64.4397754219784,-129.231558836462,64.7917834144834
1.7251038346373,-114.440345984396,0.238519507303826,114.6788654917,57.1009132385462,-114.559605738048,57.458692499502
1.72703564184294,-118.142676337242,0.215819106572423,118.358495443815,58.9634286153349,-118.250585890528,59.2871572751935
1.72896744904859,-120.819090802652,0.179047832811144,120.998138635463,60.3200214849204,-120.908614719058,60.5885932341371
1.73089925625423,-111.360167958462,0.149087644489985,111.509255602952,55.6055401569861,-111.434711780707,55.8291716237211
1.73283106345987,-106.137461358266,0.143432686170764,106.280894044437,52.9970143360476,-106.209177701351,53.2121633653038
1.73476287066551,-90.3467279498866,0.166081854751705,90.5128098046384,45.0903230475675,-90.4297688772625,45.339445829695
1.73669467787115,-87.4952876785588,0.204903589256307,87.7001912678151,43.6451920446513,-87.597739473187,43.9525474285357
1.73862648507679,-101.00147501617,0.238134489560157,101.23960950573,50.3816702633048,-101.12054226095,50.738871997645
1.74055829228243,-106.632993263716,0.246531613277971,106.879524876994,53.1932308252189,-106.756259070355,53.5630282451358
1.74249009948807,-111.233810013267,0.224419074973229,111.458229088241,55.5046954691471,-111.346019550754,55.8413240816069
1.74442190669371,-122.150021047551,-3.69712833379057,118.45289271376,62.9235746906706,-120.301456880655,57.3778821899847
1.74635371389935,-120.2910279655,0.151642343752504,120.442670309252,60.0696928108737,-120.366849137376,60.2971563265025
1.74828552110499,-122.115798151667,0.138918980791541,122.254717132459,60.9884395854377,-122.185257642063,61.196818056625
1.75021732831063,-117.04928772474,0.151669078185048,117.200956802925,58.4488093232772,-117.125122263832,58.6763129405548
1.75214913551628,-109.631151251697,0.184306060723148,109.81545731242,54.7234225954871,-109.723304282059,54.9998816865718
1.75408094272192,-115.265549611199,0.221525397265696,115.487075008465,57.5220121069666,-115.376312309832,57.8543002028652
1.75601274992756,-136.946879517295,0.245476801482397,137.192356318777,68.3507013579061,-137.069617918036,68.7189165601297
1.7579445571332,-146.301114378197,0.244376066811839,146.545490445009,73.0283691556925,-146.423302411603,73.3949332559103
1.75987636433884,-138.597035398632,0.218371578844135,138.815406977476,69.189331909894,-138.706221188054,69.5168892781602
1.76180817154448,-121.56497670867,0.179707445192465,121.744684153862,60.6926346317388,-121.654830431266,60.9621957995275
1.76373997875012,-107.63973911495,0.146963622874202,107.786702737825,53.7463877460381,-107.713220926388,53.9668331803494
1.76567178595576,-94.1221584703706,0.13608106042239,94.258239530793,46.9930387049741,-94.1901990005818,47.1971602956077
1.7676035931614,-89.7345794065371,0.152534531695538,89.8871139382326,44.7910224374208,-89.8108466723848,45.0198242349641
1.76953540036704,-98.5928930520529,0.188533943294008,98.7814269953469,49.2021795543795,-98.6871600236999,49.4849804693205
1.77146720757268,-120.092006432214,0.226708154747031,120.318714586961,59.9326491387337,-120.205360509588,60.2727113708543
1.77339901477833,-110.434393080274,0.248531288115628,110.68292436839,55.0929308960794,-110.558658724332,55.4657278282529
1.77533082198397,-111.339920343044,0.243378430803234,111.583298773848,55.5482709561206,-111.461609558446,55.9133386023255
1.77726262918961,-106.875341990163,0.213746904799795,107.089088894962,53.3307975426814,-106.982215442562,53.6514178998811
1.77919443639525,-112.912341406203,0.174049737910685,113.086391144114,56.3691458341462,-112.999366275158,56.6302204410122
1.78112624360089,-103.170714219966,0.143561826814848,103.314276046781,51.5135761965755,-103.242495133373,51.7289189367977
1.78305805080653,-101.936355394591,0.136995382868388,102.073350777459,50.8996800058611,-102.004853086025,51.1051730801637
1.78498985801217,-102.0273874779,0.157350385978561,102.184737863879,50.9350185459608,-102.10606267089,51.1710441249287
1.78692166521781,-99.4588023610401,0.194543874951574,99.6533462359916,49.6321292430442,-99.5560742985158,49.9239450554716
1.78885347242345,-101.291675625264,0.230445999074141,101.522121624338,50.5306148130947,-101.406898624801,50.8762838117059
1.79078527962909,-110.47306491302,0.247785430808989,110.720850343829,55.1126397411055,-110.596957628424,55.484317887319
1.79271708683473,-118.546363754732,0.238511416409053,118.784875171141,59.1539261691613,-118.665619462936,59.5116932937749
1.79464889404037,-121.526988284287,0.207532107044801,121.734520391332,60.6597280886211,-121.630754337809,60.9710262491883
1.79658070124602,-116.054199182925,0.170090656564065,116.224289839489,57.9420542631804,-116.139244511207,58.1971902480265
1.79851250845166,-114.622614113409,0.144193665294868,114.766807778704,57.239210224057,-114.694710946056,57.4555007219993
1.8004443156573,-121.824600674583,0.141891912153038,121.966492586736,60.8413543812147,-121.895546630659,61.0541922494443
1.80237612286294,-118.467209456005,0.163670738981835,118.630880194987,59.1517693585115,-118.549044825496,59.3972754669843
1.80430793006858,-108.097247028762,0.198565780757465,108.295812809519,53.9493406240023,-108.196529919141,54.2471892951384
1.80623973727422,-97.7970539331139,0.22975421103155,98.0268081441454,48.7836498610412,-97.9119310386296,49.1282811775885
1.80817154447986,-102.415054785634,0.242733366841355,102.657788152476,51.0861607093966,-102.536421469055,51.4502607596586
1.8101033516855,-102.196796966209,0.232070732931389,102.428867699141,50.9823631166389,-102.312832332675,51.330469216036
1.81203515889114,-105.069917786825,0.203576010484532,105.27349379731,52.4331708881704,-105.171705792068,52.7385349038972
1.81396696609678,-107.715508655733,0.171088436903344,107.886597092636,53.7722101094146,-107.801052874184,54.0288427647696
1.81589877330242,-110.784366257459,0.149675635005418,110.934041892464,55.3173453112268,-110.859204074962,55.541858763735
1.81783058050807,-106.911504603012,0.148631408223277,107.060136011235,53.3814365973942,-106.985820307123,53.6043837097291
1.81976238771371,-103.815870784806,0.167539181576827,103.983409966383,51.8241658016148,-103.899640375595,52.07547457398
1.82169419491935,-104.926115207975,0.197013568398983,105.123128776373,52.3645508197878,-105.024621992174,52.6600711723862
1.82362600212499,-97.9902799152448,0.223449542919227,98.213729458164,48.8834151861628,-98.1020046867044,49.2185895005416
1.82555780933063,-94.2330679234051,0.235327930156849,94.4683958535619,46.9988699966241,-94.3507318884835,47.3518618918594
1.82748961653627,-97.5070307398138,0.228134975498202,97.735165715312,48.6394478821578,-97.6210982275629,48.9816503454051
1.82942142374191,-100.404036707393,0.205849487272454,100.609886194665,50.0990936100602,-100.506961451029,50.4078678409689
1.83135323094755,-115.108661972955,0.178667842506227,115.287329815461,57.4649970652243,-115.197995894208,57.7329988289836
1.83328503815319,-126.516449985619,0.15829714941853,126.674747135038,63.1790764181004,-126.595598560329,63.4165221422282
1.83521684535883,-126.966823593121,0.153018886853904,127.119842479975,63.4069023531338,-127.043333036548,63.6364306834146
1.83714865256447,-116.212091569965,0.164547559934269,116.3766391299,58.0237720050155,-116.294365349932,58.2705933449169
1.83908045977011,-109.313341498365,0.187731812804653,109.501073311169,54.56280484278,-109.407207404767,54.844402561987
1.84101226697576,-101.933003274313,-3.6675464158329,98.2654568584797,52.8002748450728,-100.099230066396,47.2989552213234
1.8429440741814,-105.50808707571,0.235471704403835,105.743558780114,52.6363076856531,-105.625822927912,52.9895152422589
1.84487588138704,-104.659071168451,0.236651220686359,104.895722389138,52.2112099738825,-104.777396778794,52.566186804912
1.84680768859268,-107.594176749299,0.214088839785514,107.808265589084,53.6900439547567,-107.701221169192,54.011177214435
1.84873949579832,-114.818299578619,0.178158596724674,114.996458175344,57.3200704909474,-114.907378876982,57.5873083860344
1.85067130300396,-107.220824175488,0.147174110172715,107.36799828566,53.5368250326575,-107.294411230574,53.7575861979166
1.8526031102096,-111.912091137493,0.138040559236689,112.050131696729,55.887025289128,-111.981111417111,56.094086127983
1.85453491741524,-112.942291381417,0.157139302372422,113.09943068379,56.3925760395225,-113.020861032604,56.6282849930811
1.85646672462088,-109.757036718349,0.196310016191963,109.953346734541,54.7803633510786,-109.855191726445,55.0748283753666
1.85839853182652,-101.974764738894,0.236308789822938,102.211073528717,50.8692279745353,-102.092919133805,51.2236911592697
1.86033033903216,-101.238658568133,0.256284354669059,101.494942922802,50.4911871067319,-101.366800745467,50.8756136387355
1.86226214623781,-96.2806003852256,0.244593446979941,96.5251938322055,48.0180034691228,-96.4028971087155,48.3848936395927
1.86419395344345,-87.6735515925949,0.205372590297703,87.8789241828926,43.7340895011486,-87.7762378877438,44.0421483865952
1.86612576064909,-91.4061556641634,0.157247920795954,91.5634035849593,45.6244538716837,-91.4847796245613,45.8603257528776
1.86805756785473,-99.7960815428195,0.124481159401945,99.9205627022215,49.8358001917088,-99.8583221225205,50.0225219308117
1.86998937506037,-100.859663634397,0.12476769751185,100.984431331909,50.3674479684424,-100.922047483153,50.5545995147102
1.87192118226601,-109.557497787311,0.159807928976556,109.717305716288,54.6988449291673,-109.637401751799,54.9385568226321
1.87385298947165,-105.980998246035,0.213615697120557,106.194613943156,52.8836912744573,-106.087806094595,53.2041148201381
1.87578479667729,-97.7439109166471,0.259786042372208,98.0036969590193,48.7420624371374,-97.8738039378332,49.1317415006958
1.87771660388293,-96.7618953310532,0.274427704424124,97.0363230354773,48.2437338133145,-96.8991091832652,48.6553753699507
1.87964841108857,-119.080957860092,0.248439691324878,119.329397551417,59.4162590843836,-119.205177705755,59.7889186213709
1.88158021829421,-134.129807892842,0.192867184780627,134.322675077623,66.9684703540308,-134.226241485233,67.2577711312018
1.88351202549986,-134.38269798824,0.134302516557769,134.517000504798,67.1241977358413,-134.449849246519,67.325651510678
1.8854438327055,-123.61126521855,0.10219737666505,123.713462595215,61.7545339209423,-123.662363906882,61.9078299859399
1.88737563991114,-128.563168238487,0.114120643435528,128.677288881923,64.2245237975258,-128.620228560205,64.3957047626791
1.88930744711678,-133.150520546577,-3.71415980412962,129.436360742448,68.4323401753536,-131.293440644513,62.8611004691591
