t,leadI,leadII,leadIII,aVR,aVL,aVF
0,661.221247496034,2271.97581953401,1610.75457203797,-1466.59853351502,-474.76666227097,1941.36519578599
0.00214132762312634,878.087903368149,2228.60248835958,1350.51458499144,-1553.34519586387,-236.213340811643,1789.55853667551
0.00428265524625268,980.220462417349,2170.39150430268,1190.17104188533,-1575.30598336001,-104.975289733989,1680.281273094
0.00642398286937901,1053.47962568407,2115.87806713262,1062.39844144855,-1584.67884640835,-4.45940788224175,1589.13825429059
0.00856531049250535,1104.04016214763,2066.05471343631,962.014551288677,-1585.04743779197,71.0128054294769,1514.03463236249
0.0107066381156317,1136.72390252741,2009.17184912828,872.447946600876,-1572.94787582785,132.137977963266,1440.80989786458
0.012847965738758,1148.55587905316,1949.43424634616,800.878367292996,-1548.99506269966,173.838755880083,1375.15630681958
0.0149892933618844,1139.95854116442,1888.412039552,748.453498387587,-1514.18529035821,195.752521388416,1318.4327689698
0.0171306209850107,1114.14096154374,1821.09335659462,706.952395050883,-1467.61715906918,203.594283246429,1264.02287582275
0.019271948608137,1074.96210563738,1746.81308712301,671.850981485628,-1410.88759638019,201.555562075875,1209.33203430432
0.0214132762312634,1029.90384679874,1672.09395182475,642.190105026012,-1350.99889931174,193.856870886362,1157.14202842538
0.0235546038543897,983.265042694952,1597.90605152689,614.641008831942,-1290.58554711092,184.312016931505,1106.27353017942
0.0256959314775161,933.727164137331,1521.05058734188,587.323423204545,-1227.3888757396,173.201870466393,1054.18700527321
0.0278372591006424,886.271987401137,1442.33678018257,556.064792781434,-1164.30438379185,165.103597309852,999.200786482003
0.0299785867237687,842.414768186381,1369.78578910234,527.371020915962,-1106.10027864436,157.52187363521,948.578405009152
0.0321199143468951,801.504676528694,1299.65259277872,498.147916250023,-1050.57863465371,151.678380139336,898.90025451437
0.0342612419700214,764.34522671637,1232.7661817351,468.420955018734,-998.555704225737,147.962135848818,850.593568376919
0.0364025695931477,732.958084317643,1171.83249710213,438.874412784486,-952.395290709886,147.041835766579,805.353454943307
0.0385438972162741,707.80037832745,1117.25275598353,409.452377656076,-912.526567155488,149.174000335687,763.352566819801
0.0406852248394004,688.639143146519,1065.50936347451,376.870220327988,-877.074253310514,155.884461409266,721.189791901248
0.0428265524625268,672.699841437876,1017.47910959723,344.779268159352,-845.089475517552,163.960286639262,681.12918887829
0.0449678800856531,660.185420299307,976.517943496312,316.332523197004,-818.35168189781,171.926448551151,646.425233346658
0.0471092077087794,646.107792301601,938.42982523919,292.322032937589,-792.268808770396,176.892879682006,615.37592908839
0.0492505353319058,632.609530757226,900.23784606612,267.628315308893,-766.423688411673,182.490607724167,583.933080687506
0.0513918629550321,618.320299226284,866.465093406691,248.144794180407,-742.392696316488,185.087752522939,557.304943793549
0.0535331905781585,603.988153076071,834.584117957515,230.595964881444,-719.286135516793,186.696094097313,532.59004141948
0.0556745182012848,587.038324951914,801.761509484225,214.723184532311,-694.399917218069,186.157570209801,508.242347008268
0.0578158458244111,569.74984611942,769.408407320948,199.658561201528,-669.579126720184,185.045642458946,484.533484261238
0.0599571734475375,553.455312855474,741.327296450805,187.871983595331,-647.391304653139,182.791664630071,464.599640023068
0.0620985010706638,538.022591548242,713.086178140878,175.063586592636,-625.55438484456,181.479502477803,444.074882366757
0.0642398286937901,522.693041637044,685.349456869296,162.656415232252,-604.02124925317,180.018313202396,424.002936050774
0.0663811563169165,508.096855493961,661.270914310308,153.174058816347,-584.683884902135,177.461398338807,407.222486563328
0.0685224839400428,495.425338275424,639.07903305963,143.653694784206,-567.252185667527,175.885821745609,391.366363921918
0.0706638115631692,483.136129378053,615.948019692992,132.811890314939,-549.542074535522,175.162119531557,374.379955003966
0.0728051391862955,474.399313754806,595.866221790112,121.466908035306,-535.132767772459,176.46620285975,358.666564912709
0.0749464668094218,467.458222639585,580.363770567733,112.905547928147,-523.910996603659,177.276337355719,346.63465924794
0.0770877944325482,459.499689384062,564.328187039465,104.828497655402,-511.913938211763,177.33559586433,334.578342347433
0.0792291220556745,450.013700959064,547.185579023148,97.1718780640834,-498.599639991106,176.42091144749,322.178728543616
0.0813704496788009,442.421955692392,533.590364144334,91.1684084519421,-488.006159918363,175.626773620225,312.379386298138
0.0835117773019272,436.474775394351,520.498662711361,84.02388731701,-478.486719052856,176.225444038671,302.261275014186
0.0856531049250535,430.023191974258,505.911873123101,75.8886811488422,-467.96753254868,177.067255412708,290.900277135971
0.0877944325481799,425.065875003492,494.535486387881,69.4696113843892,-459.800680695687,177.798131809551,282.002548886135
0.0899357601713062,422.049963677435,486.590473943199,64.540510265764,-454.320218810317,178.754726705835,275.565492104481
0.0920770877944325,417.499290862521,477.760248758081,60.26095789556,-447.629769810301,178.61916648348,269.01060332682
0.0942184154175589,414.836419978974,466.873332131642,52.0369121526684,-440.854876055308,181.399753913153,259.455122142155
0.0963597430406852,415.100701648145,460.641367469912,45.5406658217673,-437.871034559029,184.780017913189,253.09101664584
0.0985010706638116,414.042034671896,454.58656565153,40.5445309796343,-434.314300161713,186.748751846131,247.565548315582
0.100642398286938,410.546631327176,447.397457462117,36.8508261349404,-428.972044394647,186.847902596118,242.124141798529
0.102783725910064,408.799956812921,441.155696954246,32.3557401413249,-424.977826883584,188.222108335798,236.755718547786
0.104925053533191,407.92751062915,437.668625505249,29.7411148760991,-422.7980680672,189.093197876526,233.704870190674
0.107066381156317,405.88191156655,432.708883692691,26.826972126141,-419.29539762962,189.527469720204,229.767927909416
0.109207708779443,403.461811504844,426.470532561297,23.0087210564535,-414.966172033071,190.226545224195,224.739626808875
0.11134903640257,402.004678993355,424.918595219439,22.9139162260844,-413.461637106397,189.545381383635,223.916255722762
0.113490364025696,402.02767829696,421.638986024301,19.6113077273405,-411.833332160631,191.20818528481,220.625146875821
0.115631691648822,400.11546918565,416.215309235346,16.099840049696,-408.165389210498,192.007814567977,216.157574642521
0.117773019271949,398.455240663211,412.794453620861,14.3392129576504,-405.624847142036,192.05801385278,213.566833289256
0.119914346895075,398.301906285696,411.112498023921,12.8105917382251,-404.707202154808,192.745657273735,211.961544881073
0.122055674518201,398.168777475671,407.720004083123,9.55122660745224,-402.944390779397,194.308775434109,208.635615345288
0.124197002141328,396.765073520069,404.774554418477,8.0094808984083,-400.769813969273,194.37779631083,206.392017658443
0.126338329764454,397.478519105524,404.149417081532,6.67089797600789,-400.813968093528,195.403810564758,205.41015752877
0.12847965738758,398.097950755333,402.318538841356,4.22058808602316,-400.208244798345,196.938681334655,203.26956346369
0.130620985010707,396.059521030515,400.084864631635,4.02534360112031,-398.072192831075,196.017088714697,202.055104116378
0.132762312633833,394.933763349101,398.145531694576,3.21176834547566,-396.539647521839,195.860997501813,200.678650020026
0.134903640256959,395.244469816043,397.105812357741,1.86134254169889,-396.175141086892,196.691563637172,199.48357744972
0.137044967880086,394.226115096948,392.982806486783,-1.24330861016568,-393.604460791866,197.734711853557,195.869748938309
0.139186295503212,394.630071534002,390.04716655416,-4.58290497984206,-392.338619044081,199.606488256922,192.732130787159
0.141327623126338,396.912973810011,390.074605012898,-6.83836879711333,-393.493789411454,201.875671303562,191.618118107892
0.143468950749465,397.606929854513,390.09842778319,-7.50850207132254,-393.852678818852,202.557715962918,191.294962855934
0.145610278372591,399.497558191346,387.542875353003,-11.9546828383426,-393.520216772175,205.726120514844,187.79409625733
0.147751605995717,401.139049978708,389.188433437521,-11.9506165411867,-395.163741708115,206.544833259947,188.618908448167
0.149892933618844,403.208294044559,390.617148976503,-12.5911450680563,-396.912721510531,207.899719556308,189.013001954223
0.15203426124197,404.360805580691,388.637301336161,-15.7235042445303,-396.499053458426,210.042154912611,186.456898545815
0.154175588865096,404.717386531417,385.630229091556,-19.0871574398611,-395.173807811486,211.902271985639,183.271535825847
0.156316916488223,405.671038204856,387.527825115541,-18.1432130893147,-396.599431660198,211.907125647085,184.692306013113
0.158458244111349,407.787140911208,387.887248454174,-19.8998924570333,-397.837194682691,213.843516684121,183.993677998571
0.160599571734475,408.980336318689,386.911190997378,-22.0691453213116,-397.945763658034,215.52474082,182.421022838033
0.162740899357602,410.660358022495,388.639988944656,-22.0203690778391,-399.650173483575,216.340363550167,183.309809933408
0.164882226980728,412.76305474589,390.140975460341,-22.6220792855488,-401.452015103116,217.692567015719,183.759448087396
0.167023554603854,413.300551750113,390.156052299958,-23.1444994501556,-401.728302025035,218.222525600134,183.505776424901
0.169164882226981,413.767220372051,389.525083409601,-24.2421369624494,-401.646151890826,219.00467866725,182.641473223576
0.171306209850107,416.104570946344,391.553496059215,-24.5510748871293,-403.82903350278,220.327822916737,183.501210586043
0.173447537473233,418.777977377493,392.026497734575,-26.7514796429185,-405.402237556034,222.764728510206,182.637509045828
0.17558886509636,420.455038108835,392.437169865399,-28.0178682434365,-406.446103987117,224.236453176136,182.209650810981
0.177730192719486,422.555164040399,395.369961843512,-27.1852021968866,-408.962562941955,224.870183118643,184.092379823313
0.179871520342612,426.954782941996,399.204404691104,-27.7503782508922,-413.07959381655,227.352580596444,185.727013220106
0.182012847965739,430.774644399848,400.601388907445,-30.1732554924034,-415.688016653647,230.473949946126,185.214066707521
0.184154175588865,436.023322604953,404.390522219786,-31.6328003851672,-420.206922412369,233.82806149506,186.378860917309
0.186295503211991,442.512535989421,408.968462477175,-33.5440735122461,-425.740499233298,238.028304750834,187.712194482465
0.188436830835118,447.502577739979,412.299088101705,-35.2034896382742,-429.900832920842,241.353033689127,188.547799231716
0.190578158458244,451.191000402342,414.546763316559,-36.6442370857828,-432.868881859451,243.917618744063,188.951263115388
0.19271948608137,455.681501102165,418.430429285677,-37.2510718164885,-437.055965193921,246.466286459327,190.589678734594
0.194860813704497,459.580268457657,423.090445209223,-36.4898232484336,-441.33535683344,248.035045853045,193.300310980395
0.197002141327623,461.677159841464,423.916095073701,-37.7610647677627,-442.796627457583,249.719112304613,193.077515152969
0.199143468950749,465.429911438765,426.565122327587,-38.864789111178,-445.997516883176,252.147350274972,193.850166608205
0.201284796573876,469.332205175067,431.441311371221,-37.8908938038457,-450.386758273144,253.611549489456,196.775208783688
0.203426124197002,473.364335214442,433.742766232213,-39.6215689822287,-453.553550723328,256.492952098335,197.060598624992
0.205567451820128,478.153251434258,436.38500708869,-41.7682443455676,-457.269129261474,259.960747889913,197.308381371561
0.207708779443255,483.5992287376,441.255304008825,-42.3439247287755,-462.427266373212,262.971576733188,199.455689640025
0.209850107066381,487.683506287529,446.771938113932,-40.9115681735968,-467.227722200731,264.297537230563,202.930184970168
0.211991434689507,490.585521345701,448.985384741412,-41.6001366042888,-469.785453043557,266.092828974995,203.692624068562
0.214132762312634,494.393242885632,452.195273589829,-42.1979692958022,-473.294258237731,268.295606090717,204.998652147014
0.21627408993576,499.631380904042,456.270299014842,-43.3610818891993,-477.950839959442,271.49623139662,206.454608562822
0.218415417558887,501.603030118711,457.876163167482,-43.7268669512293,-479.739596643096,272.66494853497,207.074648108126
0.220556745182013,504.602984279945,459.270415424462,-45.3325688554834,-481.936699852204,274.967776567714,206.968923284489
0.222698072805139,509.139798036891,464.345294754313,-44.7945032825778,-486.742546395602,276.967150659734,209.775395735868
0.224839400428266,511.790657596562,467.463316581848,-44.3273410147147,-489.626987089205,278.058999305639,211.567987783567
0.226980728051392,516.668437494855,469.526403752159,-47.1420337426952,-493.097420623507,281.905235618775,211.192185004732
0.229122055674518,522.191568512649,475.18198262993,-47.0095858827192,-498.68677557129,284.600577197684,214.086198373606
0.231263383297645,526.98689187453,480.092300605397,-46.8945912691336,-503.539596239963,286.940741571832,216.598854668131
0.233404710920771,533.082491009429,483.711505050836,-49.370985958593,-508.396998030132,291.226738484011,217.170259546121
0.235546038543897,539.018904793616,486.209731765812,-52.8091730278037,-512.614318279714,295.91403891071,216.700279369004
0.237687366167024,543.528991817657,492.887168893132,-50.6418229245241,-518.208080355394,297.08540737109,221.122672984304
0.23982869379015,548.08882350715,496.752513328443,-51.3363101787072,-522.420668417796,299.712566842929,222.708101574868
0.241970021413276,552.691844785231,498.820386079646,-53.8714587055853,-525.756115432439,303.281651745408,222.47446368703
0.244111349036403,557.332364366807,502.547942959234,-54.7844214075732,-529.940153663021,306.05839288719,223.88176077583
0.246252676659529,560.717322958391,505.784303011139,-54.9330199472522,-533.250812984765,307.825171452822,225.425641531943
0.248394004282655,561.079994480774,506.662016474703,-54.4179780060709,-533.871005477739,307.748986243423,226.122019234316
0.250535331905782,562.682993130415,508.712187687322,-53.9708054430921,-535.697590408868,308.326899286753,227.370691122115
0.252676659528908,564.074757484531,511.780316651938,-52.2944408325931,-537.927537068235,308.184599158562,229.742937909672
0.254817987152034,563.995004855743,513.156026577607,-50.8389782781368,-538.575515716675,307.41699156694,231.158524149735
0.256959314775161,563.925761587249,512.41827609692,-51.5074854903289,-538.172018842084,307.716623538789,230.455395303295
0.259100642398287,563.221583826445,513.065860268386,-50.1557235580591,-538.143722047416,306.688653692252,231.455068355164
0.261241970021413,560.033962767077,511.695932417968,-48.3380303491098,-535.864947592523,304.185996558094,231.678951034429
0.26338329764454,555.334211817809,509.218408107852,-46.115803709957,-532.276309962831,300.725007763883,231.551302198948
0.265524625267666,552.541886027778,509.643594196537,-42.898291831241,-531.092740112157,297.72008892951,233.372651182648
0.267665952890792,550.11751748541,512.588987563176,-37.5285299222344,-531.353252524293,293.823023703822,237.530228820471
0.269807280513919,548.012618819858,510.637840372934,-37.3747784469238,-529.325229596396,292.693698633391,236.631530963005
0.271948608137045,543.608856108884,507.65568659275,-35.9531695161344,-525.632271350817,289.781012812509,235.851258538308
0.274089935760171,539.785396889816,508.28679947895,-31.4985974108656,-524.036098184383,285.641997150341,238.394101034042
0.276231263383298,535.177654003808,506.902570838131,-28.2750831656761,-521.04011242097,281.726368584742,239.313743836228
0.278372591006424,527.956799052755,501.836394267748,-26.1204047850073,-514.896596660252,277.038601918881,237.85799474137
0.28051391862955,522.331527414302,498.081869410942,-24.2496580033592,-510.206698412622,273.29059270883,236.916105703792
0.282655246252677,515.515345996096,494.822095072692,-20.6932509234043,-505.168720534394,268.10429845975,237.064422074644
0.284796573875803,507.66518630174,490.059698804537,-17.6054874972027,-498.862442553139,262.635336899471,236.227105653667
0.286937901498929,498.917300269311,484.636746800312,-14.2805534689989,-491.777023534811,256.598926869155,235.178096665656
0.289079229122056,491.96622125905,483.148696351861,-8.81752490718918,-487.557458805456,250.39187308312,237.165585722336
0.291220556745182,485.287058005636,478.636438024626,-6.65061998100958,-481.961748015131,245.968838993323,235.992909021808
0.293361884368308,475.623684018497,470.854426218106,-4.76925780039045,-473.239055118301,240.196470909443,233.042584208858
0.295503211991435,466.589637017976,464.74194387072,-1.84769314725634,-465.665790444348,234.218665082616,231.447125361732
0.297644539614561,459.390105749184,460.078989624866,0.68888387568245,-459.734547687025,229.350610936751,230.383936750274
0.299785867237687,451.851170914392,452.810198761582,0.959027847190043,-452.330684837987,225.446071533601,226.884613304386
0.301927194860814,445.30567521268,445.855189965804,0.54951475312447,-445.580432589242,222.378080229778,223.202352359464
0.30406852248394,440.910826704475,443.03696869566,2.12614199118565,-441.973897700068,219.392342356645,222.581555343423
0.306209850107066,433.874812087683,437.369822100158,3.49501001247529,-435.62231709392,215.189901037604,220.432416056317
0.308351177730193,427.121905572168,429.873224787893,2.75131921572449,-428.497565180031,212.185293178222,216.312272001809
0.310492505353319,422.546977699971,426.584782540324,4.03780484035246,-424.565880120148,209.254586429809,215.311293690338
0.312633832976445,417.930849530643,422.441555048604,4.51070551796062,-420.186202289623,206.710072006341,213.476130283282
0.314775160599572,411.346773249757,414.33588624805,2.98911299829297,-412.841329748903,204.178830125732,208.662499623171
0.316916488222698,404.98625113601,406.654278660626,1.6680275246157,-405.820264898318,201.659111805697,204.161153092621
0.319057815845824,400.107942432245,401.917087794164,1.80914536191835,-401.012515113205,199.149398535163,201.863116578041
0.321199143468951,395.872470266501,397.160078750443,1.28760848394239,-396.516274508472,197.292430891279,199.223843617193
0.323340471092077,391.551066208231,390.453686097551,-1.09738011067981,-391.002376152891,196.324223159455,194.678152993436
0.325481798715203,386.510994899692,386.563201735669,0.0522068359765626,-386.537098317681,193.229394031858,193.307704285823
0.32762312633833,381.491017323257,382.541324896669,1.05030757341217,-382.016171109963,190.220354874922,191.79581623504
0.329764453961456,376.48848563805,375.829133805499,-0.659351832550556,-376.158809721774,188.5739187353,187.584890986474
0.331905781584582,372.145159908254,369.357379142537,-2.78778076571643,-370.751269525396,187.466470336985,183.28479918841
0.334047109207709,369.662291593736,366.314672461337,-3.34761913239913,-367.988482027537,186.504955363068,181.483526664469
0.336188436830835,368.794719906897,361.096680887802,-7.69803901909467,-364.94570039735,188.246379462996,176.699320934354
0.338329764453961,367.397413030995,357.21034636924,-10.1870666617549,-362.303879700117,188.792239846375,173.511639853742
0.340471092077088,366.828294513629,356.412367466318,-10.4159270473112,-361.620330989973,188.62211078047,172.998220209503
0.342612419700214,366.334171286566,356.363600796664,-9.9705704899028,-361.348886041615,188.152370888235,173.19651515338
0.34475374732334,363.328924936339,352.456906405608,-10.8720185307311,-357.892915670974,187.100471733535,170.792443937439
0.346895074946467,362.007811301952,351.641250541576,-10.3665607603764,-356.824530921764,186.187186031164,170.6373448906
0.349036402569593,362.79296367664,349.644959321277,-13.1480043553627,-356.218961498958,187.970484016001,168.248477482957
0.351177730192719,362.830594027003,345.335492367152,-17.4951016598518,-354.083043197078,190.162847843428,163.92019535365
0.353319057815846,361.575147683475,342.237962118895,-19.3371855645792,-351.906554901185,190.456166624027,161.450388277158
0.355460385438972,363.061373063882,342.124843222583,-20.9365298412989,-352.593108143232,191.99895145259,160.594156690642
0.357601713062098,363.707692897056,341.38257152151,-22.3251213755455,-352.545132209283,193.016407136301,159.528725072982
0.359743040685225,362.336667315852,338.161876330616,-24.1747909852354,-350.249271823234,193.255729150544,156.99354267269
0.361884368308351,362.434425876768,337.297763499324,-25.1366623774443,-349.866094688046,193.785544127106,156.08055056094
0.364025695931477,361.875243368019,337.191577664579,-24.6836657034397,-349.533410516299,193.279454535729,156.25395598057
0.366167023554604,361.389746837315,333.235030488411,-28.1547163489041,-347.312388662863,194.77223159311,152.540157069753
0.36830835117773,360.324167366812,330.443914201847,-29.8802531649644,-345.384040784329,195.102210265888,150.281830518441
0.370449678800857,357.46682710329,329.308713755733,-28.1581133475572,-343.387770429511,192.812470225424,150.575300204088
0.372591006423983,355.630070322371,327.679044758141,-27.9510255642298,-341.654557540256,191.7905479433,149.864009596956
0.374732334047109,354.035351190549,326.264124527006,-27.7712266635429,-340.149737858778,190.903288927046,149.246448931732
0.376873661670236,353.938893299652,325.679713644938,-28.2591796547142,-339.809303472295,191.099036477183,148.710266995112
0.379014989293362,353.855146096088,325.172313196408,-28.6828328996805,-339.513729646248,191.268989497884,148.244740148364
0.381156316916488,353.138375648555,321.511480236287,-31.6268954122675,-337.324927942421,192.382635530411,144.94229241201
0.383297644539615,351.871998258756,319.62116956927,-32.2508286894862,-335.746583914013,192.061413474121,143.685170439892
0.385438972162741,352.060615051246,318.624012573474,-33.4366024777721,-335.34231381236,192.748608764509,142.593705047851
0.387580299785867,352.224376966101,317.114196423865,-35.1101805422359,-334.669286694983,193.667278754168,141.002007940815
0.389721627408994,351.722500254387,315.159276508106,-36.5632237462805,-333.440888381247,194.142862000334,139.298026380913
0.39186295503212,351.930817066987,315.394142087464,-36.5366749795236,-333.662479577225,194.233746023255,139.42873355397
0.394004282655246,354.043860003962,315.598058379865,-38.4458016240978,-334.820959191913,196.24483081403,138.576128377883
0.396145610278373,354.590339855929,315.775103711157,-38.8152361447719,-335.182721783543,196.70278800035,138.479933783193
0.398286937901499,355.0648076157,313.996642026273,-41.0681655894269,-334.530724820986,198.066486602563,136.464238218423
0.400428265524625,356.764870612933,314.384713146868,-42.3801574660652,-335.574791879901,199.572514039499,136.002277840401
0.402569593147752,358.240908711801,313.433528427232,-44.807380284569,-335.837218569516,201.524144498185,134.313074071331
0.404710920770878,358.878383687048,311.963626581513,-46.9147571055353,-335.42100513428,202.896570396292,132.524434737989
0.406852248394004,361.364032697761,313.907715206841,-47.4563174909204,-337.635873952301,204.410175094341,133.22569885796
0.408993576017131,364.166195617727,314.307504611828,-49.8586910058996,-339.236850114777,207.012443311813,132.224406802964
0.411134903640257,364.022869058532,312.078376031419,-51.9444930271132,-338.050622544976,207.983681042823,130.066941502153
0.413276231263383,365.186547255001,313.363284621711,-51.8232626332906,-339.274915938356,208.504904944146,130.77001099421
0.41541755888651,366.840941362523,314.478875065076,-52.3620662974465,-340.659908213799,209.601503829985,131.058404383815
0.417558886509636,365.701092616434,312.227164234225,-53.473928382209,-338.964128425329,209.587510499321,129.376617926008
0.419700214132762,364.067387846127,308.339994440277,-55.7273934058499,-336.203691143202,209.897390625989,126.306300517214
0.421841541755889,364.581140615778,310.117526278867,-54.4636143369113,-337.349333447323,209.522377476345,127.826955970978
0.423982869379015,365.671252874352,312.304883790905,-53.366369083447,-338.988068332629,209.5188109789,129.469257353729
0.426124197002141,365.32959819467,310.983708492588,-54.3458897020823,-338.156653343629,209.837743948376,128.318909395253
0.428265524625268,366.965141840607,313.05692530354,-53.9082165370674,-340.011033572074,210.436679188837,129.574354383236
0.430406852248394,370.961398540348,317.433181019473,-53.5282175208749,-344.197289779911,212.244808030611,131.952481749299
0.43254817987152,373.142932661879,318.012463027003,-55.1304696348756,-345.577697844441,214.136701148377,131.440996696064
0.434689507494647,375.681055270634,319.803528430176,-55.8775268404586,-347.742291850405,215.779291055546,131.963000794858
0.436830835117773,378.528777108135,322.646695115744,-55.8820819923903,-350.587736111939,217.205429550262,133.382306561677
0.438972162740899,381.001241913244,324.471146034416,-56.5300958788276,-352.73619397383,218.765668896036,133.970525077794
0.441113490364026,380.571663033137,324.767062927988,-55.8046001051495,-352.669362980563,218.188131569143,134.481231411419
0.443254817987152,382.774927630686,326.956162491799,-55.818765138887,-354.865545061242,219.296846384786,135.568698676456
0.445396145610278,385.975976180757,330.78897158516,-55.1870045955969,-358.382473882958,220.581490388177,137.800983494781
0.447537473233405,388.111149271347,332.828596321816,-55.2825529495313,-360.469872796582,221.696851110439,138.773021686142
0.449678800856531,389.320902074924,333.955391605042,-55.3655104698825,-361.638146839983,222.343206272403,139.29494056758
0.451820128479657,391.015299332677,336.865881000083,-54.1494183325943,-363.94059016638,222.582358832636,141.358231333744
0.453961456102784,392.486418291874,338.104724226717,-54.3816940651572,-365.295571259296,223.434056178516,141.86151508078
0.45610278372591,392.475563357237,337.248142583556,-55.2274207736809,-364.861852970396,223.851492065459,141.010360904937
0.458244111349036,394.39831578754,339.724731467553,-54.6735843199863,-367.061523627547,224.535950053763,142.525573573784
0.460385438972163,396.067698537729,343.807146128652,-52.2605524090778,-369.937422333191,224.164125473404,145.773296859787
0.462526766595289,398.161158250041,345.419425804718,-52.7417324453231,-371.79029202738,225.451445347682,146.338846679698
0.464668094218415,401.266871395298,349.39548413186,-51.8713872634377,-375.331177763579,226.569129329368,148.762048434211
0.466809421841542,404.607389827864,354.135717459538,-50.4716723683256,-379.371553643701,227.539531098095,151.832022545606
0.468950749464668,407.507713218503,356.319132096837,-51.1885811216656,-381.91342265767,229.348147170084,152.565275487586
0.471092077087794,409.381789047797,356.282651468469,-53.0991375793283,-382.832220258133,231.240463313563,151.59175694457
0.473233404710921,411.008909530218,360.115331978914,-50.8935775513043,-385.562120754566,230.951243540761,154.610877213805
0.475374732334047,413.065676062646,364.087022038294,-48.9786540243523,-388.57634905047,231.022165043499,157.554184006971
0.477516059957173,412.919236316149,362.382872852058,-50.5363634640911,-387.651054584104,231.72779989012,155.923254693983
0.4796573875803,414.080211563919,363.479522968499,-50.6006885954198,-388.779867266209,232.340450079669,156.43941718654
0.481798715203426,415.73225890237,367.007898547327,-48.7243603550432,-391.370078724849,232.228309628707,159.141769096142
0.483940042826552,417.810667567617,369.42726532134,-48.3834022462765,-393.618966444478,233.097034906947,160.521931537532
0.486081370449679,420.259254022308,369.59564436221,-50.6636096600977,-394.927449192259,235.461431841203,159.466017351056
0.488222698072805,423.029238284884,373.606189267805,-49.4230490170792,-398.317713776344,236.226143650981,162.091570125363
0.490364025695931,425.434209342709,375.156069787221,-50.2781395554879,-400.295139564965,237.856174449098,162.438965115866
0.492505353319058,426.878207629708,375.857656637275,-51.0205509924326,-401.367932133491,238.94937931107,162.418552822421
0.494646680942184,426.843805835044,376.466792252855,-50.3770135821889,-401.655299043949,238.610409708616,163.044889335333
0.49678800856531,428.10205529306,380.21595428243,-47.8861010106303,-404.159004787745,237.994078151845,166.1649266359
0.498929336188437,427.906381622681,380.250777541002,-47.6556040816799,-404.078579581841,237.780992852181,166.297586729661
0.501070663811563,429.668669707967,380.925070970405,-48.7435987375622,-405.296870339186,239.206134222765,166.090736116421
0.50321199143469,433.77496916589,384.086745690268,-49.688223475622,-408.930857428079,241.731596320756,167.199261107323
0.505353319057816,436.052045219599,387.475851390673,-48.5761938289256,-411.763948305136,242.314119524262,169.449828780874
0.507494646680942,437.38500179871,388.486182526048,-48.8988192726617,-412.935592162379,243.141910535686,169.793681626693
0.509635974304068,441.118544681618,391.295554774454,-49.8229899071638,-416.207049728036,245.470767294391,170.736282433645
0.511777301927195,443.071983959972,393.7347234872,-49.3372604727721,-418.403353723586,246.204622216372,172.198731507214
0.513918629550321,444.768009815113,393.920295076846,-50.8477147382665,-419.344152445979,247.80786227669,171.53629016929
0.516059957173448,446.240542764142,394.081413068844,-52.1591296952976,-420.160977916493,249.19983622972,170.961141686773
0.518201284796574,448.807151440503,397.441594759192,-51.365556681311,-423.124373099848,250.086354060907,173.038019038941
0.5203426124197,451.035546621952,401.003049279497,-50.0324973424551,-426.019297950724,250.534021982204,175.485275968521
0.522483940042827,452.970296212116,402.807077047814,-50.1632191643025,-427.888686629965,251.566757688209,176.321928941756
0.524625267665953,456.582272164495,406.949615964209,-49.6326562002853,-431.765944064352,253.10746418239,178.658479881962
0.526766595289079,461.650458866169,411.190333002696,-50.4601258634731,-436.420395934433,256.055292364821,180.365103569612
0.528907922912206,464.762669983051,412.940054844463,-51.8226151385879,-438.851362413757,258.29264256082,180.558719852938
0.531049250535332,467.464771133252,415.103267007237,-52.3615041260143,-441.284019070245,259.913137629633,181.370881440612
0.533190578158458,470.454863327005,418.26954101085,-52.1853223161554,-444.362202168928,261.32009282158,183.042109347347
0.535331905781585,473.050937710302,421.018580939601,-52.0323567707008,-447.034759324951,262.541647240501,184.49311208445
0.537473233404711,474.016797796343,422.117249617601,-51.8995481787413,-448.067023706972,262.958172987542,185.10885071943
0.539614561027837,476.787559144317,426.291436750343,-50.4961223939745,-451.53949794733,263.641840769146,187.897657178184
0.541755888650964,480.481322861988,430.559631578279,-49.9216912837097,-455.520477220133,265.201507072849,190.318970147284
0.54389721627409,482.400224853473,432.333210338387,-50.0670145150866,-457.36671759593,266.23361968428,191.13309791165
0.546038543897216,485.99844151607,435.161194673992,-50.8372468420779,-460.579818095031,268.417844179074,192.161973915957
0.548179871520343,489.766564076602,439.548699837728,-50.2178642388738,-464.657631957165,269.992214157738,194.665417799427
0.550321199143469,493.038144288393,444.002102826441,-49.0360414619516,-468.520123557417,271.037092875172,197.483030682245
0.552462526766595,496.522672742911,445.936484040325,-50.5861887025857,-471.229578391618,273.554430722748,197.67514766887
0.554603854389722,501.480206273054,451.480317120706,-49.999889152348,-476.48026169688,275.740047712701,200.740213984179
0.556745182012848,505.784463455766,456.937673529105,-48.8467899266617,-481.361068492435,277.315626691214,204.045441801221
0.558886509635974,510.809647409164,461.675889695802,-49.1337577133627,-486.242768552483,279.971702561264,206.27106599122
0.561027837259101,517.104817378239,466.433788931363,-50.6710284468751,-491.769303154801,283.887922912557,207.881380242244
0.563169164882227,523.858562643173,472.496895484309,-51.3616671588647,-498.177729063741,287.610114901019,210.567614162722
0.565310492505353,527.7901597518,475.184803443111,-52.6053563086892,-501.487481597456,290.197758030245,211.289723567211
0.56745182012848,531.203672739951,476.230395784029,-54.973276955922,-503.71703426199,293.088474847936,210.628559414053
0.569593147751606,534.167371867389,479.71444169858,-54.4529301688082,-506.940906782984,294.310151018098,212.630755764886
0.571734475374732,536.740531116662,482.73937931351,-54.0011518031516,-509.739955215086,295.370841459907,214.369113755179
0.573875802997859,538.974613672756,484.721648393886,-54.2529652788708,-511.848131033321,296.613789475814,215.234341557507
0.576017130620985,544.778655110183,490.30705894259,-54.4715961675934,-517.542857026387,299.625125638888,217.917731387498
0.578158458244111,551.105990044835,495.80051397051,-55.3054760743257,-523.453252007673,303.205733059581,220.247518948092
0.580299785867238,555.31142580517,498.637894918622,-56.6735308865473,-526.974660361896,305.992478345858,220.982182016037
0.582441113490364,557.674574527702,500.457322512318,-57.2172520153845,-529.06594852001,307.445913271543,221.620035248467
0.58458244111349,562.302556531583,504.613231950283,-57.6893245813006,-533.457894240933,309.995940556442,223.461953684491
0.586723768736617,566.320688665345,508.865557616962,-57.4551310483824,-537.593123141153,311.887909856863,225.70521328429
0.588865096359743,569.165274584429,511.26941735334,-57.8958572310895,-540.217345968885,313.530565907759,226.686780061125
0.591006423982869,573.567193666801,515.932745698843,-57.6344479679581,-544.749969682822,315.60082081738,229.149148865442
0.593147751605996,577.389052200447,519.337507441604,-58.0515447588434,-548.363279821025,317.720298479645,230.64298134138
0.595289079229122,578.775110394346,520.361431552669,-58.4136788416769,-549.568270973508,318.594394618012,230.973876355496
0.597430406852248,579.978521506035,520.606369620689,-59.3721518853467,-550.292445563362,319.675336695691,230.617108867671
0.599571734475375,581.023353757749,524.039326041067,-56.9840277166819,-552.531339899408,319.003690737215,233.527649162193
0.601713062098501,581.286444807289,524.443670503853,-56.8427743034363,-552.865057655571,319.064609555363,233.800448100208
0.603854389721627,581.514867173533,525.438791677079,-56.076075496454,-553.476829425306,318.795471334994,234.681358090313
0.605995717344754,583.645366265501,527.590899260788,-56.0544670047135,-555.618132763144,319.849916635107,235.768216128037
0.60813704496788,584.851060984141,530.103472998111,-54.7475879860302,-557.477266991126,319.799324485086,237.67794250604
0.610278372591006,582.677580985554,530.352776704214,-52.3248042813404,-556.515178844884,317.501192633447,239.013986211437
0.612419700214133,581.434569146433,530.569228546878,-50.865340599555,-556.001898846656,316.149954872994,239.851943973662
0.614561027837259,581.643472506572,533.333393511884,-48.3100789946884,-557.488433009228,314.97677575063,242.511657258598
0.616702355460385,581.824847737401,533.157076158058,-48.6677715793427,-557.490961947729,315.246309658372,242.244652289358
0.618843683083512,580.050145381841,530.427756980945,-49.6223884008965,-555.238951181393,314.836266891369,240.402684290024
0.620985010706638,578.509303486441,529.990269350242,-48.5190341361996,-554.249786418342,313.514168811321,240.735617607021
0.623126338329764,575.883387238831,528.966372432444,-46.9170148063861,-552.424879835638,311.400201022608,241.024678813029
0.625267665952891,572.959440722598,526.145222025388,-46.8142186972093,-549.552331373993,309.886829709904,239.66550166409
0.627408993576017,571.064854692536,523.695827214592,-47.3690274779443,-547.380340953564,309.21694108524,238.163399868324
0.629550321199143,570.708044704622,526.07761301446,-44.6304316901615,-548.392828859541,307.669238197392,240.723590662149
0.63169164882227,567.822017214396,524.281186332396,-43.5408308820007,-546.051601773396,305.681424048199,240.370177725197
0.633832976445396,565.960353450834,522.077423834844,-43.882929615989,-544.018888642839,304.921641533411,239.097247109428
0.635974304068523,565.632127415238,521.452178944205,-44.1799484710331,-543.542153179722,304.906037943136,238.636115236586
0.638115631691649,564.703094203894,520.909325366892,-43.7937688370023,-542.806209785393,304.248431520448,238.557778264945
0.640256959314775,563.896483850461,517.861770082432,-46.0347137680287,-540.879126966447,304.965598809245,235.913528157202
0.642398286937901,563.840223135102,518.436099712841,-45.4041234222607,-541.138161423971,304.622173278681,236.51598814529
0.644539614561028,564.435435132854,520.866924322989,-43.5685108098656,-542.651179727921,304.00197297136,238.649206756561
0.646680942184154,563.664095411324,521.045251349723,-42.6188440616004,-542.354673380523,303.141469736462,239.213203644061
0.648822269807281,562.994398571852,519.267902465545,-43.7264961063076,-541.131150518699,303.36044733908,237.770703179619
0.650963597430407,563.057009664883,519.656939748124,-43.400069916759,-541.356974706503,303.228539790821,238.128434915682
0.653104925053533,560.535134265463,521.282829823916,-39.2523044415472,-540.908982044689,299.893719353505,241.015262691184
0.655246252676659,558.34557765715,518.830115175274,-39.5154624818762,-538.587846416212,298.930520069513,239.657326346699
0.657387580299786,557.732666682241,517.988723671007,-39.7439430112337,-537.860695176624,298.738304846737,239.122390329887
0.659528907922912,558.488639699927,519.834442034184,-38.6541976657436,-539.161540867055,298.571418682835,240.59012218422
0.661670235546039,559.144994774791,520.79288285329,-38.3521119215008,-539.96893881404,298.748553348146,241.220385465895
0.663811563169165,561.002976982791,520.980966655362,-40.0220103274286,-540.991971819077,300.51249365511,240.479478163967
0.665952890792291,564.54830153401,523.720501763255,-40.8277997707544,-544.134401648633,302.688050652382,241.446350996251
0.668094218415418,567.626442825812,524.166859125886,-43.4595836999259,-545.896650975849,305.543013262869,240.35363771298
0.670235546038544,567.078668747877,523.266280009704,-43.8123887381726,-545.17247437879,305.445528743025,239.726945635766
0.67237687366167,567.247136295308,524.416551189852,-42.8305851054555,-545.83184374258,305.038860700382,240.792983042199
0.674518201284797,566.749345133937,523.483069034581,-43.2662760993566,-545.116207084259,305.007810616647,240.108396467612
0.676659528907923,564.384973176728,521.384478019979,-43.0004951567493,-542.884725598354,303.692734166739,239.191991431615
0.678800856531049,563.62028305266,518.918368734298,-44.7019143183627,-541.269325893479,304.161098685511,237.108227207967
0.680942184154176,564.244477537941,520.641583613098,-43.6028939248432,-542.44303057552,303.923685731392,238.519344844127
0.683083511777302,564.786419126504,520.205545804943,-44.5808733215612,-542.495982465724,304.683646224033,237.812336241691
0.685224839400428,563.324769688426,517.894789685635,-45.4299800027914,-540.60977968703,304.377374845609,236.232404841422
0.687366167023555,562.699787315836,518.464768175372,-44.2350191404638,-540.582277745604,303.46740322815,237.114874517454
0.689507494646681,562.157161663395,518.959638052404,-43.1975236109913,-540.558399857899,302.677342637193,237.881057220706
0.691648822269807,562.974158192518,517.457119752576,-45.5170384399424,-540.215638972547,304.24559831623,235.970040656317
0.693790149892934,569.480026323099,519.372889939709,-50.10713638339,-544.426458131404,309.793581353245,234.63287677816
0.69593147751606,580.925118021855,528.764918374893,-52.1601996469619,-554.845018198374,316.542658834408,238.302359363965
0.698072805139186,597.302628714097,540.13961218835,-57.1630165257473,-568.721120451224,327.232822619922,241.488297831301
0.700214132762313,616.674473532659,553.879765690307,-62.7947078423523,-585.277119611483,339.734590687506,245.542528923977
0.702355460385439,639.290134675904,575.470202571958,-63.8199321039467,-607.380168623931,351.555033389925,255.825135234005
0.704496788008565,664.722159970802,596.791807051563,-67.9303529192391,-630.756983511183,366.326256445021,264.430727066162
0.706638115631692,691.311306552893,617.880004376096,-73.4313021767978,-654.595655464495,382.371304364846,272.224351099649
0.708779443254818,716.972918417541,640.05366962389,-76.919248793651,-678.513294020715,396.946083605596,281.567210415119
0.710920770877944,741.185161972186,662.52570684874,-78.6594551234459,-701.855434410463,409.922308547816,291.933125862647
0.713062098501071,758.986555058105,678.172149382322,-80.8144056757828,-718.579352220213,419.900480366944,298.67887185327
0.715203426124197,769.933766115827,689.824613300931,-80.1091528148958,-729.879189708379,425.021459465361,304.857730243018
0.717344753747323,776.218119315554,699.297520989367,-76.9205983261868,-737.75782015246,426.56935882087,311.18846133159
0.71948608137045,775.877824325629,701.725610414202,-74.1522139114278,-738.801717369916,425.015019118529,313.786698251387
0.721627408993576,769.141781654918,698.037208759826,-71.1045728950918,-733.589495207372,420.123177275005,313.466317932367
0.723768736616702,760.073082492712,692.258608325204,-67.8144741675072,-726.165845408958,413.943778330109,312.222067078849
0.725910064239829,749.623170396273,684.665243944265,-64.9579264520087,-717.144207170269,407.290548424141,309.853658746128
0.728051391862955,736.041877004599,673.564078210313,-62.4777987942864,-704.802977607456,399.259837899443,305.543139708013
0.730192719486081,723.60619234783,661.349526744949,-62.2566656028805,-692.477859546389,392.931428975355,299.546430571034
0.732334047109208,712.165154443484,654.608895233801,-57.5562592096825,-683.387024838643,384.860706826583,298.52631801206
0.734475374732334,702.875812218594,648.756506859328,-54.1193053592654,-675.816159538961,378.497558788929,297.318600750031
0.73661670235546,697.3868040797,643.031254866808,-54.3555492128922,-670.209029473254,375.871176646296,294.337852826958
0.738758029978587,694.553284034175,640.636680863204,-53.9166031709715,-667.59498244869,374.234943602573,293.360038846116
0.740899357601713,692.73720857468,640.489827538592,-52.2473810360882,-666.613518056636,372.492294805384,294.121223251252
0.743040685224839,691.804504481369,637.786089783894,-54.0184146974755,-664.795297132632,372.911459589422,291.883837543209
0.745182012847966,691.638765961722,635.438635635562,-56.2001303261601,-663.538700798642,373.919448143941,289.619252654701
0.747323340471092,692.138926534691,637.264869934019,-54.8740566006713,-664.701898234355,373.506491567681,291.195406666674
0.749464668094218,693.217237701079,636.918276216221,-56.2989614848584,-665.06775695865,374.758099592969,290.309657365681
0.751605995717345,690.933160050172,635.329236727008,-55.6039233231641,-663.13119838859,373.268541686668,289.862656701922
0.753747323340471,688.950065518382,634.593651059599,-54.3564144587825,-661.771858288991,371.653239988582,290.118618300408
0.755888650963597,687.872351202306,633.954996802761,-53.9173543995444,-660.913674002534,370.894852800925,290.018821201609
0.758029978586724,686.936652117735,631.468323909663,-55.4683282080728,-659.202488013699,371.202490162904,287.999997850795
0.76017130620985,684.836136308516,628.665272028869,-56.1708642796473,-656.750704168693,370.503500294082,286.247203874611
0.762312633832976,683.656473841468,629.451885756809,-54.2045880846597,-656.554179799138,368.930530963064,287.623648836074
0.764453961456103,681.988201782133,628.202666916913,-53.7855348652195,-655.095434349523,367.886868323676,287.208566025847
0.766595289079229,681.827883361672,627.762122213276,-54.0657611483962,-654.795002787474,367.946822255034,286.84818053244
0.768736616702355,682.332749803137,629.955866002864,-52.3768838002724,-656.144307903,367.354816801704,288.789491101296
0.770877944325482,682.771087737468,631.860530369923,-50.9105573675449,-657.315809053696,366.840822552507,290.474986501189
0.773019271948608,682.507604936122,630.937972652868,-51.569632283254,-656.722788794495,367.038618609688,289.684170184807
0.775160599571734,682.92290142819,632.069161450599,-50.8537399775912,-657.496031439394,366.888320702891,290.607710736504
0.777301927194861,685.215649407321,633.695347432641,-51.5203019746793,-659.455498419981,368.367975691,291.087522728981
0.779443254817987,685.274094777743,631.886948684593,-53.3871460931502,-658.580521731168,369.330620435447,289.249901295721
0.781584582441114,685.324838540525,629.672791733693,-55.6520468068321,-657.498815137109,370.488442673679,287.01037246343
0.78372591006424,684.72483658369,630.326640087736,-54.398196495954,-657.525738335713,369.561516539822,287.964221795891
0.785867237687366,684.203899565989,631.53838690949,-52.6655126564996,-657.871143237739,368.434706111244,289.436437126495
0.788008565310492,683.107549759836,630.658279475807,-52.4492702840291,-656.882914617821,367.778410021932,289.104504595889
0.790149892933619,683.443788841457,631.182265706136,-52.2615231353204,-657.313027273797,367.852655988389,289.460371285408
0.792291220556745,685.023838171175,632.281262916544,-52.7425752546308,-658.652550543859,368.883206712903,289.769343830957
0.794432548179872,683.175382403653,629.371086429962,-53.8042959736913,-656.273234416807,368.489839188672,287.783395228135
0.796573875802998,678.994269964047,626.844396903977,-52.1498730600706,-652.919333434012,365.572071512059,287.347261921953
0.798715203426124,676.008180382344,626.582837509765,-49.4253428725792,-651.295508946054,362.716761627461,288.578747318593
0.800856531049251,675.991817117947,626.999803953012,-48.992013164935,-651.49581053548,362.491915141441,289.003895394039
0.802997858672377,677.265728088488,626.717765877468,-50.54796221102,-651.991746982978,363.906845149754,288.084901833224
0.805139186295503,680.303947079297,629.693188155663,-50.6107589236336,-654.99856761748,365.457353001465,289.541214616015
0.80728051391863,684.229924350995,632.920584730963,-51.3093396200325,-658.575254540979,367.769631985514,290.805622555465
0.809421841541756,687.638558053243,633.790515875291,-53.8480421779527,-660.714536964267,370.743300115598,289.971236848669
0.811563169164882,689.309902885623,635.189871292424,-54.1200315931987,-662.249887089024,371.714967239411,290.534919849613
0.813704496788009,690.761007140555,639.625122328978,-51.1358848115771,-665.193064734766,370.948445976066,294.2446187587
0.815845824411135,692.66495189037,640.255625580093,-52.4093263102772,-666.460288735231,372.537139100323,293.923149634908
0.817987152034261,693.029887357713,639.514926625759,-53.5149607319539,-666.272406991736,373.272424044834,292.999982946903
0.820128479657388,693.990792634938,642.092127818823,-51.8986648161148,-668.04146022688,372.944728725526,295.096731501354
0.822269807280514,695.469134116932,644.329719693712,-51.1394144232204,-669.899426905322,373.304274270076,296.595152635246
0.82441113490364,696.75266793545,644.340277126229,-52.4123908092211,-670.54647253084,374.582529372336,295.963943158504
0.826552462526767,696.578946792399,643.705384371453,-52.8735624209459,-670.142165581926,374.726254606672,295.415910975254
0.828693790149893,697.072176647922,645.730390221101,-51.3417864268209,-671.401283434511,374.206981537371,297.19430189714
0.830835117773019,696.21229342678,645.556375038925,-50.655918387855,-670.884334232853,373.434105907318,297.450228325535
0.832976445396146,696.109779847555,644.117172640478,-51.9926072070768,-670.113476244017,374.051193527316,296.062282716701
0.835117773019272,696.020774940776,646.731974296954,-49.2888006438221,-671.376374618865,372.654787792299,298.721586826566
0.837259100642398,698.519734557234,649.002211854163,-49.5175227030709,-673.760973205698,374.018628630152,299.742344575546
0.839400428265525,700.689395097711,649.041113101554,-51.6482819961568,-674.865254099633,376.168838546934,298.696415552699
0.841541755888651,701.929090785786,651.00706511943,-50.9220256663559,-676.468077952608,376.425558226071,300.042519726537
0.843683083511777,706.869780156496,655.290190803415,-51.5795893530811,-681.079985479955,379.224684754789,301.855300725167
0.845824411134904,710.515353822705,657.076732913947,-53.4386209087573,-683.796043368326,381.976987365731,301.819056002595
0.84796573875803,713.036474968391,658.627854386898,-54.4086205814934,-685.832164677644,383.722547774942,302.109616902702
0.850107066381156,715.869435701587,661.90675461342,-53.9626810881674,-688.888095157503,384.916058394877,303.972036762626
0.852248394004283,717.685025551839,663.465461529921,-54.2195640219174,-690.57524354088,385.952294786878,304.622948754002
0.854389721627409,717.973249039574,664.174711683274,-53.7985373563005,-691.073980361424,385.885893197937,305.188087163487
0.856531049250535,718.867551017553,666.078618748894,-52.788932268659,-692.473084883223,385.828241643106,306.644843240117
0.858672376873662,722.864301763605,670.951934408479,-51.9123673551265,-696.908118086042,387.388334559366,309.519783526676
0.860813704496788,726.978441790452,671.96277654963,-55.0156652408223,-699.470609170041,390.997053515637,308.473555654404
0.862955032119914,729.906384213512,673.484474491834,-56.4219097216776,-701.695429352673,393.164146967595,308.531282385078
0.865096359743041,733.092557566363,678.025946432207,-55.0666111341565,-705.559251999285,394.07958435026,311.479667649025
0.867237687366167,736.50293360541,681.968968320124,-54.5339652852861,-709.235950962767,395.518449445348,313.717501517419
0.869379014989293,738.819850166313,682.172105657184,-56.6477445091288,-710.495977911749,397.733797337721,312.762180574028
0.87152034261242,742.763633239873,684.924710628489,-57.8389226113839,-713.844171934181,400.301277925629,313.542894008553
0.873661670235546,746.187726393902,687.95865152915,-58.2290748647513,-717.073188961526,402.208400629326,314.8647883322
0.875802997858672,747.872493517015,688.660619517599,-59.2118739994165,-718.266556517307,403.542183758216,314.724372759091
0.877944325481799,749.33525134745,689.914145034495,-59.4211063129547,-719.624698190973,404.378178830202,315.24651936077
0.880085653104925,752.537432003509,692.934664853986,-59.6027671495234,-722.736048428748,406.070099576516,316.665948852231
0.882226980728051,755.317647004654,696.201216266032,-59.1164307386222,-725.759431635343,407.217038871638,318.542392763705
0.884368308351178,757.731500650908,697.749201626526,-59.9822990243825,-727.740351138717,408.856899837645,318.883451301072
0.886509635974304,759.827270015196,701.025379000144,-58.8018910150521,-730.42632450767,409.314580515124,321.111743992546
0.88865096359743,764.22310643373,705.157957815163,-59.065148618567,-734.690532124446,411.644127526148,323.046404598298
0.890792291220557,766.751565868871,705.525673315952,-61.2258925529192,-736.138619592411,413.988729210895,322.149890381516
0.892933618843683,769.590897892327,708.421169250886,-61.1697286414412,-739.006033571607,415.380313266884,323.625720304722
0.895074946466809,773.344196421144,712.223230721581,-61.1209656995634,-742.783713571362,417.232581060354,325.551132511009
0.897216274089936,776.602906030125,714.880218574445,-61.7226874556796,-745.741562302285,419.162796742902,326.578765559383
0.899357601713062,780.720318885912,717.831142251655,-62.8891766342572,-749.275730568784,421.804747760085,327.470982808699
0.901498929336188,786.227338811544,723.613504465026,-62.6138343465182,-754.920421638285,424.420586579031,330.499835059254
0.903640256959315,791.008674111873,727.345780994929,-63.6628931169439,-759.177227553401,427.335783614408,331.841443938992
0.905781584582441,794.515892505674,729.298120793272,-65.2177717124014,-761.907006649473,429.866832109038,332.040174540436
0.907922912205567,796.916890071478,730.993192051797,-65.9236980196816,-763.955041061638,431.42029404558,332.534747016058
0.910064239828694,800.933674420183,735.685191131829,-65.2484832883538,-768.309432776006,433.091078854269,335.218353921738
0.91220556745182,801.844913196177,735.89455060215,-65.9503625940273,-768.869731899164,433.897637895102,334.972094004061
0.914346895074946,803.924191940989,736.076321839483,-67.8478701015058,-770.000256890236,435.886031021247,334.114225868989
0.916488222698073,805.729474833742,740.098494191965,-65.6309806417765,-772.913984512853,435.680227737759,337.233756775094
0.918629550321199,808.584985506754,744.234705906558,-64.3502796001954,-776.409845706656,436.467632553475,339.942213153182
0.920770877944325,811.708271764944,747.181811532437,-64.5264602325075,-779.44504164869,438.117365998726,341.327675649965
0.922912205567452,815.064047622822,750.384622867236,-64.679424755586,-782.724335245029,439.871736189204,342.852599055825
0.925053533190578,821.197912835815,755.741621388691,-65.456291447124,-788.469767112253,443.327102141469,345.142664970783
0.927194860813705,825.87943223152,759.104586301222,-66.7748459302975,-792.492009266371,446.327139080909,346.164870185462
0.929336188436831,829.299987908505,761.380339311622,-67.9196485968832,-795.340163610064,448.609818252694,346.730345357369
0.931477516059957,833.557919652661,765.288383139679,-68.2695365129815,-799.42315139617,450.913728082821,348.509423313349
0.933618843683084,835.966646728633,769.325505555527,-66.6411411731061,-802.64607614208,451.30389395087,351.342182191211
0.93576017130621,835.481729124789,770.898461347902,-64.5832677768874,-803.190095236345,450.032498450838,353.157596785507
0.937901498929336,836.34882925506,773.552259700773,-62.7965695542874,-804.950544477917,449.572699404674,355.377845073243
0.940042826552463,838.389785700743,775.856355185425,-62.5334305153174,-807.123070443084,450.46160810803,356.661462335054
0.942184154175589,839.517737207745,776.568711737088,-62.9490254706565,-808.043224472417,451.233381339201,356.809843133216
0.944325481798715,839.852994516862,777.187197882569,-62.6657966342933,-808.520096199715,451.259395575578,357.260700624138
0.946466809421842,841.432191446627,782.232596255397,-59.1995951912295,-811.832393851012,450.315893318928,361.516500532084
0.948608137044968,841.515172565397,782.748786014435,-58.7663865509624,-812.131979289916,450.14077955818,361.991199731736
0.950749464668094,840.943159904091,781.264778180487,-59.6783817236037,-811.103969042289,450.310770813847,360.793198228442
0.952890792291221,841.090582894599,781.264442664997,-59.8261402296019,-811.177512779798,450.458361562101,360.719151217698
0.955032119914347,841.218579298847,782.552269336346,-58.6663099625002,-811.885424317597,449.942444630673,361.942979686923
0.957173447537473,838.10941410876,779.161980421567,-58.9474336871928,-808.635697265163,448.528423897976,360.107273367187
0.9593147751606,837.342134471664,775.574386040337,-61.7677484313266,-806.458260256001,449.554941451495,356.903318804505
0.961456102783726,836.031903713926,775.035780951846,-60.9961227620806,-805.533842332886,448.514013238004,357.019829094883
0.963597430406852,833.606209943816,773.280032288313,-60.3261776555024,-803.443121116065,446.966193799659,356.476927316406
0.965738758029979,830.856101694471,769.179410523316,-61.6766911711551,-800.017756108894,446.266396432813,353.751359676081
0.967880085653105,829.112446486024,768.839440949258,-60.2730055367658,-798.975943717641,444.692726011395,354.283217706246
0.970021413276231,827.598560516419,769.188329672457,-58.4102308439615,-798.393445094438,443.00439568019,355.389049414248
0.972162740899358,824.351989104568,765.626889846101,-58.725099258467,-794.989439475335,441.538544181518,353.450895293817
0.974304068522484,819.601055954201,759.958520912056,-59.6425350421447,-789.779788433128,439.621795498173,350.157992934956
0.97644539614561,815.476174495968,757.613334232113,-57.8628402638552,-786.544754364041,436.669507379912,349.875246984129
0.978586723768737,809.962670139011,752.356888344969,-57.6057817940421,-781.15977924199,433.784225966527,347.375553275464
0.980728051391863,800.667291979229,744.572812886156,-56.0944790930727,-772.620052432693,428.380885536151,344.239166896542
0.982869379014989,791.308689364169,740.390715784858,-50.9179735793114,-765.849702574513,421.11333147174,344.736371102773
0.985010706638116,782.539252650071,736.115653320269,-46.423599329802,-759.32745298517,414.481425989936,344.846026995234
0.987152034261242,772.349167851613,727.895522030364,-44.4536458212489,-750.122344940989,408.401406836431,341.720938104558
0.989293361884368,760.925640115446,720.758594174551,-40.1670459408955,-740.842117144998,400.546343028171,340.295774116828
0.991434689507495,750.363382691161,713.918072208481,-36.4453104826805,-732.140727449821,393.404346586921,338.7363808629
0.993576017130621,739.904843153696,704.758661454562,-35.1461816991343,-722.331752304129,387.525512426415,334.806239877714
0.995717344753747,726.960118184685,694.874050225453,-32.086067959232,-710.917084205069,379.523093071958,331.39399113311
0.997858672376874,717.009295446529,688.868214339158,-28.1410811073717,-702.938754892843,372.575188276951,330.363566615893
1,706.437560126999,681.72161732471,-24.7159428022893,-694.079588725854,365.576751464644,328.50283726121
1.00214132762313,694.682673664436,671.65240541209,-23.0302682523462,-683.167539538263,358.856470958391,324.311068579872
1.00428265524625,683.188663146673,663.554117537597,-19.634545609076,-673.371390342135,351.411604377875,321.959785964261
1.00642398286938,671.921151784664,656.522977245855,-15.3981745388095,-664.222064515259,343.659663161737,320.562401353523
1.00856531049251,660.206233785247,645.265889833175,-14.9403439520721,-652.736061809211,337.573288868659,315.162772940551
1.01070663811563,649.390983894861,635.492199134396,-13.8987847604653,-642.441591514629,331.644884327663,310.796707186965
1.01284796573876,642.577143762512,628.938608297238,-13.6385354652749,-635.757876029875,328.107839613894,307.650036415981
1.01498929336188,636.017134806776,623.248613411297,-12.768521395479,-629.632874109036,324.392828101127,305.240046007909
1.01713062098501,625.813154635802,614.444060655466,-11.3690939803365,-620.128607645634,318.591124308069,301.537483337565
1.01927194860814,616.953798531378,606.155664174715,-10.7981343566628,-611.554731353046,313.87596644402,297.678764909026
1.02141327623126,608.617820384182,600.89164369901,-7.72617668517159,-604.754732041596,308.171998534677,296.582733506919
1.02355460385439,602.02437031639,593.100991789021,-8.92337852736853,-597.562681052705,305.473874421879,292.088806630826
1.02569593147752,595.011650654295,585.048830921516,-9.96281973277837,-590.030240787906,302.487235193537,287.543005594369
1.02783725910064,591.499264349355,581.278034211077,-10.2212301382779,-586.388649280216,300.860247243816,285.5284020364
1.02997858672377,587.161602909462,575.427896285136,-11.7337066243266,-581.294749597299,299.447654766894,281.847094830405
1.0321199143469,581.463357539897,569.060539202256,-12.402818337641,-575.261948371076,296.933087938769,278.328860432308
1.03426124197002,575.871936439696,564.176296203785,-11.6956402359107,-570.024116321741,293.783788337803,276.240327983937
1.03640256959315,570.37326289751,559.291612744636,-11.0816501528741,-564.832437821073,290.727456525192,274.104981295881
1.03854389721627,564.311056165919,550.54219294289,-13.7688632230283,-557.426624554404,289.039959694474,268.386664859931
1.0406852248394,558.403634518832,543.589782274951,-14.8138522438809,-550.996708396891,286.608743381356,264.387965015535
1.04282655246253,552.630601233962,537.553521829572,-15.0770794043901,-545.092061531767,283.853840319176,261.238221212591
1.04496788008565,545.042070394574,529.736450448921,-15.3056199456528,-537.389260421747,280.173845170113,257.215415251634
1.04710920770878,539.097573162655,522.949469496929,-16.1481036657257,-531.023521329792,277.62283841419,253.400682915602
1.04925053533191,535.868585857376,519.633075303484,-16.2355105538923,-527.75083058043,276.052048205634,251.698782374796
1.05139186295503,532.421037651741,516.75369719317,-15.6673404585707,-524.587367422455,274.044189055156,250.5431783673
1.05353319057816,528.139670305059,510.389393680392,-17.7502766246674,-519.264531992726,272.944973464863,246.319558527862
1.05567451820128,524.422477866172,505.507801869445,-18.9146759967267,-514.965139867808,271.668576931449,243.296562936359
1.05781584582441,522.483234460762,504.489774162381,-17.9934602983816,-513.486504311572,270.238347379572,243.248156932
1.05995717344754,517.579238888793,498.453424617774,-19.1258142710195,-508.016331753283,268.352526579906,239.663805173377
1.06209850107066,512.677405741025,492.568452840592,-20.1089529004335,-502.622929290808,266.393179320729,236.229749970079
1.06423982869379,510.997745001316,490.679265029336,-20.3184799719803,-500.838505015326,265.658112486648,235.180392528678
1.06638115631692,511.47159762502,489.039023938348,-22.4325736866721,-500.255310781684,266.952085655846,233.303225125838
1.06852248394004,509.950831609257,486.326806771345,-23.6240248379117,-498.138819190301,266.787428223584,231.351390966717
1.07066381156317,508.630463727371,482.683872606298,-25.9465911210735,-495.657168166835,267.288527424222,228.368640742612
1.0728051391863,508.128145608957,481.453161117372,-26.6749844915846,-494.790653363165,267.401565050271,227.389088312894
1.07494646680942,506.403902219296,478.452449019436,-27.9514531998597,-492.428175619366,267.177677709578,225.250497909788
1.07708779443255,504.262811099136,475.84715416419,-28.4156569349464,-490.054982631663,266.339234017041,223.715748614622
1.07922912205567,503.691979098425,476.161406603455,-27.5305724949696,-489.92669285094,265.611275796697,224.315417054243
1.0813704496788,501.908250206911,473.213953658313,-28.6942965485977,-487.561101932612,265.301273377754,222.259828554858
1.08351177730193,497.139276306379,470.010840772062,-27.1284355343172,-483.575058539221,262.133855920348,221.441202618872
1.08565310492505,494.930908369947,467.873875372095,-27.0570329978519,-481.402391871021,260.993970683899,220.408421187122
1.08779443254818,492.369487957994,465.374448465294,-26.9950394926994,-478.871968211644,259.682263725347,219.189704486297
1.08993576017131,487.569361411241,460.628146262485,-26.9412151487567,-474.098753836863,257.255288279999,216.843465556864
1.09207708779443,484.045827977532,457.151344498387,-26.8944834791449,-470.598586237959,255.470155728338,215.128430509621
1.09421841541756,484.206901226462,458.641109350454,-25.5657918760086,-471.424005288458,254.886346551235,216.537658737223
1.09635974304069,484.990808120811,459.934561230521,-25.0562468902897,-472.462684675666,255.02352750555,217.439157170116
1.09850107066381,486.959534075041,457.837274240033,-29.1222598350082,-472.398404157537,258.040896955024,214.357507202512
1.10064239828694,489.956950186927,459.236651064768,-30.7202991221583,-474.596800625848,260.338624654543,214.258175971305
1.10278372591006,491.271265408471,459.80756676456,-31.463698643911,-475.539416086515,261.367482026191,214.171934060324
1.10492505353319,489.83615149095,457.727014402362,-32.1091370885878,-473.781582946656,260.972644289769,212.808938656887
1.10706638115632,489.234207934792,454.632507748015,-34.6017001867768,-471.933357841403,261.917954060784,210.015403780619
1.10920770877944,489.355644158218,455.166073000361,-34.1895711578563,-472.26085857929,261.772607658037,210.488250921253
1.11134903640257,488.172960213347,453.697151013322,-34.4758092000253,-470.935055613334,261.324384706686,209.610670906648
1.1134903640257,485.213946855361,450.48961847912,-34.7243283762406,-467.851782667241,259.969137615801,207.88264505144
1.11563169164882,484.577032872453,449.636933802427,-34.9400990700267,-467.10698333744,259.75856597124,207.3484173662
1.11777301927195,483.379988904075,450.184729170511,-33.1952597335645,-466.782359037293,258.28762431882,208.494734718473
1.11991434689507,482.984743755977,448.084103146035,-34.900640609942,-465.534423451006,258.942692182959,206.591731268046
1.1220556745182,482.64158182731,446.260286000056,-36.3812958272544,-464.450933913683,259.511438827282,204.939495086401
1.12419700214133,482.987698866733,447.25303733858,-35.7346615281533,-465.120368102657,259.361180197443,205.759187905213
1.12633832976445,482.644147529916,445.538733447906,-37.1054140820107,-464.091440488911,259.874780805964,204.216659682948
1.12847965738758,481.701808500778,445.338449016229,-36.3633594845496,-463.520128758504,259.032583992664,204.48754476584
1.13062098501071,482.815822658318,447.740792908069,-35.0750297502488,-465.278307783193,258.945426204283,206.33288157891
1.13276231263383,485.071156166488,448.538451235253,-36.532704931235,-466.804803700871,260.801930548862,206.002873152009
1.13490364025696,486.385235312449,447.298821598404,-39.086413714045,-466.842028455427,262.735824513247,204.10620394218
1.13704496788009,488.170211364238,446.866602485676,-41.303608878562,-467.518406924957,264.7369101214,202.781496803557
1.13918629550321,489.075914157772,447.135397804159,-41.9405163536133,-468.105655980966,265.508215255693,202.597440725273
1.14132762312634,488.574150472346,446.080654787873,-42.4934956844729,-467.32740263011,265.533823078409,201.7935795517
1.14346895074946,487.494447442792,443.876781997803,-43.6176654449895,-465.685614720297,265.556056443891,200.129558276406
1.14561027837259,487.201080693637,443.895500335614,-43.3055803580239,-465.548290514626,265.253330525831,200.294959988795
1.14775160599572,486.302313204781,445.843929036098,-40.4583841686834,-466.07312112044,263.380348686732,202.692772433707
1.14989293361884,486.166039311564,445.60342761791,-40.5626116936535,-465.884733464737,263.364325502609,202.520407962129
1.15203426124197,487.97989979993,445.394618146347,-42.5852816535823,-466.687258973139,265.282590726756,201.404668246383
1.1541755888651,489.554739785986,447.145501393672,-42.4092383923143,-468.350120589829,265.98198908915,202.368131500679
1.15631691648822,488.98987910776,446.089426982245,-42.900452125515,-467.539653045003,265.945165616638,201.594487428365
1.15845824411135,488.499452645346,445.172516215384,-43.326936429962,-466.835984430365,265.913194537654,200.922789892711
1.16059957173448,490.649887818423,446.308607839447,-44.3412799789758,-468.479247828935,267.495583898699,200.983663930236
1.1627408993576,493.161009526136,447.294991593255,-45.8660179328818,-470.228000559695,269.513513729509,200.714486830186
1.16488222698073,493.40905254306,446.219218190189,-47.1898343528716,-469.814135366625,270.299443447966,199.514691918659
1.16702355460385,494.268468810424,447.217381217543,-47.0510875928819,-470.742925013983,270.659778201653,200.08314681233
1.16916488222698,495.014635955689,448.728070829435,-46.2865651262542,-471.871353392562,270.650600540972,201.22075285159
1.17130620985011,493.730300360065,447.463454171291,-46.2668461887741,-470.596877265678,269.99857327442,200.598303991258
1.17344753747323,491.971148418068,446.365481701494,-45.605666716574,-469.168315059781,268.788407567321,200.37990749246
1.17558886509636,491.087866775975,446.700311945111,-44.3875548308647,-468.894089360543,267.73771080342,201.156378557123
1.17773019271949,490.965038090291,445.702902136778,-45.2621359535132,-468.333970113535,268.113587021902,200.220383091632
1.17987152034261,488.92621812772,443.548807501639,-45.3774106260815,-466.237512814679,267.151814376901,199.085698437779
1.18201284796574,489.088239544365,446.186980453384,-42.9012590909813,-467.637609998874,265.994749317673,201.642860681201
1.18415417558887,487.940792700436,446.545332604148,-41.3954600962879,-467.243062652292,264.668126398362,202.57493625393
1.18629550321199,486.300491067597,444.280227141681,-42.0202639259159,-465.290359104639,264.160377496756,201.129981607882
1.18843683083512,486.164457285539,441.669545761046,-44.4949115244929,-463.917001523293,265.329684405016,198.587317118277
1.19057815845824,486.046349282849,443.267239455908,-42.7791098269416,-464.656794369378,264.412729554895,200.244064814483
1.19271948608137,485.299745912242,442.722220951149,-42.577524961093,-464.010983431695,263.938635436667,200.072347995028
1.1948608137045,484.651525804191,440.316845008639,-44.334680795552,-462.484185406415,264.493103299872,197.991082106544
1.19700214132762,484.088724556536,443.380908101041,-40.7078164554956,-463.734816328789,262.398270506016,201.336545822773
1.19914346895075,482.311968169861,445.397146919878,-36.9148212499832,-463.85455754487,259.613394709922,204.241162834947
1.20128479657388,480.769342912205,443.283343016025,-37.4859998961804,-462.026342964115,259.127671404193,202.898671559922
1.203426124197,479.429996278415,442.736202473186,-36.693793805229,-461.0830993758,258.061895041822,203.021204333978
1.20556745182013,481.487436271973,444.193338046426,-37.2940982255462,-462.8403871592,259.390767248759,203.44961991044
1.20770877944325,482.629699216085,443.526283391857,-39.1034158242283,-463.077991303971,260.866557520157,202.211433783814
1.20985010706638,482.97738208029,442.303070522814,-40.6743115574761,-462.640226301552,261.825846818883,200.814379482669
1.21199143468951,483.279249219758,444.461340815962,-38.8179084037967,-463.87029501786,261.048578811777,202.821716206082
1.21413276231263,484.829455951741,446.335206187729,-38.4942497640121,-465.582331069735,261.661852857877,203.920478211859
1.21627408993576,486.175385015107,446.67402597109,-39.5013590440167,-466.424705493098,262.838372029562,203.586333463537
1.21841541755889,488.632072965584,448.256315931947,-40.3757570336377,-468.444194448765,264.503914999611,203.940279449154
1.22055674518201,491.409091153642,449.630100473743,-41.7789906798991,-470.519595813693,266.594040916771,203.925554896922
1.22269807280514,491.887992283461,449.534737312853,-42.3532549706079,-470.711364798157,267.120623627034,203.590741171123
1.22483940042827,491.015668496833,448.8078815946,-42.2077869022334,-469.911775045716,266.611727699533,203.300047346183
1.22698072805139,492.190471675493,450.108983864199,-42.0814878112944,-471.149727769846,267.135979743394,204.013748026452
1.22912205567452,493.854524776587,450.594575086152,-43.2599496904353,-472.224549931369,268.557237233511,203.667312697858
1.23126338329764,494.011180189787,449.728059808321,-44.2831203814661,-471.869619999054,269.147150285626,202.722469713427
1.23340471092077,496.079369380824,450.907906082617,-45.1714632982073,-473.493637731721,270.625416339516,202.868221392205
1.2355460385439,496.586906065397,453.864455702561,-42.7224503628359,-475.225680883979,269.654678214117,205.571002669863
1.23768736616702,497.671621360202,455.143289592431,-42.5283317677716,-476.407455476316,270.099976563987,206.307478912329
1.23982869379015,499.25745786048,456.253605825795,-43.0038520346854,-477.755531843137,271.130654947583,206.624876895555
1.24197002141328,503.210557547276,460.437905663479,-42.7726518837973,-481.824231605377,272.991604715537,208.832626889841
1.2441113490364,506.64273962278,464.070821612804,-42.5719180099761,-485.356780617792,274.607328816378,210.749451801414
1.24625267665953,508.334529754039,463.360658069368,-44.9738716846716,-485.847593911703,276.654200719355,209.193393192348
1.24839400428266,511.091503113915,465.964370885778,-45.127132228137,-488.527936999846,278.109317671026,210.41861932882
1.25053533190578,514.773295748294,468.869039816162,-45.9042559321327,-491.821167782228,280.338775840213,211.482391942014
1.25267665952891,517.969922114092,470.746888554009,-47.2230335600838,-494.358405334051,282.596477837088,211.761927496962
1.25481798715203,520.745314738625,471.733225784731,-49.0120889538941,-496.239270261678,284.87870184626,211.360568415418
1.25695931477516,523.799040461615,474.521765912524,-49.2772745490904,-499.16040318707,286.538157505353,212.622245681717
1.25910064239829,525.162245125171,475.01067068459,-50.1515744405812,-500.086457904881,287.656909782876,212.429548122004
1.26124197002141,526.345814218339,475.435150290029,-50.9106639283098,-500.890482254184,288.628239073324,212.26224318086
1.26338329764454,527.373419122981,476.447753308182,-50.9256658147992,-501.910586215581,289.14954246889,212.761043746691
1.26552462526767,529.553729911653,479.259098063219,-50.2946318484341,-504.406413987436,289.924180880044,214.482233107393
1.26766595289079,530.158613429894,479.123743407657,-51.0348700222367,-504.641178418775,290.596741726065,214.04443669271
1.26980728051392,531.327847731071,480.938402001624,-50.3894457294471,-506.133124866347,290.858646730259,215.274478136088
1.27194860813705,534.275183765017,485.090170872266,-49.1850128927509,-509.682677318642,291.730098328884,217.952578989758
1.27408993576017,536.19007717152,488.050783618219,-48.1392935533007,-512.12043039487,292.16468536241,219.955745032459
1.2762312633833,536.564518542133,490.621263192289,-45.9432553498442,-513.592890867211,291.253886945988,222.339003921222
1.27837259100642,537.533677087273,495.429255134882,-42.1044219523907,-516.481466111077,289.819049519832,226.662416591246
1.28051391862955,537.087007305493,497.027440544379,-40.0595667611138,-517.057223924936,288.573287033303,228.483936891633
1.28265524625268,536.69919719693,497.126907946052,-39.5722892508781,-516.913052571491,288.135743223904,228.777309347587
1.2847965738758,537.006549546646,497.213268083708,-39.7932814629374,-517.109908815177,288.399915504792,228.709993310385
1.28693790149893,538.56151867821,501.796661070721,-36.7648576074886,-520.179089874465,287.663188142849,232.515901731616
1.28907922912206,538.623464604018,501.911725958237,-36.7117386457815,-520.267595281127,287.6676016249,232.599993656228
1.29122055674518,536.745070676664,499.435392282397,-37.3096783942673,-518.090231479531,287.027374535466,231.062856944065
1.29336188436831,535.114201111262,499.217553122927,-35.8966479883348,-517.165877117094,285.505424549798,231.660452567296
1.29550321199143,531.122002567575,499.028419602977,-32.0935829645985,-515.075211085276,281.607792766087,233.467418319189
1.29764453961456,525.079637917352,494.355796141527,-30.7238417758243,-509.71771702944,277.901739846588,231.815977182852
1.29978586723769,521.121620633595,491.587023129018,-29.5345975045773,-506.354321881307,275.328109069086,231.02621281222
1.30192719486081,518.329227962089,489.827162696657,-28.5020652654326,-504.078195329373,273.415646613761,230.662548715612
1.30406852248394,514.616683377055,486.367029976216,-28.2496534008388,-500.491856676635,271.433168388947,229.058688287688
1.30620985010707,508.817121433636,481.43067744525,-27.386443988386,-495.123899439443,268.101782711011,227.022116728432
1.30835117773019,504.425852671745,478.432928121265,-25.99292455048,-491.429390396505,265.209388611112,226.220001785392
1.31049250535332,498.037005069328,473.898028660311,-24.1389764090176,-485.967516864819,261.087990739173,224.879526125646
1.31263383297645,491.201926491422,467.384477217903,-23.8174492735193,-479.293201854662,257.509687882471,221.783513972192
1.31477516059957,485.26753676224,463.661422518433,-21.6061142438074,-474.464479640337,253.436825503024,221.027654137313
1.3169164882227,480.759207074432,459.14085339979,-21.6183536746418,-469.950030237111,251.188780374537,218.761249862574
1.31905781584582,474.912783174659,452.639743926448,-22.2730392482113,-463.776263550553,248.592911211435,215.183352339118
1.32119914346895,469.192709691354,446.995314700485,-22.1973949908692,-458.09401219592,245.695052341112,212.398959854808
1.32334047109208,464.226395852738,445.31497207354,-18.9114237791974,-454.770683963139,241.568909815968,213.201774147171
1.3254817987152,460.558574369269,440.635760767484,-19.9228136017844,-450.597167568377,240.240693985527,210.35647358285
1.32762312633833,457.374078113392,436.573150045629,-20.8009280677627,-446.97361407951,239.087503090577,207.886110988933
1.32976445396146,456.541394121684,434.978064655231,-21.5633294664521,-445.759729388458,239.052361794068,206.70736759439
1.33190578158458,453.242200671724,432.949111807593,-20.2930888641316,-443.095656239659,236.767644767928,206.328011471731
1.33404710920771,448.445579724366,426.679110233026,-21.7664694913405,-437.562344978696,235.106024607853,202.456320370843
1.33618843683084,443.63697196709,421.879393772476,-21.7575781946139,-432.758182869783,232.697275080852,200.060907788931
1.33832976445396,440.106074929869,419.644334360542,-20.4617405693272,-429.875204645205,230.283907749598,199.591296895607
1.34047109207709,437.684518961302,417.059739728091,-20.6247792332107,-427.372129344697,229.154649097256,198.21748024744
1.34261241970021,434.938003256901,413.527610705901,-21.4103925510007,-424.232806981401,228.174197903951,196.05860907745
1.34475374732334,433.197467187696,411.749044083761,-21.4484231039348,-422.473255635729,227.322945145815,195.150310489913
1.34689507494647,431.042230347184,409.560788146226,-21.4814422009584,-420.301509246705,226.261836274071,194.039672972634
1.34903640256959,429.170998696443,404.440593536273,-24.7304051601697,-416.805796116358,226.950701928306,189.855094188052
1.35117773019272,427.546347602456,401.92728681283,-25.6190607896257,-414.736817207643,226.582704196041,188.154113011602
1.35331905781585,426.779843030576,401.033287722232,-25.7465553083435,-413.906565376404,226.26319916946,187.643366206944
1.35546038543897,424.826226217016,397.036799950737,-27.7894262662787,-410.931513083876,226.307826241647,184.623686842229
1.3576017130621,423.774105208508,395.499124194041,-28.2749810144672,-409.636614701275,226.024543111488,183.612071589787
1.35974304068522,422.860626886997,394.808133830583,-28.0524930564144,-408.83438035879,225.456559971706,183.377820387084
1.36188436830835,422.067521686052,392.920080380744,-29.1474413053087,-407.493801033398,225.60748149568,181.886319537717
1.36402569593148,418.802691552728,388.060529235142,-30.7421623175867,-403.431610393935,224.772426935157,178.659183458777
1.3661670235546,414.679964701442,387.061637796455,-27.6183269049864,-400.870801248948,221.149145803214,179.721655445734
1.36830835117773,411.744566978171,384.262197784783,-27.4823691933876,-398.003382381477,219.613468085779,178.389914295698
1.37044967880086,406.619743781638,379.899475531858,-26.7202682497807,-393.259609656748,216.67000601571,176.589603641038
1.37259100642398,403.458359413922,376.111648686279,-27.3467107276433,-389.785004050101,215.402535070783,174.382468979318
1.37473233404711,402.001682766358,374.75513767283,-27.246545093528,-388.378410219594,214.624113929943,173.754296289651
1.37687366167024,400.092899922991,371.645203215889,-28.4476967071021,-385.86905156944,214.270298315047,171.598753254393
1.37901498929336,399.723763899302,369.589137707207,-30.1346261920957,-384.656450803255,214.929195045699,169.727255757555
1.38115631691649,400.047329566277,369.092127113187,-30.9552024530906,-384.569728339732,215.501266009684,169.068462330048
1.38329764453961,402.260434501063,370.59278678787,-31.6676477131932,-386.426610644467,216.964041107128,169.462569537338
1.38543897216274,406.114085670391,371.251638843859,-34.8624468265318,-388.682862257125,220.488266248462,168.194596008664
1.38758029978587,412.680218940146,373.111788994624,-39.5684299455219,-392.896003967385,226.124324442834,166.771679524551
1.38972162740899,424.177634371375,381.811467706954,-42.3661666644207,-402.994551039165,233.271900517898,169.722650521267
1.39186295503212,438.024337915113,391.940986827271,-46.0833510878422,-414.982662371192,242.053844501478,172.928817869714
1.39400428265525,455.198871352768,404.600047869823,-50.598823482945,-429.899459611296,252.898847417857,177.000612193439
1.39614561027837,476.550829642318,422.675616727691,-53.8752129146265,-449.613223185004,265.213021278472,184.400201906532
1.3982869379015,500.24161686854,442.877700011901,-57.3639168566386,-471.55965844022,278.802766862589,192.756891577631
1.40042826552463,524.030858129025,460.417664502932,-63.6131936260927,-492.224261315978,293.822025877559,198.40223543842
1.40256959314775,547.905579695707,479.510663413993,-68.3949162817138,-513.70812155485,308.150247988711,205.55787356614
1.40471092077088,569.278281497721,498.663928484914,-70.6143530128063,-533.971104991317,319.946317255263,214.024787736054
1.406852248394,583.970252949829,510.784869314946,-73.1853836348831,-547.377561132388,328.577818292356,218.799742840031
1.40899357601713,591.573725770541,518.732343656968,-72.8413821135728,-555.153034713755,332.207553942057,222.945480771698
1.41113490364026,593.02278310151,525.632543789368,-67.3902393121427,-559.327663445439,330.206511206827,229.121152238612
1.41327623126338,589.128419774596,525.182883842476,-63.9455359321196,-557.155651808536,326.536977853358,230.618673955178
1.41541755888651,581.238821195731,517.707828736675,-63.5309924590559,-549.473324966203,322.384906827393,227.088418138809
1.41755888650964,570.524516355153,509.929677072135,-60.5948392830183,-540.227096713644,315.559677819086,224.667418894558
1.41970021413276,558.645847394445,503.82054619857,-54.8253011958742,-531.233196796507,306.735574295159,224.497622501348
1.42184154175589,544.468129802548,491.431793941076,-53.0363358614711,-517.949961871812,298.752232832009,219.197729039803
1.42398286937902,528.294319491554,477.455267995097,-50.8390514964566,-502.874793743325,289.566685494005,213.30810824932
1.42612419700214,512.319627480867,467.896727280071,-44.4229002007963,-490.108177380469,278.371263840832,211.736913539637
1.42826552462527,497.805933036703,459.597758190152,-38.2081748465508,-478.701845613427,268.007053941627,210.694791671801
1.43040685224839,485.848831955295,451.74832235631,-34.1005095989848,-468.798577155802,259.97467077714,208.823906378663
1.43254817987152,479.331725440518,446.865418721449,-32.4663067190687,-463.098572080984,255.899016079793,207.19955600119
1.43468950749465,478.181820085379,444.558134080908,-33.6236860044709,-461.369977083144,255.902753044925,205.467224038219
1.43683083511777,477.18344289757,441.266772673753,-35.9166702238167,-459.225107785661,256.550056560693,202.675051224968
1.4389721627409,476.316626333333,437.765069680382,-38.5515566529514,-457.040848006858,257.434091493142,199.606756513715
1.44111349036403,476.208093048617,436.656978700509,-39.5511143481082,-456.432535874563,257.879603698363,198.5529321762
1.44325481798715,474.825743705377,433.762728859182,-41.0630148461947,-454.29423628228,257.944379275786,196.349857006494
1.44539614561028,472.337434738058,429.961749278772,-42.3756854592863,-451.149592008415,257.356560098672,193.793031909743
1.4475374732334,469.532962375856,429.237877712369,-40.2950846634868,-449.385420044112,254.914023519671,194.471396524441
1.44967880085653,465.809929894948,427.321275962636,-38.4886539323127,-446.565602928792,252.149291913631,194.416311015162
1.45182012847966,459.357203105334,421.792879466962,-37.5643236383723,-440.575041286148,248.460763371853,192.114277914295
1.45396145610278,452.466662986189,415.704866508289,-36.7617964779001,-434.085764747239,244.614229732045,189.471535015195
1.45610278372591,446.484120130904,413.639393159375,-32.8447269715289,-430.06175664514,239.664423551217,190.397333093923
1.45824411134904,440.00180570791,407.98174254042,-32.0200631674901,-423.991774124165,236.0109344377,187.980839686465
1.46038543897216,433.085576850057,401.137448864669,-31.9481279853884,-417.111512857363,232.516852417723,184.59466043964
1.46252676659529,427.724789363193,397.12723531396,-30.5975540492321,-412.426012338576,229.161171706212,183.264840632364
1.46466809421842,421.78229882523,393.645465523621,-28.1368333016081,-407.713882174425,224.959566063419,182.754316111007
1.46680942184154,414.690699859487,386.758150174456,-27.9325496850315,-400.724425016971,221.311624772259,179.412800244712
1.46895074946467,409.821710554773,382.066525121262,-27.7551854335113,-395.944117838017,218.788447994142,177.155669843875
1.47109207708779,406.238388716452,377.993136467203,-28.2452522492486,-392.115762591827,217.24182048285,174.873942108977
1.47323340471092,401.839139235407,373.168398464735,-28.6707407706717,-387.503768850071,215.254940003039,172.248828847032
1.47537473233405,396.731480543328,367.691319775118,-29.0401607682091,-382.211400159223,212.885820655768,169.325579503455
1.47751605995717,392.940939849377,364.224098194797,-28.7168416545799,-378.582519022087,210.828890751978,167.753628270109
1.4796573875803,390.938013616252,361.857826883623,-29.0801867326297,-376.397920249938,210.009100174441,166.388820075497
1.48179871520343,387.266844961824,357.22713376856,-30.0397111932644,-372.246989365192,208.653278077544,163.593711287648
1.48394004282655,382.791324632199,352.56258879162,-30.2287358405787,-367.67695671191,206.510030236389,161.166926475521
1.48608137044968,382.125858552717,350.444888712848,-31.6809698398686,-366.285373632782,206.903414196293,159.38195943649
1.48822269807281,381.548083912354,348.606247437007,-32.9418364753467,-365.077165674681,207.24496019385,157.83220548083
1.49036402569593,382.334563192767,347.009892138581,-35.3246710541859,-364.672227665674,208.829617123477,155.842610542198
1.49250535331906,383.017404583792,346.267954698833,-36.7494498849583,-364.642679641312,209.883427234375,154.759252406937
1.49464668094218,383.610264913248,344.335667696619,-39.274597216629,-363.972966304933,211.442431064938,152.530535239995
1.49678800856531,380.904706451566,340.725829825971,-40.1788766255954,-360.815268138769,210.541791538581,150.273476600188
1.49892933618844,377.267553544484,338.235735410369,-39.0318181341149,-357.751644477426,208.149685839299,149.601958638127
1.50107066381156,375.397802504094,337.361889838077,-38.0359126660176,-356.379846171086,206.716857585056,149.66298858603
1.50321199143469,372.486318939354,333.382899865718,-39.1034190736361,-352.934609402536,205.794869006495,147.139740396041
1.50535331905782,367.382258625815,329.284180196047,-38.0980784297686,-348.333219410931,202.740168527792,145.593050883139
1.50749464668094,362.950783148753,327.65774409525,-35.2930390535027,-345.304263622001,199.121911101128,146.182352520874
1.50963597430407,359.103262998625,325.601571760421,-33.501691238204,-342.352417379523,196.302477118415,146.049940261108
1.51177730192719,357.050865746893,322.528232468287,-34.5226332786064,-339.78954910759,195.78674951275,144.00279959484
1.51391862955032,359.133275976139,324.368293739398,-34.7649822367403,-341.750784857769,196.949129106439,144.801655751329
1.51605995717345,360.941277703628,325.965881913973,-34.9753957896548,-343.4535798088,197.958336746641,145.495243062159
1.51820128479657,361.866971976678,324.776712806575,-37.090259170103,-343.321842391627,199.478615573391,143.843226818236
1.5203426124197,362.026624391406,324.388304813835,-37.6383195775712,-343.20746460262,199.832471984489,143.374992618132
1.52248394004283,364.741474642919,325.339197052474,-39.4022775904449,-345.040335847696,202.071876116682,142.968459731015
1.52462526766595,366.454517957469,326.164785971492,-40.289731985977,-346.309651964481,203.372124971723,142.937526992758
1.52676659528908,366.653707924771,325.593465374807,-41.0602425499648,-346.123586649789,203.856975237368,142.266611412421
1.52890792291221,366.826649739945,323.809312271794,-43.0173374681509,-345.317981005869,204.921993604048,140.395987401821
1.53104925053533,365.688684264829,323.548382970629,-42.1403012941998,-344.618533617729,203.914492779514,140.704040838215
1.53319057815846,364.056614598464,320.74560154059,-43.3110130578734,-342.401108069527,203.683813828169,138.717294241358
1.53533190578158,360.063374096482,318.312155144623,-41.7512189518593,-339.187764620552,200.907296524171,138.280468096382
1.53747323340471,357.884458714853,317.48749282927,-40.3969658855831,-337.685975772061,199.140712300218,138.545263471843
1.53961456102784,358.568904699097,317.415558939683,-41.1533457594142,-337.99223181939,199.861125229256,138.131106590134
1.54175588865096,360.451276151817,317.353104100185,-43.0981720516327,-338.902190126001,201.774724101725,137.127466024276
1.54389721627409,363.373717080757,319.875115162911,-43.4986019178468,-341.624416121834,203.436159499302,138.188256622532
1.54603854389722,366.555113895955,322.708848544801,-43.846265351154,-344.631981220378,205.200689623554,139.431291596823
1.54817987152034,367.385106874133,322.592932266681,-44.7921746074517,-344.989019570407,206.088640740792,138.900378829615
1.55032119914347,369.393845942976,323.136349781765,-46.2574961612111,-346.265097862371,207.825671052094,138.439426810277
1.5524625267666,373.070061449785,326.828453678628,-46.2416077711578,-349.949257564207,209.655834610472,140.293422953735
1.55460385438972,374.329668649341,328.101855584078,-46.2278130652636,-351.215762116709,210.278740857302,140.937021259407
1.55674518201285,376.067350766526,328.563396642652,-47.5039541238739,-352.315373704589,211.7856524452,140.529721259389
1.55888650963597,378.86416872026,332.828472296799,-46.0356964234615,-355.84632050853,212.449932571861,143.396387936669
1.5610278372591,380.648378486614,334.599342910587,-46.0490355760273,-357.623860698601,213.348707031321,144.27515366728
1.56316916488223,381.55341597157,334.204681028257,-47.3487349433129,-357.879048499913,214.451075457441,143.427973042472
1.56531049250535,382.983251609944,335.794202467516,-47.1890491424277,-359.38872703873,215.086150376186,144.302576662544
1.56745182012848,386.800907365544,339.106442525185,-47.6944648403586,-362.953674945365,217.247686102951,145.705988842413
1.56959314775161,390.115493561936,340.050036947064,-50.0654566148725,-365.0827652545,220.090475088404,144.992290166096
1.57173447537473,393.637360910279,342.157407689711,-51.4799532205685,-367.897384299995,222.558657065424,145.338727234571
1.57387580299786,397.339195046886,347.207375708365,-50.1318193385208,-372.273285377626,223.735507192703,148.537778184922
1.57601713062098,401.841339931065,350.947827886736,-50.8935120443291,-376.3945839089,226.367425987697,150.027157921203
1.57815845824411,404.462099090263,352.263207004581,-52.1988920856818,-378.362653047422,228.330495587972,150.03215745945
1.58029978586724,407.381568090669,356.625547674076,-50.7560204165931,-382.003557882373,229.068794253631,152.934763628742
1.58244111349036,411.204443588868,359.768984231947,-51.4354593569219,-385.486713910408,231.319951472895,154.166762437512
1.58458244111349,412.591384737357,359.92196015831,-52.6694245790468,-386.256672447833,232.630404658202,153.626267789631
1.58672376873662,414.439621439995,361.342895737702,-53.0967257022924,-387.891258588849,233.768173571144,154.123085017705
1.58886509635974,416.688366720181,366.440942209328,-50.2474245108521,-391.564654464754,233.467895615516,158.096758849238
1.59100642398287,419.284843772863,369.579078340839,-49.7057654320243,-394.431961056851,234.495304602444,159.936656454407
1.593147751606,421.539171441209,371.659629263404,-49.8795421778045,-396.599400352306,235.709356809507,160.8900435428
1.59528907922912,424.784554253048,376.04225264229,-48.7423016107588,-400.413403447669,236.763427931904,163.649975515765
1.59743040685225,429.53445543054,380.491417140758,-49.0430382897824,-405.012936285649,239.288746860161,165.724189425488
1.59957173447537,431.72626394188,382.422118389197,-49.3041455526828,-407.074191165539,240.515204747281,166.558986418257
1.6017130620985,435.561425012648,386.030579467931,-49.5308455447178,-410.796002240289,242.546135278683,168.249866961606
1.60385438972163,440.823386732296,389.807596492105,-51.0157902401914,-415.315491612201,245.919588486244,169.395903125957
1.60599571734475,445.391956241557,391.798781129854,-53.5931751117033,-418.595368685705,249.49256567663,169.102803009075
1.60813704496788,448.714445943384,392.883519482474,-55.8309264609104,-420.798982712929,252.272686202147,168.526296510782
1.61027837259101,452.243175316932,397.045611951062,-55.1975633658708,-424.644393633997,253.720369341402,170.924024292595
1.61241970021413,455.950967239018,401.303305882788,-54.6476613562298,-428.627136560903,255.299314297624,173.327822263279
1.61456102783726,458.526107862964,402.423708509475,-56.1023993534891,-430.474908186219,257.314253608227,173.160654577993
1.61670235546039,460.117851711905,405.328647636897,-54.7892040750082,-432.723249674401,257.453527893457,175.269721780944
1.61884368308351,464.076080309632,408.494848941174,-55.5812313684582,-436.285464625403,259.828655839045,176.456808786358
1.62098501070664,466.22459746209,410.599766763273,-55.624830698817,-438.412182112682,260.924714080454,177.487468032228
1.62312633832976,468.089994908103,411.783251170293,-56.3067437378098,-439.936623039198,262.198369322956,177.738253716242
1.62526766595289,473.573934519978,416.675136471648,-56.8987980483301,-445.124535495813,265.236366284154,179.888169211659
1.62740899357602,477.691171915404,420.922396186048,-56.7687757293565,-449.306784050726,267.22997382238,182.076810228346
1.62955032119914,479.333685578481,422.677798546085,-56.6558870323962,-451.005742062283,267.994786305439,183.010955756844
1.63169164882227,481.403816863361,425.490001667083,-55.9138151962784,-453.446909265222,268.65881602982,184.788093235402
1.6338329764454,484.489275672319,429.219746190152,-55.2695294821673,-456.854510931235,269.879402577243,186.975108353992
1.63597430406852,486.524090798529,428.59365168659,-57.9304391119384,-457.558871242559,272.227264955234,185.331606287326
1.63811563169165,487.646710255169,428.694119440878,-58.9525908142916,-458.170414848024,273.299650534731,184.870764313293
1.64025695931478,490.553574090956,432.001643046372,-58.5519310445836,-461.277608568664,274.55275256777,186.724856000894
1.6423982869379,492.433328501712,433.585201511286,-58.8481269904252,-463.009265006499,275.640727746068,187.368537260431
1.64453961456103,492.133202311844,433.027910438998,-59.1052918728463,-462.580556375421,275.619247092345,186.961309283076
1.64668094218415,493.804802052911,434.476233063415,-59.3285689894956,-464.140517558163,276.566685521203,187.57383203696
1.64882226980728,493.96800965161,436.377762730599,-57.5902469210113,-465.172886191104,275.779128286311,189.393757904794
1.65096359743041,492.821592681225,434.164365412615,-58.6572272686096,-463.49297904692,275.739409974917,187.753569072003
1.65310492505353,491.18218521089,430.310460388731,-60.8717248221594,-460.74632279981,276.026955016525,184.719367783286
1.65524625267666,489.758809789085,430.184696588284,-59.574113200801,-459.971753188684,274.666461494943,185.305291693742
1.65738758029979,487.878939920142,429.431446258602,-58.4474936615396,-458.655193089372,273.163216790841,185.491976298531
1.65952890792291,484.314611942874,427.489337116515,-56.8252748263586,-455.901974529695,270.569943384616,185.332031145078
1.66167023554604,481.219971391395,426.447207362186,-54.7727640292092,-453.833589376791,267.996367710302,185.837221666488
1.66381156316916,477.889066467444,426.830521677104,-51.0585447903402,-452.359794072274,264.473805628892,187.885988443382
1.66595289079229,472.420853821503,422.654912041174,-49.7659417803285,-447.537882931339,261.093397800916,186.444485130423
1.66809421841542,467.029153004966,418.385482159652,-48.6436708453143,-442.707317582309,257.83641192514,184.870905657169
1.67023554603854,461.703881712159,415.966772107256,-45.7371096049026,-438.835326909708,253.720495658531,185.114831251177
1.67237687366167,453.860050278953,410.646491351008,-43.2135589279447,-432.253270814981,248.536804603449,183.716466211532
1.6745182012848,444.473599617191,403.451051816289,-41.0225478009016,-423.96232571674,242.748073709046,181.214252007694
1.67665952890792,436.968102492415,399.135964465646,-37.8321380267691,-418.05203347903,237.400120259592,180.651913219438
1.67880085653105,429.16352028978,395.389495458405,-33.7740248313744,-412.276507874093,231.468772560577,180.807735313515
1.68094218415418,420.455205799311,386.984243516571,-33.4709622827406,-403.719724657941,226.963084041026,176.756640616915
1.6830835117773,411.606306850396,380.97470715886,-30.6315996915361,-396.290507004628,221.118953270966,175.171553733662
1.68522483940043,404.567525847061,377.689251224041,-26.8782746230198,-391.128388535551,215.72290023504,175.405488300511
1.68736616702355,395.880040522426,370.328321589137,-25.5517189332891,-383.104181055781,210.715879727857,172.388301327924
1.68950749464668,387.049225987082,361.361138597729,-25.6880873893529,-374.205182292405,206.368656688217,167.836525604188
1.69164882226981,380.026146333325,356.151837330461,-23.8743090028647,-368.088991831893,201.950227668095,166.138764163798
1.69379014989293,371.352293321269,348.408694034283,-22.9435992869861,-359.880493677776,197.147946304128,162.732547373649
1.69593147751606,362.533314707756,341.685899332706,-20.8474153750496,-352.109607020231,191.690365041403,160.419241978828
1.69807280513919,355.520511303518,337.13711530616,-18.383395997358,-346.328813304839,186.951953650438,159.376859654401
1.70021413276231,350.075875329817,331.255567916647,-18.8203074131704,-340.665721623232,184.448091371494,156.217630251738
1.70235546038544,343.416526407598,324.216881348341,-19.1996450592569,-333.81670387797,181.308085733428,152.508618144542
1.70449678800857,335.058473703149,318.105713963536,-16.9527597396128,-326.582093833343,176.005616721381,150.576477111962
1.70663811563169,327.801798953928,312.799842414536,-15.0019565393915,-320.300820684232,171.40187774666,148.898942937572
1.70877944325482,322.789486639412,308.19314927036,-14.5963373690516,-315.491317954886,168.692912004232,146.798405950654
1.71092077087794,317.793610130307,300.329146744736,-17.4644633855711,-309.061378437522,167.629036757939,141.432341679583
1.71306209850107,312.167944619855,296.077654923397,-16.0902896964585,-304.122799771626,164.129117158157,139.993682613469
1.7152034261242,305.351421231925,292.386401178369,-12.9650200535559,-298.868911205147,159.158220642741,139.710690562407
1.71734475374732,298.789082605186,284.0290885369,-14.7599940682857,-291.409085571043,156.774538336736,134.634547234307
1.71948608137045,293.09149266499,278.061174303716,-15.0303183612739,-285.576333484353,154.060905513132,131.515427971221
1.72162740899358,288.788758599763,276.744032721768,-12.0447258779953,-282.766395660766,150.416742238879,132.349653421886
1.7237687366167,283.764897055854,272.380161835942,-11.3847352199116,-278.072529445898,147.574816137883,130.497713308015
1.72591006423983,277.47087523646,265.371042781795,-12.0998324546649,-271.420959009128,144.785353845563,126.635605163565
1.72805139186295,273.938421760549,261.861782616604,-12.0766391439454,-267.900102188577,143.007530452247,124.892571736329
1.73019271948608,272.803632426638,259.45901233275,-13.3446200938886,-266.131322379694,143.074126260264,123.057196119431
1.73233404710921,270.530261379926,254.796629877743,-15.7336315021834,-262.663445628834,143.131946441055,119.53149918778
1.73447537473233,267.91240360802,252.036748368492,-15.875655239528,-259.974575988256,141.894029423774,118.080546564482
1.73661670235546,266.2835716406,251.572725740734,-14.7108458998657,-258.928148690667,140.497208770233,118.430939920434
1.73875802997859,266.157496114893,249.881731473791,-16.2757646411024,-258.019613794342,141.216630377998,116.802983416344
1.74089935760171,266.048034124614,246.481390116403,-19.5666440082117,-256.264712120509,142.807339066413,113.457373054096
1.74304068522484,265.308937442725,245.461303896775,-19.8476335459498,-255.38512066975,142.578285494337,112.806835175413
1.74518201284797,265.955352807938,245.219697984089,-20.7356548238492,-255.587525396013,143.345503815893,112.24202158012
1.74732334047109,265.872528144552,243.077752600507,-22.7947755440445,-254.475140372529,144.333651844298,110.141488528231
1.74946466809422,265.800617657186,241.862119919251,-23.9384977379349,-253.831368788218,144.86955769756,108.961811090658
1.75160599571734,266.382242123324,243.382912537734,-22.9993295855903,-254.882577330529,144.690785854457,110.191791476072
1.75374732334047,266.887223334404,241.483008580623,-25.4042147537808,-254.185115957513,146.145719044092,108.039396913421
1.7558886509636,266.037542940182,239.833463458208,-26.2040794819748,-252.935503199195,146.120811211079,106.814691988116
1.75802997858672,264.655769741317,239.689404242503,-24.9663654988144,-252.17258699191,144.811067620066,107.361519371844
1.76017130620985,262.812019984486,239.564328353421,-23.2476916310644,-251.188174168953,143.029855807775,108.158318361178
1.76231263383298,261.855288359669,235.591380349792,-26.2639080098771,-248.723334354731,144.059598184773,104.663736169958
1.7644539614561,261.024629536486,234.718201407788,-26.3064281286972,-247.871415472137,143.665528832591,104.205886639546
1.76659528907923,261.591548312934,235.248203131487,-26.3433451814469,-248.41987572221,143.96744674719,104.45242897502
1.76873661670236,261.439702681538,232.48806922343,-28.9516334581077,-246.963885952484,145.195668069823,101.768217882661
1.77087794432548,261.307866427557,229.447591507659,-31.8602749198981,-245.377728967608,146.584070673728,98.7936582938806
1.77301927194861,260.54934383868,230.672125051134,-29.8772187875467,-245.610734444907,145.213281313113,100.397453131793
1.77516059957173,259.890775161016,231.735296337404,-28.1554788236118,-245.81303574921,144.023126992314,101.789908756896
1.77730192719486,258.674930033779,228.149955881575,-30.5249741522041,-243.412442957677,144.599952092992,98.8124908646855
1.77944325481799,257.619302252312,227.613307708662,-30.0059945436503,-242.616304980487,143.812648397981,98.8036565825059
1.78158458244111,254.770602299291,226.503317076429,-28.2672852228621,-240.63695968786,141.518943761076,99.1180159267833
1.78372591006424,252.941347256545,224.895535882886,-28.0458113736599,-238.918441569715,140.493579315103,98.4248622546128
1.78586723768737,251.353141325335,222.855560214817,-28.4975811105183,-237.104350770076,139.925361217927,97.1789895521492
1.78800856531049,253.194515323193,223.660637205673,-29.5338781175194,-238.427576264433,141.364196720356,97.063379544077
1.79014989293362,253.50512526618,223.715566616495,-29.7895586496852,-238.610345941338,141.647341957933,96.963003983405
1.79229122055675,255.062922723394,223.763257733385,-31.2996649900087,-239.41309022839,143.181293856701,96.2317963716883
1.79443254817987,256.415442248204,225.092782353144,-31.3226598950601,-240.754112300674,143.869051071632,96.8850612290421
1.796573875803,258.23379321834,226.247109572395,-31.9866836459452,-242.240451395367,145.110238432143,97.1302129632247
1.79871520342612,257.880354993622,224.673089986595,-33.2072650070266,-241.276722490108,145.543810000324,95.7329124897842
1.80085653104925,258.217549890446,224.594603970038,-33.6229459204079,-241.406076930242,145.920247905427,95.4858290248153
1.80299785867238,259.798429083327,225.170519393852,-34.6279096894748,-242.48447423859,147.213169386401,95.2713048521888
1.8051391862955,261.170988760349,224.382425894164,-36.7885628661853,-242.776707327256,148.979775813267,93.7969315139892
1.80728051391863,260.430503153357,223.05412400952,-37.3763791438374,-241.742313581438,148.903441148597,92.8388724328412
1.80942184154176,260.431653631103,225.765212323504,-34.6664413075994,-243.098432977303,147.549047469351,95.5493855079521
1.81156316916488,261.076711492487,227.474989427845,-33.6017220646422,-244.275850460166,147.339216778564,96.9366336816013
1.81370449678801,259.060531247923,225.095107639127,-33.9654236087967,-242.077819443525,146.51297742836,95.5648420151649
1.81584582441113,256.665973096835,223.028833508894,-33.6371395879414,-239.847403302865,145.151556342388,94.6958469604763
1.81798715203426,255.875074548551,223.811077503469,-32.0639970450827,-239.84307602601,143.969535796817,95.8735402291929
1.82012847965739,254.544337249101,221.269946775038,-33.2743904740626,-237.907142012069,143.909363861582,93.9977781504877
1.82226980728051,253.388957150381,219.063672198466,-34.3252849519147,-236.226314674424,143.857121051148,92.3691936232757
1.82441113490364,253.673944624881,221.656541192843,-32.0174034320382,-237.665242908862,142.84567402846,94.8195688804022
1.82655246252677,255.20949600078,221.975559291155,-33.2339367096259,-238.592527645968,144.221716355203,94.3708112907643
1.82869379014989,253.966464960899,220.964420974565,-33.002043986334,-237.465442967732,143.484254473616,93.9811884941154
1.83083511777302,255.46346962491,222.018701834209,-33.4447677907011,-238.74108572956,144.454118707806,94.2869670217539
1.83297644539615,256.119148307317,222.934055393621,-33.1850929136966,-239.526601850469,144.652120610507,94.8744812399621
1.83511777301927,256.688425279655,222.440670749525,-34.24775453013,-239.56454801459,145.468089904892,94.0964581096975
1.8372591006424,257.826745068601,221.368242617581,-36.45850245102,-239.597493843091,147.142623759811,92.4548700832807
1.83940042826552,260.103181346512,222.369310094732,-37.73387125178,-241.236245720622,148.918526299146,92.3177194214761
1.84154175588865,262.079641443172,223.882521424092,-38.1971200190799,-242.981081433632,150.138380731126,92.8427007025063
1.84368308351178,263.795654560515,223.264153172668,-40.5315013878472,-243.529903866592,152.163577974181,91.3663258924106
1.8458244111349,264.641481973657,225.303506018017,-39.3379759556396,-244.972493995837,151.989728964648,92.9827650311886
1.84796573875803,266.663968903208,227.074124225499,-39.5898446777089,-246.869046564354,153.126906790458,93.7421397738952
1.85010706638116,267.775884704757,226.035184210339,-41.7407004944179,-246.905534457548,154.758292599587,92.1472418579604
1.85224839400428,268.74127839222,226.421267938241,-42.3200104539783,-247.58127316523,155.530644423099,92.0506287421315
1.85438972162741,270.867575813809,228.688652649687,-42.1789231641226,-249.778114231748,156.523249488966,93.254864742782
1.85653104925054,273.357740509416,231.301312932476,-42.0564275769405,-252.329526720946,157.707084043178,94.6224426777677
1.85867237687366,273.587588113371,230.993455345452,-42.5941327679196,-252.290521729412,158.090860440645,94.1996612887661
1.86081370449679,275.075265645876,232.658342490115,-42.4169231557616,-253.866804067995,158.746094400819,95.1207096671766
1.86295503211991,276.366905261808,235.391957990162,-40.9749472716466,-255.879431625985,158.670926266727,97.2085053592575
1.86509635974304,277.488339753486,233.900998836431,-43.5873409170547,-255.694669294958,160.53784033527,95.1568289596881
1.86723768736617,276.529820849047,233.250569020399,-43.2792518286489,-254.890194934723,159.904536338848,94.9856585958748
1.86937901498929,278.273846212991,236.550203171247,-41.7236430417439,-257.412024692119,159.998744627367,97.4132800647515
1.87152034261242,279.788053561048,236.194734848516,-43.5933187125324,-257.991394204782,161.69068613679,96.3007080679918
1.87366167023555,281.746786027413,236.530167162415,-45.2166188649977,-259.138476594914,163.481702446205,95.6567741487088
1.87580299785867,284.735525537989,240.041692997494,-44.6938325404944,-262.388609267741,164.714679039242,97.6739302285
1.8779443254818,286.686366499982,245.022666342717,-41.6637001572657,-265.854516421349,164.175033328624,101.679483092725
1.88008565310493,287.736077443288,245.482920647938,-42.2531567953507,-266.609499045613,164.99461711932,101.614881926293
1.88222698072805,288.64746328466,246.526584173813,-42.1208791108473,-267.587023729236,165.384171197754,102.202852531483
1.88436830835118,289.438751740924,247.432719492972,-42.0060322479517,-268.435735616948,165.722391994438,102.71334362251
1.8865096359743,290.125768581206,247.575390324569,-42.5503782566377,-268.850579452888,166.338073418922,102.512506033965
1.88865096359743,290.722254142312,247.69926078312,-43.0229933591925,-269.210757462716,166.872623750752,102.338133711964
1.89079229122056,293.172315097159,251.027103213955,-42.145211883204,-272.099709155557,167.658763490181,104.440945665375
1.89293361884368,295.299520571183,254.560479963489,-40.7390406076939,-274.930000267336,168.019280589439,106.910719677898
1.89507494646681,296.502355686634,253.119834958207,-43.3825207284278,-274.811095322421,169.942438207531,104.868657114889
1.89721627408994,296.258569869245,254.445266132133,-41.8133037371121,-275.351918000689,169.035936803178,106.31598119751
1.89935760171306,298.623144747366,258.172275266127,-40.4508694812395,-278.397710006746,169.537007114303,108.860702892443
1.90149892933619,299.388011052551,257.543805827932,-41.8442052246188,-278.465908440242,170.616108138585,107.849800301657
1.90364025695931,299.408028519446,256.354093628874,-43.0539348905716,-277.88106107416,171.230981705009,106.650079369151
1.90578158458244,300.069467182505,258.541450059014,-41.5280171234905,-279.30545862076,170.798742152998,108.506716467762
1.90792291220557,302.575922078799,261.084627744756,-41.4912943340432,-281.830274911777,172.033608206421,109.796666705356
1.91006423982869,304.108031225362,260.716443593,-43.3915876323625,-282.412237409181,173.749809428862,108.662427980319
1.91220556745182,305.438247503012,262.328953673952,-43.1092938290604,-283.883600588482,174.273770666036,109.609829922446
1.91434689507495,307.881293211766,266.305212044498,-41.5760811672673,-287.093252628132,174.728687189516,112.364565438616
1.91648822269807,308.714289895561,265.893147157114,-42.8211427384467,-287.303718526338,175.767716317004,111.536002209334
1.9186295503212,309.437518883848,263.603204939677,-45.8343139441708,-286.520361911762,177.635916414009,108.884445497753
1.92077087794433,309.421385769159,265.479372564886,-43.9420132042736,-287.450379167023,176.681699486716,110.768679680306
1.92291220556745,308.119260612626,263.243955274537,-44.8753053380889,-285.681607943582,176.497282975357,109.184324968224
1.92505353319058,307.632781294121,262.591226884606,-45.0415544095156,-285.112004089363,176.337167851818,108.774836237545
1.9271948608137,307.85446651662,264.600747380446,-43.2537191361739,-286.227606948533,175.554092826397,110.673514122136
1.92933618843683,310.623175235613,266.989523367661,-43.6336518679511,-288.806349301637,177.128413551782,111.677935749855
1.93147751605996,313.027038833932,267.131342706414,-45.8956961275181,-290.079190770173,179.461367480725,110.617823289448
1.93361884368308,315.758193570777,267.254473877139,-48.5037196936383,-291.506333723958,182.130956632208,109.37537709175
1.93576017130621,319.41756981746,271.225733426639,-48.1918363908212,-295.32165162205,183.804703104141,111.516948517909
1.93790149892934,321.950674715912,272.09744640966,-49.8532283062513,-297.024060562786,185.901951511082,111.122109051705
1.94004282655246,323.505922074755,273.49834886464,-50.0075732101145,-298.502135469698,186.756747642435,111.745387827263
1.94218415417559,326.144345513516,277.290884091719,-48.8534614217978,-301.717614802617,187.498903467657,114.21871133496
1.94432548179872,327.791033117967,280.58366000389,-47.2073731140765,-304.187346560928,187.499203116022,116.688143444907
1.94646680942184,329.220729338082,280.866296170473,-48.3544331676089,-305.043512754277,188.787581252845,116.255931501432
1.94860813704497,330.462028098263,281.755747093575,-48.7062810046881,-306.108887595919,189.584154551476,116.524733044444
1.95074946466809,333.47193233541,285.104227042699,-48.3677052927105,-309.288079689055,190.91981881406,118.368260874994
1.95289079229122,334.15303107891,286.079285863587,-48.0737452153232,-310.116158471249,191.113388147117,119.002770324132
1.95503211991435,334.100319410063,285.637738851853,-48.4625805582099,-309.869029130958,191.281449984136,118.587579146821
1.95717344753747,334.054553793376,288.474671399192,-45.579882394184,-311.264612596284,189.81721809378,121.447394502504
1.9593147751606,334.658877903749,289.649650692657,-45.0092272110922,-312.154264298203,189.834052557421,122.320211740782
1.96145610278373,335.827626512733,290.025738726657,-45.8018877860763,-312.926682619695,190.814757149405,122.11192547029
1.96359743040685,338.130481869086,291.640385934223,-46.4900959348631,-314.885433901654,192.310288901974,122.57514499968
1.96573875802998,340.773938671392,296.26255879989,-44.511379871502,-318.518248735641,192.642659271447,125.875589464194
1.9678800856531,345.001232319506,298.343470329845,-46.6577619896611,-321.672351324675,195.829497154583,125.842854170092
1.97002141327623,348.67147659273,302.08234781004,-46.58912878269,-325.376912201385,197.63030268771,127.746609513675
1.97216274089936,353.146194350993,305.972595683653,-47.1735986673402,-329.559395017323,200.159896509167,129.399498508156
1.97430406852248,355.743140579224,307.418031248574,-48.3251093306499,-331.580585913899,202.034124954937,129.546460958962
1.97644539614561,357.353816610527,308.028936322529,-49.3248802879987,-332.691376466528,203.339348449263,129.352028017265
1.97858672376874,359.396305650649,309.847457679347,-49.5488479713021,-334.621881664998,204.472576810975,130.149304854022
1.98072805139186,362.457764756967,312.714462324854,-49.7433024321126,-337.586113540911,206.10053359454,131.485579946371
1.98286937901499,363.827683741372,312.627433007262,-51.2002507341094,-338.227558374317,207.513967237741,130.713591136577
1.98501070663812,364.373023392093,312.551871931765,-51.8211514603282,-338.462447661929,208.097087426211,130.365360235719
1.98715203426124,365.490560187264,315.062503825779,-50.4280563614849,-340.276532006521,207.959308274374,132.317223732147
1.98929336188437,367.104893152132,316.598239548406,-50.5066536037254,-341.851566350269,208.805773377928,133.04579297234
1.99143468950749,365.930262299181,314.067250588597,-51.8630117105847,-339.998756443889,208.896637004883,131.102119439006
1.99357601713062,363.622299828437,313.157899328937,-50.4644004995005,-338.390099578687,207.043350163969,131.346749414718
1.99571734475375,362.90658586072,314.944613297386,-47.9619725633343,-338.925599579053,205.434279212027,133.491320367026
1.99785867237687,360.997066746439,312.631530058378,-48.3655366880618,-336.814298402409,204.681301717251,132.132996685158
2,358.695114511851,310.623252134451,-48.0718623774,-334.659183323151,203.383488444626,131.275694878526
2.00214132762313,357.984618784614,312.743967890518,-45.240650894096,-335.364293337566,201.612634839355,133.751658498211
2.00428265524625,358.01180724164,313.941168467147,-44.0706387744928,-335.976487854394,201.041223008066,134.935264846327
2.00642398286938,356.10323599249,311.11625465037,-44.98698134212,-333.60974532143,200.545108667305,133.064636654125
2.00856531049251,355.090224693072,311.883887287327,-43.2063374057445,-333.487055990199,199.148281049408,134.338774940791
2.01070663811563,352.922584445047,311.906306554094,-41.0162778909531,-332.41444549957,196.969431168,135.44501433157
2.01284796573876,349.108406877533,308.061417610502,-41.0469892670312,-328.584912244017,195.077698072282,133.507214171735
2.01498929336188,345.152781545609,303.435068890536,-41.7177126550724,-324.293925218072,193.43524710034,130.858678117732
2.01713062098501,341.718406640521,302.638649751728,-39.0797568887933,-322.178528196124,190.399081764657,131.779446431467
2.01927194860814,336.160358715243,300.659060347405,-35.5012983678376,-318.409709531324,185.83082854154,132.578880989784
2.02141327623126,330.690660615582,298.296271298023,-32.3943893175592,-314.493465956802,181.542524966571,132.950940990232
2.02355460385439,327.229847051896,297.532955494943,-29.6968915569526,-312.38140127342,178.463369304424,133.918031968995
2.02569593147752,324.869139344369,296.870225226332,-27.9989141180372,-310.86968228535,176.434026731203,134.435655554147
2.02783725910064,320.887335679269,292.430471963426,-28.4568637158428,-306.658903821348,174.672099697556,131.986804123792
2.02997858672377,317.430232076954,289.21982381552,-28.2104082614346,-303.325027946237,172.820320169195,130.504707777043
2.03211991434689,315.07274545261,288.364434083462,-26.7083113691476,-301.718589768036,170.890528410879,130.828061357157
2.03426124197002,311.737797401399,283.757408955564,-27.9803884458356,-297.747603178481,169.859092923617,127.888510254864
2.03640256959315,308.198251370839,281.045590091048,-27.1526612797913,-294.621920730944,167.675456325315,126.946464405628
2.03854389721627,305.769186125437,281.91141465301,-23.8577714724274,-293.840300389223,164.813478798932,129.026821590291
2.0406852248394,303.660209662398,280.730968681561,-22.9292409808372,-292.19558917198,163.294725321618,128.900863850362
2.04282655246253,301.18508346523,275.197662440311,-25.9874210249188,-288.191372952771,163.586252245075,124.605120707696
2.04496788008565,298.392056720645,272.969740638568,-25.4223160820769,-285.680898679606,161.907186401361,123.773712278246
2.04710920770878,297.2551975661,271.679461035981,-25.5757365301187,-284.46732930104,161.415467048109,123.051862252931
2.04925053533191,294.980029448268,267.338912406454,-27.6411170418134,-281.159470927361,161.310573245041,119.84889768232
2.05139186295503,293.004670400566,264.214396254062,-28.7902741465037,-278.609533327314,160.897472273535,117.712061053779
2.05353319057816,291.933672229271,265.365965481259,-26.5677067480122,-278.649818855265,159.250689488642,119.399129366623
2.05567451820128,291.003804273071,266.365787285269,-24.6380169878015,-278.68479577917,157.820910630436,120.863885148734
2.05781584582441,289.55241018561,262.725445191553,-26.8269649940568,-276.138927688582,158.189687589833,117.949240098748
2.05995717344754,288.292272783026,262.141043192368,-26.1512295906579,-275.216657987697,157.221751186842,117.994906800855
2.06209850107066,288.48630729173,262.277709443416,-26.2085978483144,-275.382008367573,157.347452570022,118.034555797551
2.06423982869379,287.36665503166,258.532012648441,-28.8346423832192,-272.94933384005,158.100648707439,114.848685132611
2.06638115631692,287.038603340619,255.923962046094,-31.1146412945244,-271.481282693357,159.076622317572,112.404660375785
2.06852248394004,286.753780486899,254.947703900907,-31.806076585993,-270.850742193903,159.279928536446,111.570813657457
2.07066381156317,285.862431026196,253.456032666969,-32.4063983592273,-269.659231846582,159.134414692712,110.524817153871
2.0728051391863,282.512302718255,249.584689668563,-32.9276130496921,-266.048496193409,157.719957883973,108.328538309435
2.07494646680942,278.315517813999,248.155667798961,-30.1598500150387,-263.23559280648,154.237683914519,108.997908891961
2.07708779443255,272.095526062192,244.982777565417,-27.1127484967751,-258.539151813804,149.604137279483,108.935014534321
2.07922912205567,265.407052444879,237.719580346298,-27.6874720985804,-251.563316395588,146.54726227173,105.016054123859
2.0813704496788,259.599948885487,233.345664044123,-26.2542848413634,-246.472806464805,142.927116863425,103.54568960138
2.08351177730193,256.490250274523,231.480295200883,-25.0099550736393,-243.985272737703,140.750102674081,103.235170063622
2.08565310492505,255.078448520571,228.572616371591,-26.5058321489798,-241.825532446081,140.792140334775,101.033392111306
2.08779443254818,254.496745180011,226.048095375434,-28.4486498045775,-240.272420277723,141.472697492294,98.7997227854283
2.08993576017131,255.279813462609,227.720595715878,-27.5592177467313,-241.500204589244,141.41951560467,100.080688984573
2.09207708779443,258.535929287169,229.816762199644,-28.7191670875252,-244.176345743407,143.627548187347,100.54879755606
2.09421841541756,262.6510901531,229.060471509596,-33.5906186435048,-245.855780831348,148.120854398303,97.7349264330454
2.09635974304069,266.223977881948,231.624135559635,-34.599842322313,-248.924056720792,150.411910102131,98.5121466186611
2.09850107066381,275.766640100605,238.358387051952,-37.4082530486531,-257.062513576278,156.587446574629,100.475067001649
2.10064239828694,287.916176997968,244.205236131186,-43.7109408667817,-266.060706564577,165.813558932375,100.247147632202
2.10278372591006,302.973128035287,253.790032689545,-49.1830953457426,-278.381580362416,176.078111690515,102.303468671901
2.10492505353319,323.13060620765,270.484564606999,-52.6460416006516,-296.807585407324,187.888323904151,108.919261503174
2.10706638115632,344.496197325142,288.199478385531,-56.2967189396117,-316.347837855337,200.396458132377,115.95137972296
2.10920770877944,367.554761933415,307.444372734668,-60.110389198747,-337.499567334042,213.832575566081,123.666991767961
2.11134903640257,392.08320935005,328.661694264696,-63.4215150853538,-360.372451807373,227.752362217702,132.620089589671
2.1134903640257,414.667551612637,349.659350469936,-65.0082011427011,-382.163451041286,239.837876377669,142.325574663617
2.11563169164882,432.987736196191,365.313815734019,-67.6739204621718,-399.150775965105,250.330828329181,148.819947635924
2.11777301927195,445.673493251999,377.617304179312,-68.0561890726878,-411.645398715655,256.864841162344,154.780557553312
2.11991434689507,453.467296474452,387.011388996028,-66.4559074784242,-420.23934273524,259.961601976438,160.277740758802
2.1220556745182,455.725662506811,390.659160365656,-65.0665021411552,-423.192411436233,260.396082323983,162.79632911225
2.12419700214133,451.889902669843,386.741599741245,-65.1483029285986,-419.315751205544,258.519102799221,160.796648406323
2.12633832976445,445.983362098863,384.628391561522,-61.3549705373409,-415.305876830192,253.669166318102,161.63671051209
