t,leadI,leadII,leadIII,aVR,aVL,aVF
0,0.107417107104598,-5.10520054767804,-5.21261765478264,2.49889172028672,2.66001738094362,-5.15890910123034
0.00216052716862915,0.210631048468652,8.92564203423797,8.71501098576931,-4.56813654135331,-4.25218996865033,8.82032651000364
0.00432105433725829,0.228655374601093,19.431193419391,19.2025380447899,-9.82992439699602,-9.48694133509438,19.3168657320904
0.00648158150588744,0.113645328968114,26.0590385581807,25.9453932292126,-13.0863419435744,-12.9158739501223,26.0022158936967
0.00864210867451658,-0.0772868456029139,29.4199989694513,29.4972858150543,-14.6713560619242,-14.7872863303286,29.4586423922528
0.0108026358431457,-0.226186743088943,30.4636055241441,30.689792267233,-15.1187093905276,-15.457989505161,30.5766988956885
0.0129631630117749,-0.246128495889382,30.1294674402181,30.3755959361075,-14.9416694721644,-15.3108622159984,30.2525316881628
0.015123690180404,-0.135379733691906,29.2094418432865,29.3448215769784,-14.5370310547973,-14.7401006553352,29.2771317101325
0.0172842173490332,0.0524950805108562,28.3097102366558,28.2572151561449,-14.1811026585833,-14.102360037817,28.2834626964004
0.0194447445176623,0.25266857294262,27.7922522960757,27.5395837231331,-14.0224604345092,-13.6434575750952,27.6659180096044
0.0216052716862915,0.404114600609407,27.7292192407899,27.3251046401805,-14.0666669206997,-13.4604950197856,27.5271619404852
0.0237657988549206,0.468992117981731,27.9930445056772,27.5240523876955,-14.2310183118295,-13.5275301348569,27.7585484466864
0.0259263260235497,0.455051035269814,28.4193382076478,27.964287172378,-14.4371946214588,-13.7546180685541,28.1918126900129
0.0280868531921789,0.41482250086396,28.8913905837562,28.4765680828922,-14.6531065423101,-14.0308727910141,28.6839793333242
0.030247380360808,0.409612221004525,29.33910590601,28.9294936850055,-14.8743590635073,-14.2599407320005,29.1342997955078
0.0324079075294372,0.452695119168689,29.7139893099761,29.2612941908074,-15.0833422145724,-14.4042995358193,29.4876417503917
0.0345684346980663,0.503204883872955,29.9650436553052,29.4618387714323,-15.2341242695891,-14.4793169437797,29.7134412133688
0.0367289618666955,0.526873883485584,30.0157647908582,29.4888909073726,-15.2713193371719,-14.4810085119435,29.7523278491154
0.0388894890353246,0.527384070086899,29.7425843102029,29.215200240116,-15.1349841901449,-14.3439080850146,29.4788922751595
0.0410500162039538,0.515563950629084,28.9799897314408,28.4644257808117,-14.7477768410349,-13.9744309150913,28.7222077561262
0.0432105433725829,0.48591959121953,27.5802116393671,27.0942920481476,-14.0330656152933,-13.304186228464,27.3372518437574
0.0453710705412121,0.423587829503294,25.5218982373511,25.0983104078478,-12.9727430334272,-12.3373612891722,25.3101043225994
0.0475315977098412,0.319135997071963,23.0406423973063,22.7215064002343,-11.6798891971891,-11.2011852015812,22.8810743987703
0.0496921248784703,0.185999868854357,20.6904688750106,20.5044690061562,-10.4382343719325,-10.1592345686509,20.5974689405834
0.0518526520470995,0.0633725598422554,19.1922667226381,19.1288941627959,-9.62781964124019,-9.53276080147681,19.160580442717
0.0540131792157286,-0.00817582876264478,19.0846946979261,19.0928705266888,-9.53825943458174,-9.55052317772571,19.0887826123074
0.0561737063843578,-0.0177773978466629,20.4164138869484,20.4341912847951,-10.1993182445509,-10.2259843413209,20.4253025858718
0.0583342335529869,0.00446879539377854,22.698555535003,22.6940867396092,-11.3515121651984,-11.3448089721077,22.6963211373061
0.0604947607216161,0.00706752395895194,25.1385317273668,25.1314642034078,-12.5727996256629,-12.5621983397244,25.1349979653873
0.0626552878902452,-0.047907725907244,27.0041887812739,27.0520965071812,-13.4781405276833,-13.5500021165442,27.0281426442275
0.0648158150588744,-0.154548816413219,27.9020337480275,28.0565825644407,-13.8737424658071,-14.1055656904269,27.9793081562341
0.0669763422275035,-0.252922620978235,27.8605755848911,28.1134982058694,-13.8038264819565,-14.1832104134238,27.9870368953803
0.0691368693961327,-0.274088751417086,27.2777617453216,27.5518504967387,-13.5018364969522,-13.9129696240779,27.4148061210301
0.0712973965647618,-0.214727531957255,26.7614126106239,26.9761401425812,-13.2733425393333,-13.5954338372692,26.8687763766026
0.0734579237333909,-0.135520134273329,26.8191928369374,26.9547129712107,-13.341836351332,-13.545116552742,26.8869529040741
0.0756184509020201,-0.0836796825698833,27.5372632254062,27.620942907976,-13.7267917714181,-13.852311295273,27.5791030666911
0.0777789780706492,-0.0520755464068925,28.543778758627,28.5958543050339,-14.2458516061101,-14.3239649257204,28.5698165318305
0.0799395052392784,-0.00145249072030396,29.3025918375041,29.3040443282244,-14.6505696733919,-14.6527484094723,29.3033180828642
0.0821000324079075,0.105921714042681,29.4416693813432,29.3357476673005,-14.7737955476929,-14.6149129766289,29.3887085243219
0.0842605595765367,0.276640372170899,28.9015047927082,28.6248644205373,-14.5890725824396,-14.1741120241832,28.7631846066228
0.0864210867451658,0.47026506522677,27.9566338449293,27.4863687797025,-14.213449455078,-13.5080518572379,27.7215013123159
0.088581613913795,0.625834885047801,27.1370078534683,26.5111729684205,-13.8814213692581,-12.9426690416864,26.8240904109444
0.0907421410824241,0.710191822732468,26.9611016845161,26.2509098617836,-13.8356467536243,-12.7703590195256,26.6060057731498
0.0929026682510533,0.734099966199787,27.5903791375218,26.8562791713221,-14.1622395518608,-13.0610896025611,27.2233291544219
0.0950631954196824,0.732529989684017,28.7187508264175,27.9862208367335,-14.7256404080508,-13.6268454235247,28.3524858315755
0.0972237225883115,0.731976505323965,29.7909926407108,29.0590161353868,-15.2614845730174,-14.1635198150314,29.4250043880488
0.0993842497569407,0.726262485279062,30.326838101766,29.6005756164869,-15.5265502935225,-14.4371565656039,29.9637068591265
0.10154477692557,0.688205436112491,30.1323530938557,29.4441476577432,-15.4102792649841,-14.3779711108153,29.7882503757994
0.103705304094199,0.600010917247612,29.3614388612402,28.7614279439926,-14.9807248892439,-14.0807085133725,29.0614334026164
0.105865831262828,0.469043601074701,28.4470063686102,27.9779627675355,-14.4580249848424,-13.7544595832304,28.2124845680728
0.108026358431457,0.323974873079003,27.8863502411858,27.5623753681068,-14.1051625571324,-13.6192002475139,27.7243628046463
0.110186885600086,0.196535040577447,27.9676754542094,27.771140413632,-14.0821052473934,-13.7873026865273,27.8694079339207
0.112347412768716,0.115688617416012,28.6187220691394,28.5030334517234,-14.3672053432777,-14.1936724171537,28.5608777604314
0.114507939937345,0.111706056620746,29.4454326158413,29.3337265592206,-14.778569336231,-14.6110102512999,29.3895795875309
0.116668467105974,0.19327729694649,29.9365647270551,29.7432874301086,-15.0649210120008,-14.7750050665811,29.8399260785819
0.118828994274603,0.32462036669143,29.7557015794261,29.4310812127347,-15.0401609730588,-14.5532304230216,29.5933913960804
0.120989521443232,0.448486927016637,28.9341965505986,28.485709623582,-14.6913417388076,-14.0186113482827,28.7099530870903
0.123150048611861,0.528604258831683,27.8536621209645,27.3250578621328,-14.1911331898981,-13.3982268016506,27.5893599915486
0.12531057578049,0.563213176114623,27.0785148629996,26.5153016868849,-13.8208640195571,-12.9760442553852,26.7969082749422
0.12747110294912,0.56084794103441,27.087691489248,26.5268435482135,-13.8242697151412,-12.9829978035896,26.8072675187308
0.129631630117749,0.51396068043222,27.9611434848521,27.4471828044199,-14.2375520826422,-13.4666110619938,27.704163144636
0.131792157286378,0.416516481616959,29.2514447543816,28.8349282727647,-14.8339806179993,-14.2092058955739,29.0431865135731
0.133952684455007,0.296864147717509,30.2279051441357,29.9310409964182,-15.2623846459266,-14.8170884243503,30.0794730702769
0.136113211623636,0.196483357199171,30.3151545240527,30.1186711668535,-15.2558189406259,-14.9610939048272,30.2169128454531
0.138273738792265,0.127300870139722,29.3922142372524,29.2649133671127,-14.7597575536961,-14.5688062484865,29.3285638021825
0.140434265960894,0.0800157473758105,27.8389466187395,27.7589308713637,-13.9594811830577,-13.8394575619939,27.7989387450516
0.142594793129524,0.0535313751994497,26.3776983408785,26.324166965679,-13.215614858039,-13.1353177952398,26.3509326532787
0.144755320298153,0.0535896583531192,25.7248805522814,25.6712908939283,-12.8892351053172,-12.8088506177876,25.6980857231048
0.146915847466782,0.0834438353405718,26.1665665385387,26.0831227031981,-13.1250051869396,-12.9998394339288,26.1248446208684
0.149076374635411,0.149266359947685,27.3698735301579,27.2206071702102,-13.7595699450528,-13.5356704051313,27.2952403501841
0.15123690180404,0.251352326113271,28.5967951632383,28.345442837125,-14.4240737446758,-14.0470452555059,28.4711190001816
0.153397428972669,0.361089230118039,29.1225592805566,28.7614700504385,-14.7418242553373,-14.2001904101602,28.9420146654976
0.155557956141298,0.430364752586212,28.5943753407456,28.1640105881593,-14.5123700466659,-13.8668229177866,28.3791929644525
0.157718483309928,0.429776627049085,27.2217496997848,26.7919730727357,-13.825763163417,-13.1810982228433,27.0068613862603
0.159879010478557,0.372394361177842,25.7112770338503,25.3388826726724,-13.041835697514,-12.4832441557473,25.5250798532613
0.162039537647186,0.307315327510372,24.8911924137399,24.5838770862296,-12.5992538706252,-12.1382808793596,24.7375347499847
0.164200064815815,0.287882157415447,25.2277785673844,24.939896409969,-12.7578303623999,-12.3260071262768,25.0838374886767
0.166360591984444,0.340343672051323,26.5671410053596,26.2267973333083,-13.4537423387055,-12.9432268306285,26.3969691693339
0.168521119153073,0.45832977007464,28.2228890724471,27.7645593023725,-14.3406094212609,-13.6531147661489,27.9937241874098
0.170681646321702,0.615429087091248,29.3221093781573,28.7066802910661,-14.9687692326243,-14.0456256019874,29.0143948346117
0.172842173490332,0.773033887946196,29.2527899159289,28.4797560279827,-15.0129119019375,-13.8533610700182,28.8662729719558
0.175002700658961,0.885374529541241,27.9986875915895,27.1133130620483,-14.4420310605654,-13.1139692662535,27.5560003268189
0.17716322782759,0.916268902674968,26.1647392188389,25.2484703161639,-13.5405040607569,-12.1661007067445,25.7066047675014
0.179323754996219,0.848073298182562,24.6589735900709,23.8109002918883,-12.7535234441267,-11.4814134968529,24.2349369409796
0.181484282164848,0.679912913001532,24.2161249743644,23.5362120613629,-12.448018943683,-11.4281495741807,23.8761685178636
0.183644809333477,0.445217305695577,25.0264883833933,24.5812710776977,-12.7358528445444,-12.0680268860011,24.8038797305455
0.185805336502107,0.224927766138107,26.6409809494003,26.4160531832622,-13.4329543577692,-13.095562708562,26.5285170663312
0.187965863670736,0.107238580658362,28.2088390811017,28.1016005004433,-14.15803883088,-13.9971809598925,28.1552197907725
0.190126390839365,0.122941080685439,28.9497443170522,28.8268032363668,-14.5363426988688,-14.3519310778407,28.8882737767095
0.192286918007994,0.231562406090602,28.586234925975,28.3546725198844,-14.4088986660328,-14.0615550568969,28.4704537229297
0.194447445176623,0.362005962799095,27.4809210418809,27.1189150790819,-13.92146350234,-13.3784545581414,27.2999180604814
0.196607972345252,0.446612876797678,26.4274276698599,25.9808147930622,-13.4370202733288,-12.7671009581323,26.204121231461
0.198768499513881,0.436047433833522,26.2107135577268,25.7746661238932,-13.3233804957801,-12.6693093450299,25.99268984081
0.200929026682511,0.32856362455013,27.1461685408341,26.817604916284,-13.7373660826921,-13.2445206458669,26.981886728559
0.20308955385114,0.193707614021301,28.871258285207,28.6775506711857,-14.5324829496142,-14.2419215285822,28.7744044781964
0.205250081019769,0.132548218188052,30.554914235727,30.4223660175389,-15.3437312269575,-15.1449088996754,30.488640126633
0.207410608188398,0.187517379310345,31.375009858675,31.1874924793646,-15.7812636189927,-15.4999875500271,31.2812511690198
0.209571135357027,0.305741516047477,30.9536891269732,30.6479476109258,-15.6297153215104,-15.1711030474391,30.8008183689495
0.211731662525656,0.405199885216608,29.5666448665052,29.1614449812886,-14.9859223758609,-14.378122548036,29.3640449238969
0.213892189694285,0.448232800684403,28.0290573184088,27.5808245177244,-14.2386450595466,-13.56629585852,27.8049409180666
0.216052716862915,0.440450193741959,27.2344028505954,26.7939526568535,-13.8374265221687,-13.1767512315557,27.0141777537244
0.218213244031544,0.403831353340126,27.605850707441,27.2020193541009,-14.0048410303906,-13.3990940003804,27.403935030771
0.220373771200173,0.370438917037207,28.8710555185691,28.5006166015318,-14.6207472178031,-14.0650888422473,28.6858360600504
0.222534298368802,0.366814508566376,30.2601476687157,29.8933331601493,-15.313481088641,-14.7632593257915,30.0767404144325
0.224694825537431,0.392752825908995,30.8961425578992,30.5033897319902,-15.6444476919041,-15.0553184530406,30.6997661449447
0.22685535270606,0.427309098547074,30.2088272298905,29.7815181313434,-15.3180681642188,-14.6771045163982,29.995172680617
0.229015879874689,0.45036885315747,28.2737823128654,27.8234134597079,-14.3620755830114,-13.6865223032752,28.0485978862866
0.231176407043319,0.457723973791221,25.8416154941553,25.3838915203641,-13.1496697339733,-12.4630837732865,25.6127535072597
0.233336934211948,0.453579107430808,23.9411774443702,23.4875983369394,-12.1973782759005,-11.5170096147543,23.7143878906548
0.235497461380577,0.432649445535023,23.3241133698133,22.8914639242783,-11.8783814076742,-11.2294072393716,23.1077886470458
0.237657988549206,0.392193971590836,24.0987192970603,23.7065253254694,-12.2454566343255,-11.6571656769393,23.9026223112648
0.239818515717835,0.35108304722998,25.6712590138283,25.3201759665983,-13.0111710305291,-12.4845464596842,25.4957174902133
0.241979042886464,0.329689558883637,26.9997852481749,26.6700956892913,-13.6647374035293,-13.1702030652038,26.8349404687331
0.244139570055093,0.324086966935096,27.1197148834414,26.7956279165063,-13.7219009251882,-13.2357704747856,26.9576713999738
0.246300097223723,0.313908396123935,25.681131787368,25.3672233912441,-12.997520091746,-12.5266574975601,25.5241775893061
0.248460624392352,0.286757894130632,23.1054660530621,22.8187081589314,-11.6961119735963,-11.2659751324004,22.9620871059967
0.250621151560981,0.256894020045533,20.2592352207638,20.0023412007183,-10.2580646204047,-9.87272359033637,20.130788210741
0.25278167872961,0.255528458203659,17.9321399305142,17.6766114723105,-9.09383419435891,-8.71054150705342,17.8043757014123
0.254942205898239,0.292031605853006,16.4235472646257,16.1315156587726,-8.35778943523933,-7.91974202645982,16.2775314616992
0.257102733066868,0.336527215160117,15.3775784646315,15.0410512494714,-7.8570528398958,-7.35226201715562,15.2093148570514
0.259263260235497,0.34673072434082,13.9628680296577,13.6161373053169,-7.15479937699924,-6.63470329048801,13.7895026674873
0.261423787404127,0.300476616417575,11.3504650676699,11.0499884512523,-5.82547084204375,-5.37475591741738,11.2002267594611
0.263584314572756,0.201826070913635,7.19097188459637,6.98914581368273,-3.696398977755,-3.39365987138455,7.09005884913955
0.265744841741385,0.0737242407432559,1.81449644928603,1.74077220854277,-0.944110345014641,-0.833523983899757,1.7776343289144
0.267905368910014,-0.0457273112521666,-3.92323440877578,-3.87750709752362,1.98448086001398,1.91588989313573,-3.9003707531497
0.270065896078643,-0.116566615523593,-9.09563260823961,-8.97906599271602,4.6060996118816,4.43124968859621,-9.03734930047782
0.272226423247272,-0.122489563705601,-13.2561972279801,-13.1337076642745,6.68934339584286,6.50560905028446,-13.1949524461273
0.274386950415901,-0.0766938390435294,-16.7569981049171,-16.6803042658736,8.41684597198032,8.30180521341502,-16.7186511853953
0.276547477584531,0.00215249674614482,-20.6067808861595,-20.6089333829057,10.3023141947067,10.3055429398259,-20.6078571345326
0.27870800475316,0.103919633513121,-25.9699198721386,-26.0738395056517,12.9330001193127,13.0888795695824,-26.0218796888951
0.280868531921789,0.220522749471181,-33.6187486664414,-33.8392714159126,16.6991129584851,17.0298970826919,-33.729010041177
0.283029059090418,0.348555577104855,-43.5838585776385,-43.9324141547433,21.6176515002668,22.1404848659241,-43.7581363661909
0.285189586259047,0.49029794261677,-55.1629621308008,-55.6532600734176,27.336332094092,28.0717790080172,-55.4081111021092
0.287350113427676,0.63635450569974,-67.3303209047619,-67.9666754104617,33.3469831995311,34.3015149580807,-67.6484981576118
0.289510640596305,0.75908342879378,-79.3025555249194,-80.0616389537132,39.2717360480628,40.4103611912535,-79.6820972393163
0.291671167764935,0.829390842735388,-90.8666502773377,-91.6960411200731,45.0186297173012,46.2627159814042,-91.2813456987054
0.293831694933564,0.835730584390478,-102.323191514252,-103.158922098643,50.7437304649309,51.9973263415166,-102.741056806447
0.295992222102193,0.795474645885439,-114.192183930786,-114.987658576671,56.6983546424503,57.8915666112784,-114.589921253729
0.298152749270822,0.742024743906495,-126.830507816146,-127.572532560052,63.0442415361195,64.1572786519793,-127.201520188099
0.300313276439451,0.686866809246517,-140.084181388065,-140.771048197312,69.6986572894093,70.728957503279,-140.427614792688
0.30247380360808,0.612464268928681,-153.17925224898,-153.791716517909,76.2833939900256,77.2020903934186,-153.485484383444
0.304634330776709,0.512367969047609,-164.951155929506,-165.463523898553,82.2193939802291,82.9879459338005,-165.20733991403
0.306794857945339,0.409750014654945,-174.270676114239,-174.680426128894,86.9304630497922,87.5450880717746,-174.475551121567
0.308955385113968,0.331173873253818,-180.468919938906,-180.800093812159,90.0688730328259,90.5656338427066,-180.634506875532
0.311115912282597,0.291717740965747,-183.605884373411,-183.897602114377,91.6570833162228,92.0946599276714,-183.751743243894
0.313276439451226,0.295602879155501,-184.400536347359,-184.696139226515,92.0524667341019,92.4958710528351,-184.548337786937
0.315436966619855,0.322603173024936,-183.781536633753,-184.104139806778,91.7294667303639,92.2133714899013,-183.942838220265
0.317597493788484,0.32899110592702,-182.354652559937,-182.683643665864,91.0128307270049,91.5063173858954,-182.5191481129
0.319758020957114,0.270461305416682,-180.159529206745,-180.429990512162,89.9445339506642,90.3502259087892,-180.294759859453
0.321918548125743,0.126960448076253,-176.800147820878,-176.927108268955,88.336593686401,88.5270343585154,-176.863628044916
0.324079075294372,-0.0680556967726762,-171.812906424486,-171.744850727713,85.9404810606294,85.8383975154704,-171.7788785761
0.326239602463001,-0.233529608928327,-165.099139233425,-164.865609624497,82.6663344211769,82.3160400077844,-164.982374428961
0.32840012963163,-0.301542833351906,-157.177507082144,-156.875964248792,78.7395249577481,78.2872107077203,-157.026735665468
0.330560656800259,-0.268614489623402,-149.05742046071,-148.788805971086,74.6630174751665,74.2600957407314,-148.923113215898
0.332721183968888,-0.195314127757706,-141.80736154181,-141.612047414052,71.0013378347838,70.7083666431472,-141.709704477931
0.334881711137518,-0.160191639677651,-136.075419245676,-135.915227605998,68.1178054426768,67.8775179831603,-135.995323425837
0.337042238306147,-0.199291417474806,-131.799885222902,-131.600593805428,65.9995883201886,65.7006511939763,-131.700239514165
0.339202765474776,-0.284411289219019,-128.244160234782,-127.959748945563,64.2642857620003,63.8376688281718,-128.101954590172
0.341363292643405,-0.355139354629697,-124.365127663897,-124.009988309268,62.3601335092635,61.827424477319,-124.187557986582
0.343523819812034,-0.371312251225919,-119.378348716735,-119.007036465509,59.8748304839806,59.3178621071418,-119.192692591122
0.345684346980663,-0.337237044660024,-113.212462307334,-112.875225262674,56.7748496759968,56.2689941090068,-113.043843785004
0.347844874149292,-0.277203912493622,-106.556711669353,-106.27950775686,53.4169577909235,53.0011519221831,-106.418109713107
0.350005401317922,-0.203021658568219,-100.488213807004,-100.285192148436,50.3456177327861,50.0410852449338,-100.38670297772
0.352165928486551,-0.10731315009163,-95.905133027412,-95.7978198773204,48.0062230887518,47.8452533636144,-95.8514764523662
0.35432645565518,0.0237596012373675,-93.0364110150273,-93.0601706162647,46.506325706895,46.541965108751,-93.048290815646
0.356486982823809,0.189766500354518,-91.2933281564738,-91.4830946568283,45.5517808280596,45.8364305785914,-91.388211406651
0.358647509992438,0.369926454447632,-89.5983408896061,-89.9682673440537,44.6142072175792,45.1690968992507,-89.7833041168299
0.360808037161067,0.543403709594262,-86.9868845564635,-87.5302882660577,43.2217404234346,44.036845987826,-87.2585864112606
0.362968564329696,0.708325721345177,-83.0848201561736,-83.7931458775188,41.1882472174142,42.250735799432,-83.4389830168462
0.365129091498326,0.87194692063671,-78.2370305620317,-79.1089774826684,38.6825418206975,39.9904622016526,-78.67300402235
0.367289618666955,1.02971249083042,-73.2906904347328,-74.3204029255632,36.1304889719512,37.6750577081968,-73.805546680148
0.369450145835584,1.16214532232475,-69.1339395790251,-70.2960849013498,33.9858971283502,35.7291151118373,-69.7150122401874
0.371610673004213,1.24449339994331,-66.201476545463,-67.4459699454063,32.4784915727598,34.3452316726748,-66.8237232454346
0.373771200172842,1.25899496283734,-64.2418238099488,-65.5008187727862,31.4914144235557,33.3799068678118,-64.8713212913675
0.375931727341471,1.20560296019173,-62.4794586992791,-63.6850616594708,30.6369278695437,32.4453323098313,-63.0822601793749
0.3780922545101,1.10646924019759,-60.0262580350335,-61.1327272752311,29.4598943974179,31.1195982577143,-60.5794926551323
0.38025278167873,0.99825858527018,-56.3045968495855,-57.3028554348557,27.6531691321577,29.1505570100629,-56.8037261422206
0.382413308847359,0.905083372054677,-51.3049244792324,-52.2100078512871,25.1999205535889,26.5575456116709,-51.7574661652598
0.384573836015988,0.818684200031543,-45.5617544342218,-46.3804386342533,22.3715351170951,23.5995614171424,-45.9710965342376
0.386734363184617,0.713183265700559,-39.8277289961535,-40.540912261854,19.5572728652265,20.6270477637773,-40.1843206290038
0.388894890353246,0.577278727219515,-34.6434853276197,-35.2207640548392,17.0331033002001,17.8990213910294,-34.9321246912295
0.391055417521875,0.430303289053164,-30.1404691939155,-30.5707724829687,14.8550829524312,15.5005378860109,-30.3556208384421
0.393215944690504,0.299548832321121,-26.203800895579,-26.5033497279001,12.9521260316289,13.4014492801106,-26.3535753117396
0.395376471859134,0.192453337784711,-22.8431832351243,-23.0356365729091,11.3253649486698,11.6140449553469,-22.9394099040167
0.397536999027763,0.108161647670762,-20.5560062032786,-20.6641678509493,10.2239222778039,10.38616474931,-20.6100870271139
0.399697526196392,0.0531061758329854,-20.4276554063472,-20.4807615821802,10.1872746152571,10.2669338790066,-20.4542084942637
0.401858053365021,0.0200997381297551,-23.7536132074094,-23.7737129455392,11.8667567346398,11.8969063418345,-23.7636630764743
0.40401858053365,-0.0230725404733442,-31.3229202067312,-31.2998476662578,15.6729963736023,15.6383875628922,-31.3113839364945
0.406179107702279,-0.100240269717408,-42.8380912144964,-42.737850944779,21.4691657421069,21.3188053375308,-42.7879710796377
0.408339634870908,-0.210007510049808,-56.8087104883194,-56.5987029782696,28.5093589991846,28.1943477341099,-56.7037067332945
0.410500162039538,-0.341330550474742,-70.9181244935572,-70.5767939430825,35.629727522016,35.1177316963039,-70.7474592183198
0.412660689208167,-0.458400531883968,-82.7440851863772,-82.2856846544932,41.6012428591306,40.9136420613046,-82.5148849204352
0.414821216376796,-0.485062771728406,-90.6092046816463,-90.1241419099179,45.5471337266874,44.8195395690948,-90.3666732957821
0.416981743545425,-0.360924380416449,-94.129274184976,-93.7683498045595,47.2450992826962,46.7037127120715,-93.9488119947678
0.419142270714054,-0.110372846089195,-94.1480749262793,-94.0377020801902,47.1292238861843,46.9636646170505,-94.0928885032347
0.421302797882683,0.176125727892281,-92.1994064715006,-92.3755321993929,46.0116403718042,46.2758289636426,-92.2874693354467
0.423463325051313,0.421214326906792,-89.8203878300067,-90.2416021569135,44.69958675155,45.3314082419102,-90.0309949934601
0.425623852219942,0.601801595293742,-87.929836076867,-88.5316376721608,43.6640172407866,44.5667196337273,-88.2307368745139
0.427784379388571,0.728402757130385,-86.5209462287123,-87.2493489858427,42.896271735791,43.9888758714865,-86.8851476072775
0.4299449065572,0.811314712419318,-84.8866542562757,-85.697968968695,42.0376697719282,43.2546418405572,-85.2923116124853
0.432105433725829,0.848693859441015,-82.2117872518047,-83.0604811112457,40.6815466961818,41.9545874853434,-82.6361341815252
0.434265960894458,0.841985503583185,-78.1243118097064,-78.9662973132896,38.6411631530616,39.9041414084364,-78.545304561498
0.436426488063087,0.815286698657081,-72.9631833417423,-73.7784700403993,36.0739483215426,37.2968783695282,-73.3708266910708
0.438587015231717,0.797697844352075,-67.678437706178,-68.4761355505301,33.440369930913,34.6369166974411,-68.0772866283541
0.440747542400346,0.790196575553538,-63.3671265846309,-64.1573231601844,31.2884650045387,32.473759867869,-63.7622248724076
0.442908069568975,0.773029222108548,-60.68143024852,-61.4544594706285,29.9542005132057,31.1137443463685,-61.0679448595743
0.445068596737604,0.736094344434757,-59.5039031325955,-60.2399974770303,29.3839043940804,30.4880459107325,-59.8719503048129
0.447229123906233,0.692631671120328,-59.0711708704639,-59.7638025415843,29.1892695996718,30.2282171063523,-59.4174867060241
0.449389651074862,0.670643244935095,-58.3906876901265,-59.0613309350616,28.8600222225957,29.8659870899984,-58.7260093125941
0.451550178243491,0.68702706058385,-56.7171352141674,-57.4041622747512,28.0150540767918,29.0455946676675,-57.0606487444593
0.453710705412121,0.731761934575531,-53.9118777860554,-54.6436397206309,26.5900579257399,27.6877008276032,-54.2777587533432
0.45587123258075,0.772892243231322,-50.5048470480054,-51.2777392912367,24.865977402387,26.025315767234,-50.891293169621
0.458031759749379,0.771593485483031,-47.3600880551483,-48.1316815406313,23.2942472848326,24.4516375130572,-47.7458847978898
0.460192286918008,0.714971953683187,-45.1436223104808,-45.858594264164,22.2143251783988,23.2867831089236,-45.5011082873224
0.462352814086637,0.639823149938169,-43.9664671698612,-44.6062903197994,21.6633220099615,22.6230567348688,-44.2863787448303
0.464513341255266,0.60177606685638,-43.350836664682,-43.9526127315384,21.3745302989128,22.2771943991974,-43.6517246981102
0.466673868423895,0.622329106421612,-42.4661839550729,-43.0885130614945,20.9219274243256,21.855421083958,-42.7773485082837
0.468834395592525,0.679890707716536,-40.5905553830321,-41.2704460907486,19.9553323376578,20.9751683992326,-40.9305007368904
0.470994922761154,0.732087898884672,-37.5955576451292,-38.3276455440139,18.4317348731223,19.5298667214493,-37.9616015945716
0.473155449929783,0.735973562824726,-34.0720561011108,-34.8080296639356,16.6680412691431,17.7720016133801,-34.4400428825232
0.475315977098412,0.680084054854374,-30.9817305959952,-31.6618146508496,15.1508232705704,16.170949352852,-31.3217726234224
0.477476504267041,0.607654150126229,-29.130406814758,-29.7380609648843,14.2613763323159,15.1728575575052,-29.4342338898211
0.47963703143567,0.585319510937506,-28.770180452913,-29.3554999638505,14.0924304709878,14.970409737394,-29.0628402083818
0.481797558604299,0.643591391246085,-29.4738091176667,-30.1174005089128,14.4151088632103,15.3804959500794,-29.7956048132898
0.483958085772929,0.760277755841845,-30.3453743055704,-31.1056520614122,14.7925482748643,15.932964908627,-30.7255131834913
0.486118612941558,0.896410753539114,-30.479984289462,-31.3763950430011,14.7917867679614,16.1364028982701,-30.9281896662316
0.488279140110187,1.02222600657651,-29.4202116877865,-30.442437694363,14.198992840605,15.7323318504698,-29.9313246910748
0.490439667278816,1.10684277824554,-27.3692976177131,-28.4761403959586,13.1312274197338,14.7914915871021,-27.9227190068359
0.492600194447445,1.1146127680573,-25.0651503751729,-26.1797631432303,11.9752688035578,13.6471879556438,-25.6224567592016
0.494760721616074,1.02814968117616,-23.3722684947523,-24.4004181759284,11.1720594067881,12.7142839285523,-23.8863433353404
0.496921248784703,0.865901844108601,-22.7928113538265,-23.6587131979351,10.9634547548589,12.2623075210218,-23.2257622758808
0.499081775953333,0.67213020940751,-23.1820541140768,-23.8541843234843,11.2549619523346,12.2631572664459,-23.5181192187805
0.501242303121962,0.489550304371837,-23.8380720674323,-24.3276223718042,11.6742608815302,12.408586338088,-24.0828472196183
0.503402830290591,0.340592134823167,-23.8770888533553,-24.2176809881785,11.7682483592661,12.2791365615008,-24.0473849207669
0.50556335745922,0.237188713798753,-22.6863116025187,-22.9235003163175,11.22456144436,11.5803445150581,-22.8049059594181
0.507723884627849,0.199477346258404,-20.2748870794035,-20.4743644256619,10.0377048665726,10.3369208859602,-20.3746257525327
0.509884411796478,0.247221310723237,-17.3195161310373,-17.5667374417606,8.53614741015705,8.90697937624191,-17.443126786399
0.512044938965107,0.373970209834522,-14.7991992284288,-15.1731694382633,7.21261450929713,7.77356982404892,-14.9861843333461
0.514205466133737,0.549034329319871,-13.4402956859581,-13.989330015278,6.44563067831912,7.26918217229893,-13.7148128506181
0.516365993302366,0.742075314764514,-13.3413481944207,-14.0834235091852,6.29963643982811,7.41274941197488,-13.712385851803
0.518526520470995,0.920640561197879,-13.9439767682364,-14.8646173294343,6.51166810351925,7.89262894531607,-14.4042970488353
0.520687047639624,1.04053273315203,-14.3030140113677,-15.3435467445197,6.63124063910783,8.19203973883587,-14.8232803779437
0.522847574808253,1.06652075228443,-13.5769592831988,-14.6434800354832,6.25521926545718,7.85500039388383,-14.110219659341
0.525008101976882,0.98650615340243,-11.5456938869093,-12.5322000403117,5.27959386675344,6.75935309685708,-12.0389469636105
0.527168629145511,0.804494834639982,-8.77011539507026,-9.57461022971025,3.98281028021514,5.18955253217511,-9.17236281239025
0.529329156314141,0.542213761681941,-6.23411692791245,-6.77633068959439,2.84595158311526,3.65927222563817,-6.50522380875342
0.53148968348277,0.248911760521154,-4.79644318221449,-5.04535494273564,2.27376571084667,2.6471333516284,-4.92089906247507
0.533650210651399,-0.00587208760478486,-4.81535734344214,-4.80948525583736,2.41061471552346,2.40180658411629,-4.81242129963975
0.535810737820028,-0.160603185675976,-6.00414272561818,-5.8435395399422,3.08237295564708,2.84146817713311,-5.92384113278019
0.537971264988657,-0.187391562614712,-7.52764194926834,-7.34025038665363,3.85751675594153,3.57642941201946,-7.43394616796099
0.540131792157286,-0.102021087075436,-8.40532466216166,-8.30330357508623,4.25367287461855,4.10064124400539,-8.35431411862394
0.542292319325915,0.0510348607369524,-8.05143732384067,-8.10247218457762,4.00020123155186,4.07675352265729,-8.07695475420915
0.544452846494545,0.239138976697843,-6.58947728403018,-6.82861626072802,3.17516915366617,3.53387761871293,-6.7090467723791
0.546613373663174,0.463836876083588,-4.75426739744915,-5.21810427353274,2.14521526068278,2.84097057480817,-4.98618583549095
0.548773900831803,0.732655525352972,-3.4669547154204,-4.19961024077337,1.36714959503371,2.46613288306317,-3.83328247809689
0.550934428000432,1.01589614970278,-3.31943890466272,-4.3353350543655,1.15177137747997,2.67561560203414,-3.82738697951411
0.553094955169061,1.24698175342465,-4.24427235190558,-5.49125410533023,1.49864529924046,3.36911792937744,-4.86776322861791
0.55525548233769,1.36336835828432,-5.55713979824134,-6.92050815652566,2.09688571997851,4.14193825740499,-6.2388239773835
0.55741600950632,1.33495423264883,-6.35281751300414,-7.68777174565297,2.50893164017766,4.5113629891509,-7.02029462932856
0.559576536674949,1.16695528065747,-6.01527607285669,-7.18223135351416,2.42416039609961,4.17459331708582,-6.59875371318543
0.561737063843578,0.896794360834837,-4.55344205581889,-5.45023641665373,1.82832384749203,3.17351538874428,-5.00183923623631
0.563897591012207,0.590382728633119,-2.60567506846513,-3.19605779709825,1.00764616991601,1.89322026286569,-2.90086643278169
0.566058118180836,0.328959930501749,-1.09488891323593,-1.42384884373768,0.382964491367093,0.876404387119716,-1.25936887848681
0.568218645349465,0.169980424023096,-0.706774951918817,-0.876755375941913,0.26839726394786,0.523367899982505,-0.791765163930365
0.570379172518094,0.111019665669472,-1.53534744021641,-1.64636710588588,0.71216388727347,0.878693385777678,-1.59085727305115
0.572539699686724,0.110302211926905,-3.0702170571937,-3.18051926912061,1.4799574226334,1.64541074052376,-3.12536816315715
0.574700226855353,0.14017883713002,-4.43854142481285,-4.57872026194287,2.14918129384142,2.35944954953645,-4.50863084337786
0.576860754023982,0.200488458448129,-4.82574094365663,-5.02622940210476,2.31262624260425,2.61335893027644,-4.92598517288069
0.579021281192611,0.282179388902017,-3.95885970384961,-4.24103909275163,1.8383401574738,2.26160924082682,-4.09994939830062
0.58118180836124,0.357026438826689,-2.32916002193787,-2.68618646076456,0.986066791555589,1.52160644979562,-2.50767324135121
0.583342335529869,0.411876111411519,-0.904752278290459,-1.31662838970198,0.24643808343947,0.864252250556749,-1.11069033399622
0.585502862698498,0.459950410805596,-0.532581911680381,-0.992532322485977,0.0363157504373928,0.726241366645787,-0.762557117083179
0.587663389867128,0.524056756513023,-1.49342928534918,-2.0174860418622,0.484686264418078,1.27077139918761,-1.75545766360569
0.589823917035757,0.614172143260504,-3.40348272589893,-4.01765486915943,1.39465529131921,2.31591350620997,-3.71056879752918
0.591984444204386,0.710012343555359,-5.38065403446438,-6.09066637801974,2.33532084545451,3.40033936078755,-5.73566020624206
0.594144971373015,0.777050918293204,-6.46077016621064,-7.23782108450384,2.84185962395872,4.00743600139852,-6.84929562535724
0.596305498541644,0.788543285068627,-6.14296865535295,-6.93151194042157,2.67721268514216,3.8600276127451,-6.53724029788726
0.598466025710273,0.732704297175001,-4.67142057167899,-5.40412486885399,1.969358137252,3.0684145830145,-5.03777272026649
0.600626552878902,0.629686720771488,-2.84394206585137,-3.47362878662285,1.10712767253994,2.05165775369717,-3.15878542623711
0.602787080047532,0.52442345719981,-1.56910177855059,-2.0935252357504,0.52233916067539,1.3089743464751,-1.83131350715049
0.604947607216161,0.448273738663804,-1.44900449078875,-1.89727822945256,0.500365376062474,1.17277598405818,-1.67314136012065
0.60710813438479,0.415675171219524,-2.49475488962213,-2.91043006084165,1.0395398592013,1.66305261603059,-2.70259247523189
0.609268661553419,0.441831927758628,-4.10139856106247,-4.5432304888211,1.82978331665192,2.49253120828986,-4.32231452494178
0.611429188722048,0.528089718793302,-5.39611697402177,-5.92420669281507,2.43401362761423,3.22614820580418,-5.66016183341842
0.613589715890677,0.648482589323066,-5.76133271594136,-6.40981530526443,2.55642506330915,3.52914894729375,-6.0855740106029
0.615750243059306,0.766459251610732,-5.15556191362805,-5.92202116523878,2.19455133100866,3.34424020842476,-5.53879153943341
0.617910770227936,0.854816885518665,-4.09310087740761,-4.94791776292627,1.61914199594447,2.90136732422247,-4.52050932016694
0.620071297396565,0.903964253202138,-3.36682543735986,-4.270789690562,1.23143059207886,2.58737697188207,-3.81880756396093
0.622231824565194,0.914819361517437,-3.60311278578973,-4.51793214730717,1.34414671213615,2.7163757544123,-4.06052246654845
0.624392351733823,0.888967337007045,-4.84169139501421,-5.73065873202125,1.97636202900358,3.30981303451415,-5.28617506351773
0.626552878902452,0.833579884983104,-6.46009558399402,-7.29367546897712,2.81325784950546,4.06362767698011,-6.87688552648557
0.628713406071081,0.763664843561473,-7.52863251946934,-8.29229736303081,3.38248383795393,4.52798110329614,-7.91046494125008
0.63087393323971,0.695195980336223,-7.33639758653482,-8.03159356687104,3.3206008030993,4.36339477360363,-7.68399557670293
0.63303446040834,0.639503504678612,-5.79544920535147,-6.43495271003009,2.57797285033643,3.53722810735435,-6.11520095769078
0.635194987576969,0.592151173365569,-3.53103238950104,-4.1231835628666,1.46944060806773,2.35766736811609,-3.82710797618382
0.637355514745598,0.532934226321652,-1.55843873347288,-2.09137295979454,0.512752253575615,1.31215359305809,-1.82490584663371
0.639516041914227,0.454391591251938,-0.718839018335473,-1.17323060958741,0.132223713541767,0.813811100419675,-0.946034813961442
0.641676569082856,0.37929948402543,-1.27478659022876,-1.65408607425419,0.447743553101664,1.01669277913981,-1.46443633224147
0.643837096251485,0.344113269711387,-2.84570502374464,-3.18981829345603,1.25079587701663,1.76696578158371,-3.01776165860034
0.645997623420114,0.375608801556678,-4.57281857639805,-4.94842737795473,2.09860488742069,2.6620180897557,-4.76062297717639
0.648158150588744,0.475816663646079,-5.48712201323963,-5.96293867688571,2.50565267479677,3.21937767026589,-5.72503034506267
0.650318677757373,0.625056784147382,-5.03413927398293,-5.65919605813031,2.20454124491777,3.14212642113885,-5.34666766605662
0.652479204926002,0.797042511430434,-3.40958716421045,-4.20662967564088,1.30627232639001,2.50183609353566,-3.80810841992567
0.654639732094631,0.958609791646887,-1.41882307713962,-2.37743286878651,0.230106642746367,1.6680213302167,-1.89812797296306
0.65680025926326,1.0677993157158,-0.00938492225662912,-1.07718423797242,-0.529207196729583,1.07249177684411,-0.543284580114527
0.658960786431889,1.09040630343567,0.200089176968788,-0.890317126466882,-0.645247740202229,0.990361714951276,-0.345113974749047
0.661121313600519,1.01515078274313,-0.768793618855,-1.78394440159813,-0.123178581944065,1.39954759217063,-1.27636901022656
0.663281840769148,0.858328378493114,-2.22382128956133,-3.08214966805444,0.682746455534107,1.97023902327378,-2.65298547880789
0.665442367937777,0.664347808347836,-3.18119418527442,-3.84554199362226,1.25842318846329,2.25494490098505,-3.51336808944834
0.667602895106406,0.483653663507435,-2.97295780940698,-3.45661147291441,1.24465207294977,1.97013256821092,-3.2147846411607
0.669763422275035,0.331001929056261,-1.63137637544639,-1.96237830450265,0.650187223195066,1.14669011677946,-1.79687733997452
0.671923949443664,0.189993540808411,0.178546625246895,-0.0114469155615158,-0.184270083027653,0.100720228184963,0.0835498548426896
0.674084476612293,0.0622540985813309,1.53566608592297,1.47341198734164,-0.79896009225215,-0.705578944380154,1.5045390366323
0.676245003780923,-0.0308378727376635,1.72548363189998,1.75632150463764,-0.847322879581156,-0.893579688687652,1.74090256826881
0.678405530949552,-0.0884621593790982,0.635205244762346,0.723667404141445,-0.273371542691624,-0.406064781760271,0.679436324451896
0.680566058118181,-0.132923886175449,-1.11582905601222,-0.982905169836767,0.624376471093833,0.424990641830659,-1.04936711292449
0.68272658528681,-0.174395869956058,-2.47222596171861,-2.29783009176255,1.32331091583733,1.06171711090325,-2.38502802674058
0.684887112455439,-0.194576513765805,-2.52220769934377,-2.32763118557796,1.35839210655479,1.06652733590608,-2.42491944246086
0.687047639624068,-0.1719809539939,-0.991190109980266,-0.819209155986366,0.581585531987083,0.323614100996233,-0.905199632983316
0.689208166792697,-0.0980269941303042,1.62063249627511,1.71865949040541,-0.761302751072401,-0.908343242267858,1.66964599334026
0.691368693961326,0.0490876659574271,4.30805418796689,4.25896652200946,-2.17857092696216,-2.10493942802602,4.28351035498818
0.693529221129956,0.302398863926397,6.08583523019189,5.78343636626549,-3.19411704705914,-2.74051875116955,5.93463579822869
0.695689748298585,0.651567763549401,6.48291484663389,5.83134708308449,-3.56724130509165,-2.58988965976754,6.15713096485919
0.697850275467214,1.02090339851466,5.74258236361999,4.72167896510533,-3.38174288106732,-1.85038778329533,5.23213066436266
0.700010802635843,1.31059768251129,4.6346582496505,3.32406056713921,-2.97262796608089,-1.00673144231396,3.97935940839486
0.702171329804472,1.44891427298224,4.0218670168918,2.57295274390956,-2.73539064493702,-0.562019235463661,3.29740988040068
0.704331856973101,1.41592667092895,4.41991827202861,3.00399160109966,-2.91792247147878,-0.794032465085352,3.71195493656413
0.706492384141731,1.23821655884884,5.73745597750576,4.49923941865692,-3.4878362681773,-1.63051142990404,5.11834769808134
0.70865291131036,0.973650487838215,7.34602428167511,6.3723737938369,-4.15983738475666,-2.69936165299934,6.85919903775601
0.710813438478989,0.701733138243224,8.47845240640703,7.77671926816381,-4.59009277232513,-3.53749306496029,8.12758583728542
0.712973965647618,0.509206782948871,8.69411987121737,8.1849130882685,-4.60166332708312,-3.83785315265981,8.43951647974293
0.715134492816247,0.453227079212791,8.11846510569671,7.66523802648392,-4.28584609245475,-3.60600547363557,7.89185156609032
0.717295019984876,0.524787061435251,7.3689823082247,6.84419524678945,-3.94688468482998,-3.1597040926771,7.10658877750708
0.719455547153505,0.654720754704661,7.21176647307885,6.55704571837419,-3.93324361389176,-2.95116248183477,6.88440609572652
0.721616074322135,0.762741198119736,8.08322680568727,7.32048560756754,-4.42298400190351,-3.2788722047239,7.70185620662741
0.723776601490764,0.807519054989482,9.79314417806876,8.98562512307928,-5.30033161652912,-4.0890530340449,9.38938465057402
0.725937128659393,0.802417555647894,11.636602917077,10.8341853614291,-6.21951023636243,-5.01588390289059,11.235394139253
0.728097655828022,0.788355941956002,12.7780438102454,11.9896878682894,-6.78319987610072,-5.60066596316672,12.3838658392674
0.730258182996651,0.786880889123292,12.6706901777836,11.8838092886603,-6.72878553345343,-5.54846419976849,12.2772497332219
0.73241871016528,0.789201789007661,11.3749330571303,10.5857312681226,-6.08206742306898,-4.89826473955749,10.9803321626265
0.734579237333909,0.791224261094804,9.61349980997204,8.82227554887724,-5.20236203553342,-4.01552564389122,9.21788767942464
0.736739764502539,0.810965726523616,8.44699181084945,7.63602608432584,-4.62897876868653,-3.41253017890111,8.04150894758765
0.738900291671168,0.865019228586233,8.73336635085911,7.86834712227288,-4.79919278972267,-3.50166394684332,8.300856736566
0.741060818839797,0.949160216555995,10.7155528144961,9.76639259794011,-5.83235651552605,-4.40861619069206,10.2409727062181
0.743221346008426,1.04541570040071,13.9391254508548,12.8937097504541,-7.49227057562774,-5.92414702502667,13.4164176006544
0.745381873177055,1.13289790380263,17.488628798741,16.3557308949384,-9.31076335127181,-7.61141649556787,16.9221798468397
0.747542400345684,1.19205176025801,20.4335900486255,19.2415382883675,-10.8128209044418,-9.02474326405476,19.8375641684965
0.749702927514313,1.21528186215025,22.2911470260591,21.0758651639088,-11.7532144441047,-9.9302916508793,21.683506094984
0.751863454682943,1.21376417550923,23.2332891755339,22.0195250000246,-12.2235266755215,-10.4028804122577,22.6264070877792
0.754023981851572,1.20372956818935,23.8944339043877,22.6907043361984,-12.5490817362885,-10.7434873840045,23.292569120293
0.756184509020201,1.18902380982994,24.9226011655193,23.7335773556894,-13.0558124876746,-11.2722767729297,24.3280892606044
0.75834503618883,1.16217847683308,26.53822779416,25.3760493173269,-13.8502031354965,-12.1069354202469,25.9571385557434
0.760505563357459,1.12357931842326,28.3119957069813,27.1884163885581,-14.7177875127023,-13.0324185350674,27.7502060477697
0.762666090526088,1.09559856824515,29.3080008691762,28.212402300931,-15.2017997187107,-13.5584018663429,28.7602015850536
0.764826617694717,1.10814908902597,28.5546034111594,27.4464543221334,-14.8313762500927,-13.1691526165537,28.0005288666464
0.766987144863347,1.1658298377899,25.5652896070701,24.3994597692802,-13.36555972243,-11.6168149657451,24.9823746881751
0.769147672031976,1.23557690226908,20.6377646217293,19.4021877194602,-10.9366707619992,-9.08330540859556,20.0199761705947
0.771308199200605,1.27213882914477,14.8157712438806,13.5436324147359,-8.04395503651271,-6.13574679279556,14.1797018293083
0.773468726369234,1.24319290783594,9.49459985465177,8.25140694681583,-5.36889638124385,-3.50410701948994,8.8730034007338
0.775629253537863,1.12837346909926,5.80330908695066,4.67493561785141,-3.46584127802496,-1.77328107437608,5.23912235240103
0.777789780706492,0.929184429916713,4.11046963440549,3.18128520448878,-2.5198270321611,-1.12605038728603,3.64587741944713
0.779950307875122,0.685381684219072,3.98295825771299,3.29757657349392,-2.33416997096603,-1.30609744463742,3.64026741560346
0.782110835043751,0.440064221312777,4.56685845580711,4.12679423449433,-2.50346133855994,-1.84336500659078,4.34682634515072
0.78427136221238,0.202946678729397,5.08961246542486,4.88666578669547,-2.64627957207713,-2.34185955398303,4.98813912606017
0.786431889381009,-0.0105892585394542,5.25873092778778,5.26932018632723,-2.62407083462416,-2.63995472243334,5.26402555705751
0.788592416549638,-0.14152888535377,5.38786350799262,5.52939239334639,-2.62316731131942,-2.83546063935008,5.4586279506695
0.790752943718267,-0.121993102615155,6.11057337250014,6.2325664751153,-2.99429013494249,-3.17727978886523,6.17156992380772
0.792913470886896,0.0706394116721647,7.85753376353918,7.78689435186702,-3.96408658760567,-3.85812747009743,7.8222140577031
0.795073998055525,0.394000996976303,10.5129832622977,10.1189822653214,-5.45349212963701,-4.86249063417256,10.3159827638096
0.797234525224155,0.760196845112624,13.4303285045475,12.6701316594349,-7.09526267483006,-5.95496740716113,13.0502300819912
0.799395052392784,1.07447408662533,15.6975166680225,14.6230425813972,-8.38599537732392,-6.77428424738592,15.1602796247098
0.801555579561413,1.27041945303119,16.541898837678,15.2714793846469,-8.90615914535462,-7.00052996580784,15.9066891111625
0.803716106730042,1.32550193721963,15.7346594040084,14.4091574667887,-8.530080670614,-6.54182776478455,15.0719084353986
0.805876633898671,1.26204665503086,13.7459866145408,12.4839399595099,-7.50401663478581,-5.61094665223951,13.1149632870253
0.8080371610673,1.14695202074285,11.5264507997035,10.3794987789606,-6.33670141022318,-4.6162733791089,10.9529747893321
0.81019768823593,1.06548772371409,10.0493773531928,8.9838896294787,-5.55743253845344,-3.9592009528823,9.51663349133575
0.812358215404559,1.0646862259315,9.85011136422671,8.78542513829521,-5.4573987950791,-3.86036945618185,9.31776825126096
0.814518742573188,1.1243085340295,10.7678761761232,9.64356764209372,-5.94609235507636,-4.25962955403211,10.2057219091085
0.816679269741817,1.19251523910883,12.0441417471228,10.851626508014,-6.61832849311582,-4.82955563445257,11.4478841275684
0.818839796910446,1.24061753291689,12.7804885963094,11.5398710633925,-7.01055306461316,-5.14962676523782,12.160179829851
0.821000324079075,1.2703435812782,12.4856477194596,11.2153041381814,-6.87799565036891,-4.97248027845161,11.8504759288205
0.823160851247704,1.28711132997796,11.3297691451827,10.0426578152047,-6.30844023758031,-4.37777324261337,10.6862134801937
0.825321378416334,1.28607243098392,9.99921295944171,8.71314052845779,-5.64264269521281,-3.71353404873694,9.35617674394975
0.827481905584963,1.26260502140773,9.32642651737535,8.06382149596762,-5.29451576939154,-3.40060823727994,8.69512400667148
0.829642432753592,1.23007117737129,9.84754499988182,8.61747382251053,-5.53880808862656,-3.69370132256962,9.23250941119617
0.831802959922221,1.20454150682853,11.4597802203594,10.2552387135309,-6.33216086359396,-4.52534860335116,10.8575094669451
0.83396348709085,1.17885094235641,13.4281556549132,12.2493047125568,-7.30350329863481,-5.5352268851002,12.838730183735
0.836124014259479,1.14272958485484,14.7788232124767,13.6360936276219,-7.96077639866579,-6.24668202138353,14.2074584200493
0.838284541428108,1.11446221301573,14.8103993945433,13.6959371815276,-7.96243080377953,-6.29073748425594,14.2531682880355
0.840445068596738,1.12646164748375,13.4296598259219,12.3031981784382,-7.27806073670284,-5.58836826547721,12.8664290021801
0.842605595765367,1.1866223246628,11.2020409600381,10.0154186353753,-6.19433164235044,-4.41439815535625,10.6087297977067
0.844766122933996,1.27148189842659,9.10536771865566,7.83388582022906,-5.18842480854113,-3.28120196090124,8.46962676944236
0.846926650102625,1.345223670917,8.02966825914348,6.68444458822647,-4.68744596503024,-2.66961045865474,7.35705642368498
0.849087177271254,1.37151973704106,8.28738624326203,6.91586650622098,-4.82945299015154,-2.77217338458996,7.60162637474151
0.851247704439883,1.32641269627839,9.47926455466015,8.15285185838176,-5.40283862546927,-3.41321958105169,8.81605820652095
0.853408231608512,1.21475385993688,10.7579521199747,9.54319826003782,-5.98635298995579,-4.16422220005047,10.1505751900063
0.855568758777142,1.07438836745595,11.2831003077535,10.2087119402976,-6.17874433760472,-4.5671617864208,10.7459061240255
0.857729285945771,0.961731050998784,10.673816238919,9.71208518792018,-5.81777364495887,-4.3751770684607,10.1929507134196
0.8598898131144,0.921834144120618,9.24121004512037,8.31937590099975,-5.08152209462049,-3.69877087843957,8.78029297306006
0.862050340283029,0.956626422175473,7.80067410354772,6.84404768137225,-4.3786502628616,-2.94371062959839,7.32236089245998
0.864210867451658,1.01747157846056,7.17160052996854,6.15412895150799,-4.09453605421455,-2.56832868652372,6.66286474073827
0.866371394620287,1.03931071776321,7.72287717852038,6.68356646075717,-4.38109394814179,-2.82212787149698,7.20322181963877
0.868531921788916,0.990422536043589,9.18345055519211,8.19302801914852,-5.08693654561785,-3.60130274155247,8.68823928717032
0.870692448957546,0.889727618022041,10.7525611004789,9.86283348245687,-5.82114435925048,-4.48655293221742,10.3076972914679
0.872852976126175,0.776479230458115,11.4992684370537,10.7227892065956,-6.13787383375592,-4.97315498806875,11.1110288218247
0.875013503294804,0.672098345547958,10.884578393034,10.2124800474861,-5.778338369291,-4.77019085096907,10.5485292202601
0.877174030463433,0.583867585833156,9.07398613442015,8.490118548587,-4.82892686012665,-3.95312548137692,8.78205234150358
0.879334557632062,0.542654648684648,6.84392428617269,6.30126963748805,-3.69328946742867,-2.8793074944017,6.57259696183037
0.881495084800691,0.609428889173598,5.18602203914585,4.57659314997226,-2.89772546415973,-1.98358213039933,4.88130759455905
0.883655611969321,0.813396267636346,4.82315175141721,4.00975548378087,-2.81827400952678,-1.59817960807226,4.41645361759904
0.88581613913795,1.09924554809621,5.81438744354222,4.71514189544601,-3.45681649581921,-1.8079481736749,5.26476466949411
0.887976666306579,1.36899366365181,7.47899485319854,6.11000118954673,-4.42399425842518,-2.37050376294746,6.79449802137264
0.890137193475208,1.56428632100793,8.78593538573671,7.22164906472878,-5.17511085337232,-2.82868137186042,8.00379222523274
0.892297720643837,1.69113075729952,8.95828632417783,7.26715556687831,-5.32470854073868,-2.7880124047894,8.11272094552807
0.894458247812466,1.77953419511813,7.86256090322948,6.08302670811134,-4.82104754917381,-2.1517462564966,6.97279380567041
0.896618774981095,1.84223794475258,6.03168455344695,4.18944660869437,-3.93696124909977,-1.17360433197089,5.11056558107066
0.898779302149724,1.87196021672058,4.38898578197711,2.51702556525654,-3.13047299934884,-0.322532674267979,3.45300567361682
0.900939829318354,1.85916730874608,3.76045101689951,1.90128370815343,-2.80980916282279,-0.0210581997036776,2.83086736252647
0.903100356486983,1.81297062251443,4.39843706530289,2.58546644278846,-3.10570384390866,-0.386247910137012,3.49195175404567
0.905260883655612,1.76776266227897,5.85011845849587,4.08235579621691,-3.80894056038742,-1.15729656696897,4.96623712735639
0.907421410824241,1.75171065593591,7.26332578206362,5.5116151261277,-4.50751821899977,-1.8799522350959,6.38747045409566
0.90958193799287,1.74987074916393,7.88054339838399,6.13067264922006,-4.81520707377396,-2.19040095002807,7.00560802380203
0.911742465161499,1.71822946697137,7.43440580697845,5.71617634000707,-4.57631763697491,-1.99897343651785,6.57529107349276
0.913902992330129,1.63218988390086,6.29131604398577,4.65912616008491,-3.96175296394332,-1.51346813809203,5.47522110203534
0.916063519498758,1.51393326340498,5.26815523453652,3.75422197113154,-3.39104424897075,-1.12014435386328,4.51118860283403
0.918224046667387,1.42224563516123,5.17353419887021,3.75128856370898,-3.29788991701572,-1.16452146427388,4.4624113812896
0.920384573836016,1.41473837898262,6.32734108322367,4.91260270424105,-3.87103973110315,-1.74893216262922,5.61997189373236
0.922545101004645,1.50206433821332,8.37669848361509,6.87463414540176,-4.9393814109142,-2.68628490359422,7.62566631450843
0.924705628173274,1.63697497111849,10.4980271954012,8.86105222428273,-6.06750108325986,-3.61203862658212,9.67953970984197
0.926866155341903,1.74923967311535,11.8124704810816,10.0632308079663,-6.7808550770985,-4.15699556742547,10.937850644524
0.929026682510533,1.78329715032485,11.8377739251069,10.054476774782,-6.81053553771586,-4.13558981222858,10.9461253499444
0.931187209679162,1.72008302964392,10.7968669536297,9.07678392398582,-6.25847499163683,-3.67835044717095,9.93682543880778
0.933347736847791,1.58675648604035,9.54208173173612,7.95532524569576,-5.56441910888824,-3.18428437982771,8.74870348871594
0.93550826401642,1.43847735193326,9.07936087702834,7.64088352509508,-5.2589191144808,-3.10120308658091,8.36012220106171
0.937668791185049,1.32219684153909,10.000657013364,8.67846017182488,-5.66142692745152,-3.6781316651429,9.33955859259442
0.939829318353678,1.26495217961167,12.1639780951487,10.899025915537,-6.71446513738019,-4.81703686796269,11.5315020053429
0.941989845522307,1.28311262267543,14.7735884508287,13.4904758281533,-8.02835053675206,-6.10368160273892,14.132032139491
0.944150372690936,1.37558485966708,16.8061066589906,15.4305217993235,-9.09084575932883,-7.02746846982821,16.118314229157
0.946310899859566,1.51123019132963,17.5457894556428,16.0345592643131,-9.52850982348619,-7.26166453649175,16.7901743599779
0.948471427028195,1.64533353605753,16.9270613285823,15.2817277925248,-9.28619743231994,-6.81819712823364,16.1043945605536
0.950631954196824,1.75562780373236,15.530319367392,13.7746915636596,-8.64297358556217,-6.00953187996362,14.6525054655258
0.952792481365453,1.84878340454747,14.271196433765,12.4224130292176,-8.05998991915625,-5.28681481233504,13.3468047314913
0.954953008534082,1.92766375432313,13.9249573878768,11.9972936335537,-7.92631057109996,-5.03481493961526,12.9611255107152
0.957113535702711,1.96602615072205,14.7091874723155,12.7431613215935,-8.33760681151879,-5.38856758543571,13.7261743969545
0.959274062871341,1.9202526301287,16.1798018662605,14.2595492361318,-9.0500272481946,-6.16964830300155,15.2196755511962
0.96143459003997,1.76279244984056,17.523196312886,15.7604038630454,-9.64299438136327,-6.99880570660243,16.6418000879657
0.963595117208599,1.50527315461789,18.0293219145553,16.5240487599374,-9.76729753458657,-7.50938780265974,17.2766853372463
0.965755644377228,1.19539402959474,17.4624511154898,16.2670570858951,-9.32892257254228,-7.53583152815017,16.8647541006924
0.967916171545857,0.903725608165757,16.2017629224719,15.2980373143061,-8.55274426531881,-7.19715585307017,15.749900118389
0.970076698714486,0.70821237111927,15.0796933960094,14.3714810248901,-7.89395288356434,-6.83163432688544,14.7255872104498
0.972237225883115,0.653921620052731,14.9160651658466,14.2621435457939,-7.78499339294967,-6.80411096287058,14.5891043558203
0.974397753051745,0.711715092134504,16.0007686603538,15.2890535682193,-8.35624187624415,-7.2886692380424,15.6449111142865
0.976558280220374,0.79654878308185,17.912279224306,17.1157304412241,-9.35441400369392,-8.15959082907115,17.5140048327651
0.978718807389003,0.835612656783002,19.7925918879904,18.9569792312074,-10.3141022723867,-9.06068328721218,19.3747855595989
0.980879334557632,0.81628605233967,20.811376260181,19.9950902078413,-10.8138311562603,-9.58940207775083,20.4032332340112
0.983039861726261,0.772310772115961,20.5520111189849,19.779700346869,-10.6621609455504,-9.5036947873765,20.1658557329269
0.98520038889489,0.744142508355953,19.2242700391577,18.4801275308018,-9.98420627375685,-8.86799251122292,18.8521987849798
0.98736091606352,0.758121030208585,17.5700347740718,16.8119137438632,-9.1640779021402,-8.02689635682732,17.1909742589675
0.989521443232149,0.81071890109504,16.4486974423768,15.6379785412817,-8.6297081717359,-7.41362982009334,16.0433379918292
0.991681970400778,0.8677570679578,16.382799321048,15.5150422530902,-8.62527819450288,-7.32364259256618,15.9489207870691
0.993842497569407,0.89594547638422,17.3305306158054,16.4345851394212,-9.11323804609481,-7.76931983151848,16.8825578776133
0.996003024738036,0.888300609794612,18.7420377851824,17.8537371753878,-9.8151691974885,-8.48271828279658,18.2978874802851
0.998163551906665,0.867935166268587,19.8602887623366,18.992353596068,-10.3641119643026,-9.0622092148997,19.4263211792023
1.00032407907529,0.876288280961578,20.1339743161458,19.2576860351842,-10.5051312985537,-9.19069887711131,19.695830175665
1.00248460624392,0.944409863645895,19.4916930697672,18.5472832061213,-10.2180514667065,-8.80143667123768,19.0194881379442
1.00464513341255,1.06792719292936,18.3466398959932,17.2787127030639,-9.70728354446129,-8.10539275506725,17.8126762995285
1.00680566058118,1.20704210738279,17.4059551567253,16.1989130493425,-9.30649863205403,-7.49593547097985,16.8024341030339
1.00896618774981,1.31761916645957,17.3323854426888,16.0147662762292,-9.32500230457418,-7.34857355488482,16.673575859459
1.01112671491844,1.38111727336123,18.3277995658749,16.9466822925137,-9.85445841961808,-7.78278250957623,17.6372409291943
1.01328724208707,1.39591677828669,19.9433900274655,18.5474732491788,-10.6696534028761,-8.57577823544605,19.2454316383221
1.0154477692557,1.36622878871972,21.353236377777,19.9870075890572,-11.3597325832483,-9.31038940016876,20.6701219834171
1.01760829642433,1.31772080086482,21.866235780998,20.5485149801331,-11.5919782909314,-9.61539708963416,21.2073753805655
1.01976882359296,1.298888513218,21.2843315865681,19.9854430733501,-11.291610049893,-9.34327728006605,20.6348873299591
1.02192935076159,1.34877196571531,19.9668784135253,18.61810644781,-10.6578251896203,-8.63466724104733,19.2924924306676
1.02408987793021,1.46821028034397,18.6378800350706,17.1696697547266,-10.0530451577073,-7.85072973719132,17.9037748948986
1.02625040509884,1.62680982173086,18.000088822335,16.3732790006042,-9.81344932203295,-7.37323458943667,17.1866839114696
1.02841093226747,1.78247467556618,18.3287956713621,16.5463209957959,-10.0556351734641,-7.38192316011486,17.437558333579
1.0305714594361,1.89242342008531,19.3289013209412,17.4364779008559,-10.6106623705132,-7.77202724038528,18.3826896108985
1.03273198660473,1.93017304791054,20.3521946951037,18.4220216471932,-11.1411838715071,-8.24592429964133,19.3871081711485
1.03489251377336,1.88869123998006,20.7562881738273,18.8675969338473,-11.3224897069037,-8.48945284693361,19.8119425538373
1.03705304094199,1.76060156573212,20.2158061470537,18.4552045813216,-10.9882038563929,-8.34730150779473,19.3355053641876
1.03921356811062,1.54258268198053,18.9403664196935,17.397783737713,-10.241474550837,-7.92760052786623,18.1690750787033
1.04137409527925,1.26436517332333,17.6288172501134,16.3644520767901,-9.44659121171836,-7.55004345173336,16.9966346634517
1.04353462244788,0.984241588819039,17.0641869529766,16.0799453641575,-9.0242142708978,-7.54785188766925,16.5720661585671
1.04569514961651,0.754327508170444,17.644548382006,16.8902208738355,-9.1994379450882,-8.06794668283253,17.2673846279207
1.04785567678514,0.609018386670854,19.1808766492665,18.5718582625956,-9.89494751796867,-8.98141993796239,18.8763674559311
1.05001620395376,0.566947827162853,21.0002882026259,20.4333403754631,-10.7836180148944,-9.9331962741501,20.7168142890445
1.05217673112239,0.620554783618999,22.2692966682213,21.6487418846023,-11.4449257259201,-10.5140935504916,21.9590192764118
1.05433725829102,0.740517124917922,22.4200356379644,21.6795185130465,-11.5802763814412,-10.4695006940643,22.0497770755055
1.05649778545965,0.90113351631484,21.463145001572,20.5620114852571,-11.1821392589434,-9.83043898447115,21.0125782434146
1.05865831262828,1.09380014056732,19.9934074583284,18.8996073177611,-10.5436037994479,-8.9029035885969,19.4465073880448
1.06081883979691,1.32443674856024,18.8755029741149,17.5510662255547,-10.0999698613376,-8.11331473849721,18.2132845998348
1.06297936696554,1.60712490898836,18.7787808674718,17.1716559584834,-10.1929528882301,-7.78226552474751,17.9752184129776
1.06513989413417,1.94247790633674,19.8221859934326,17.8797080870959,-10.8823319498847,-7.96861509037956,18.8509470402642
1.0673004213028,2.29209706512641,21.5165928391949,19.2244957740685,-11.9043449521606,-8.46619935447103,20.3705443066317
1.06946094847143,2.57891790446793,23.0198922998296,20.4409743953616,-12.7994051021487,-8.93102824544685,21.7304333475956
1.07162147564006,2.68292613869654,23.5638989349303,20.8809727962338,-13.1234125368134,-9.09902332876861,22.222435865582
1.07378200280869,2.3998463245113,22.8091978983707,20.4093515738594,-12.604522111441,-9.00475262467404,21.609274736115
1.07594252997731,1.41016271103889,20.9609837100464,19.5508209990075,-11.1855732105427,-9.07032914398432,20.255902354527
1.07810305714594,-0.687148634609155,18.6357071141572,19.3228557487663,-8.97427923977401,-10.0050021916877,18.9792814314618
1.08026358431457,-4.25489381281977,16.5132721945721,20.7681660073919,-6.12918919087616,-12.5115299101058,18.640719100982
1.0824241114832,-9.3884529483443,14.9210879924851,24.3095409408294,-2.76631752207039,-16.8489969445868,19.6153144666572
1.08458463865183,-15.6372998202497,13.6645437467841,29.3018435670338,0.986378036732789,-22.4695716936418,21.483193656909
1.08674516582046,-21.923269668872,12.2543471693349,34.1776168382069,4.83446124976856,-28.0504432535394,23.2159820037709
1.08890569298909,-26.8486236201407,10.3137817477364,37.1624053678771,8.26742093620218,-32.0055144940089,23.7380935578068
1.09106622015772,-29.2182535906178,7.89118658737913,37.1094401779969,10.6635335016193,-33.1638468843073,22.500313382688
1.09322674732635,-28.4521942420749,5.56271447439978,34.0149087164747,11.4447398838375,-31.2335514792748,19.7888115954372
1.09538727449498,-24.756737977237,4.25814884595705,29.014886823194,10.24929456564,-26.8858124002155,16.6365178345755
1.09754780166361,-19.0567892684136,4.78501986051372,23.8418091289273,7.13588470394995,-21.4492991986705,14.3134144947205
1.09970832883223,-12.7258006359243,7.26724837711328,19.9930490130376,2.72927612940553,-16.359424824481,13.6301486950754
1.10186885600086,-7.18728190934822,10.9290188696347,18.1163007789829,-1.87086848014324,-12.6517913441656,14.5226598243088
1.10402938316949,-3.51955568098744,14.4182430282168,17.9377987092043,-5.44934367361468,-10.7286771950959,16.1780208687105
1.10618991033812,-2.24733224140793,16.4146329371969,18.6619651786048,-7.08365034789447,-10.4546487100064,17.5382990579008
1.10835043750675,-3.36513481300603,16.177903063214,19.54303787622,-6.40638412510399,-11.454086344613,17.860470469717
1.11051096467538,-6.40764231731454,13.8565933346399,20.2642356519544,-3.72447550866268,-13.3359389846345,17.0604144932972
1.11267149184401,-10.5065668508484,10.4304566158931,20.9370234667415,0.0380551174776285,-15.7217951587949,15.6837400413173
1.11483201901264,-14.6200954310398,7.24243127903934,21.8625267100792,3.68883207600024,-18.2413110705595,14.5524789945593
1.11699254618127,-17.8865380136906,5.3597395464818,23.2462775601724,6.26339923360441,-20.5664077869315,14.3030085533271
1.1191530733499,-19.807206120027,5.13960041183503,24.946806531862,7.33380285409598,-22.3770063259445,15.0432034718485
1.12131360051853,-20.2237016068523,6.16682875518676,26.3905303620391,7.02843642583277,-23.3071159844457,16.2786795586129
1.12347412768716,-19.2381632518995,7.52902088800333,26.7671841399028,5.85457118194808,-23.0026736959012,17.1481025139531
1.12563465485578,-17.1183036971977,8.33711187034293,25.4554155675406,4.39059591342738,-21.2868596323692,16.8962637189418
1.12779518202441,-14.2120192088729,8.2481503744547,22.4601695833276,2.98193441720912,-18.3360943961003,15.3541599788912
1.12995570919304,-10.886423068052,7.63727688115167,18.5236999492037,1.62457309345016,-14.7050615086278,13.0804884151777
1.13211623636167,-7.46342550118365,7.32636447395479,14.7897899751384,0.0685305136144305,-11.126607738161,11.0580772245466
1.1342767635303,-4.20173952367295,8.08953866430584,12.2912781879788,-1.94389957031645,-8.24650885582587,10.1904084261423
1.13643729069893,-1.34250971353169,10.1683779525116,11.5108876660433,-4.41293411948998,-6.42669868978751,10.8396328092775
1.13859781786756,0.892608725423312,13.0446709247218,12.1520621992985,-6.96863982507254,-5.62972673693757,12.5983665620101
1.14075834503619,2.35568573635306,15.6834083978447,13.3277226614916,-9.01954706709888,-5.48601846256928,14.5055655296682
1.14291887220482,2.97696298768565,17.0914549763916,14.114491988706,-10.0342089820386,-5.56876450051018,15.6029734825488
1.14507939937345,2.72133301925075,16.7933211900216,14.0719881707708,-9.75732710463617,-5.67532757576005,15.4326546803962
1.14723992654208,1.56243981618891,15.0022332193907,13.4397934032018,-8.28233651778978,-5.93867679350642,14.2210133112962
1.14940045371071,-0.503861622746602,12.479663160849,12.9835247835956,-5.98790076905118,-6.74369320317108,12.7315939722223
1.15156098087933,-3.40510802141392,10.1630717919966,13.5681798134105,-3.37898188529134,-8.48664391741222,11.8656258027036
1.15372150804796,-6.86581629169191,8.73613479619798,15.6019510878899,-0.935159252253035,-11.2338836897909,12.1690429420439
1.15588203521659,-10.2855558032882,8.35420328383362,18.6397590871218,0.96567625972729,-14.462657445205,13.4969811854777
1.15804256238522,-12.8520739031644,8.64379479623162,21.495868699396,2.10413955346639,-17.1739713012802,15.0698317478138
1.16020308955385,-13.9031288195271,8.95639135272532,22.8595201722524,2.47336873340088,-18.3813244958897,15.9079557624889
1.16236361672248,-13.2264024029676,8.75918293768268,21.9855853406503,2.23360973264248,-17.605993871809,15.3723841391665
1.16452414389111,-11.0846034275338,7.98845270027029,19.0730561278041,1.54807536363174,-15.0788297776689,13.5307544140372
1.16668467105974,-8.06279582813657,7.13774952285945,15.200545350996,0.46252315263856,-11.6316705895663,11.1691474369277
1.16884519822837,-4.881915402692,6.95670819438154,11.8386235970735,-1.03739639584477,-8.36026949988277,9.39766589572754
1.171005725397,-2.17063964077261,7.94913804776244,10.1197776885351,-2.88924920349491,-6.14520866465383,9.03445786814875
1.17316625256563,-0.257254863847162,10.0291188487298,10.286373712577,-4.88593199244132,-5.27181428821206,10.1577462806534
1.17532677973426,0.859055001946594,12.5310349991455,11.6719799971989,-6.69504500054605,-5.40646249762616,12.1015074981722
1.17748730690288,1.37987848897397,14.5127720966513,13.1328936076773,-7.94632529281261,-5.87650755935166,13.8228328521643
1.17964783407151,1.55447277717894,15.1902674602497,13.6357946830708,-8.37237011871431,-6.04066095294591,14.4130310716602
1.18180836124014,1.57212806977238,14.3304433442814,12.7583152745091,-7.95128570702691,-5.59309360236834,13.5443793093953
1.18396888840877,1.53485754474955,12.3950718442249,10.8602142994753,-6.96496469448722,-4.66267837736289,11.6276430718501
1.1861294155774,1.48922746155546,10.3347607702884,8.84553330873296,-5.91199411592194,-3.67815292358875,9.59014703951069
1.18828994274603,1.44951792098355,9.15085900210637,7.70134108112282,-5.30018846154496,-3.12591158006964,8.4261000416146
1.19045046991466,1.4065934291295,9.41468690465358,8.00809347552408,-5.41064016689154,-3.30075002319729,8.71139019008883
1.19261099708329,1.35463480235986,10.9541239712012,9.59948916884138,-6.15437938678055,-4.12242718324076,10.2768065700213
1.19477152425192,1.29530296062924,12.9238402766749,11.6285373160457,-7.10957161865209,-5.16661717770823,12.2761887963603
1.19693205142055,1.19129306808265,14.2592196072878,13.0679265392051,-7.72525633768521,-5.93831673556123,13.6635730732464
1.19909257858918,0.928566705006856,14.223446606933,13.2948799019261,-7.57600665596991,-6.18315659845963,13.7591632544295
1.2012531057578,0.309915068814501,12.72619090503,12.4162758362155,-6.51805298692226,-6.0531803837005,12.5712333706228
1.20341363292643,-0.926405708394174,10.3085765324755,11.2349822408697,-4.69108541204066,-6.08069397463192,10.7717793866726
1.20557416009506,-3.01222185319418,7.8431821446648,10.855403997859,-2.41548014573531,-6.93381292552657,9.34929307126188
1.20773468726369,-5.96112851614434,6.05401559830784,12.0151441144522,-0.0464435410817501,-8.98813631529826,9.03457985638001
1.20989521443232,-9.37859351926801,5.11777561243312,14.4963691317011,2.13040895341744,-11.9374813254846,9.80707237206713
1.21205574160095,-12.4336185827299,4.66159462252336,17.0952132052533,3.88601198010327,-14.7644158939916,10.8784039138883
1.21421626876958,-14.1200706001867,4.158363146683,18.2784337468697,4.98085372675184,-16.1992521735282,11.2183984467763
1.21637679593821,-13.7596824485345,3.3558077118691,17.1154901604036,5.20193736833271,-15.4375863044691,10.2356489361364
1.21853732310684,-11.4338381968234,2.4270938642441,13.8609320610675,4.50337216628965,-12.6473851289455,8.1440129626558
1.22069785027547,-7.94351533108458,1.8510876364423,9.79460296752688,3.04621384732114,-8.86905914930573,5.82284530198459
1.2228583774441,-4.29808235799121,2.14971964809581,6.44780200608702,1.0741813549477,-5.37294218203912,4.29876082709141
1.22501890461273,-1.22352178640478,3.57379735055124,4.79731913695602,-1.17513778207323,-3.0104204616804,4.18555824375363
1.22717943178135,0.964025037902282,5.89011470457903,4.92608966667675,-3.42706987124066,-1.98103231438723,5.40810218562789
1.22933995894998,2.24557486130339,8.41853481651864,6.17295995521525,-5.33205483891101,-1.96369254695593,7.29574738586695
1.23150048611861,2.76418991020507,10.3039789164648,7.53978900625975,-6.53408441333495,-2.38779954802734,8.92188396136229
1.23366101328724,2.72828063978315,10.8930311430567,8.16475050327354,-6.81065589141992,-2.71823493174519,9.52889082316511
1.23582154045587,2.35750795364043,10.0547798988224,7.69727194518194,-6.2061439262314,-2.66988199577075,8.87602592200216
1.2379820676245,1.86130840349483,8.28191639831618,6.42060799482135,-5.07161240090551,-2.27964979566326,7.35126219656876
1.24014259479313,1.41442298211587,6.48724731093407,5.07282432881819,-3.95083514652497,-1.82920067335116,5.78003581987613
1.24230312196176,1.11757291178097,5.57081756117849,4.45324464939752,-3.34419523647973,-1.66783586880828,5.01203110528801
1.24446364913039,0.975114377821029,5.96149002581261,4.98637564799158,-3.46830220181682,-2.00563063508528,5.47393283690209
1.24662417629902,0.92719373007521,7.36784551391796,6.44065178384275,-4.14751962199659,-2.75672902688377,6.90424864888036
1.24878470346765,0.922741086621382,8.9184220861808,7.99568099955942,-4.92058158640109,-3.53646995646902,8.45705154287011
1.25094523063628,0.955036977650128,9.66395720711954,8.70892022946941,-5.30949709238483,-3.87694162590964,9.18643871829448
1.2531057578049,1.02835686758023,9.12790589626548,8.09954902868525,-5.07813138192286,-3.53559608055251,8.61372746247537
1.25526628497353,1.12061533690194,7.54467973485486,6.42406439795292,-4.3326475358784,-2.65172453052549,6.98437206640389
1.25742681214216,1.18918480838219,5.68985881129337,4.50067400291118,-3.43952180983778,-1.6557445972645,5.09526640710228
1.25958733931079,1.19888647567931,4.46126658887872,3.26238011319942,-2.83007653227901,-1.03174681876006,3.86182335103907
1.26174786647942,1.14034950214178,4.39804141136141,3.25769190921963,-2.7691954567516,-1.05867120353892,3.82786666029052
1.26390839364805,1.02949454550069,5.35147275907689,4.32197821357619,-3.19048365228879,-1.64624183403775,4.83672548632654
1.26606892081668,0.894686416561516,6.56740352665201,5.67271711009049,-3.73104497160676,-2.38901534676449,6.12006031837125
1.26822944798531,0.767877820164273,7.1660613491121,6.39818352894782,-3.96696958463818,-2.81515285439178,6.78212243902996
1.27038997515394,0.683369360707449,6.65099506931955,5.9676257086121,-3.6671822150135,-2.64212817395233,6.30931038896582
1.27255050232257,0.670035181220928,5.14506677736723,4.4750315961463,-2.90755097929408,-1.90249820746269,4.81004918675677
1.2747110294912,0.740035759391443,3.32765636083256,2.58762060144112,-2.033846060112,-0.923792421024838,2.95763848113684
1.27687155665982,0.883407129624597,2.12235922518383,1.23895209555923,-1.50288317740421,-0.177772482967319,1.68065566037153
1.27903208382845,1.06774998596464,2.20566799344462,1.13791800747999,-1.63670898970463,-0.0350840107576769,1.67179300046231
1.28119261099708,1.24394121289958,3.58834095429908,2.3443997413995,-2.41614108359933,-0.550229264249962,2.96637034784929
1.28335313816571,1.35479838794088,5.59016090693968,4.2353625189988,-3.47247964744028,-1.44028206552896,4.91276171296924
1.28551366533434,1.35629384632217,7.23128578884657,5.8749919425244,-4.29378981758437,-2.25934904810112,6.55313886568549
1.28767419250297,1.25522520817101,7.74978910728132,6.49456389911031,-4.50250715772617,-2.61966934546965,7.12217650319582
1.2898347196716,1.11975421109186,6.97455262713749,5.85479841604563,-4.04715341911467,-2.36752210247688,6.41467552159156
1.29199524684023,1.03890698947988,5.40189787661119,4.36299088713131,-3.22040243304554,-1.66204194882571,4.88244438187125
1.29415577400886,1.0726056679506,3.91889078496718,2.84628511701658,-2.49574822645889,-0.886839724532992,3.38258795099188
1.29631630117749,1.22681622805111,3.30923890937853,2.08242268132741,-2.26802756871482,-0.427803226638149,2.69583079535297
1.29847682834612,1.45554042020596,3.82528349962847,2.3697430794225,-2.64041195991721,-0.457101329608269,3.09751328952548
1.30063735551475,1.6889904570549,5.06400360472209,3.37501314766719,-3.3764970308885,-0.843011345306143,4.21950837619464
1.30279788268337,1.86776447258576,6.21091519512256,4.34315072253681,-4.03933983385416,-1.23769312497552,5.27703295882968
1.304958409852,1.9589728649836,6.52078886525006,4.56181600026646,-4.23988086511683,-1.30142156764143,5.54130243275826
1.30711893702063,1.95873063727159,5.75157153151225,3.79284089424066,-3.85515108439192,-0.917055128484533,4.77220621287645
1.30927946418926,1.88384858261684,4.27576619535464,2.3919176127378,-3.07980738898574,-0.254034515060477,3.33384190404622
1.31143999135789,1.75357694560893,2.85052382257935,1.09694687697042,-2.30205038409414,0.328315034319257,1.97373534977488
1.31360051852652,1.57230540621257,2.24174789315428,0.669442486941712,-1.90702664968343,0.45143145963543,1.455595190048
1.31576104569515,1.33517158029572,2.8601028803875,1.52493130009178,-2.09763723034161,-0.0948798598980325,2.19251709023964
1.31792157286378,1.06716889839598,4.51999676568068,3.4528278672847,-2.79358283203833,-1.19282948444436,3.98641231648269
1.32008210003241,0.848526633732796,6.47440139757374,5.62587476384095,-3.66146401565327,-2.38867406505408,6.05013808070735
1.32224262720104,0.777254973768063,7.79121658358989,7.01396160982183,-4.28423577867898,-3.11835331802688,7.40258909670586
1.32440315436967,0.892155858566316,7.85003998561601,6.95788412704969,-4.37109792209116,-3.03286413424169,7.40396205633285
1.3265636815383,1.13134521346215,6.63445510464557,5.50310989118343,-3.88290015905386,-2.18588233886064,6.0687824979145
1.32872420870692,1.37057846488957,4.73387711444508,3.36329864955551,-3.05222778966733,-0.996360092332973,4.0485878820003
1.33088473587555,1.49937129988146,3.09597966593428,1.59660836605282,-2.29767548290787,-0.0486185330856816,2.34629401599355
1.33304526304418,1.47362933062351,2.54781225549756,1.07418292487405,-2.01072079306054,0.199723202874733,1.8109975901858
1.33520579021281,1.32331483494232,3.30039489411941,1.97708005917709,-2.31185486453087,-0.326882612117382,2.63873747664825
1.33736631738144,1.11868759198097,4.82209654011701,3.70340894813605,-2.97039206604899,-1.29236067807754,4.26275274412653
1.33952684455007,0.928420564245052,6.19955940475036,5.27113884050531,-3.56398998449771,-2.17135913813013,5.73534912262783
1.3416873717187,0.799726236139112,6.68412547007549,5.88439923393637,-3.7419258531073,-2.54233649889863,6.28426235200593
1.34384789888733,0.755463700402377,6.06586382935996,5.31040012895758,-3.41066376488117,-2.2774682142776,5.68813197915877
1.34600842605596,0.792791464228756,4.76762265256489,3.97483118833613,-2.78020705839682,-1.59101986205369,4.37122692045051
1.34816895322459,0.870046621827605,3.6498187745083,2.77977215268069,-2.25993269816795,-0.954862765426544,3.21479546359449
1.35032948039322,0.916881549536544,3.52770553703019,2.61082398749365,-2.22229354328337,-0.846971218978553,3.06926476226192
1.35249000756185,0.893480193479096,4.65237041410663,3.75889022062753,-2.77292530379286,-1.43270501357422,4.20563031736708
1.35465053473047,0.816707841438845,6.537598564106,5.72089072266715,-3.67715320277242,-2.45209144061415,6.12924464338658
1.3568110618991,0.715582855152057,8.23354514872415,7.5179622935721,-4.47456400193811,-3.40118971921002,7.87575372114813
1.35897158906773,0.596517852864942,8.83693505941399,8.24041720654905,-4.71672645613947,-3.82194967684205,8.53867613298152
1.36113211623636,0.457440666909296,7.95334718708202,7.49590652017273,-4.20539392699566,-3.51923292663172,7.72462685362738
1.36329264340499,0.309716127873742,5.89377061373388,5.58405448586014,-3.10174337080381,-2.6371691789932,5.73891254979701
1.36545317057362,0.178416031787318,3.51607768447573,3.33766165268841,-1.84724685813152,-1.57962281045054,3.42686966858207
1.36761369774225,0.0912175269947078,1.80604235932523,1.71482483233052,-0.94862994315997,-0.811803652667908,1.76043359582788
1.36977422491088,0.0713165273234857,1.40589505655028,1.33457852922679,-0.738605791936882,-0.631631000951653,1.37023679288854
1.37193475207951,0.137936945311683,2.28996902807118,2.15203208275949,-1.21395298669143,-1.00704756872391,2.22100055541534
1.37409527924814,0.295310197668865,3.76963489243409,3.47432469476523,-2.03247254505148,-1.58950724854818,3.62197979359966
1.37625580641677,0.51470980291737,4.88619015774034,4.37148035482297,-2.70044998032886,-1.9283852759528,4.62883525628166
1.37841633358539,0.749886559105311,4.96427208301616,4.21438552391084,-2.85707932106073,-1.73224948240277,4.5893288034635
1.38057686075402,0.964924183068408,3.96592029999081,3.0009961169224,-2.46542224152961,-1.018035966927,3.48345820845661
1.38273738792265,1.13738445082903,2.46996919767309,1.33258474684405,-1.80367682425106,-0.0976001480075102,1.90127697225857
1.38489791509128,1.26246439352116,1.34941999036334,0.0869555968421771,-1.30594219194225,0.587754398339492,0.718187793602757
1.38705844225991,1.35994997349447,1.30065320278795,-0.0592967707065224,-1.33030158814121,0.709623372100497,0.620678216040713
1.38921896942854,1.45000053486234,2.42289832317379,0.972897788311446,-1.93644942901807,0.238551373275449,1.69789805574262
1.39137949659717,1.5314120503803,4.14432027492415,2.61290822454385,-2.83786616265222,-0.540748087081777,3.378614249734
1.3935400237658,1.60148743574226,5.59212662240928,3.99063918666702,-3.59680702907577,-1.19457587546238,4.79138290453815
1.39570055093443,1.66545167663977,6.07942620870448,4.41397453206471,-3.87243894267213,-1.37426142771247,5.2467003703846
1.39786107810306,1.71809751567029,5.3961609479335,3.67806343226321,-3.55712923180189,-0.979982958296462,4.53711219009835
1.40002160527169,1.74360416952958,3.90355406142538,2.1599498918958,-2.82357911547748,-0.208172861183112,3.03175197666059
1.40218213244032,1.72834870032268,2.40578443045791,0.677435730135224,-2.06706656539029,0.525456485093729,1.54161008029657
1.40434265960894,1.66471763375295,1.71722778592117,0.0525101521682192,-1.69097270983706,0.806103740792365,0.884868969044693
1.40650318677757,1.55825184621167,2.16161167460636,0.603359828394689,-1.85993176040902,0.477446008908492,1.38248575150053
1.4086637139462,1.43838430471392,3.38986830885411,1.95148400414019,-2.41412630678402,-0.256549849713132,2.67067615649715
1.41082424111483,1.337638506079,4.60025582445385,3.26261731837485,-2.96894716526643,-0.962489406147926,3.93143657141435
1.41298476828346,1.24920014234678,4.98656664138304,3.73736649903626,-3.11788339186491,-1.24408317834474,4.36196657020965
1.41514529545209,1.13609892314811,4.19957740082577,3.06347847767766,-2.66783816198694,-0.963689777264776,3.63152793925171
1.41730582262072,0.98640114648512,2.57251934630833,1.58611819982321,-1.77946024639672,-0.299858526669043,2.07931877306577
1.41946634978935,0.829482234441087,0.941742922534054,0.112260688092967,-0.885612578487571,0.35861077317406,0.52700180531351
1.42162687695798,0.707816425626996,0.167770074936783,-0.540046350690213,-0.43779325028189,0.623931388158605,-0.186138137876715
1.42378740412661,0.654293821026503,0.66657686728103,0.0122830462545274,-0.660435344153766,0.321005387385988,0.339429956767779
1.42594793129524,0.678244283639797,2.21849394520817,1.54024966156837,-1.44836911442398,-0.431002688964286,1.87937180338827
1.42810845846387,0.758028112055667,4.09648632382725,3.33845821177158,-2.42725721794146,-1.29021504985796,3.71747226779942
1.43026898563249,0.856785176858182,5.40139838184368,4.5446132049855,-3.12909177935093,-1.84391401406366,4.97300579341459
1.43242951280112,0.95102797803164,5.49696606221307,4.54593808418143,-3.22399702012235,-1.79745505307489,5.02145207319725
1.43459003996975,1.03971522590124,4.35637335418425,3.31665812828301,-2.69804429004274,-1.13847145119088,3.83651574123363
1.43675056713838,1.12406169246469,2.5796393442882,1.45557765182351,-1.85185051837644,-0.165757979679407,2.01760849805585
1.43891109430701,1.19337862466464,1.05490092435282,-0.138477700311819,-1.12413977450873,0.66592816248823,0.458211612020501
1.44107162147564,1.24034329735406,0.46747377061633,-0.772869526737727,-0.853908533985194,1.00660641204589,-0.152697878060699
1.44323214864427,1.26610057295019,0.922914902769115,-0.343185670181075,-1.09450773785965,0.804643121565633,0.28986461629402
1.4453926758129,1.25856198943137,1.893865754241,0.635303764809633,-1.57621387183618,0.311629112310866,1.26458475952532
1.44755320298153,1.19041681137772,2.54660818713161,1.35619137575389,-1.86851249925467,-0.0828872821880804,1.95139978144275
1.44971373015016,1.04939879904808,2.26591208487167,1.21651328582358,-1.65765544195987,-0.0835572433877498,1.74121268534762
1.45187425731879,0.861814542123925,1.02001502436796,0.158200482244039,-0.940914783245945,0.351807029939943,0.589107753306002
1.45403478448741,0.686372060551689,-0.649680558331511,-1.3360526188832,-0.0183457511100888,1.01121233971744,-0.992866588607355
1.45619531165604,0.58762320959185,-1.92573561049446,-2.51335882008631,0.669056200451303,1.55049101483908,-2.21954721529038
1.45835583882467,0.60795160528534,-2.13158312591461,-2.73953473119995,0.761815760314635,1.67374316824264,-2.43555892855728
1.4605163659933,0.75093182585764,-1.10765654178269,-1.85858836764033,0.178362357962524,1.30476009674898,-1.48312245471151
1.46267689316193,0.978883099901838,0.686440311445331,-0.292442788456507,-0.832661705673584,0.635662944179172,0.196998761494412
1.46483742033056,1.22444084818752,2.42603014703876,1.20158929885124,-1.82523549761314,0.0114257746681368,1.813809722945
1.46699794749919,1.41320214524753,3.33153914343281,1.91833699818527,-2.37237064434017,-0.252567426468872,2.62493807080904
1.46915847466782,1.49086188979356,3.05260098248953,1.56173909269597,-2.27173143614155,-0.0354386014512009,2.30717003759275
1.47131900183645,1.44862396815862,1.91504433621574,0.466420368057113,-1.68183415218718,0.491101800050755,1.19073235213642
1.47347952900508,1.32762553998102,0.826761239375038,-0.500864300605981,-1.07719338967803,0.9142449202935,0.162948469384529
1.47564005617371,1.19157810511889,0.790262834508482,-0.401315270610407,-0.990920469813686,0.796446687864648,0.194473781949037
1.47780058334234,1.09952639997942,2.32578848746153,1.22626208748211,-1.71265744372047,-0.0633678437513474,1.77602528747182
1.47996111051096,1.0915805794313,5.19626617339933,4.10468559396803,-3.14392337641531,-1.50655250726837,4.65047588368368
1.48212163767959,1.1717995991702,8.57910134649116,7.40730174732096,-4.87545047283068,-3.11775107407538,7.99320154690606
1.48428216484822,1.30827485247642,11.5146972950799,10.2064224426035,-6.41148607377818,-4.44907379506355,10.8605598688417
1.48644269201685,1.4500408779027,13.3224517276121,11.8724108497094,-7.3862463027574,-5.21118498590336,12.5974312886608
1.48860321918548,1.54003264235431,13.7856447278194,12.2456120854651,-7.66283868508687,-5.3527897215554,13.0156284066423
1.49076374635411,1.53925776766572,13.1161513554644,11.5768935877987,-7.32770456156505,-5.01881791006648,12.3465224716315
1.49292427352274,1.44891055576648,11.7717371304206,10.3228265746541,-6.61032384309352,-4.4369580094438,11.0472818525373
1.49508480069137,1.2986486568938,10.1630492328643,8.86440057597054,-5.73084894487906,-3.78287595953837,9.51372490441743
1.49724532786,1.12428586117849,8.37937675985826,7.25509089867977,-4.75183131051838,-3.06540251875064,7.81723382926902
1.49940585502863,0.967538553549273,6.1446860841704,5.17714753062112,-3.55611231885983,-2.10480448853592,5.66091680739576
1.50156638219726,0.871938171396666,3.07211226551394,2.20017409411728,-1.9720252184553,-0.664117961360306,2.63614317981561
1.50372690936589,0.854381554621137,-0.948981238270925,-1.80336279289206,0.047299841824894,1.3288721737566,-1.37617201558149
1.50588743653451,0.895396174184294,-5.49915223626498,-6.39454841044927,2.30187803104034,3.64497229231678,-5.94685032335712
1.50804796370314,0.958502217471329,-9.67776243244787,-10.6362646499192,4.35963010748827,5.79738343369526,-10.1570135411835
1.51020849087177,0.999624247491374,-12.4330517991511,-13.4326760466424,5.71671377582984,7.2161501470669,-12.9328639228967
1.5123690180404,0.980620815262526,-13.0256281511108,-14.0062489663733,6.02250366792413,7.49343489081792,-13.5159385587421
1.51452954520903,0.901440932440012,-11.4266179744777,-12.3280589069177,5.26258852101886,6.61474991967888,-11.8773384406977
1.51669007237766,0.795790686575025,-8.41034269378613,-9.20613338036115,3.80727600360555,5.00096203346809,-8.80823803707364
1.51885059954629,0.69057605724899,-5.21394841828231,-5.9045244755313,2.26168618051666,3.29755026639015,-5.55923644690681
1.52101112671492,0.602138702096363,-2.95782564917007,-3.55996435126643,1.17784347353685,2.0810515266814,-3.25889500021825
1.52317165388355,0.561407722627608,-2.1800066081811,-2.74141433080871,0.809299442776747,1.65141102671816,-2.46071046949491
1.52533218105218,0.60833148252342,-2.67153297429956,-3.27986445682298,1.03160074588807,1.9440979696732,-2.97569871556127
1.52749270822081,0.753120042372986,-3.64188848794059,-4.39500853031358,1.4443842227838,2.57406428634328,-4.01844850912708
1.52965323538943,0.948321992899769,-4.1781610281863,-5.12648302108607,1.61491951764327,3.03740250699292,-4.65232202463619
1.53181376255806,1.11213958312735,-3.76441907885851,-4.87655866198586,1.32613974786558,2.9943491225566,-4.32048887042218
1.53397428972669,1.17756142253316,-2.51065650048509,-3.68821792301825,0.666547538975966,2.4328896727757,-3.09943721175167
1.53613481689532,1.12079532926812,-1.01668196283707,-2.13747729210519,-0.052056683215524,1.62913631068665,-1.57707962747113
1.53829534406395,0.967700604362808,-0.056087562765704,-1.02378816712851,-0.455806520798552,0.99574438574566,-0.539937864947108
1.54045587123258,0.774326092608081,-0.17522078882093,-0.949546881429011,-0.299552651893576,0.861936487018546,-0.562383835124971
1.54261639840121,0.586046220287299,-1.32543060294499,-1.91147682323229,0.369692191328846,1.24876152175979,-1.61845371308864
1.54477692556984,0.412321871590331,-2.82970855644577,-3.2420304280361,1.20869334242772,1.82717614981321,-3.03586949224093
1.54693745273847,0.24847496546664,-3.78076851713008,-4.02924348259672,1.76614677583172,2.13885922403168,-3.9050059998634
1.5490979799071,0.11398688053585,-3.56247530959089,-3.67646219012674,1.72424421452752,1.8952245353313,-3.61946874985882
1.55125850707573,0.0374710122786519,-2.16033290689639,-2.19780391917504,1.06143094730887,1.11763746572684,-2.17906841303571
1.55341903424436,0.0214408829886912,-0.179250840772177,-0.200691723760868,0.0789049788917429,0.11106630337478,-0.189971282266522
1.55557956141298,0.0543676140875888,1.41984065178173,1.36547303769414,-0.737104132934661,-0.655552711803278,1.39265684473794
1.55774008858161,0.129425930103614,1.81855028016638,1.68912435006276,-0.973988105134996,-0.779849209979575,1.75383731511457
1.55990061575024,0.241525345348711,0.809015834742077,0.567490489393366,-0.525270590045394,-0.162982572022328,0.688253162067721
1.56206114291887,0.391742930978986,-1.09647687652053,-1.48821980749951,0.35236697277077,0.939981369239249,-1.29234834201002
1.5642216700875,0.588024689917507,-2.9529782511771,-3.54100294109461,1.1824767806298,2.06451381550606,-3.24699059613585
1.56638219725613,0.81936094944173,-3.87003992170549,-4.68940087114722,1.52533948613188,2.75438091029448,-4.27972039642636
1.56854272442476,1.03259111744527,-3.47736353842495,-4.50995465587022,1.22238621048984,2.77127288665775,-3.99365909714758
1.57070325159339,1.15388115324949,-2.12143621227413,-3.27531736552362,0.483777529512323,2.21459925938655,-2.69837678889888
1.57286377876202,1.14140899861245,-0.62797751583151,-1.76938651444396,-0.256715741390471,1.45539775652821,-1.19868201513774
1.57502430593065,1.01614023722391,0.199998646714931,-0.816141590508982,-0.608069441969422,0.916140913866448,-0.308071471897025
1.57718483309928,0.844312606258187,0.00233152477223797,-0.841981081485949,-0.423322065515213,0.843146843872068,-0.419824778356856
1.57934536026791,0.693438928037429,-0.967657926991677,-1.66109685502911,0.137109499477124,1.17726789153327,-1.31437739101039
1.58150588743653,0.603783798367641,-1.97897412645895,-2.58275792482659,0.687595164045655,1.59327086159712,-2.28086602564277
1.58366641460516,0.582238402813329,-2.2686468257835,-2.85088522859683,0.843204211485085,1.71656181570508,-2.55976602719016
1.58582694177379,0.603983587113662,-1.53656756437972,-2.14055115149339,0.466291988633031,1.37226736930352,-1.83855935793655
1.58798746894242,0.638206768092351,-0.132360306995018,-0.770567075087369,-0.252923230548666,0.70438692158986,-0.451463691041194
1.59014799611105,0.681581575617918,1.15737507998031,0.475793504362394,-0.919478327799115,0.102894035627762,0.816584292171353
1.59230852327968,0.749312578563585,1.54209621734135,0.79278363877776,-1.14570439795247,-0.0217355301070876,1.16743992805955
1.59446905044831,0.841577973277858,0.631343029609965,-0.210234943667893,-0.736460501443912,0.525906458472876,0.210554042971036
1.59662957761694,0.931324633685485,-1.33547828536442,-2.26680291904991,0.202076825839469,1.5990637763677,-1.80114060220717
1.59879010478557,0.979799266917348,-3.51960726024543,-4.49940652716278,1.26990399666404,2.73960289704006,-4.0095068937041
1.6009506319542,0.964341625322239,-4.86157507420153,-5.82591669952377,1.94861672443965,3.395129162423,-5.34374588686265
1.60311115912283,0.891959972391272,-4.66865668949369,-5.56061666188496,1.88834835855121,3.22628831713812,-5.11463667568932
1.60527168629146,0.777270646729567,-3.00736928312792,-3.78463992985749,1.11504931819918,2.28095528829353,-3.39600460649271
1.60743221346008,0.608151440645467,-0.645662264552328,-1.2538137051978,0.0187554119534306,0.930982572921631,-0.949737984875062
1.60959274062871,0.362155118257933,1.35013767935804,0.987982561100109,-0.856146398807987,-0.312913721421088,1.16906012022908
1.61175326779734,0.0681288428133522,2.13711239131229,2.06898354849893,-1.10262061706282,-1.00042735284279,2.10304796990561
1.61391379496597,-0.184923547735025,1.51266506715988,1.6975886148949,-0.663870759712427,-0.941256081314965,1.60512684102739
1.6160743221346,-0.317542081261215,-0.0223083774314432,0.295233703829772,0.169925229346329,-0.306387892545493,0.136462663199164
1.61823484930323,-0.304332949686087,-1.60172436009199,-1.29739141040591,0.95302865488904,0.49652923035991,-1.44955788524895
1.62039537647186,-0.146861175790225,-2.46460822518723,-2.31774704939701,1.30573470048873,1.08544293680339,-2.39117763729212
1.62255590364049,0.136193173318962,-2.29606771147702,-2.43226088479598,1.07993726907903,1.28422702905747,-2.3641642981365
1.62471643080912,0.484172427560589,-1.36279657307533,-1.84696900063592,0.43931207275737,1.16557071409825,-1.60488278685562
1.62687695797775,0.811693941986917,-0.367213829416023,-1.17890777140294,-0.222240056285447,0.995300856694929,-0.773060800409482
1.62903748514638,1.04416072875797,-0.0275024026421491,-1.07166313140012,-0.508329163057913,1.05791193007905,-0.549582767021136
1.631198012315,1.12615954176661,-0.651006677054987,-1.7771662188216,-0.237576432355812,1.4516628802941,-1.21408644793829
1.63335853948363,1.03732415657521,-1.96175566914562,-2.99907982572083,0.462215756285201,2.01820199114802,-2.48041774743322
1.63551906665226,0.814069375627746,-3.23260322492263,-4.04667260055038,1.20926692464744,2.43037098808906,-3.63963791273651
1.63767959382089,0.538086421856296,-3.65975431142562,-4.19784073328192,1.56083394478466,2.36796357756911,-3.92879752235377
1.63984012098952,0.300318110674758,-2.82481092820602,-3.12512903888078,1.26224640876563,1.71272357477777,-2.9749699835434
1.64200064815815,0.169159257365308,-0.983534614691841,-1.15269387205715,0.407187678663266,0.660926564711229,-1.0681142433745
1.64416117532678,0.156551885111187,1.03601702308951,0.879465137978319,-0.596284454100347,-0.361456626433566,0.957741080533913
1.64632170249541,0.200471542492743,2.28073291044299,2.08026136795025,-1.24060222646787,-0.939894912728754,2.18049713919662
1.64848222966404,0.214750898826451,2.18470602065909,1.96995512183264,-1.19972845974277,-0.877602111503095,2.07733057124587
1.65064275683267,0.157888045006318,0.862235014971439,0.704346969965122,-0.510061529988878,-0.273229462479402,0.78329099246828
1.6528032840013,0.0395496363403414,-0.97167630311116,-1.0112259394515,0.466063333385409,0.525387787895921,-0.99145112128133
1.65496381116993,-0.103540835882556,-2.40225674515438,-2.29871590927182,1.25289879051847,1.09758753669463,-2.3504863272131
1.65712433833855,-0.227770012986882,-2.79482694081016,-2.56705692782328,1.51129847689852,1.1696434574182,-2.68094193431672
1.65928486550718,-0.317962144090586,-2.09044087253896,-1.77247872844837,1.20420150831477,0.727258292178892,-1.93145980049366
1.66144539267581,-0.394382618597534,-0.798460433378267,-0.404077814780733,0.596421525987901,0.00484759809159918,-0.6012691240795
1.66360591984444,-0.45838965733326,0.268496931172876,0.726886588506137,0.0949463630801919,-0.592638122919698,0.497691759839507
1.66576644701307,-0.45746557906271,0.411521311586192,0.868986890648902,0.0229721337382589,-0.663226234855806,0.640254101117547
1.6679269741817,-0.328250354226516,-0.541053623793566,-0.21280326956705,0.434651989010041,-0.0577235423297333,-0.376928446680308
1.67008750135033,-0.0631085070022062,-2.0852682288491,-2.02215972184689,1.07418836792565,0.979525607422342,-2.05371397534799
1.67224802851896,0.277330350061456,-3.32159804182853,-3.59892839188999,1.52213384588354,1.93812937097572,-3.46026321685926
1.67440855568759,0.605721277127346,-3.48271967595549,-4.08844095308283,1.43849919941407,2.34708111510509,-3.78558031451916
1.67656908285622,0.85000039150297,-2.35095117430026,-3.20095156580323,0.750475391398647,2.0254759786531,-2.77595137005175
1.67872961002485,0.972898634506692,-0.366246628608721,-1.33914526311541,-0.303326002948986,1.15602194881105,-0.852695945862067
1.68089013719348,0.979995770152767,1.56768882793107,0.587693057778305,-1.27384229904192,0.196151356187231,1.07769094285469
1.6830506643621,0.919209143503741,2.51109054552909,1.59188140202535,-1.71514984451642,-0.336336129260806,2.05148597377722
1.68521119153073,0.854250987407986,1.99624559721308,1.1419946098051,-1.42524829231053,-0.143871811198555,1.56912010350909
1.68737171869936,0.820636501161052,0.302474297121456,-0.518162204039595,-0.561555399141254,0.669399352600323,-0.107843953459069
1.68953224586799,0.80642678091106,-1.71405650880007,-2.52048328971113,0.453814863944505,1.6634550353111,-2.1172698992556
1.69169277303662,0.778301538823678,-3.09217508345513,-3.87047662227881,1.15693677231573,2.32438908055124,-3.48132585286697
1.69385330020525,0.729817110235114,-3.2485757576296,-3.97839286786471,1.25937932369724,2.35410498904991,-3.61348431274715
1.69601382737388,0.695324412388494,-2.25791620497183,-2.95324061736033,0.78129589629167,1.82428251487441,-2.60557841116608
1.69817435454251,0.712300797068555,-0.779251454277542,-1.4915522513461,0.0334753286044935,1.10192652420733,-1.13540185281182
1.70033488171114,0.787888848969845,0.339547263552753,-0.448341585417093,-0.563718056261299,0.618115217193469,-0.0543971609321701
1.70249540887977,0.902243239510611,0.503803128527124,-0.398440110983487,-0.703023184018868,0.650341675247049,0.0526815087718189
1.7046559360484,1.02518130880429,-0.361141096615341,-1.38632240541963,-0.332020106094473,1.20575185711196,-0.873731751017485
1.70681646321702,1.12994202528244,-1.75973176096898,-2.88967378625141,0.314894867843269,2.00980790576692,-2.32470277361019
1.70897699038565,1.20029732015334,-2.8568668757928,-4.05716419594614,0.828284777819726,2.62873075804974,-3.45701553586947
1.71113751755428,1.23301410145705,-2.97513690631408,-4.20815100777113,0.871061402428515,2.72058255461409,-3.5916439570426
1.71329804472291,1.24265399604055,-2.03059352928539,-3.27324752532594,0.393969766622422,2.25795076068324,-2.65192052730566
1.71545857189154,1.25172358689576,-0.56840121812364,-1.8201248050194,-0.34166118438606,1.53592419595758,-1.19426301157152
1.71761909906017,1.26544854573622,0.573509995107457,-0.691938550628763,-0.919479270421839,0.978693548182492,-0.0592142777606528
1.7197796262288,1.270297505149,0.730093433613924,-0.540204071535081,-1.00019546938146,0.905250788342042,0.0949446810394214
1.72194015339743,1.25587073681907,-0.214142568396035,-1.4700133052151,-0.520864084211517,1.36294202101709,-0.84207793680557
1.72410068056606,1.22041503424098,-1.72072351753519,-2.94113855177617,0.250154241647104,2.08077679300858,-2.33093103465568
1.72626120773469,1.16057540947463,-2.88548154553127,-4.0460569550059,0.862453068028322,2.60331618224026,-3.46576925026858
1.72842173490332,1.06881544109388,-2.99238133147886,-4.06119677257274,0.961782945192491,2.56500610683331,-3.5267890520258
1.73058226207195,0.944629857176616,-1.93973613478369,-2.8843659919603,0.497553138803535,1.91449792456846,-2.41205106337199
1.73274278924057,0.808229261925298,-0.277875914944758,-1.08610517687006,-0.26517667349027,0.947167219397677,-0.681990545907407
1.7349033164092,0.687599107654267,1.07248131691792,0.384882209263656,-0.880040212286095,0.151358449195306,0.728681763090789
1.73706384357783,0.594871375524447,1.28417277134915,0.689301395824701,-0.939522073436797,-0.0472150101501274,0.986737083586925
1.73922437074646,0.536205158601263,0.0931637077852514,-0.443041450816012,-0.314684433193257,0.489623304708638,-0.17493887151538
1.74138489791509,0.519497854657846,-2.03636073402153,-2.55585858867937,0.758431439681841,1.53767822166861,-2.29610966135045
1.74354542508372,0.530584943744437,-4.17332263603269,-4.70390757977713,1.82136884614413,2.61724626176078,-4.43861510790491
1.74570595225235,0.535284239068335,-5.38463539041152,-5.91991962947986,2.42467557567159,3.2276019342741,-5.65227750994569
1.74786647942098,0.514109712921995,-5.17120625959834,-5.68531597252033,2.32854827333817,3.09971284272116,-5.42826111605933
1.75002700658961,0.468361137958002,-3.74082531706821,-4.20918645502622,1.63623208955511,2.33877379649211,-3.97500588604722
1.75218753375824,0.398989636619629,-1.93152944783198,-2.33051908445161,0.766269905606178,1.36475436053562,-2.1310242661418
1.75434806092687,0.310368988405068,-0.737235493864567,-1.04760448226964,0.21343325272975,0.678986735337352,-0.892419988067101
1.7565085880955,0.23299529010921,-0.750719635895173,-0.983714926004383,0.258862172892982,0.608355108056796,-0.867217280949778
1.75866911526412,0.212376115040046,-1.90349481973809,-2.11587093477814,0.845559352349023,1.16412352490909,-2.00968287725812
1.76082964243275,0.267677002624821,-3.56645729679387,-3.83413429941869,1.64939014708453,2.05090565102176,-3.70029579810628
1.76299016960138,0.375128705237517,-4.88117903638926,-5.25630774162677,2.25302516557587,2.81571822343214,-5.06874338900801
1.76515069677001,0.498112357683037,-5.2116676661328,-5.70978002381583,2.35677765422488,3.10394619074944,-5.46072384497432
1.76731122393864,0.61895446766325,-4.50667586855308,-5.12563033621633,1.94386070044492,2.87229240193979,-4.81615310238471
1.76947175110727,0.722862328353913,-3.3025535374875,-4.02541586584142,1.2898456045668,2.37413909709767,-3.66398470166446
1.7716322782759,0.770553837543028,-2.38244623844491,-3.15300007598794,0.805946200450943,1.96177695676548,-2.76772315721643
1.77379280544453,0.719210998748379,-2.35825985367117,-3.07747085241955,0.819524427461396,1.89834092558396,-2.71786535304536
1.77595333261316,0.565737860757751,-3.34479432527289,-3.91053218603064,1.38952823225757,2.23813502339419,-3.62766325565176
1.77811385978179,0.356960643421988,-4.83745752113821,-5.19441816456019,2.24024843885811,2.77568940399109,-5.0159378428492
1.78027438695042,0.16643555324296,-5.9604328136754,-6.12686836691836,2.89699863021622,3.14665196008066,-6.04365059029688
1.78243491411904,0.0576706769026667,-6.01415210383196,-6.07182278073463,2.97824071346465,3.06474672881865,-6.04298744228329
1.78459544128767,0.0462997813110637,-4.90973200789778,-4.95603178920884,2.43171611329336,2.50116578525995,-4.93288189855331
1.7867559684563,0.0973750456952147,-3.18780015635307,-3.28517520204828,1.54521255532893,1.69127512387175,-3.23648767920068
1.78891649562493,0.173514965255223,-1.71359265094409,-1.88710761619932,0.770038842844435,1.03031129072727,-1.80035013357171
1.79107702279356,0.271872703425442,-1.24988893889943,-1.52176164232487,0.489008117736995,0.896817172875158,-1.38582529061215
1.79323754996219,0.394448951257468,-2.04763138098149,-2.44208033223896,0.826591214862012,1.41826464174821,-2.24485585661023
1.79539807713082,0.516098462660499,-3.66460315213418,-4.18070161479468,1.57425234473684,2.34840003872759,-3.92265238346443
1.79755860429945,0.614278871699561,-5.17025092981457,-5.78452980151413,2.27798602905751,3.19940433660685,-5.47739036566435
1.79971913146808,0.693064196320427,-5.64547033975763,-6.33853453607805,2.4762030717186,3.51579936619924,-5.99200243791784
1.80187965863671,0.762373547040844,-4.69178992947824,-5.45416347651909,1.9647081912187,3.10826851177997,-5.07297670299867
1.80404018580534,0.818607677901991,-2.65712039386156,-3.47572807176355,0.919256357979785,2.14716787483277,-3.06642423281256
1.80620071297397,0.843952702683965,-0.464665910278285,-1.30861861296225,-0.18964339620284,1.07628565782311,-0.886642261620267
1.80836124014259,0.819055786428051,0.862964986600439,0.0439092001723872,-0.841010386514245,0.387573293127832,0.453437093386413
1.81052176731122,0.744260274720152,0.733641355535255,-0.0106189191848972,-0.738950815127704,0.377439596952525,0.361511218175179
1.81268229447985,0.652883680307455,-0.737763943093562,-1.39064762340102,0.0424401313930531,1.02176565185424,-1.06420578324729
1.81484282164848,0.587388174876521,-2.82209573592677,-3.40948391080329,1.11735378052513,1.99843604283991,-3.11578982336503
1.81700334881711,0.553850043209468,-4.52943879761271,-5.08328884082218,1.98779437720162,2.81856944201582,-4.80636381921745
1.81916387598574,0.527250667599214,-5.09267821586197,-5.61992888346118,2.28271377413138,3.0735897755302,-5.35630354966157
1.82132440315437,0.501055095013346,-4.38685129097258,-4.88790638598593,1.94289809797962,2.69448074049964,-4.63737883847926
1.823484930323,0.489738329683966,-2.9944181108808,-3.48415644056476,1.25233989059842,1.98694738512437,-3.23928727572278
1.82564545749163,0.484699700894066,-1.85022045281946,-2.33492015371353,0.682760375962697,1.4098099273038,-2.09257030326649
1.82780598466026,0.455530156907588,-1.72356188620419,-2.17909204311178,0.6340158646483,1.31731110000968,-1.95132696465798
1.82996651182889,0.397336148040653,-2.81235108761866,-3.20968723565931,1.207507469789,1.80351169184998,-3.01101916163898
1.83212703899752,0.339068823570451,-4.60790479942868,-4.94697362299913,2.13441798792912,2.64302122328479,-4.77743921121391
1.83428756616614,0.312799950903708,-6.1395518425212,-6.45235179342491,2.91337594580875,3.38257587216431,-6.29595181797306
1.83644809333477,0.339808478075809,-6.53413957330138,-6.87394805137719,3.09716554761279,3.6068782647265,-6.70404381233929
1.8386086205034,0.420080776903789,-5.54261457022152,-5.96269534712531,2.56126689665886,3.19138806201455,-5.75265495867341
1.84076914767203,0.512600611395231,-3.66199945123117,-4.1746000626264,1.57469941991797,2.34360033701082,-3.91829975692879
1.84292967484066,0.552928224376776,-1.81136106978398,-2.36428929416076,0.629216422703602,1.45860875926877,-2.08782518197237
1.84509020200929,0.510728374915564,-0.842072776907067,-1.35280115182263,0.165672200995751,0.931764763369097,-1.09743696436485
1.84725072917792,0.421658094389976,-1.14571631693658,-1.56737441132656,0.362029111273303,0.994516252858267,-1.35654536413157
1.84941125634655,0.35479651947936,-2.47030043295983,-2.82509695243919,1.05775195674024,1.58994673595928,-2.64769869269951
1.85157178351518,0.348329261996298,-4.04496547124917,-4.39329473324547,1.84831810462644,2.37081199762088,-4.21913010224732
1.85373231068381,0.379065201487767,-5.01151667450878,-5.39058187599655,2.31622573651051,2.88482353874216,-5.20104927525267
1.85589283785244,0.39814291889576,-4.90083641363558,-5.29897933253134,2.25134674736991,2.84856112571355,-5.09990787308346
1.85805336502107,0.393230781517811,-3.85779430450816,-4.25102508602597,1.73228176149517,2.32212793377189,-4.05440969526707
1.86021389218969,0.404272966647048,-2.53602863112787,-2.94030159777491,1.06587783224041,1.67228728221098,-2.73816511445139
1.86237441935832,0.481622770887891,-1.7407609745206,-2.22238374540849,0.629569101816353,1.35200325814819,-1.98157235996454
1.86453494652695,0.64210218830575,-1.97446828485509,-2.61657047316084,0.666183048274671,1.6293363307333,-2.29551937900797
1.86669547369558,0.855053116643413,-3.12862966521647,-3.98368278185988,1.13678827428653,2.41936794925165,-3.55615622353818
1.86885600086421,1.0576958253028,-4.52677656065795,-5.58447238596075,1.73454036767758,3.32108410563178,-5.05562447330935
1.87101652803284,1.19032165285394,-5.30343797678529,-6.49375962963923,2.05655816196568,3.84204064124659,-5.89859880321226
1.87317705520147,1.22090935130011,-4.89695095396982,-6.11786030526993,1.83802080133485,3.66938482828502,-5.50740562961987
1.8753375823701,1.14610489198923,-3.38774425023982,-4.53384914222905,1.1208196791253,2.83997701710914,-3.96079669623444
1.87749810953873,0.982737318874631,-1.48608706260583,-2.46882438148046,0.251674871865599,1.72578085017755,-1.97745572204315
1.87965863670736,0.756350313481101,-0.134428601750507,-0.890778915231608,-0.310960855865297,0.823564614356355,-0.512603758491058
1.88181916387599,0.497242157696358,0.0329237939741596,-0.464318363722199,-0.265082975835259,0.480780260709278,-0.21569728487402
1.88397969104461,0.247599763569881,-0.993433785464916,-1.2410335490348,0.372917010947518,0.744316656302338,-1.11723366724986
1.88614021821324,0.0595573673175998,-2.62495783897211,-2.68451520628971,1.28270023582725,1.37203628680365,-2.65473652263091
1.88830074538187,-0.0251930881905216,-3.95839737253234,-3.93320428434182,1.99179523036143,1.95400559807565,-3.94580082843708
1.8904612725505,-0.000747643266699072,-4.24400469352327,-4.24325705025657,2.12237616839499,2.12125470349494,-4.24363087188992
1.89262179971913,0.0931099129432376,-3.3431994598036,-3.43630937274684,1.62504477343018,1.76470964284504,-3.38975441627522
1.89478232688776,0.187843200031569,-1.81962664889289,-2.00746984892445,0.815891724430658,1.09765652447801,-1.91354824890867
1.89694285405639,0.221192938616293,-0.568739454452924,-0.789932393069217,0.173773257918316,0.505562665842755,-0.67933592376107
1.89910338122502,0.171749887401499,-0.32526517534426,-0.497015062745759,0.0767576439713805,0.334382475073629,-0.411140119045009
1.90126390839365,0.0683142904840983,-1.34252832389316,-1.41084261437726,0.63710701670453,0.739578452430678,-1.37668546913521
1.90342443556228,-0.0415718271958414,-3.24164305575707,-3.20007122856122,1.64160744147645,1.57924970068269,-3.22085714215915
1.90558496273091,-0.130651630002377,-5.11297706483343,-4.98232543483105,2.6218143474179,2.42583690241434,-5.04765124983224
1.90774548989954,-0.19518845008271,-5.9944141102545,-5.79922566017179,3.09480128016861,2.80201860504454,-5.89681988521314
1.90990601706816,-0.241676821677576,-5.44025162168301,-5.19857480000543,2.84096422168029,2.47844898916393,-5.31941321084422
1.91206654423679,-0.286488362068001,-3.74660798595472,-3.46011962388672,2.01654817401136,1.58681563090936,-3.60336380492072
1.91422707140542,-0.345230197965658,-1.76388641274864,-1.41865621478299,1.05455830535715,0.536713008408664,-1.59127131376581
1.91638759857405,-0.405309279560335,-0.473313642778102,-0.0680043632177665,0.439311461169219,-0.168652458171284,-0.270659002997934
1.91854812574268,-0.427251170148722,-0.49118330170641,-0.063932131557688,0.459217235927566,-0.181659519295517,-0.277557716632049
1.92070865291131,-0.381499621221164,-1.72489258597051,-1.34339296474935,1.05319610359584,0.480946671764092,-1.53414277535993
1.92286918007994,-0.265421007103966,-3.43446816914484,-3.16904716204087,1.8499445881244,1.45181307746845,-3.30175766559286
1.92502970724857,-0.0908413852242027,-4.67028732335088,-4.57944593812667,2.38056435428754,2.24430227645124,-4.62486663073878
1.9271902344172,0.117247590182685,-4.78222422235421,-4.89947181253689,2.33248831608576,2.50835970135979,-4.84084801744555
1.92935076158583,0.323135759013305,-3.73847668235714,-4.06161244137045,1.70767046167192,2.19237410019188,-3.90004456186379
1.93151128875446,0.503104649166559,-2.1295627635973,-2.63266741276386,0.81322905721537,1.56788603096521,-2.38111508818058
1.93367181592309,0.650624253922202,-0.843139778505995,-1.4937640324282,0.0962577622918965,1.0721941431752,-1.1684519054671
1.93583234309171,0.765874195041921,-0.56260082930377,-1.32847502434569,-0.101636682869076,1.04717460969381,-0.945537926824731
1.93799287026034,0.85913188154766,-1.3903289111431,-2.24946079269076,0.265598514797722,1.55429633711921,-1.81989485191693
1.94015339742897,0.939488726137348,-2.81687770900144,-3.75636643513879,0.938694491432048,2.34792758063807,-3.28662207207012
1.9423139245976,0.994306535971961,-4.00599729397235,-5.00030382994431,1.50584537900019,2.99730518295813,-4.50315056195833
1.94447445176623,1.00513788170814,-4.2376185986964,-5.24275648040453,1.61624035849413,3.12394718105633,-4.74018753955047
1.94663497893486,0.977641776700095,-3.32005092847481,-4.2976927051749,1.17120457588736,2.6376672409375,-3.80887181682486
1.94879550610349,0.940054075853705,-1.7286568957285,-2.66871097158221,0.394301409937397,1.80438252371796,-2.19868393365535
1.95095603327212,0.909791570351307,-0.349762350926222,-1.25955392127753,-0.280014609712543,1.08467274581442,-0.804658136101875
1.95311656044075,0.872952458222142,-0.000360757997254879,-0.873313216219397,-0.436295850112444,0.873132837220769,-0.436836987108326
1.95527708760938,0.804688290497575,-1.00068490198545,-1.80537319248302,0.0979983057439362,1.3050307414903,-1.40302904723424
1.95743761477801,0.690833886946005,-2.97220898491789,-3.66304287186389,1.14068754898594,2.17693837940495,-3.31762592839089
1.95959814194663,0.534753303485997,-4.98014802882533,-5.51490133231133,2.22269736266967,3.02482731789866,-5.24752468056833
1.96175866911526,0.367264639567161,-6.04052802042562,-6.40779265999278,2.83663169042923,3.38752864977997,-6.2241603402092
1.96391919628389,0.230421638721672,-5.70054317979448,-5.93096481851616,2.73506077053641,3.08069322861891,-5.81575399915532
1.96607972345252,0.138998826994399,-4.26502982527435,-4.40402865226875,2.06301549913998,2.27151373963157,-4.33452923877155
1.96824025062115,0.0861529473895417,-2.57186540329445,-2.65801835068399,1.24285622795245,1.37208564903677,-2.61494187698922
1.97040077778978,0.080251801118977,-1.5400652344022,-1.62031703552117,0.72990671664161,0.850284418320076,-1.58019113496169
1.97256130495841,0.137642139740996,-1.71369504380975,-1.85133718355074,0.788026452034376,0.99448966164587,-1.78251611368025
1.97472183212704,0.242361192915818,-2.97796482691463,-3.22032601983045,1.36780181699941,1.73134360637313,-3.09914542337254
1.97688235929567,0.341703258477169,-4.61350992030554,-4.95521317878271,2.13590333091419,2.64845821862994,-4.78436154954413
1.9790428864643,0.390683948370663,-5.7129875212693,-6.10367146963996,2.66115178644932,3.24717770900531,-5.90832949545463
1.98120341363293,0.390863895465726,-5.71692375603367,-6.1077876514994,2.66302993028397,3.24932577348256,-5.91235570376654
1.98336394080156,0.374297288518207,-4.70533894723062,-5.07963623574882,2.1655208293562,2.72696676213351,-4.89248759148972
1.98552446797018,0.361750191874936,-3.29706808199089,-3.65881827386583,1.46765894505798,2.01028423287038,-3.47794317792836
1.98768499513881,0.351438147666916,-2.29151934833496,-2.64295749600188,0.970040600334022,1.4971978218344,-2.46723842216842
1.98984552230744,0.337078912545044,-2.25622457395292,-2.59330348649797,0.959572830703939,1.4651911995215,-2.42476403022544
1.99200604947607,0.326014929007898,-3.23343606854802,-3.55945099755592,1.45371056977006,1.94273296328191,-3.39644353305197
1.9941665766447,0.334227532384709,-4.7019019626996,-5.03612949508431,2.18383721515744,2.68517851373451,-4.86901572889195
1.99632710381333,0.363541319587971,-5.82627541095095,-6.18981673053893,2.73136704568149,3.27667902506345,-6.00804607074494
1.99848763098196,0.389262485155869,-5.90179094754566,-6.29105343270153,2.7562642311949,3.3401579589287,-6.0964221901236
2.00064815815059,0.358831338712168,-4.78828731788581,-5.14711865659798,2.21472798958682,2.75297499765508,-4.9677029872419
2.00280868531922,0.209473733762854,-3.04849095910925,-3.25796469287211,1.4195086126732,1.73371921331748,-3.15322782599068
2.00496921248785,-0.0801187995606827,-1.63068557624057,-1.55056677667989,0.855402187900626,0.735223988559602,-1.59062617646023
2.00712973965648,-0.446813153927851,-1.30740657830744,-0.860593424379588,0.877109866117645,0.206890135225869,-1.08400000134351
2.00929026682511,-0.766059167275838,-2.27676423847767,-1.51070507120183,1.52141170287675,0.372322951962996,-1.89373465483975
2.01145079399373,-0.933924651415015,-4.08426575210076,-3.15034110068574,2.50909520175789,1.10820822463536,-3.61730342639325
2.01361132116236,-0.929534537641743,-5.81790123310426,-4.88836669546252,3.373717885373,1.97941607891039,-5.35313396428339
2.01577184833099,-0.801274341096067,-6.5606397326223,-5.75936539152624,3.68095703685919,2.47904552521508,-6.16000256207427
2.01793237549962,-0.613465494136531,-5.91788732895288,-5.30442183481635,3.26567641154471,2.34547817033991,-5.61115458188462
2.02009290266825,-0.408977083842784,-4.23516514168814,-3.82618805784536,2.32207111276546,1.70860548700129,-4.03067659976675
2.02225342983688,-0.201186240172273,-2.36442097872799,-2.16323473855572,1.28280360945013,0.981024249191722,-2.26382785864185
2.02441395700551,0.0137798032336467,-1.21093245078186,-1.22471225401551,0.598576323774108,0.619246028624578,-1.21782235239869
2.02657448417414,0.237799068935149,-1.30537000868467,-1.54316907761982,0.533785469874762,0.890484073277486,-1.42426954315225
2.02873501134277,0.456644516966093,-2.5372878378536,-2.99393235481969,1.04032166044375,1.72528843589289,-2.76561009633665
2.0308955385114,0.643016148223233,-4.2048867174947,-4.84790286571793,1.78093528463573,2.74545950697058,-4.52639479160632
2.03305606568003,0.77215936119957,-5.41638290234198,-6.18854226354155,2.3221117705712,3.48035081237056,-5.80246258294176
2.03521659284866,0.828948956164835,-5.58791619073413,-6.41686514689896,2.37948361728465,3.6229070515319,-6.00239066881655
2.03737712001728,0.808256723809665,-4.72071137155577,-5.52896809536543,1.95622732387305,3.16861240958755,-5.1248397334606
2.03953764718591,0.721279605205178,-3.37479454650154,-4.09607415170672,1.32675747064818,2.40867687845595,-3.73543434910413
2.04169817435454,0.590920872141637,-2.39171155998502,-2.98263243212665,0.90039534392169,1.78677665213415,-2.68717199605583
2.04385870152317,0.435487357559309,-2.42846146702373,-2.86394882458303,0.996487054732209,1.64971809107117,-2.64620514580338
2.0460192286918,0.267927032490611,-3.5376120156415,-3.80553904813211,1.63484249157544,2.03673304031136,-3.6715755318868
2.04817975586043,0.0976651656929213,-5.12180813628697,-5.21947330197989,2.51207148529703,2.65856923383641,-5.17064071913343
2.05034028302906,-0.0775733856506577,-6.29463150003777,-6.21705811438711,3.18610244284421,3.06974236436823,-6.25584480721244
2.05250081019769,-0.261999085919735,-6.36872369206849,-6.10672460614875,3.31536138899411,2.92236276011451,-6.23772414910862
2.05466133736632,-0.445759806458485,-5.21062725916566,-4.76486745270717,2.82819353281207,2.15955382312434,-4.98774735593641
2.05682186453495,-0.617275092179296,-3.32204764891513,-2.70477255673584,1.96966137054721,1.04374873227827,-3.01341010282548
2.05898239170358,-0.775733910500403,-1.58677519062763,-0.811041280127226,1.18125455056402,0.0176536848134115,-1.19890823537743
2.0611429188722,-0.91573408673624,-0.794619053610184,0.121115033126056,0.855176570173212,-0.518424559931148,-0.336752010242064
2.06330344604083,-1.00771816245883,-1.23072821515213,-0.223010052693291,1.11922318880548,-0.392354054882771,-0.726869133922708
2.06546397320946,-0.992866784978548,-2.56095427970136,-1.56808749472281,1.77691053233995,0.287610354872132,-2.06452088721209
2.06762450037809,-0.818093197123487,-4.0112987731165,-3.19320557599301,2.41469598511999,1.18755618943476,-3.60225217455475
2.06978502754672,-0.503035590906902,-4.74765512685089,-4.24461953594398,2.62534535887889,1.87079197251854,-4.49613733139743
2.07194555471535,-0.149202853857271,-4.34455929923609,-4.19535644537882,2.24688107654668,2.02307679576077,-4.26995787230745
2.07410608188398,0.12805014959544,-3.05050889350836,-3.1785590431038,1.46122937195646,1.65330459634962,-3.11453396830608
2.07626660905261,0.264866625470045,-1.60624493876036,-1.87111156423041,0.670689156645159,1.06798909485023,-1.73867825149539
2.07842713622124,0.267099534841619,-0.796982911702679,-1.0640824465443,0.26494168843053,0.665590990692958,-0.930532679123489
2.08058766338987,0.180420610640555,-1.06089050305739,-1.24131111369795,0.440234946208419,0.710865862169252,-1.15110080837767
2.0827481905585,0.0475808305476337,-2.25912775998204,-2.30670859052967,1.1057734647172,1.17714471053865,-2.28291817525586
2.08490871772713,-0.0977691750764471,-3.69485171996834,-3.59708254489189,1.89631044752239,1.74965668490772,-3.64596713243012
2.08706924489575,-0.215530926901504,-4.4889142058062,-4.27338327890469,2.35222256635385,2.02892617600159,-4.38114874235545
2.08922977206438,-0.265517768352985,-4.1205850821022,-3.85506731374922,2.19305142522759,1.79477477269812,-3.98782619792571
2.09139029923301,-0.23331215332311,-2.74432255016469,-2.51101039684159,1.4888173517439,1.13884912175924,-2.62766647350314
2.09355082640164,-0.138060241448786,-1.08983094003859,-0.9517706985898,0.613945590743686,0.406855228570507,-1.02080081931419
2.09571135357027,-0.00605037263966546,-0.0506980907724603,-0.0446477181327949,0.0283742317060629,0.0192986727465647,-0.0476729044526276
2.0978718807389,0.144758154164879,-0.2090873109647,-0.353845465129579,0.03216457839991,0.249301809647229,-0.281466388047139
2.10003240790753,0.282388889697101,-1.52162441356041,-1.80401330325751,0.619617761931655,1.04320109647731,-1.66281885840896
2.10219293507616,0.36029804335028,-3.34217959572844,-3.70247763907872,1.49094077618908,2.0313878412145,-3.52232861740358
2.10435346224479,0.358544749025024,-4.78976761917047,-5.14831236819549,2.21561143507272,2.75342855861026,-4.96903999368298
2.10651398941342,0.300456101404403,-5.20346901636472,-5.50392511776912,2.45150645748016,2.90219060958676,-5.35369706706692
2.10867451658205,0.222935748046992,-4.44232756092051,-4.6652633089675,2.10969590643676,2.44409952850725,-4.55379543494401
