t,leadI,leadII,leadIII,aVR,aVL,aVF
0,-0.516712481014828,21.6588823117448,22.1755947927596,-10.571084915365,-11.3461536368872,21.9172385522522
0.00216052716862915,-0.65473334490161,21.9044362765084,22.55916962141,-10.6248514658034,-11.6069514831558,22.2318029489592
0.00432105433725829,-0.797430474130016,22.0848992779392,22.8823297520692,-10.6437344019046,-11.8398801130996,22.4836145150042
0.00648158150588744,-0.938775239576089,22.1505033715272,23.0892786111033,-10.6058640659756,-12.0140269253397,22.6198909913153
0.00864210867451658,-1.05908620265144,22.0804508970587,23.1395370997102,-10.5106823472036,-12.0993116511808,22.6099939983844
0.0108026358431457,-1.13180749677607,21.8914236457304,23.0232311425065,-10.3798080744772,-12.0775193196413,22.4573273941184
0.0129631630117749,-1.13626690411175,21.6376399320883,22.7739068362,-10.2506865139883,-11.9550868701559,22.2057733841441
0.015123690180404,-1.06872460084616,21.4007948534181,22.4695194542642,-10.166035126286,-11.7691220275552,21.9351571538411
0.0172842173490332,-0.945510097277123,21.2712367057265,22.2167468030036,-10.1628633042247,-11.5811284501404,21.7439917543651
0.0194447445176623,-0.797047475722062,21.3258219555437,22.1228694312658,-10.2643872399108,-11.4599584534939,21.7243456934048
0.0216052716862915,-0.65626772115719,21.6101509660559,22.2664186872131,-10.4769416224494,-11.4613432041852,21.9382848266345
0.0237657988549206,-0.547025173709663,22.1302223919924,22.677247565702,-10.7915986091414,-11.6121363697059,22.4037349788472
0.0259263260235497,-0.477583410711249,22.8521881457003,23.3297715564115,-11.1873023674945,-11.9036774835614,23.0909798510559
0.0280868531921789,-0.441576745397632,23.7045467455213,24.146123490919,-11.6314850000618,-12.2938501181583,23.9253351182201
0.030247380360808,-0.425038325983925,24.5787551604012,25.0037934863851,-12.0768584172086,-12.7144159061845,24.7912743233931
0.0324079075294372,-0.415051953266402,25.3299856440392,25.7450375973056,-12.4574668453864,-13.080044775286,25.5375116206724
0.0345684346980663,-0.405433493777065,25.7847586303453,26.1901921241224,-12.6896625682841,-13.2978128089497,25.9874753772339
0.0367289618666955,-0.397655430251247,25.7630485986073,26.1607040288585,-12.682696584178,-13.2791797295549,25.9618763137329
0.0388894890353246,-0.398347592920154,25.1182809605138,25.516628553434,-12.3599666837968,-12.9574880731771,25.3174547569739
0.0410500162039538,-0.415580593955357,23.790230372987,24.2058109669423,-11.6873248895158,-12.3106957804488,23.9980206699647
0.0432105433725829,-0.455203440993425,21.855644872631,22.3108483136244,-10.7002207158188,-11.3830258773089,22.0832465931277
0.0453710705412121,-0.517846745313821,19.5538549979802,20.071701743294,-9.5180041263332,-10.2947742443039,19.8127783706371
0.0475315977098412,-0.597469260529903,17.2651892316913,17.8626584922212,-8.33385998558068,-9.23006387637554,17.5639238619562
0.0496921248784703,-0.682512704395767,15.43276046746,16.1152731718558,-7.37512388153212,-8.39889293812577,15.7740168196579
0.0518526520470995,-0.759905439234311,14.441932362607,15.2018378018413,-6.84101346168632,-7.98087162053779,14.8218850822241
0.0540131792157286,-0.820459451800407,14.497029272132,15.3174887239324,-6.8382849101658,-8.06897408786641,14.9072589980322
0.0561737063843578,-0.862816801050768,15.5462141343571,16.4090309354079,-7.34169866665316,-8.63592386822931,15.9776225348825
0.0583342335529869,-0.893389068604522,17.2917800790584,18.1851691476629,-8.19919550522694,-9.53927910813372,17.7384746133607
0.0604947607216161,-0.921950887092885,19.2878412909316,20.2097921780245,-9.18294520191935,-10.5658715325587,19.748816734478
0.0626552878902452,-0.955354406658288,21.0883422552511,22.0436966619094,-10.0664939242964,-11.4995255342838,21.5660194585802
0.0648158150588744,-0.99322971547121,22.3860955087126,23.3793252241838,-10.6964328966207,-12.1862774698275,22.8827103664482
0.0669763422275035,-1.02832743356503,23.0888533353209,24.1171807688859,-11.0302629508779,-12.5727541012255,23.6030170521034
0.0691368693961327,-1.05086917538007,23.3070593300113,24.3579285053913,-11.1280950773156,-12.7043988403857,23.8324939177013
0.0712973965647618,-1.0532747504575,23.2659976281531,24.3192723786106,-11.1063614388478,-12.6862735645341,23.7926350033819
0.0734579237333909,-1.03172245057659,23.1867321051945,24.218454555771,-11.0775048273089,-12.6250885031738,23.7025933304827
0.0756184509020201,-0.984340291598455,23.1920260717903,24.1763663633887,-11.1038428900959,-12.5803533274936,23.6841962175895
0.0777789780706492,-0.909042031546613,23.2782423892034,24.18728442075,-11.1846001788284,-12.5481632261483,23.7327634049767
0.0799395052392784,-0.803916894314777,23.358177760403,24.1620946547178,-11.2771304330441,-12.4830057745163,23.7601362075604
0.0821000324079075,-0.670232644651988,23.3428630993208,24.0130957439728,-11.3363152273344,-12.3416641943124,23.6779794216468
0.0842605595765367,-0.515505455784233,23.2133896842973,23.7288951400815,-11.3489421142565,-12.1222002979329,23.4711424121894
0.0864210867451658,-0.353812385671525,23.0436906662129,23.3975030518845,-11.3449391402707,-11.875657718778,23.2205968590487
0.088581613913795,-0.202575641020422,22.9637669508187,23.1663425918391,-11.3805956548991,-11.6844591164298,23.0650547713289
0.0907421410824241,-0.0777471768314736,23.0853869102823,23.1631340871138,-11.5038198667254,-11.6204406319726,23.1242604986981
0.0929026682510533,0.00958622052041101,23.4332708339086,23.4236846133882,-11.7214285272145,-11.7070491964339,23.4284777236484
0.0950631954196824,0.0535797230102729,23.9221589035216,23.8685791805113,-11.9878693132659,-11.9074997287505,23.8953690420165
0.0972237225883115,0.0519690871616793,24.3938414389459,24.3418723517842,-12.2229052630538,-12.1449516323113,24.367856895365
0.0993842497569407,0.0048259272368562,24.6938250956238,24.6889991683869,-12.3493255114303,-12.342086620575,24.6914121320053
0.10154477692557,-0.0845762385477534,24.7458488007765,24.8304250393242,-12.3306362811144,-12.457500638936,24.7881369200503
0.103705304094199,-0.2072808643151,24.585060598219,24.7923414625341,-12.1888898669519,-12.4998111634246,24.6887010303765
0.105865831262828,-0.346755184337507,24.3335621859265,24.680317370264,-11.9934035007945,-12.5135362773007,24.5069397780952
0.108026358431457,-0.479738396547369,24.1323298751993,24.6120682717467,-11.826295739326,-12.545903334147,24.372199073473
0.110186885600086,-0.580490231047329,24.0662535229506,24.6467437539979,-11.7428816459516,-12.6136169925226,24.3564986384743
0.112347412768716,-0.627377167913071,24.1226593333604,24.7500365012734,-11.7476410827236,-12.6887068345933,24.4363479173169
0.114507939937345,-0.609617926805694,24.2057522068431,24.8153701336488,-11.7980671400187,-12.7124940302273,24.510561170246
0.116668467105974,-0.531600787021729,24.1990041624466,24.7306049494684,-11.8337016877125,-12.631102868245,24.4648045559575
0.118828994274603,-0.4126634072319,24.0407842755055,24.4534476827374,-11.8140604341368,-12.4330555449847,24.2471159791215
0.120989521443232,-0.281974487582719,23.7701347926898,24.0521092802725,-11.7440801525535,-12.1670418839276,23.9111220364811
0.123150048611861,-0.170510696884332,23.5147022058359,23.6852129027202,-11.6720957544758,-11.9278617998023,23.599957554278
0.12531057578049,-0.103294075766092,23.4238319984286,23.5271260741947,-11.6602689613313,-11.8152100749804,23.4754790363117
0.12747110294912,-0.0941738728702679,23.5807309470612,23.6749048199315,-11.7432785370955,-11.8845393464009,23.6278178834964
0.129631630117749,-0.14371415492721,23.9422890844616,24.0860032393888,-11.8992874647672,-12.114858697158,24.0141461619252
0.131792157286378,-0.239902568154445,24.3441549881851,24.5840575563396,-12.0521262100154,-12.411980062247,24.4641062722624
0.133952684455007,-0.361458625049723,24.5746695323732,24.9361281574229,-12.1066054536617,-12.6487933912363,24.755398844898
0.136113211623636,-0.483166953577552,24.4817362138669,24.9649031674445,-11.9992846301447,-12.724035060511,24.7233196906557
0.138273738792265,-0.581673202037402,24.0555349183414,24.6372081203788,-11.736930858152,-12.6094406612081,24.3463715193601
0.140434265960894,-0.639957456572837,23.4407042887329,24.0806617453057,-11.40037341608,-12.3603096009393,23.7606830170193
0.142594793129524,-0.649782965789879,22.868255189287,23.5180381550769,-11.1092361117486,-12.0839105604334,23.193146672182
0.144755320298153,-0.612495990186327,22.5403480593642,23.1528440495505,-10.9639260345889,-11.8826700198684,22.8465960544573
0.146915847466782,-0.538604199761453,22.5279713532738,23.0665755530352,-10.9946835767562,-11.8025898763983,22.7972734531545
0.149076374635411,-0.446046083261178,22.7371087732897,23.1831548565508,-11.1455313450142,-11.814600469906,22.9601318149202
0.15123690180404,-0.356714479524569,22.963252188199,23.3199666677236,-11.3032688543372,-11.8383405736241,23.1416094279613
0.153397428972669,-0.290976445025331,23.0059632836888,23.2969397287142,-11.3574934193318,-11.7939580868698,23.1514515062015
0.155557956141298,-0.26097937637103,22.7819716425834,23.0429510189544,-11.2604961331062,-11.6519651976627,22.9124613307689
0.157718483309928,-0.265157244459274,22.3752337380986,22.6403909825579,-11.0550382468197,-11.4527741135086,22.5078123603282
0.159879010478557,-0.287096117751914,21.9950996505643,22.2821957683162,-10.8540017664062,-11.2846459430341,22.1386477094403
0.162039537647186,-0.300526958058097,21.8626210555662,22.1631480136243,-10.7810470487541,-11.2318374858412,22.0128845345953
0.164200064815815,-0.279211683293507,22.0848770498962,22.3640887331897,-10.9028326833014,-11.3216502082416,22.224482891543
0.166360591984444,-0.20782970863978,22.58569281732,22.7935225259598,-11.1889315543401,-11.5006761172998,22.6896076716399
0.168521119153073,-0.0893423689239389,23.1323208736661,23.2216632425901,-11.5214892523711,-11.655502805757,23.1769920581281
0.170681646321702,0.0541371733709253,23.4469177777557,23.3927806043847,-11.7505274755633,-11.6693217155069,23.4198491910702
0.172842173490332,0.187378315865421,23.3463828302554,23.15900451439,-11.7668805730604,-11.4858130992623,23.2526936723227
0.175002700658961,0.273025981407331,22.8381854177736,22.5651594363663,-11.5556056995905,-11.1460667274795,22.7016724270699
0.17716322782759,0.284020315079802,22.1217497312146,21.8377294161348,-11.2028850231472,-10.7768545505275,21.9797395736747
0.179323754996219,0.213351742049066,21.4938239160078,21.2804721739587,-10.8535878290284,-10.5335602159548,21.3871480449832
0.181484282164848,0.0776744763729672,21.2064156314651,21.1287411550921,-10.642045053919,-10.5255333393596,21.1675783932786
0.183644809333477,-0.0870638643998435,21.3504644838027,21.4375283482025,-10.6317003097014,-10.7622961063012,21.3939964160026
0.185805336502107,-0.237323299710548,21.8243080962557,22.0616313959662,-10.7934923982726,-11.1494773478384,21.942969746111
0.187965863670736,-0.337209091447737,22.4007820004607,22.7379910919084,-11.0317864545065,-11.5376000916781,22.5693865461846
0.190126390839365,-0.371011295683295,22.8544675137998,23.2254788094831,-11.2417281090582,-11.7982450525832,23.0399731616414
0.192286918007994,-0.34729146736055,23.0792159173623,23.4265073847228,-11.3659622250009,-11.8868994260417,23.2528616510425
0.194447445176623,-0.292699928281416,23.1328512914967,23.4255512197781,-11.4200756816076,-11.8591255740298,23.2792012556374
0.196607972345252,-0.238732392178974,23.187182691538,23.4259150837169,-11.4742251496795,-11.832323737948,23.3065488876275
0.198768499513881,-0.20776432306728,23.4142864545317,23.622050777599,-11.6032610657322,-11.9149075503331,23.5181686160653
0.200929026682511,-0.204763757367481,23.8753409416373,24.0801046990047,-11.8352885921349,-12.1424342281861,23.977722820321
0.20308955385114,-0.218327572087382,24.4764140925272,24.6947416646146,-12.1290432602199,-12.456534618351,24.5855778785709
0.205250081019769,-0.229896396024131,25.0170416223084,25.2469380183325,-12.3935726131421,-12.7384172071783,25.1319898203205
0.207410608188398,-0.225323763493951,25.3038065338078,25.5291302973018,-12.5392413851569,-12.8772270303979,25.4164684155548
0.209571135357027,-0.201798383520736,25.2633050181598,25.4651034016805,-12.5307533173195,-12.8334508926006,25.3642042099202
0.211731662525656,-0.166854130010807,24.9883388261051,25.1551929561159,-12.4107423480471,-12.6610235430633,25.0717658911105
0.213892189694285,-0.131812136645117,24.6880754166581,24.8198875533032,-12.2781316400065,-12.4758498449742,24.7539814849807
0.216052716862915,-0.104836556029666,24.567292990234,24.6721295462637,-12.2312282171022,-12.3884830511467,24.6197112682489
0.218213244031544,-0.0875237667327812,24.7016680379564,24.7891918046892,-12.3070721356118,-12.438357785711,24.7454299213228
0.220373771200173,-0.0758935748638995,24.9806840094661,25.05657758433,-12.4523952173011,-12.5662355795969,25.018630796898
0.222534298368802,-0.0641895060053088,25.1535563124166,25.2177458184219,-12.5446834032056,-12.6409676622136,25.1856510654192
0.224694825537431,-0.0488498840123576,24.957535670376,25.0063855543884,-12.4543428931818,-12.5276177192004,24.9819606123822
0.22685535270606,-0.0305000668068181,24.2630873558341,24.2935874226409,-12.1162936445136,-12.1620437447238,24.2783373892375
0.229015879874689,-0.0134015256482586,23.159337607908,23.1727391335562,-11.5729680411298,-11.5930703296022,23.1660383707321
0.231176407043319,-0.00328049077055963,21.9313384158599,21.9346189066305,-10.9640289625447,-10.9689496987005,21.9329786612452
0.233336934211948,-0.00486540474212992,20.9353769929062,20.9402423976484,-10.4652557940821,-10.4725539011953,20.9378096952773
0.235497461380577,-0.0200034456492919,20.4321508248082,20.4521542704575,-10.2060736895795,-10.2360788580534,20.4421525476329
0.237657988549206,-0.0468027797995247,20.4608069022028,20.5076096820024,-10.2070020612017,-10.2772062309009,20.4842082921026
0.239818515717835,-0.0800797651198146,20.8166608895996,20.8967406547195,-10.3682905622399,-10.4884102099196,20.8567007721595
0.241979042886464,-0.112920605804801,21.1427563510852,21.25567695689,-10.5149178726402,-10.6842987813474,21.1992166539876
0.244139570055093,-0.138485446439865,21.0874197661811,21.225905212621,-10.4744671598706,-10.6821953295304,21.156662489401
0.246300097223723,-0.151242752106965,20.4465490122132,20.5977917643202,-10.1476531300531,-10.3745172582136,20.5221703882667
0.248460624392352,-0.14777552105246,19.2193437966338,19.3671193176863,-9.53578413779067,-9.75744741936936,19.29323155716
0.250621151560981,-0.127956140563858,17.5551442484939,17.6831003890578,-8.71359405396502,-8.90552826481081,17.6191223187758
0.25278167872961,-0.0966362386297808,15.6290461825472,15.725682421177,-7.7662049719587,-7.91115932990337,15.6773643018621
0.254942205898239,-0.0645708761704809,13.5206729349845,13.585243811155,-6.72805102940702,-6.82490734366274,13.5529583730698
0.257102733066868,-0.0467670374081331,11.1648098204168,11.2115768578249,-5.55902139150433,-5.62917194761653,11.1881933391209
0.259263260235497,-0.0578038788129027,8.39958127402942,8.45738515284233,-4.17088869760826,-4.25759451582761,8.42848321343588
0.261423787404127,-0.105892186534257,5.08139197518792,5.18728416172218,-2.48774989432683,-2.64658817412822,5.13433806845505
0.263584314572756,-0.188554557859912,1.19660298298459,1.38515754084451,-0.504024212562341,-0.78685604935221,1.29088026191455
0.265744841741385,-0.292054811637124,-3.10020074551004,-2.80814593387292,1.69612777857358,1.2580455611179,-2.95417333969148
0.267905368910014,-0.394889071289002,-7.55184444669238,-7.15695537540338,3.97336675899069,3.38103315205719,-7.35439991104788
0.270065896078643,-0.473860735592627,-11.9404418626002,-11.4665811270075,6.20715129909639,5.49636019570745,-11.7035114948038
0.272226423247272,-0.510220158301713,-16.2326797163165,-15.7224595580148,8.3714499373091,7.60611969985653,-15.9775696371656
0.274386950415901,-0.493588026780936,-20.6488776598697,-20.1552896330887,10.5712328433253,9.83085080315389,-20.4020836464792
0.276547477584531,-0.42284626807078,-25.6132236128183,-25.1903773447475,13.0180349404446,12.3837655383384,-25.4018004787829
0.27870800475316,-0.304795418705623,-31.6041102642471,-31.2993148455415,15.9544528414764,15.4972597134179,-31.4517125548943
0.280868531921789,-0.151993094742868,-38.9755686264838,-38.8235755317409,19.5637808606133,19.335791218499,-38.8995720791123
0.283029059090418,0.0192327791982093,-47.8350460224557,-47.8542788016539,23.9079066216287,23.936755790426,-47.8446624120548
0.285189586259047,0.190401084437933,-58.0322207692532,-58.2226218536911,28.9209098424076,29.2065114690645,-58.1274213114721
0.287350113427676,0.342607895101799,-69.2550235977523,-69.5976314928541,34.4562078513253,34.970119693978,-69.4263275453032
0.289510640596305,0.458970983118036,-81.1741546879889,-81.6331256711069,40.3575918524354,41.0460483271125,-81.4036401795479
0.291671167764935,0.527678438172688,-93.5559470625758,-94.0836255007485,46.5141343122016,47.3056519694606,-93.8197862816622
0.293831694933564,0.544534235751143,-106.285852348975,-106.830386584726,52.8706590566118,53.6874604102385,-106.55811946685
0.295992222102193,0.51365529775528,-119.296229816928,-119.809885114683,59.3912872595865,60.1617702062194,-119.553057465806
0.298152749270822,0.44592209476099,-132.443676899944,-132.889598994705,65.9988774025915,66.667760544733,-132.666637947325
0.300313276439451,0.35615749817791,-145.40740708905,-145.763564587228,72.5256247954363,73.0598610427031,-145.585485838139
0.30247380360808,0.260414314460974,-157.669662951019,-157.93007726548,78.7046243182791,79.0952457899706,-157.79987010825
0.304634330776709,0.17374441856504,-168.597605373037,-168.771349791603,84.2119304772362,84.4725471050838,-168.68447758232
0.306794857945339,0.10777619486329,-177.594437034613,-177.702213229476,88.7433304198746,88.9049947121696,-177.648325132044
0.308955385113968,0.067810595371965,-184.252028960608,-184.31983955598,92.0921091826181,92.193825075676,-184.285934258294
0.311115912282597,0.0504549269746382,-188.436137653399,-188.486592580374,94.1928413632124,94.2685237536744,-188.461365116887
0.313276439451226,0.0435021994925709,-190.269480933778,-190.312983133271,95.1129893671427,95.1782426663816,-190.291232033524
0.315436966619855,0.0292359515897044,-190.030488891735,-190.059724843325,95.0006264700728,95.0444803974574,-190.04510686753
0.317597493788484,-0.00911768202404721,-188.028016657787,-188.018898975763,94.0185671699055,94.0048906468695,-188.023457816775
0.319758020957114,-0.0799550721075191,-184.519961085943,-184.440006013835,92.2999580790251,92.1800254708638,-184.479983549889
0.321918548125743,-0.178408834160485,-179.712231572928,-179.533822738767,89.9453202035441,89.6777069523034,-179.623027155848
0.324079075294372,-0.287195082914282,-173.82341573035,-173.536220647435,87.055305406632,86.6245127822606,-173.679818188893
0.326239602463001,-0.383800728878873,-167.159872383239,-166.776071654361,83.7718365560591,83.1961354627408,-166.9679720188
0.32840012963163,-0.450809704740359,-160.138822855495,-159.688013150755,80.2948162801178,79.6186017230072,-159.913418003125
0.330560656800259,-0.483693917051383,-153.227524316244,-152.743830399193,76.8556091166479,76.1300682410708,-152.985677357719
0.332721183968888,-0.491549667717688,-146.817932880147,-146.326383212429,73.6547412739322,72.9174167723557,-146.572158046288
0.334881711137518,-0.490621288461479,-141.099058944365,-140.608437655903,70.7948401164131,70.0589081837209,-140.853748300134
0.337042238306147,-0.494903381447859,-135.998514063051,-135.503610681603,68.2467087222492,67.5043536500774,-135.751062372327
0.339202765474776,-0.509433515052903,-131.234150711465,-130.724717196412,65.871792113259,65.1076418406796,-130.979433953939
0.341363292643405,-0.529353124819468,-126.461198665981,-125.931845541161,63.4952758954001,62.7012462081709,-126.196522103571
0.343523819812034,-0.543694466683192,-121.448419249666,-120.904724782983,60.9960568581745,60.1805151581497,-121.176572016324
0.345684346980663,-0.540397625372109,-116.196866620983,-115.656468995611,58.3686321231774,57.5580356851192,-115.926667808297
0.347844874149292,-0.509692219318905,-110.940096811264,-110.430404591945,55.7248945152914,54.960356186313,-110.685250701604
0.350005401317922,-0.445313252123486,-106.023992823745,-105.578679571621,53.2346530379341,52.5666831597489,-105.801336197683
0.352165928486551,-0.344648196319016,-101.726755238631,-101.382107042312,51.0357017174748,50.5187294229962,-101.554431140471
0.35432645565518,-0.208814859700562,-98.1114564116168,-97.9026415519163,49.1601356356587,48.8469133461079,-98.0070489817665
0.356486982823809,-0.0427009507931883,-94.9873564785725,-94.9446555277793,47.5150287146829,47.4509772884931,-94.9660060031759
0.358647509992438,0.14549358926855,-91.9997862986327,-92.1452798879012,45.9271463546821,46.1453867385849,-92.072533093267
0.360808037161067,0.345233752901108,-88.8016462374448,-89.1468799903459,44.2282062422718,44.7460568716235,-88.9742631138953
0.362968564329696,0.544561859966158,-85.2184907593308,-85.7630526192969,42.3369644496823,43.1538072396316,-85.4907716893139
0.365129091498326,0.7305453009203,-81.3249030308783,-82.0554483317986,40.297178864979,41.3929968163595,-81.6901756813385
0.367289618666955,0.889698120814006,-77.3969469643987,-78.2866450852127,38.2536244217924,39.5881716030134,-77.8417960248057
0.369450145835584,1.00922585410427,-73.767537898476,-74.7767637525802,36.3791560221858,37.8929948033422,-74.2721508255281
0.371610673004213,1.07934154587165,-70.657019676519,-71.7363612223907,34.7888390653237,36.4078513841312,-71.1966904494548
0.373771200172842,1.09583981939995,-68.0585838922661,-69.154423711666,33.4813720364331,35.125131765533,-68.606503801966
0.375931727341471,1.06152241195107,-65.7261242101415,-66.7876466220925,32.3323008990952,33.9245845170218,-66.256885416117
0.3780922545101,0.985426471352261,-63.2602153131869,-64.2456417845392,31.1373944209173,32.6155341279457,-63.752928548863
0.38025278167873,0.879986524873273,-60.2448403531267,-61.124826878,29.6824269141267,31.0024067014366,-60.6848336155634
0.382413308847359,0.757582841340683,-56.3742056826078,-57.1317885239485,27.8083114206336,28.9446856826446,-56.7529971032782
0.384573836015988,0.628367240797499,-51.528346960659,-52.1567142014565,25.4499898599307,26.392540721127,-51.8425305810577
0.386734363184617,0.500211347988283,-45.7934965443878,-46.2937078923761,22.6466425981998,23.3969596201822,-46.043602218382
0.388894890353246,0.379817858741197,-39.4541755368655,-39.8339933956067,19.5371788390621,20.1069056271739,-39.6440844662361
0.391055417521875,0.273139895204439,-32.9883923599279,-33.2615322551324,16.3576262323618,16.7673360751684,-33.1249623075302
0.393215944690504,0.184144546044101,-27.0724459480639,-27.256590494108,13.4441507010099,13.720367520076,-27.1645182210859
0.395376471859134,0.112669384843746,-22.5661776855523,-22.6788470703961,11.2267541503543,11.3957582276199,-22.6225123779742
0.397536999027763,0.0529928863088163,-20.4310935947939,-20.4840864811027,10.1890503542425,10.2685396837057,-20.4575900379483
0.399697526196392,-0.00560931942214305,-21.5516098819131,-21.5460005624909,10.7786096006676,10.7701956215344,-21.548805222202
0.401858053365021,-0.0757839914631498,-26.4810299816057,-26.4052459901425,13.2784069865344,13.1647309993397,-26.4431379858741
0.40401858053365,-0.166802315985151,-35.1926935184578,-35.0258912024726,17.6797479172215,17.4295444432437,-35.1092923604652
0.406179107702279,-0.278638965218783,-46.9461396168049,-46.6675006515861,23.6123892910118,23.1944308431836,-46.8068201341955
0.408339634870908,-0.398130518175923,-60.3536101414137,-59.9554796232377,30.3758703297948,29.7786745525309,-60.1545448823257
0.410500162039538,-0.499705295585987,-73.6592787502562,-73.1595734546703,37.0794920229211,36.3299340795421,-73.4094261024633
0.412660689208167,-0.551648866066104,-85.1548050791227,-84.6031562130566,42.8532269725944,42.0257536734952,-84.8789806460896
0.414821216376796,-0.526640136336484,-93.5917811343625,-93.065140998026,47.0592106353495,46.2692504308448,-93.3284610661943
0.416981743545425,-0.412742565974506,-98.44563205785,-98.0328894918755,49.4291873119123,48.8100734629505,-98.2392607748628
0.419142270714054,-0.219562297906691,-99.9425294449717,-99.722967147065,50.0810458714392,49.7517024245792,-99.8327482960184
0.421302797882683,0.0239389158309336,-98.8559869940656,-98.8799259098965,49.4160240391173,49.4519324128637,-98.867956451981
0.423463325051313,0.278832990249772,-96.1691225496515,-96.4479555399013,47.9451447797009,48.3633942650755,-96.3085390447764
0.425623852219942,0.507846871802347,-92.7428842145019,-93.2507310863043,46.1175186713498,46.8792889790533,-92.9968076504031
0.427784379388571,0.684215400141105,-89.1131759771107,-89.7973913772518,44.2144802884848,45.2408033886965,-89.4552836771813
0.4299449065572,0.795605248779744,-85.4712813594604,-86.2668866082402,42.3378380553403,43.53124592851,-85.8690839838503
0.432105433725829,0.843651981202726,-81.7954317837585,-82.6390837649612,40.4758899012779,41.741367873082,-82.2172577743599
0.434265960894458,0.840591939374786,-78.038417864889,-78.8790098042637,38.5989129627571,39.8598008718193,-78.4587138345763
0.436426488063087,0.804308331822467,-74.2651444291631,-75.0694527609855,36.7304180486703,37.936880546404,-74.6672985950743
0.438587015231717,0.753128812880164,-70.6754455229034,-71.4285743357835,34.9611583550116,36.0908515743319,-71.0520099293435
0.440747542400346,0.701963766163138,-67.516376006312,-68.2183397724752,33.4072061200745,34.4601517693192,-67.8673578893936
0.442908069568975,0.660836080877774,-64.9481312567146,-65.6089673375924,32.1436475879184,33.1349017092351,-65.2785492971535
0.445068596737604,0.635354316253836,-62.9481888997839,-63.5835432160377,31.156417291765,32.1094487661458,-63.2658660579108
0.447229123906233,0.627579459866882,-61.3107095225606,-61.9382889824275,30.3415650313469,31.2829342211472,-61.624499252494
0.449389651074862,0.636169097572818,-59.7412394200426,-60.3774085176154,29.5525351612349,30.5067888075941,-60.059323968829
0.451550178243491,0.656136142076724,-57.9936264766716,-58.6497626187483,28.6687451672974,29.6529493804125,-58.3216945477099
0.453710705412121,0.679527158692073,-55.9746796739876,-56.6542068326797,27.6475762576478,28.6668669956859,-56.3144432533336
0.45587123258075,0.697849556933425,-53.7618423642065,-54.4596919211399,26.5319964036365,27.5787707390367,-54.1107671426732
0.458031759749379,0.70551742811388,-51.5284349671383,-52.2339523952522,25.4114587695122,26.469734911683,-51.8811936811952
0.460192286918008,0.702212205534785,-49.4227451432802,-50.124957348815,24.3602664688727,25.4135847771749,-49.7738512460476
0.462352814086637,0.692178952258172,-47.4722049205594,-48.1643838728175,23.3900129841506,24.4282814125379,-47.8182943966885
0.464513341255266,0.680509173352144,-45.5682306483677,-46.2487398217198,22.4438607375078,23.464624497536,-45.9084852350437
0.466673868423895,0.669027148661591,-43.5407133529091,-44.2097405015707,21.4358431021238,22.4393838251161,-43.8752269272399
0.468834395592525,0.655115568037803,-41.2795180018057,-41.9346335698435,20.3122012168839,21.2948745689406,-41.6070757858246
0.470994922761154,0.634807487570908,-38.8315971089496,-39.4664045965205,19.0983948106893,20.0506060420457,-39.1490008527351
0.473155449929783,0.608319767416155,-36.4134851375606,-37.0218049049768,17.9025826850722,18.8150623361965,-36.7176450212687
0.475315977098412,0.584166558751336,-34.3256859103085,-34.9098524690598,16.8707596757786,17.7470095139056,-34.6177691896841
0.477476504267041,0.578388252578239,-32.8113131667413,-33.3897014193195,16.1164624570815,16.9840448359489,-33.1005072930304
0.47963703143567,0.608272735651137,-31.9335707963948,-32.541843532046,15.6626490303718,16.5750581338486,-32.2377071642204
0.481797558604299,0.683554391811756,-31.5376024503274,-32.2211568421392,15.4270240292578,16.4523556169755,-31.8793796462333
0.483958085772929,0.799748102391634,-31.3180929061146,-32.1178410085063,15.2591724018615,16.4587945554489,-31.7179669573104
0.486118612941558,0.936831783349358,-30.9587780409864,-31.8956098243357,15.0109731288185,16.4162208038425,-31.4271939326611
0.488279140110187,1.06358436162763,-30.2726524495305,-31.3362368111582,14.6045340439514,16.1999105863929,-30.8044446303443
0.490439667278816,1.14582618326426,-29.2717164983347,-30.4175426815989,14.0629451575352,15.7816844324316,-29.8446295899668
0.492600194447445,1.15604475827142,-28.1325038439205,-29.2885486021919,13.4882295428245,15.2222966802317,-28.7105262230562
0.494760721616074,1.08163604299112,-27.0786225465143,-28.1602585895054,12.9984932517616,14.6209473162483,-27.6194405680098
0.496921248784703,0.929201186705304,-26.245096068653,-27.1742972553583,12.6579474409738,14.0517492210318,-26.7096966620056
0.499081775953333,0.723583043981508,-25.5981244733859,-26.3217075173674,12.4372707147022,13.5226452806745,-25.9599159953767
0.501242303121962,0.502309521247699,-24.9530750083973,-25.455384529645,12.2253827435748,12.9788470254464,-25.2042297690212
0.503402830290591,0.307548495378563,-24.0798025343406,-24.3873510297192,11.886127019481,12.3474497625489,-24.2335767820299
0.50556335745922,0.177709897372804,-22.8368704827055,-23.0145803800783,11.3295802926663,11.5961451387255,-22.9257254313919
0.507723884627849,0.139993328768172,-21.260055409937,-21.4000487387051,10.5600310405844,10.7700210337366,-21.330052074321
0.509884411796478,0.204695715258295,-19.5544183094269,-19.7591140246852,9.67486129708428,9.98190486997172,-19.656766167056
0.512044938965107,0.362272180251352,-17.9915096955592,-18.3537818758106,8.81461875765394,9.35802702803097,-18.1726457856849
0.514205466133737,0.584105032562201,-16.7662177488936,-17.3503227814558,8.09105635816568,8.96721390700898,-17.0582702651747
0.516365993302366,0.827144644224349,-15.8915055266309,-16.7186501708553,7.53218044120328,8.7728974075398,-16.3050778487431
0.518526520470995,1.04166521983174,-15.1899957721914,-16.2316609920232,7.07416527617985,8.63666310592746,-15.7108283821073
0.520687047639624,1.18086528011917,-14.3897712439684,-15.5706365240876,6.60445298192463,8.37575090210339,-14.980203884028
0.522847574808253,1.21062545553552,-13.2754969313947,-14.4861223869302,6.03243573792959,7.84837392123287,-13.8808096591625
0.525008101976882,1.11733299631697,-11.814599309558,-12.9319323058749,5.34863315662049,7.02463265109595,-12.3732658077164
0.527168629145511,0.911809595985369,-10.1896259891586,-11.1014355851439,4.6389081965866,6.00662259056466,-10.6455307871513
0.529329156314141,0.628137985206627,-8.71767405505323,-9.34581204025986,4.0447680349233,4.98697501273324,-9.03174304765654
0.53148968348277,0.317231580630193,-7.69833589990009,-8.01556748053028,3.69055215963495,4.16639953058024,-7.85695169021518
0.533650210651399,0.0362914095829337,-7.26857013037132,-7.30486153995426,3.61613936039419,3.6705764747686,-7.28671583516279
0.535810737820028,-0.163248136469777,-7.33775382162895,-7.17450568515918,3.75050097904937,3.5056287743447,-7.25612975339406
0.537971264988657,-0.245854840264593,-7.6344471823316,-7.388592342067,3.9401510112981,3.57136875090121,-7.5115197621993
0.540131792157286,-0.197370665347981,-7.83980050157621,-7.64242983622823,4.01858558346209,3.72252958544012,-7.74111516890222
0.542292319325915,-0.0252010097236382,-7.73843929126848,-7.71323828154484,3.88182015049606,3.8440186359106,-7.72583878640666
0.544452846494545,0.245088690033656,-7.30905094649798,-7.55413963653164,3.53198112823216,3.89961416328265,-7.43159529151481
0.546613373663174,0.574277792254216,-6.7098112882429,-7.28408908049712,3.06776674799434,3.92918343637567,-6.99695018437001
0.548773900831803,0.913972204077158,-6.17092257937212,-7.08489478344928,2.62847518764748,3.99943349376322,-6.6279086814107
0.550934428000432,1.2120317010028,-5.85623262416729,-7.06826432517009,2.32210046158224,4.14014801308644,-6.46224847466869
0.553094955169061,1.42034324649473,-5.77089043222935,-7.19123367872408,2.17527359286731,4.30578846260941,-6.48106205547671
0.55525548233769,1.50445447455299,-5.76455943037305,-7.26901390492604,2.13005247791003,4.38673418973952,-6.51678666764955
0.55741600950632,1.45221990821683,-5.62551563593428,-7.07773554415111,2.08664786385872,4.26497772618397,-6.35162559004269
0.559576536674949,1.27790575639887,-5.21032036491501,-6.48822612131388,1.96620730425807,3.88306593885638,-5.84927324311445
0.561737063843578,1.01951229279087,-4.53468626559565,-5.55419855838653,1.75758698640239,3.2868554255887,-5.04444241199109
0.563897591012207,0.729443295738056,-3.77367337970867,-4.50311667544672,1.52211504198531,2.61627998559239,-4.13839502757769
0.566058118180836,0.461126955098704,-3.17046778302081,-3.63159473811951,1.35467041396105,2.04636084660911,-3.40103126057016
0.568218645349465,0.256011247035436,-2.90427542085547,-3.1602866678909,1.32413208691002,1.70814895746317,-3.03228104437318
0.570379172518094,0.135498744823306,-2.9908695223968,-3.12636826722011,1.42768538878675,1.63093350602171,-3.05861889480846
0.572539699686724,0.10015917789704,-3.2716444521987,-3.37180363009574,1.58574263715083,1.73598140399639,-3.32172404114722
0.574700226855353,0.135035678248883,-3.49911149334571,-3.63414717159459,1.68203790754841,1.88459142492174,-3.56662933247015
0.576860754023982,0.217589270154041,-3.47440060452829,-3.69198987468233,1.62840566718713,1.95478957241819,-3.58319523960531
0.579021281192611,0.325108837149834,-3.16239144086803,-3.48750027801787,1.4186413018591,1.90630455758385,-3.32494585944295
0.58118180836124,0.439875530472141,-2.71926142607108,-3.15913695654322,1.13969294779947,1.79950624350768,-2.93919919130715
0.583342335529869,0.55124774809814,-2.4134692327162,-2.96471698081434,0.931110742309029,1.75798236445624,-2.68909310676527
0.585502862698498,0.654360601666599,-2.48040137797866,-3.13476197964526,0.913020388156032,1.89456129065593,-2.80758167881196
0.587663389867128,0.746323167501783,-2.98852193665315,-3.73484510415494,1.12109938457568,2.24058413582836,-3.36168352040404
0.589823917035757,0.822244555259906,-3.78909832517091,-4.61134288043081,1.4834268849555,2.71679371784536,-4.20022060280086
0.591984444204386,0.873740240652566,-4.57731970372104,-5.4510599443736,1.85178973153424,3.16240009251309,-5.01418982404732
0.594144971373015,0.891157241721433,-5.03467729662504,-5.92583453834647,2.0717600274518,3.40849589003395,-5.48025591748575
0.596305498541644,0.868468148196215,-4.98028532439881,-5.84875347259502,2.0559085881013,3.35861081039562,-5.41451939849692
0.598466025710273,0.808136857728953,-4.45420322341403,-5.26234008114298,1.82303318284254,3.03523846943597,-4.8582716522785
0.600626552878902,0.723156534521767,-3.69212492744415,-4.41528146196592,1.48448419646119,2.56921899824384,-4.05370319470504
0.602787080047532,0.634866889261083,-3.00803318401601,-3.64290007327709,1.18658314737746,2.13888348126909,-3.32546662864655
0.604947607216161,0.567296871531493,-2.6476268782425,-3.214923749774,1.0401650033555,1.89111031065274,-2.93127531400825
0.60710813438479,0.540299675502317,-2.68703092553857,-3.22733060104089,1.07336562501813,1.8838151382716,-2.95718076328973
0.609268661553419,0.563874432536822,-3.02461948458661,-3.58849391712343,1.23037252602489,2.07618417483012,-3.30655670085502
0.611429188722048,0.635392458156214,-3.46316345677171,-4.09855591492793,1.41388549930775,2.36697418654207,-3.78085968584982
0.613589715890677,0.740590759765493,-3.83128299385944,-4.57187375362494,1.54534611704698,2.65623225669521,-4.20157837374219
0.615750243059306,0.857987475314729,-4.07389112217838,-4.93187859749311,1.60795182343183,2.89493303640392,-4.50288485983575
0.617910770227936,0.965008339073616,-4.26177055589104,-5.22677889496465,1.64838110840871,3.09589361701913,-4.74427472542784
0.620071297396565,1.04351885583388,-4.51826274087937,-5.56178159671325,1.73737194252275,3.30265022627357,-5.04002216879631
0.622231824565194,1.08307487999973,-4.90930346462756,-5.9923783446273,1.91311429231392,3.53772661231351,-5.45084090462743
0.624392351733823,1.08143889623539,-5.36547934962127,-6.44691824585666,2.14202022669294,3.76417857104603,-5.90619879773897
0.626552878902452,1.04290383870315,-5.68818291413624,-6.73108675283939,2.32263953771655,3.88699529577127,-6.20963483348782
0.628713406071081,0.975450882390425,-5.64382360997291,-6.61927449236334,2.33418636379124,3.79736268737688,-6.13154905116813
0.63087393323971,0.887957928648056,-5.09726636313519,-5.98522429178325,2.10465421724357,3.43659111021565,-5.54124532745922
0.63303446040834,0.788630413503832,-4.10933154225412,-4.89796195575795,1.66035056437514,2.84329618463089,-4.50364674900604
0.635194987576969,0.685335894177523,-2.93923055635628,-3.6245664505338,1.12694733108938,2.15495117235566,-3.28189850344504
0.637355514745598,0.587475150925955,-1.94291289089434,-2.53038804182029,0.677718869984192,1.55893159637312,-2.23665046635732
0.639516041914227,0.507774956481209,-1.41490119471757,-1.92267615119878,0.453563119118183,1.21522555384,-1.66878867295818
0.641676569082856,0.461918650974159,-1.45266156628771,-1.91458021726187,0.495371457656775,1.18824943411801,-1.68362089177479
0.643837096251485,0.465021193498775,-1.91194121821668,-2.37696241171546,0.723460012358954,1.42099180260712,-2.14445181496607
0.645997623420114,0.526020052764918,-2.47600886473808,-3.002028917503,0.97499440598658,1.76402448513396,-2.73901889112054
0.648158150588744,0.642534192466635,-2.8053942009561,-3.44792839342274,1.08143000424473,2.04523129294469,-3.12666129718942
0.650318677757373,0.798677035384676,-2.69447753117679,-3.49315456656146,0.947900247896055,2.14591580097307,-3.09381604886912
0.652479204926002,0.967021953712214,-2.15717318442945,-3.12419513814167,0.59507561535862,2.04560854592694,-2.64068416128556
0.654639732094631,1.11438293584704,-1.40033893758791,-2.51472187343494,0.142978000870435,1.81455240464099,-1.95753040551142
0.65680025926326,1.20988064602293,-0.702526946420095,-1.91240759244302,-0.253676849801417,1.56114411923298,-1.30746726943156
0.658960786431889,1.23293210387288,-0.264859512255244,-1.49779161612812,-0.484036295808818,1.3653618600005,-0.881325564191684
0.661121313600519,1.17848926342671,-0.113680294867158,-1.29216955829387,-0.532404484279777,1.23532941086029,-0.702924926580515
0.663281840769148,1.05751474361199,-0.105321745358582,-1.16283648897058,-0.476096499126706,1.11017561629128,-0.634079117164579
0.665442367937777,0.892396710430892,-0.027189495859721,-0.919586206290613,-0.432603607285586,0.905991458360753,-0.473387851075167
0.667602895106406,0.709167885186599,0.264263375453354,-0.444904509733245,-0.486715630319977,0.577036197459922,-0.0903205671399457
0.669763422275035,0.529878003518867,0.748954880743769,0.219076877224902,-0.639416442131318,0.155400563146982,0.484015878984336
0.671923949443664,0.368108268128645,1.24743858217517,0.879330314046521,-0.807773425151906,-0.255611022958938,1.06338444811084
0.674084476612293,0.228562555635735,1.52350110276567,1.29493854712993,-0.876031829200701,-0.533187995747098,1.4092198249478
0.676245003780923,0.109813368811158,1.42960827842903,1.31979490961787,-0.769710823620095,-0.604990770403358,1.37470159402345
0.678405530949552,0.00890139249896674,1.01492240825821,1.00602101575924,-0.511911900378588,-0.498559811630138,1.01047171200873
0.680566058118181,-0.0734261063732398,0.533250540727085,0.606676647100325,-0.229912217176923,-0.340051376736782,0.569963593913705
0.68272658528681,-0.128649514295045,0.339962266432675,0.468611780727721,-0.105656376068815,-0.298630647511383,0.404287023580198
0.684887112455439,-0.13981334622211,0.726553316906411,0.866366663128521,-0.29336998534215,-0.503090004675315,0.796459990017466
0.687047639624068,-0.085468712954021,1.77668891709625,1.86215763005027,-0.845610102071116,-0.973813171502147,1.81942327357326
0.689208166792697,0.0525137201686721,3.31794308011484,3.26542935994617,-1.68522840014176,-1.60645781988875,3.2916862200305
0.691368693961326,0.279504035220786,4.99405731276854,4.71455327754775,-2.63678067399466,-2.21752462116348,4.85430529515815
0.693529221129956,0.5802235010069,6.42062617083185,5.84040266982495,-3.50042483591937,-2.63008958440902,6.1305144203284
0.695689748298585,0.916211535590547,7.34599975359952,6.42978821800897,-4.13110564459503,-2.75678834120921,6.88789398580425
0.697850275467214,1.23168131459692,7.73993203518156,6.50825072058464,-4.48580667488924,-2.63828470299386,7.1240913778831
0.700010802635843,1.46753621192677,7.77306292306911,6.30552671114234,-4.62029956749794,-2.41899524960778,7.03929481710572
0.702171329804472,1.57904124043122,7.70754150607524,6.12850026564402,-4.64329137325323,-2.2747295126064,6.91802088585963
0.704331856973101,1.55035080379717,7.76225756575282,6.21190676195566,-4.65630418477499,-2.33077797907925,6.98708216385424
0.706492384141731,1.40020968683942,8.0237123626562,6.62350267581677,-4.71196102474781,-2.61164649448867,7.32360751923648
0.70865291131036,1.17662962621925,8.44336551175823,7.26673588553898,-4.80999756898874,-3.04505312965987,7.85505069864861
0.710813438478989,0.942287747785831,8.9116928835157,7.96940513572987,-4.92699031565077,-3.51355869397202,8.44054900962279
0.712973965647618,0.755513749576177,9.35642198586808,8.6009082362919,-5.05596786772213,-3.92269724335786,8.97866511107999
0.715134492816247,0.653401948474795,9.80147303432617,9.14807108585137,-5.22743749140048,-4.24733456868829,9.47477206008877
0.717295019984876,0.643118895285753,10.3494985081761,9.70637961289034,-5.49630870173092,-4.53163035880229,10.0279390605332
0.719455547153505,0.704360560686628,11.0986561431823,10.3942955824956,-5.90150835193445,-4.84496751090451,10.746475862839
0.721616074322135,0.801063893455145,12.0459336966728,11.2448698032177,-6.42349879506397,-5.22190295488125,11.6454017499452
0.723776601490764,0.89650327971101,13.0408066446832,12.1443033649722,-6.96865496219711,-5.62390004263059,12.5925550048277
0.725937128659393,0.965245474808129,13.8266355577586,12.8613900829505,-7.39594051628339,-5.9480723040712,13.3440128203546
0.728097655828022,0.998258404057772,14.1576224486399,13.1593640445821,-7.57794042634883,-6.08055282026218,13.658493246611
0.730258182996651,1.00149094930474,13.934710661298,12.9332197119932,-7.46810080530135,-5.96586438134424,13.4339651866456
0.73241871016528,0.990651684006352,13.2889508025721,12.2982991185658,-7.13980124328924,-5.65382371727971,12.7936249605689
0.734579237333909,0.984775430471491,12.5635659449489,11.5787905144774,-6.7741706877102,-5.29700754200296,12.0711782297132
0.736739764502539,0.999997394615007,12.1955878990902,11.1955905044752,-6.59779264685259,-5.09779655493008,11.6955892017827
0.738900291671168,1.04455144852357,12.5495764767248,11.5050250282012,-6.79706396262417,-5.23023678983882,12.027300752463
0.741060818839797,1.11624554250645,13.7816012573978,12.6653557148913,-7.4489233999521,-5.77455508619243,13.2234784861445
0.743221346008426,1.20331404681365,15.7965694344733,14.5932553876596,-8.49994174064347,-6.694970670423,15.1949124110665
0.745381873177055,1.28836671263561,18.3141344901962,17.0257677775606,-9.8012506014159,-7.86870053246248,17.6699511338784
0.747542400345684,1.35398743550099,21.0033705809374,19.6493831454364,-11.1786790082192,-9.14769785496769,20.3263768631869
0.749702927514313,1.38804067133018,23.6127526906482,22.2247120193181,-12.5003966809892,-10.4183356739939,22.9187323549831
0.751863454682943,1.38704217572163,26.0273999319719,24.6403577562503,-13.7072210538468,-11.6266577902643,25.3338788441111
0.754023981851572,1.35689016506947,28.22776438774,26.8708742226705,-14.7923272764047,-12.7569920288005,27.5493193052053
0.756184509020201,1.31127950506893,30.1805452712307,28.8692657661618,-15.7459123881498,-13.7789931305464,29.5249055186962
0.75834503618883,1.26849463188657,31.732477875101,30.4639832432144,-16.5004862534938,-14.5977443056639,31.0982305591577
0.760505563357459,1.24694676463069,32.5786913273449,31.3317445627143,-16.9128190459878,-15.0423988990418,31.9552179450296
0.762666090526088,1.25966190969362,32.3384106181167,31.0787487084231,-16.7990362639052,-14.9095433993647,31.7085796632699
0.764826617694717,1.30868644545445,30.7119696279045,29.4032831824501,-16.0103280366795,-14.0472983684978,30.0576264051773
0.766987144863347,1.38155818168094,27.645558997637,26.264000815956,-14.513558589659,-12.4412213171375,26.9547799067965
0.769147672031976,1.45215968675377,23.4196850410361,21.9675253542823,-12.4359223638949,-10.2576828337643,22.6936051976592
0.771308199200605,1.48670235875393,18.6102662627708,17.1235639040169,-10.0484843107624,-7.81843077263147,17.8669150833938
0.773468726369234,1.45327128188869,13.9314798415423,12.4782085596536,-7.69237556171549,-5.51246863888245,13.2048442005979
0.775629253537863,1.33188291548084,10.0267744823175,8.69489156683669,-5.67932869889918,-3.68150432567793,9.36083302457711
0.777789780706492,1.12190719307291,7.29905975960258,6.17715256652966,-4.21048347633775,-2.52762268672838,6.73810616306612
0.779950307875122,0.84465130640435,5.84905284360145,5.0044015371971,-3.3468520750029,-2.07987511539637,5.42672719039927
0.782110835043751,0.540561165164828,5.53402223247146,4.99346106730664,-3.03729169881815,-2.2264499510709,5.26374164988905
0.78427136221238,0.262041287004574,6.09968037848554,5.83763909148097,-3.18086083274506,-2.7877989022382,5.96865973498325
0.786431889381009,0.0632273510479431,7.30780319629757,7.24457584524962,-3.68551527367275,-3.59067424710084,7.27618952077359
0.788592416549638,-0.0122327386818608,8.9952367067436,9.00746944542546,-4.49150198403087,-4.50985109205366,9.00135307608453
0.790752943718267,0.0566059271360556,11.0468145835303,10.9902086563942,-5.55171025533316,-5.46680136462908,11.0185116199622
0.792913470886896,0.259709752315369,13.3181146772256,13.0584049249102,-6.78891221477048,-6.39934758629743,13.1882598010679
0.795073998055525,0.556060306824624,15.5729101150244,15.0168498081997,-8.0644852109245,-7.23039475068756,15.2948799616121
0.797234525224155,0.883614482576722,17.4886242196913,16.6050097371146,-9.18611935113401,-7.86069762726893,17.0468169784029
0.799395052392784,1.17661971866535,18.7401125618045,17.5634928431391,-9.95836614023491,-8.19343656223689,18.1518027024718
0.801555579561413,1.38430113423415,19.1236063380742,17.73930520384,-10.2539537361542,-8.17750203480293,18.4314557709571
0.803716106730042,1.48425141184667,18.654990201215,17.1707387893683,-10.0696208065308,-7.84324368876083,17.9128644952917
0.805876633898671,1.48593377081911,17.5844889267138,16.0985551558947,-9.53521134876645,-7.30631069253778,16.8415220413042
0.8080371610673,1.42347006038684,16.310320080643,14.8868500202561,-8.8668950705149,-6.73168997993464,15.5985850504495
0.81019768823593,1.34096996752366,15.2263183121099,13.8853483445862,-8.28364413981679,-6.27218918853129,14.5558333283481
0.812358215404559,1.27659411843438,14.5746701102404,13.298075991806,-7.9256321143374,-6.01074093668583,13.9363730510232
0.814518742573188,1.2517069151629,14.3745686666787,13.1228617515158,-7.81313779092082,-5.93557741817647,13.7487152090973
0.816679269741817,1.26834006278425,14.4597650405133,13.191424977729,-7.86405255164877,-5.96154245747239,13.8255950091212
0.818839796910446,1.31373599770728,14.6015558072635,13.2878198095563,-7.9576459024854,-5.98704190592449,13.9446878084099
0.821000324079075,1.36811781360156,14.6489430727804,13.2808252591788,-8.00853044319098,-5.95635372278864,13.9648841659796
0.823160851247704,1.41219223164821,14.6100277638435,13.1978355321953,-8.01110999774583,-5.89282165027353,13.9039316480194
0.825321378416334,1.43262757503134,14.6327010546418,13.2000734796105,-8.03266431483657,-5.88372295228956,13.9163872671261
0.827481905584963,1.42493947810097,14.8986128962032,13.4736734181023,-8.16177618715209,-6.02436697000064,14.1861431571527
0.829642432753592,1.39365757726958,15.4914414214379,14.0977838441683,-8.44254949935374,-6.35206313344936,14.7946126328031
0.831802959922221,1.35014678724044,16.3145258091372,14.9643790218967,-8.8323362981888,-6.80711611732814,15.6394524155169
0.83396348709085,1.30906891118954,17.1069164578388,15.7978475466493,-9.2079926845142,-7.24438931772988,16.4523820022441
0.836124014259479,1.28443382773562,17.5539135827536,16.269479755018,-9.4191737052446,-7.49252296364118,16.9116966688858
0.838284541428108,1.28561678741048,17.4364944267276,16.1508776393171,-9.36105560706902,-7.43263042595331,16.7936860330223
0.840445068596738,1.31380550890688,16.742047447852,15.4282419389451,-9.02792647837943,-7.05721821501911,16.0851446933985
0.842605595765367,1.36026492154946,15.6780595050954,14.3177945835459,-8.51916221332241,-6.47876483099823,14.9979270443206
0.844766122933996,1.40807784777404,14.5800936982027,13.1720158504287,-7.99408577298837,-5.88196900132731,13.8760547743157
0.846926650102625,1.43766432925946,13.7599530529938,12.3222887237343,-7.59880869112662,-5.44231219723743,13.0411208883641
0.849087177271254,1.43429378990866,13.371189437794,11.9368956478853,-7.40274161385132,-5.25130092898832,12.6540425428396
0.851247704439883,1.39444208581458,13.3596520938702,11.9652100080556,-7.37704708984239,-5.28538396112052,12.6624310509629
0.853408231608512,1.32790410966301,13.5208502321289,12.1929461224659,-7.42437717089597,-5.43252100640145,12.8568981772974
0.855568758777142,1.25410027362508,13.6288200117212,12.3747197380961,-7.44146014267314,-5.56030973223552,13.0017698749087
0.857729285945771,1.19360878392524,13.564119119773,12.3705103358478,-7.37886395184914,-5.58845077596128,12.9673147278104
0.8598898131144,1.15854764637486,13.3709930808264,12.2124454344515,-7.26477036360063,-5.52694889403834,12.791719257639
0.862050340283029,1.14654220404375,13.2142378125144,12.0676956084707,-7.18039000827909,-5.46057670221346,12.6409667104925
0.864210867451658,1.14162798028606,13.2629104107861,12.1212824305001,-7.2022691955361,-5.48982722510701,12.6920964206431
0.866371394620287,1.12193351592789,13.5690995448536,12.4471660289257,-7.34551653039076,-5.66261625649893,13.0081327868897
0.868531921788916,1.07036750077867,14.0125518343097,12.9421843335311,-7.5414596675442,-5.93590841637619,13.4773680839204
0.870692448957546,0.983208174414079,14.3455283092214,13.3623201348073,-7.66436824181772,-6.1895559801966,13.8539242220143
0.872852976126175,0.873194626457856,14.3170669644964,13.4438723380385,-7.59513079547711,-6.28533885579033,13.8804696512674
0.875013503294804,0.766735326329404,13.8110359070429,13.0443005807135,-7.28888561668614,-6.13878262719203,13.4276682438782
0.877174030463433,0.69679345311637,12.9222505140404,12.225457060924,-6.80952198357836,-5.76433180390381,12.5738537874822
0.879334557632062,0.693352135288824,11.9261182652994,11.2327661300106,-6.30973520029411,-5.26970699736087,11.579442197655
0.881495084800691,0.773613695785901,11.1534501773009,10.379836481515,-5.96353193654338,-4.80311139286453,10.7666433294079
0.883655611969321,0.935167767278462,10.832887274431,9.89771950715254,-5.88402752085473,-4.48127586993704,10.3653033907918
0.88581613913795,1.15566501999365,10.9819004077476,9.82623538775395,-6.06878271387063,-4.33528518388015,10.4040678977508
0.887976666306579,1.39996810443548,11.4033830489794,10.0034149445439,-6.40167557670743,-4.3017234200542,10.7033989967616
0.890137193475208,1.63143245419938,11.789767949664,10.1583354954647,-6.7106002019317,-4.26345152063264,10.9740517225643
0.892297720643837,1.82174348026976,11.8794270565382,10.0576835762684,-6.85058526840396,-4.11797004799932,10.9685553164033
0.894458247812466,1.95557721291387,11.5831117752758,9.62753456236192,-6.76934449409483,-3.83597867472402,10.6053231688189
0.896618774981095,2.03010766206821,11.0163570911094,8.98624942904122,-6.52323237658883,-3.4780708834865,10.0013032600753
0.898779302149724,2.05168698121427,10.4255316515656,8.37384467035133,-6.23860931638994,-3.16107884456853,9.39968816095846
0.900939829318354,2.03185459484903,10.0516571327513,8.01980253790228,-6.04175586380017,-2.99397397152663,9.03572983532679
0.903100356486983,1.98360711759402,10.0076353562215,8.02402823862746,-5.99562123690775,-3.02021056051672,9.01583179742446
0.905260883655612,1.91827100770515,10.2345498663217,8.31627885861653,-6.07641043701342,-3.19900392545569,9.27541436246911
0.907421410824241,1.84374570024284,10.5566817800169,8.71293607977404,-6.20021374012986,-3.4345951897656,9.63480892989546
0.90958193799287,1.76521542667774,10.7991148352,9.03389940852225,-6.28216513093887,-3.63434199092225,9.91650712186112
0.911742465161499,1.68830808176392,10.8981140178071,9.20980593604315,-6.29321104978549,-3.76074892713962,10.0539599769251
0.913902992330129,1.62246748429433,10.9406433307895,9.3181758464952,-6.28155540754193,-3.84785418110044,10.1294095886424
0.916063519498758,1.58120309381303,11.1105832264262,9.52938013261314,-6.3458931601196,-3.97408851940005,10.3199816795197
0.918224046667387,1.57750840894815,11.5725615932926,9.99505318434444,-6.57503500112037,-4.20877238769814,10.7838073888185
0.920384573836016,1.61623287037759,12.3607109415607,10.7444780711831,-6.98847190596913,-4.56412260040275,11.5525945063719
0.922545101004645,1.6879675937464,13.3384051736633,11.6504375799169,-7.51318638370484,-4.98123499308524,12.4944213767901
0.924705628173274,1.76887398280388,14.2561732636313,12.4872992808274,-8.01252362321758,-5.35921264901176,13.3717362722293
0.926866155341903,1.82773013875554,14.8801953360864,13.0524651973309,-8.35396273742098,-5.61236752928768,13.9663302667087
0.929026682510533,1.83740592217448,15.1231783870463,13.2857724648718,-8.48029215461037,-5.72418327134865,14.204475425959
0.931187209679162,1.78560882052319,15.1048211779807,13.3192123574575,-8.44521499925194,-5.76680176846715,14.2120167677191
0.933347736847791,1.68021463834708,15.1040578258453,13.4238431874982,-8.39213623209619,-5.87181427457557,14.2639505066718
0.93550826401642,1.54720028453048,15.4228855317759,13.8756852472454,-8.4850429081532,-6.16424248135749,14.6492853895107
0.937668791185049,1.4225023267138,16.230839001349,14.8083366746352,-8.82667066403139,-6.69291717396068,15.5195878379921
0.939829318353678,1.34125784888149,17.4716846829902,16.1304268341087,-9.40647126593583,-7.3945844926136,16.8010557585494
0.941989845522307,1.32808813379805,18.8818780879397,17.5537899541416,-10.1049831108689,-8.11285091017178,18.2178340210406
0.944150372690936,1.39102924214465,20.1115557067703,18.7205264646257,-10.7512924744575,-8.66474861124052,19.416041085698
0.946310899859566,1.52027121463482,20.8856343268044,19.3653631121696,-11.2029527707196,-8.92254594876741,20.125498719487
0.948471427028195,1.69125133886292,21.1233021267022,19.4320507878393,-11.4072767327826,-8.87039972448817,20.2776764572707
0.950631954196824,1.87024028054746,20.9579759623388,19.0877356817913,-11.4141081214431,-8.60874770062192,20.022855822065
0.952792481365453,2.02036663794052,20.6527165085071,18.6323498705666,-11.3365415732238,-8.30599161631305,19.6425331895369
0.954953008534082,2.10729581922935,20.4598308539524,18.352535034723,-11.2835633365909,-8.12261960774683,19.4061829443377
0.957113535702711,2.105066322877,20.5003042117831,18.3952378889061,-11.3026852673301,-8.14508578301455,19.4477710503446
0.959274062871341,2.00225434145644,20.7251452024589,18.7228908610024,-11.3636997719577,-8.36031825977299,19.7240180317306
0.96143459003997,1.80691418471037,20.9742032844807,19.1672890997703,-11.3905587345955,-8.68018745752999,20.0707461921255
0.963595117208599,1.54749678431903,21.0942484420552,19.5467516577362,-11.3208726131871,-8.99962743670858,20.3205000498957
0.965755644377228,1.26765460279765,21.0467470807145,19.7790924779168,-11.1572008417561,-9.25571893755958,20.4129197793156
0.967916171545857,1.01528844079249,20.9430932821368,19.9278048413443,-10.9791908614647,-9.45625820027593,20.4354490617406
0.970076698714486,0.829043365150056,20.986166959906,20.157123594756,-10.907605162528,-9.66404011480296,20.571645277331
0.972237225883115,0.727336112667423,21.3501082383147,20.6227721256473,-11.0387221754911,-9.94771800648994,20.986440181981
0.974397753051745,0.704715091915265,22.0665185775948,21.3618034856795,-11.385616834755,-10.3285441968821,21.7141610316371
0.976558280220374,0.737278108737928,22.9834853230567,22.2462072143187,-11.8603817158973,-10.7544645527904,22.6148462686877
0.978718807389003,0.794214396499039,23.8236749571814,23.0294605606824,-12.3089446768402,-11.1176230820917,23.4265677589319
0.980879334557632,0.849439919309733,24.3127536886652,23.4633137693555,-12.5810968039875,-11.3069369250229,23.8880337290103
0.983039861726261,0.888118160519899,24.3113345606505,23.4232164001306,-12.5997263605852,-11.2675491198054,23.8672754803905
0.98520038889489,0.906689322460257,23.8821826238486,22.9754933013884,-12.3944359731545,-11.0344019894641,23.4288379626185
0.98736091606352,0.908769827542968,23.2585229043233,22.3497530767803,-12.0836463659331,-10.7204916246187,22.8041379905518
0.989521443232149,0.90068340814206,22.7306917299016,21.8300083217596,-11.8156875690218,-10.4646624568088,22.2803500258306
0.991681970400778,0.889265290473617,22.5101488203024,21.6208835298287,-11.699707055388,-10.3658091196776,22.0655161750656
0.993842497569407,0.882090575948445,22.639837309416,21.7577467334675,-11.7609639426822,-10.4378280787595,22.1987920214417
0.996003024738036,0.88815689961331,22.9936010408477,22.1054441412344,-11.9408789702305,-10.6086436208105,22.549522591041
0.998163551906665,0.916766545221316,23.3601389078602,22.4433723626389,-12.1384527265408,-10.7633029087088,22.9017556352496
1.00032407907529,0.97399776548562,23.5639542261857,22.5899564607001,-12.2689759958356,-10.8079793476072,23.0769553434429
1.00248460624392,1.05843725317385,23.5587176928477,22.5002804396739,-12.3085774730108,-10.72092159325,23.0294990662608
1.00464513341255,1.15909882787328,23.4451759890392,22.2860771611659,-12.3021374084562,-10.5634891666463,22.8656265751025
1.00680566058118,1.25766982506273,23.4064287865608,22.1487589614981,-12.3320493058118,-10.4455445682177,22.7775938740295
1.00896618774981,1.33479862040176,23.5970477510171,22.2622491306154,-12.4659231857094,-10.4637252551068,22.9296484408162
1.01112671491844,1.37776124618757,24.0474967192008,22.6697354730133,-12.7126289826942,-10.6459871134128,23.3586160961071
1.01328724208707,1.38612897127105,24.6378423025148,23.2517133312437,-13.0119856368929,-10.9327921799863,23.9447778168792
1.0154477692557,1.37304494702497,25.1563607087532,23.7833157617282,-13.2647028278891,-11.2051354073516,24.4698382352407
1.01760829642433,1.36133817097178,25.4100108924458,24.048672721474,-13.3856745317088,-11.3436672752511,24.7293418069599
1.01976882359296,1.37542283822778,25.3243403183965,23.9489174801688,-13.3498815783122,-11.2867473209705,24.6366288992827
1.02192935076159,1.4317280704572,24.9776676259388,23.5459395554816,-13.204697848198,-11.0571057425122,24.2618035907102
1.02408987793021,1.53149060556279,24.552403364565,23.0209127590022,-13.0419469850639,-10.7447110767197,23.7866580617836
1.02625040509884,1.65899762423545,24.2325626071743,22.5735649829389,-12.9457801157049,-10.4572836793517,23.4030637950566
1.02841093226747,1.78597941646612,24.1057792285021,22.3197998120359,-12.9458793224841,-10.2669101977849,23.212789520269
1.0305714594361,1.88030615092321,24.1246919624045,22.2443858114812,-13.0024990566638,-10.182039830279,23.1845388869428
1.03273198660473,1.91570332742171,24.1483329732117,22.23262964579,-13.0320181503167,-10.1584631591842,23.1904813095009
1.03489251377336,1.87922354242276,24.0388241467062,22.1596006042834,-12.9590238445645,-10.1401885309303,23.0992123754948
1.03705304094199,1.77434059388786,23.7577537865438,21.983413192656,-12.7660471902158,-10.1045362993841,22.8705834895999
1.03921356811062,1.61892309620032,23.4060265584396,21.7871034622392,-12.5124748273199,-10.0840901830195,22.5965650103394
1.04137409527925,1.43850628758276,23.1808674715315,21.7423611839487,-12.3096868795571,-10.151927448183,22.4616143277401
1.04353462244788,1.25665519871145,23.2695601722867,22.0129049735752,-12.2631076854991,-10.3781248874319,22.641232572931
1.04569514961651,1.08593040979904,23.7369726790418,22.6510422692428,-12.4114515444204,-10.7825559297219,23.1940074741423
1.04785567678514,0.923817686807738,24.470544426553,23.5467267397452,-12.6971810566804,-11.3114545264688,24.0086355831491
1.05001620395376,0.756797817113399,25.2172626927798,24.4604648756664,-12.9870302549466,-11.8518335292765,24.8388637842231
1.05217673112239,0.57276480665269,25.6985091014825,25.1257442948299,-13.1356369540676,-12.2764897440886,25.4121266981562
1.05433725829102,0.37825283458022,25.7466746142398,25.3684217796596,-13.06246372441,-12.4950844725397,25.5575481969497
1.05649778545965,0.213516181730013,25.3938646550778,25.1803484733478,-12.8036904184039,-12.4834161458089,25.2871065642128
1.05865831262828,0.156901171302934,24.8653604709794,24.7084592996764,-12.5111308211411,-12.2757790641867,24.7869098853279
1.06081883979691,0.311463293969066,24.478015096183,24.1665518022139,-12.394739195076,-11.9275442541224,24.3222834491985
1.06297936696554,0.771538314257077,24.4918518491234,23.7203135348663,-12.6316950816902,-11.4743876103046,24.1060826919948
1.06513989413417,1.57390381075037,24.9863301436667,23.4124263329164,-13.2801169772086,-10.919261261083,24.1993782382916
1.0673004213028,2.64546988676261,25.8190311308747,23.1735612441121,-14.2322505088186,-10.2640456786747,24.4962961874934
1.06946094847143,3.76497087209292,26.6819954120534,22.9170245399605,-15.2234831420732,-9.57602683393378,24.7995099760069
1.07162147564006,4.55803342176394,27.2229056421347,22.6648722203708,-15.8904695319493,-9.05341939930342,24.9438889312527
1.07378200280869,4.54175168251603,27.1700101544462,22.6282584719302,-15.8558809184811,-9.04325339470707,24.8991343131882
1.07594252997731,3.22483578719662,26.4046115614383,23.1797757742417,-14.8147236743174,-9.97746999352252,24.79219366784
1.07810305714594,0.251870255931368,24.9583121209289,24.7064418649976,-12.6050911884302,-12.2272858045331,24.8323769929633
1.08026358431457,-4.44166366323279,22.9548057142376,27.3964693774704,-9.2565710255024,-15.9190665203516,25.175637545854
1.0824241114832,-10.5151608673877,20.5443662462585,31.0595271136462,-5.01460268943537,-20.787343990517,25.8019466799523
1.08458463865183,-17.2044604045339,17.8769222730933,35.0813826776272,-0.336230934279659,-26.1429215410806,26.4791524753602
1.08674516582046,-23.4336917500883,15.1274298506505,38.5611216007388,4.15313094971891,-30.9974066754135,26.8442757256946
1.08890569298909,-28.0483601373073,12.5452455108283,40.5936056481357,7.7515573132395,-34.3209828927215,26.569425579482
1.09106622015772,-30.1105620624988,10.4748494457893,40.5854115082882,9.81785630835475,-35.3479867853935,25.5301304770388
1.09322674732635,-29.165438723239,9.30498576903596,38.4704244922749,9.9302264771015,-33.817931607757,23.8877051306554
1.09538727449498,-25.3910978706133,9.34323879417643,34.7343366647898,8.02392953821845,-30.0627172677015,22.0387877294831
1.09754780166361,-19.5807069875319,10.6627065408,30.2434135283319,4.45900022336595,-24.9120602579319,20.4530600345659
1.09970832883223,-12.9595100097319,12.9988227432146,25.9583327529464,-0.0196563667413496,-19.4589213813391,19.4785777480805
1.10186885600086,-6.89082997815382,15.7652460719159,22.6560760500697,-4.43720804688101,-14.7734530141117,19.2106610609928
1.10402938316949,-2.55630412370644,18.2067817776613,20.7630859013677,-7.82523882697742,-11.6596950125371,19.4849338395145
1.10618991033812,-0.697412432744612,19.6396637806872,20.3370762134318,-9.4711256739713,-10.5172443230882,19.9883699970595
1.10835043750675,-1.48031302469659,19.6823294614136,21.1626424861102,-9.10100821835851,-11.3214777554034,20.4224859737619
1.11051096467538,-4.50671329735777,18.3785422630139,22.8852555603717,-6.93591448282808,-13.6959844288647,20.6318989116928
1.11267149184401,-8.95415001894991,16.1602383258948,25.1143883448448,-3.60304415347246,-17.0342691818973,20.6373133353698
1.11483201901264,-13.7981901423154,13.66836050927,27.4665506515855,0.0649148165226885,-20.6323703969504,20.5674555804278
1.11699254618127,-18.0520003486904,11.5126575797204,29.5646579284109,3.26967138448499,-23.8083291385506,20.5386577540656
1.1191530733499,-20.9609364271086,10.0753515055715,31.0362879326801,5.44279246076857,-25.9986121798944,20.5558197191258
1.12131360051853,-22.1114999038437,9.43730969614329,31.548809599987,6.33709510385022,-26.8301547519154,20.4930596480651
1.12347412768716,-21.4454069193586,9.44321341793167,30.8886203372902,6.00109675071344,-26.1670136283244,20.165916877611
1.12563465485578,-19.1971232748735,9.85552088875203,29.0526441636255,4.67080119306071,-24.1248837192495,19.4540825261888
1.12779518202441,-15.7888015346037,10.5082378826594,26.2970394172631,2.64028182597213,-21.0429204759334,18.4026386499613
1.12995570919304,-11.7188690737462,11.379478622727,23.0983476964732,0.169695225509559,-17.4086083851097,17.2389131596001
1.13211623636167,-7.47246436203819,12.5516486888638,20.024113050902,-2.53959216341279,-13.7482887064701,16.2878808698829
1.1342767635303,-3.4679242944292,14.0921763645991,17.5601006590283,-5.31212603508494,-10.5140124767287,15.8261385118137
1.13643729069893,-0.0385299406222436,15.9311199909654,15.9696499315877,-7.9462950251716,-8.00408993610496,15.9503849612766
1.13859781786756,2.56227966853088,17.8120697384381,15.2497900699073,-10.1871747034845,-6.34375520068819,16.5309299041727
1.14075834503619,4.14819735458998,19.3505178506836,15.2023204960936,-11.7493576026368,-5.52706157075181,17.2764191733886
1.14291887220482,4.59420635892831,20.1733949167359,15.5791885578076,-12.3838006378321,-5.49249109943965,17.8762917372718
1.14507939937345,3.84685334370586,20.0691821980584,16.2223288543525,-11.9580177708821,-6.18773775532333,18.1457555262055
1.14723992654208,1.95186619297877,19.0737308424635,17.1218646494847,-10.5127985177211,-7.58499922825297,18.0977977459741
1.14940045371071,-0.910111451390123,17.4520207817823,18.3621322331725,-8.27095466519611,-9.6361218422813,17.9070765074774
1.15156098087933,-4.39892712192819,15.5891486944226,19.9880758163507,-5.59511078624718,-12.1935014691395,17.7886122553867
1.15372150804796,-8.02521138533058,13.8469136504864,21.872125035817,-2.91085113257792,-14.9486682105738,17.8595193431517
1.15588203521659,-11.2127657502277,12.4548548084743,23.667620558702,-0.621044529123311,-17.4401931544648,18.0612376835881
1.15804256238522,-13.4104924454115,11.4819289143211,24.8924213597326,0.964281765545166,-19.1514569025721,18.1871751370269
1.16020308955385,-14.2248937064237,10.8901230060634,25.1150167124872,1.66738535018015,-19.6699552094555,18.0025698592753
1.16236361672248,-13.5266273239868,10.6277580240697,24.1543853480565,1.44943464995859,-18.8405063360217,17.3910716860631
1.16452414389111,-11.4891221488253,10.7007242500622,22.1898463988875,0.394198949381578,-16.8394842738564,16.4452853244748
1.16668467105974,-8.54248810548252,11.175342196432,19.7178303019145,-1.31642704547472,-14.1301592036985,15.4465862491732
1.16884519822837,-5.25791600416133,12.1096861676377,17.367602171799,-3.42588508173817,-11.3127590879802,14.7386441697183
1.171005725397,-2.20171198828169,13.4569534469352,15.6586654352169,-5.62762072932676,-8.93018871174931,14.5578094410761
1.17316625256563,0.194321342837424,15.0064287726381,14.8121074298007,-7.60037505773778,-7.30889304348164,14.9092681012194
1.17532677973426,1.7098584361059,16.4104593089119,14.700600872806,-9.06015887250893,-6.49537121835007,15.555530090859
1.17748730690288,2.34693098932708,17.2991039220421,14.952172932715,-9.82301745568459,-6.30262097169396,16.1256384273785
1.17964783407151,2.28517029366271,17.4340384269699,15.1488681333072,-9.85960436031629,-6.43184891982222,16.2914532801385
1.18180836124014,1.80619377528185,16.8267884709737,15.0205946956919,-9.31649112312778,-6.60720046020501,15.9236915833328
1.18396888840877,1.21312874875016,15.7576276168666,14.5444988681164,-8.48537818280838,-6.66568505968314,15.1510632424915
1.1861294155774,0.763176672216843,14.6760900181964,13.9129133459796,-7.71963334520664,-6.57486833688137,14.294501682088
1.18828994274603,0.620704720414101,14.0207714520278,13.4000667316137,-7.32073808622094,-6.38968100559979,13.7104190918207
1.19045046991466,0.831050250454597,14.0368767580617,13.2058265076071,-7.43396350425814,-6.18738812857624,13.6213516328344
1.19261099708329,1.3128107614115,14.6738922488741,13.3610814874626,-7.99335150514278,-6.02413536302553,14.0174868681683
1.19477152425192,1.86796444486697,15.6094615108829,13.7414970660159,-8.73871297787493,-5.93676631057447,14.6754792884494
1.19693205142055,2.21233241674688,16.386026401169,14.1736939844221,-9.29917940895792,-5.9806807838376,15.2798601927955
1.19909257858918,2.02999372109538,16.5944462491293,14.5644525280339,-9.31221998511235,-6.26722940346928,15.5794493885816
1.2012531057578,1.05099336382384,16.0209453225666,14.9699519587428,-8.53596934319524,-6.95947929745949,15.4954486406547
1.20341363292643,-0.858356455664594,14.6981817394378,15.5565381951024,-6.91991264188659,-8.20744732538348,15.1273599672701
1.20557416009506,-3.61587709710367,12.8527051018862,16.4685821989899,-4.61841400239127,-10.0422296480468,14.6606436504381
1.20773468726369,-6.88685535119725,10.7915153836473,17.6783707348446,-1.95233001622504,-12.2826130430209,14.2349430592459
1.20989521443232,-10.1198383208246,8.79375368334845,18.913592004173,0.663042318738051,-14.5167151624988,13.8536728437607
1.21205574160095,-12.664450559919,7.05838194860712,19.7228325085261,2.80303430565593,-16.1936415342225,13.3906072285666
1.21421626876958,-13.9466465483365,5.71601101272564,19.6626575610622,4.11531776780545,-16.8046520546994,12.6893342868939
1.21637679593821,-13.6435294616672,4.8712258672796,18.5147553289468,4.38615179719381,-16.079142395307,11.6929905981132
1.21853732310684,-11.7887430215344,4.62737095539549,16.4161139769299,3.58068603306945,-14.1024284992321,10.5217424661627
1.22069785027547,-8.76342998651611,5.06475562143203,13.8281856079481,1.84933718254204,-11.2958077972321,9.44647061469009
1.2228583774441,-5.17752703191667,6.17998357966557,11.3575106115822,-0.501228273874451,-8.26751882174945,8.7687470956239
1.22501890461273,-1.69259165506462,7.82524912384615,9.51784077891076,-3.06632873439076,-5.60521621698769,8.67154495137846
1.22717943178135,1.14623013478763,9.69448458962337,8.54825445483574,-5.4203573622055,-3.70101216002406,9.12136952222955
1.22933995894998,3.01830257992269,11.3833370246458,8.36503444472315,-7.20081980228426,-2.67336593240023,9.87418573468449
1.23150048611861,3.85729407185931,12.5116438396266,8.65434976776732,-8.18446895574297,-2.398527847954,10.582996803697
1.23366101328724,3.81288295318406,12.8602272057889,9.0473442526048,-8.33655507948646,-2.61723064971037,10.9537857291968
1.23582154045587,3.17040280453982,12.4585817426338,9.28817893809401,-7.81449227358682,-3.05888806677709,10.8733803403639
1.2379820676245,2.25790224221902,11.5763788516749,9.31847660945586,-6.91714054694695,-3.53028718361842,10.4474277305654
1.24014259479313,1.36537748783525,10.6141111364717,9.24873364863643,-5.98974431215347,-3.94167808040059,9.93142239255406
1.24230312196176,0.692215208433941,9.93716147840012,9.24494626996618,-5.31468834341703,-4.27636553076612,9.59105387418315
1.24446364913039,0.328756997447226,9.72819280305374,9.39943580560651,-5.02847490025048,-4.53533940407964,9.56381430433013
1.24662417629902,0.268032828209024,9.92726080326127,9.65922797505225,-5.09764681573515,-4.69559757342161,9.79324438915676
1.24878470346765,0.436338605175162,10.2872825242547,9.85094391907956,-5.36181056471494,-4.7073026569522,10.0691132216671
1.25094523063628,0.729030950542316,10.5142660552175,9.78523510467513,-5.62164850287988,-4.52810207706641,10.1497505799463
1.2531057578049,1.04119218186094,10.418230584379,9.37703840251806,-5.72971138311996,-4.16792311032856,9.89763449344852
1.25526628497353,1.28872498848298,9.99701857941036,8.70829359092738,-5.64287178394667,-3.7097843012222,9.35265608516887
1.25742681214216,1.41992235280525,9.41363091215706,7.99370855935181,-5.41677663248116,-3.28689310327328,8.70366973575444
1.25958733931079,1.41906686282169,8.88621936211143,7.46715249928974,-5.15264311246656,-3.02404281823402,8.17668593070058
1.26174786647942,1.30345152408217,8.55616162836956,7.25271010428739,-4.92980657622587,-2.97462929010261,7.90443586632848
1.26390839364805,1.11510939059343,8.40941020552066,7.29430081492724,-4.76225979805704,-3.0895957121669,7.85185551022395
1.26606892081668,0.90895801432685,8.29460294904197,7.38564493471512,-4.60178048168441,-3.23834346019413,7.84012394187854
1.26822944798531,0.739537170541757,8.02552964339868,7.28599247285692,-4.38253340697022,-3.27322765115758,7.6557610581278
1.27038997515394,0.648654515306152,7.50731649833237,6.85866198302622,-4.07798550681926,-3.10500373386003,7.1829892406793
1.27255050232257,0.656129547567573,6.81275439429039,6.15662484672282,-3.73444197092898,-2.75024764957762,6.48468962050661
1.2747110294912,0.755560516549062,6.1634768673804,5.40791635083134,-3.45951869196473,-2.32617791714114,5.78569660910587
1.27687155665982,0.916429541325072,5.82308579274507,4.90665625142,-3.36975766703507,-1.99511335504746,5.36487102208253
1.27903208382845,1.09266656861885,5.95791271036076,4.86524614174191,-3.5252896394898,-1.88628978656153,5.41157942605133
1.28119261099708,1.23610937772985,6.54060635760307,5.30449697987322,-3.88835786766646,-2.03419380107169,5.92255166873815
1.28335313816571,1.31153094755522,7.35052974794927,6.03899880039405,-4.33103034775224,-2.36373392641942,6.69476427417166
1.28551366533434,1.30862131935302,8.07310093634154,6.76447961698852,-4.69086112784728,-2.72792914881775,7.41879027666503
1.28767419250297,1.24627561630817,8.44651658004184,7.20024096373367,-4.846396098175,-2.97698267371275,7.82337877188775
1.2898347196716,1.16657845385157,8.37912345583928,7.21254500198771,-4.77285095484542,-3.02298327406807,7.7958342289135
1.29199524684023,1.11988797159004,7.97734016938368,6.85745219779364,-4.54861407048686,-2.8687821131018,7.41739618358866
1.29415577400886,1.14652470717914,7.47253017327388,6.32600546609474,-4.30952744022651,-2.5897403794578,6.89926781968431
1.29631630117749,1.26220995152045,7.08923267798024,5.82702272645978,-4.17572131475035,-2.28240638746966,6.45812770222001
1.29847682834612,1.45257366380736,6.92763368281653,5.47506001900917,-4.19010367331195,-2.0112431776009,6.20134685091285
1.30063735551475,1.67797801418493,6.92359710140776,5.24561908722283,-4.30078755779634,-1.78382053651895,6.08460809431529
1.30279788268337,1.88586302116384,6.90541612728773,5.01955310612389,-4.39563957422578,-1.56684504248003,5.96248461670581
1.304958409852,2.02568462386402,6.71235062661239,4.68666600274837,-4.3690176252382,-1.33049068944218,5.69950831468038
1.30711893702063,2.06178753236076,6.30613068212024,4.24434314975947,-4.1839591072405,-1.09127780869936,5.27523691593986
1.30927946418926,1.98141761742489,5.81147562033735,3.83005800291246,-3.89644661888112,-0.924320192743785,4.8207668116249
1.31143999135789,1.7972150243877,5.46153936162944,3.66432433724174,-3.62937719300857,-0.933554656427021,4.56293184943559
1.31360051852652,1.54484012238533,5.47599350923464,3.93115338684932,-3.51041681580999,-1.19315663223199,4.70357344804198
1.31576104569515,1.27641686712656,5.93562758634788,4.65921071922132,-3.60602222673722,-1.69139692604738,5.2974191527846
1.31792157286378,1.04987466569949,6.72049144181833,5.67061677611884,-3.88518305375891,-2.31037105520967,6.19555410896858
1.32008210003241,0.914642918989388,7.54758819252616,6.63294527353677,-4.23111555575777,-2.85915117727369,7.09026673303147
1.32224262720104,0.89651821238657,8.09350833307117,7.1969901206846,-4.49501327272887,-3.15023595414901,7.64524922687788
1.32440315436967,0.987447732827711,8.14253546776795,7.15508773494024,-4.56499160029783,-3.08382000105627,7.6488116013541
1.3265636815383,1.1462022462911,7.68597800187927,6.53977575558817,-4.41609012408519,-2.69678675464853,7.11287687873372
1.32872420870692,1.3117258760935,6.92234845298466,5.61062257689116,-4.11703716453908,-2.14944835039883,6.26648551493791
1.33088473587555,1.42450435994863,6.1581346220156,4.73363026206697,-3.79131949098211,-1.65456295105917,5.44588244204128
1.33304526304418,1.44697798505931,5.65996435958024,4.21298637452093,-3.55347117231977,-1.38300419473081,4.93647536705058
1.33520579021281,1.37462766824762,5.5348695706721,4.16024190242448,-3.45474861945986,-1.39280711708843,4.84755573654829
1.33736631738144,1.23411702541438,5.7006226188369,4.46650559342252,-3.46736982212564,-1.61619428400407,5.08356410612971
1.33952684455007,1.07064528523918,5.95840509347101,4.88775980823183,-3.5145251893551,-1.90855726149632,5.42308245085142
1.3416873717187,0.930457468848981,6.12311801431461,5.19266054546563,-3.52678774158179,-2.13110153830832,5.65788927989012
1.34384789888733,0.845161866865267,6.13576806490487,5.2906061980396,-3.49046496588507,-2.22272216558717,5.71318713147224
1.34600842605596,0.822852236393122,6.09425666348387,5.27140442709075,-3.4585544499385,-2.22427609534881,5.68283054528731
1.34816895322459,0.848222837601786,6.18533912558732,5.33711628798553,-3.51678098159455,-2.24444672519187,5.76122770678642
1.35032948039322,0.890602614305288,6.55621977525261,5.66561716094732,-3.72341119477895,-2.38750727332102,6.11091846809996
1.35249000756185,0.915901674357395,7.19967590459215,6.28377423023476,-4.05778878947477,-2.68393627793868,6.74172506741346
1.35465053473047,0.897441363997909,7.92135825886546,7.02391689486755,-4.40939981143169,-3.06323776543482,7.47263757686651
1.3568110618991,0.822445718526922,8.41332042566957,7.59087470714264,-4.61788307209824,-3.38421449430786,8.00209756640611
1.35897158906773,0.69394996280141,8.39877766214656,7.70482769934515,-4.54636381247399,-3.50543886827187,8.05180268074586
1.36113211623636,0.529407084044669,7.77312047375355,7.24371338970888,-4.15126377889911,-3.35715315283211,7.50841693173121
1.36329264340499,0.356946904805556,6.66689270835403,6.30994580354847,-3.51191980657979,-2.97649944937146,6.48841925595125
1.36545317057362,0.209688440267143,5.39638187393279,5.18669343366565,-2.80303515709997,-2.48850249669925,5.29153765379922
1.36761369774225,0.118756556714126,4.3249983380505,4.20624178133637,-2.22187744738231,-2.04374261231112,4.26562005969344
1.36977422491088,0.106301317611459,3.70402260220594,3.59772128459448,-1.9051619599087,-1.74570998349151,3.65087194340021
1.37193475207951,0.180190429291051,3.57167815388809,3.39148772459704,-1.87593429158957,-1.60564864765299,3.48158293924257
1.37409527924814,0.331969984347312,3.75943878850565,3.42746880415834,-2.04570438642648,-1.54774940990551,3.59345379633199
1.37625580641677,0.539093701713723,3.99882822095861,3.45973451924489,-2.26896096133617,-1.46032040876558,3.72928137010175
1.37841633358539,0.771104031680739,4.06973313205522,3.29862910037448,-2.42041858186798,-1.26376253434687,3.68418111621485
1.38057686075402,0.997794450143925,3.91102676948905,2.91323231934513,-2.45441060981649,-0.957718934600602,3.41212954441709
1.38273738792265,1.19648763643395,3.63713147811775,2.4406438416838,-2.41680955727585,-0.622078102624929,3.03888765990078
1.38489791509128,1.35602873052838,3.45650447836895,2.10047574784057,-2.40626660444866,-0.372223508656098,2.77849011310476
1.38705844225991,1.47653419356945,3.54081436431203,2.06428017074257,-2.50867427894074,-0.29387298858656,2.8025472675273
1.38921896942854,1.56568728460886,3.91880590887176,2.35311862426291,-2.74224659674031,-0.393715669827026,3.13596226656733
1.39137949659717,1.63362020811704,4.45332157862007,2.81970137050303,-3.04347089336856,-0.593040581192994,3.63651147456155
1.3935400237658,1.68843488747297,4.91227800213189,3.22384311465892,-3.30035644480243,-0.76770411359298,4.06806055839541
1.39570055093443,1.73351974632306,5.09199783970405,3.358478093381,-3.41275879301356,-0.81247917352897,4.22523796654253
1.39786107810306,1.76703013512644,4.92398073428163,3.1569505991552,-3.34550543470403,-0.69496023201438,4.04046566671841
1.40002160527169,1.78339359092655,4.50711704516279,2.72372345423625,-3.14525531804467,-0.47016493165485,3.61542024969952
1.40218213244032,1.77608236529438,4.04831638378763,2.27223401849324,-2.91219937454101,-0.24807582659943,3.16027520114043
1.40434265960894,1.74036551633328,3.74429715113514,2.00393163480186,-2.74233133373421,-0.131783059234291,2.8741143929685
1.40650318677757,1.67480698851121,3.67055886112041,1.9957518726092,-2.67268292481581,-0.160472442048992,2.8331553668648
1.4086637139462,1.58103066652828,3.74093494720368,2.1599042806754,-2.66098280686598,-0.289436807073556,2.95041961393954
1.41082424111483,1.46250185577097,3.76198781865402,2.29948596288305,-2.61224483721249,-0.418492053556045,3.03073689076854
1.41298476828346,1.32398049112375,3.55262608957664,2.22864559845289,-2.43830329035019,-0.452332553664572,2.89063584401477
1.41514529545209,1.17268749521289,3.06162269168832,1.88893519647543,-2.1171550934506,-0.358123850631267,2.47527894408187
1.41730582262072,1.02019774188913,2.41551610472825,1.39531836283912,-1.71785692330869,-0.187560310474994,1.90541723378368
1.41946634978935,0.882731201317303,1.86710555889635,0.984374357579045,-1.37491838010683,-0.050821578130871,1.4257399582377
1.42162687695798,0.77846963766546,1.66966186985633,0.891192232190871,-1.2240657537609,-0.0563612972627052,1.2804270510236
1.42378740412661,0.722787571569928,1.94316482265419,1.22037725108426,-1.33297619711206,-0.248794839757167,1.58177103686923
1.42594793129524,0.723753876967954,2.6034574759272,1.87970359895924,-1.66360567644758,-0.577974860995645,2.24158053744322
1.42810845846387,0.780009217767364,3.39183028026457,2.6118210624972,-2.08591974901597,-0.91590592236492,3.00182567138089
1.43026898563249,0.881590010419026,3.99042451039498,3.10883449997595,-2.436007260407,-1.11362224477846,3.54962950518546
1.43242951280112,1.01257507728307,4.16513837058862,3.15256329330555,-2.58885672393584,-1.06999410801124,3.65885083194708
1.43459003996975,1.15381572979914,3.86403215874827,2.71021642894913,-2.50892394427371,-0.778200349574994,3.2871242938487
1.43675056713838,1.28484453074414,3.22274451044407,1.93789997969992,-2.2537945205941,-0.326527724477892,2.580322245072
1.43891109430701,1.38534058407423,2.47778762509266,1.09244704101843,-1.93156410458345,0.146446771527897,1.78511733305555
1.44107162147564,1.43703258026383,1.83764606122643,0.400613480962599,-1.63733932074513,0.518209549650614,1.11912977109451
1.44323214864427,1.42658917402364,1.38315435500344,-0.043434819020193,-1.40487176451354,0.735011996521914,0.669859767991625
1.4453926758129,1.34949078388728,1.05036146833174,-0.299129315555544,-1.19992612610951,0.824310049721414,0.375616076388098
1.44755320298153,1.21408806455476,0.701027183416432,-0.513060881138329,-0.957557623985596,0.863574472846545,0.0939831511390514
1.44971373015016,1.04389598430685,0.235305384166513,-0.808590600140337,-0.639600684236682,0.926243292223594,-0.286642607986912
1.45187425731879,0.875580415458152,-0.322586417246257,-1.19816683270441,-0.276496999105948,1.03687362408128,-0.760376624975333
1.45403478448741,0.751283508290978,-0.818178662670581,-1.56946217096156,0.0334475771898013,1.16037283962627,-1.19382041681607
1.45619531165604,0.706690066586473,-1.04591035592997,-1.75260042251644,0.169610144671748,1.22964524455146,-1.3992553892232
1.45835583882467,0.758890128924857,-0.87017614047612,-1.62906626940098,0.0556430057756315,1.19397819916292,-1.24962120493855
1.4605163659933,0.898990457045935,-0.319537874032061,-1.218528331078,-0.289726291506937,1.05875939406197,-0.769033102555029
1.46267689316193,1.09303607667142,0.402659743697418,-0.690376332974003,-0.747847910184419,0.891706204822712,-0.143858294638293
1.46483742033056,1.2917439253916,1.00487676631574,-0.286867159075859,-1.14831034585367,0.78930554223373,0.359004803619942
1.46699794749919,1.44608500818362,1.25293482958431,-0.193150178599308,-1.34950991888397,0.819617593391464,0.529892325492502
1.46915847466782,1.52324958901141,1.1028507575542,-0.420398831457202,-1.31305017328281,0.971824210234305,0.341225963048501
1.47131900183645,1.51705750797707,0.751407232254943,-0.765650275722132,-1.13423237011601,1.1413538918496,-0.0071215217335947
1.47347952900508,1.44882668059302,0.572731784420616,-0.876094896172408,-1.01077923250682,1.16246078838272,-0.151681555875896
1.47564005617371,1.35843690289613,0.965370026294587,-0.393066876601543,-1.16190346459536,0.875751889748837,0.286151574846522
1.47780058334234,1.28915056485339,2.18003397068985,0.890883405836458,-1.73459226777162,0.199133579508466,1.53545868826315
1.47996111051096,1.27194870151716,4.2073835164293,2.93543481491215,-2.73966610897323,-0.831743056697493,3.57140916567073
1.48212163767959,1.31501964458106,6.77250594943213,5.45748630485107,-4.0437627970066,-2.071233330135,6.1149961271416
1.48428216484822,1.40192183767952,9.42834596793768,8.02642413025815,-5.4151339028086,-3.31225114628931,8.72738504909791
1.48644269201685,1.49868164207451,11.6958454495972,10.1971638075227,-6.59726354583584,-4.34924108272408,10.9465046285599
1.48860321918548,1.56687014507585,13.1861511069017,11.6192809618259,-7.37651062598879,-5.02620540837501,12.4027160343638
1.49076374635411,1.57766404455335,13.6612105706376,12.0835465260842,-7.61943730759547,-5.25294124076544,12.8723785483609
1.49292427352274,1.52173372045108,13.0276412230889,11.5059075026378,-7.27468747176997,-4.99208689109335,12.2667743628633
1.49508480069137,1.41163539188788,11.2937869441614,9.88215155227348,-6.35271116802462,-4.2352580801928,10.5879692482174
1.49724532786,1.27638868132795,8.53435933896084,7.25797065763289,-4.9053740101444,-2.99079098815247,7.89616499829686
1.49940585502863,1.15062518188252,4.89386165730812,3.74323647542561,-3.02224341959532,-1.29630564677154,4.31854906636686
1.50156638219726,1.06224643681451,0.62613994126779,-0.43610649554672,-0.84419318904115,0.749176466180615,0.0950167228605354
1.50372690936589,1.02292348157709,-3.86690380718444,-4.88982728876153,1.42199016280368,2.95637538516931,-4.37836554797298
1.50588743653451,1.02486807077586,-8.04647935432659,-9.07134742510245,3.51080564177537,5.04810774793915,-8.55891338971452
1.50804796370314,1.04500537567386,-11.3265558240297,-12.3715611997036,5.14077522417794,6.70828328768874,-11.8490585118667
1.51020849087177,1.05482545735518,-13.2271675491282,-14.2819930064834,6.08617104588653,7.6684092319193,-13.7545802778058
1.5123690180404,1.03206188426326,-13.534066230562,-14.5661281148253,6.25100217314938,7.79909499954427,-14.0500971726936
1.51452954520903,0.969710923452143,-12.3905877851675,-13.3602987086196,5.71043843085767,7.16500481603588,-12.8754432468935
1.51669007237766,0.879092599590698,-10.2689196189358,-11.1480122185265,4.69491350967256,6.0135524090586,-10.7084659187312
1.51885059954629,0.786217969926437,-7.82014664182891,-8.60636461175534,3.51696433595124,4.69629129084089,-8.21325562679213
1.52101112671492,0.723096567004705,-5.66002142770045,-6.38311799470515,2.46846243034787,3.55310728085493,-6.0215697112028
1.52317165388355,0.716688487922075,-4.17948021708774,-4.89616870500981,1.73139586458283,2.80642859646594,-4.53782446104877
1.52533218105218,0.778593650869139,-3.45780177163663,-4.23639542250577,1.33960406038374,2.50749453668745,-3.8470985970712
1.52749270822081,0.898955199260505,-3.30767577783182,-4.20663097709232,1.20436028928566,2.55279308817641,-3.75715337746207
1.52965323538943,1.04753398344195,-3.41985497064004,-4.467388954082,1.18616049359905,2.75746146876198,-3.94362196236102
1.53181376255806,1.18239800411707,-3.53096687944576,-4.71336488356283,1.17428443766435,2.94788144383995,-4.1221658815043
1.53397428972669,1.26306030345563,-3.53328708971133,-4.79634739316696,1.13511339312785,3.0297038483113,-4.16481724143915
1.53613481689532,1.26265167433423,-3.48105357366014,-4.74370524799437,1.10920094966296,3.0031784611643,-4.11237941082726
1.53829534406395,1.17443384473434,-3.50383838956074,-4.67827223429507,1.1647022724132,2.9263530395147,-4.0910553119279
1.54045587123258,1.01107875285956,-3.68453878243457,-4.69561753529413,1.3367300147875,2.85334814407685,-4.19007815886435
1.54261639840121,0.79865017934733,-3.97531281482864,-4.77396299417597,1.58833131774066,2.78630658676165,-4.37463790450231
1.54477692556984,0.569018400576583,-4.20168950908594,-4.77070790966252,1.81633555425468,2.66986315511955,-4.48619870937423
1.54693745273847,0.353653079329117,-4.15417409129572,-4.50782717062484,1.9002605059833,2.43074012497698,-4.33100063096028
1.5490979799071,0.179597936235437,-3.71557394226195,-3.89517187849739,1.76798800301326,2.03738490736641,-3.80537291037967
1.55125850707573,0.0671049352938821,-2.9504501125426,-3.01755504783648,1.44167258862436,1.54232999156518,-2.98400258018954
1.55341903424436,0.0284967178749664,-2.10256159984389,-2.13105831771886,1.03703244098446,1.07977751779691,-2.11680995878137
1.55557956141298,0.0680430579834074,-1.49530269205096,-1.56334575003437,0.713629817033776,0.815694404008887,-1.52932422104266
1.55774008858161,0.182260723256696,-1.38268920227608,-1.56494992553278,0.600214239509692,0.873605324394737,-1.47381956390443
1.55990061575024,0.359871641324776,-1.82683030997323,-2.186701951298,0.733479334324225,1.27328679631139,-2.00676613063561
1.56206114291887,0.581274250678967,-2.66584629539309,-3.24712054607206,1.04228602235706,1.91419739837551,-2.95648342073257
1.5642216700875,0.818421866393411,-3.58916463539131,-4.40758650178472,1.38537138449895,2.61300418408906,-3.99837556858801
1.56638219725613,1.03680925723152,-4.28071489684722,-5.31752415407873,1.62195281980785,3.17716670565513,-4.79911952546298
1.56854272442476,1.20103635139231,-4.55577873074619,-5.7568150821385,1.67737118967694,3.47892571676541,-5.15629690644235
1.57070325159339,1.28352777198161,-4.42280452748273,-5.70633229946434,1.56963837775056,3.49493003572298,-5.06456841347354
1.57286377876202,1.2732830255863,-4.0440632174482,-5.3173462430345,1.38539009593095,3.2953146343104,-4.68070473024135
1.57502430593065,1.18029365242043,-3.62470607143958,-4.80499972386002,1.22220620950957,2.99264668814023,-4.2148528976498
1.57718483309928,1.03298377681925,-3.297030212013,-4.33001398883225,1.13202321759688,2.68149888282575,-3.81352210042263
1.57934536026791,0.869655493102824,-3.06533388236062,-3.93498937546345,1.0978391946289,2.40232243428314,-3.50016162891204
1.58150588743653,0.727812366602109,-2.83897787319038,-3.56679023979249,1.05558275329413,2.1473013031973,-3.20288405649143
1.58366641460516,0.635620747418663,-2.52880626009208,-3.16442700751075,0.94659275633671,1.90002387746471,-2.84661663380142
1.58582694177379,0.607884423322311,-2.14419293776169,-2.752077361084,0.768154257219689,1.67998089220316,-2.44813514942284
1.58798746894242,0.646208617929017,-1.82678519690877,-2.47299381483779,0.590288289489877,1.5596012163834,-2.14988950587328
1.59014799611105,0.741167628770297,-1.79384930624831,-2.53501693501861,0.526340838739008,1.63809228189445,-2.16443312063346
1.59230852327968,0.874402591050413,-2.21741524104376,-3.09181783209418,0.671506324996674,1.98311021157229,-2.65461653656897
1.59446905044831,1.02029063677595,-3.10455644601205,-4.12484708278801,1.04213290461805,2.57256885978198,-3.61470176440003
1.59662957761694,1.14830448028675,-4.24807832066312,-5.39638280094987,1.54988692018818,3.27234364061831,-4.8222305608065
1.59879010478557,1.22704128905911,-5.28370600514647,-6.51074729420559,2.02833235804368,3.86889429163235,-5.89722664967603
1.6009506319542,1.22963206076644,-5.83545758493068,-7.06508964569712,2.30291276208212,4.14736085323178,-6.4502736153139
1.60311115912283,1.13934110486217,-5.68229042194412,-6.82163152680629,2.27147465854097,3.98048631583423,-6.2519609743752
1.60527168629146,0.954359667169052,-4.86330708552427,-5.81766675269332,1.95447370917761,3.38601320993119,-5.34048691910879
1.60743221346008,0.69128522376237,-3.6670669050695,-4.35835212883187,1.48789084065357,2.52481867629712,-4.01270951695069
1.60959274062871,0.386277774463719,-2.50869218688692,-2.89496996135064,1.0612072062116,1.64062386790718,-2.70183107411878
1.61175326779734,0.0917394970390793,-1.75469908521022,-1.8464385822493,0.831479794085572,0.969089039644191,-1.80056883372976
1.61391379496597,-0.133224030986366,-1.58001959817904,-1.44679556719267,0.856621814582702,0.656785768103153,-1.51340758268585
1.6160743221346,-0.237293566433499,-1.92255833637313,-1.68526476993963,1.07992595140331,0.723985601753063,-1.80391155315638
1.61823484930323,-0.191793206168408,-2.54895016640097,-2.35715696023256,1.37037168628469,1.08268187703208,-2.45305356331676
1.62039537647186,-0.000627701065133807,-3.18920412201481,-3.18857642094967,1.59491591153997,1.59397435994227,-3.18889027148224
1.62255590364049,0.298160145720849,-3.66703673184083,-3.96519687756168,1.68443829305999,2.13167851164127,-3.81611680470126
1.62471643080912,0.640198602707126,-3.9608366642113,-4.60103526691843,1.66031903075209,2.62061693481278,-4.28093596556486
1.62687695797775,0.950460988321082,-4.17065926767861,-5.12112025599969,1.61009913967876,3.03579062216039,-4.64588976183915
1.62903748514638,1.16276074904418,-4.41793338684061,-5.58069413588479,1.62758631889821,3.37172744246449,-4.9993137613627
1.631198012315,1.23736056452033,-4.74021694386521,-5.97757750838554,1.75142818967244,3.60746903645293,-5.35889722612537
1.63335853948363,1.17113874017916,-5.04433128069857,-6.21547002087773,1.93659627025971,3.69330438052845,-5.62990065078815
1.63551906665226,0.996717922883809,-5.14710022566909,-6.14381814855289,2.07519115139264,3.57026803571835,-5.64545918711099
1.63767959382089,0.770385720942658,-4.88255995060666,-5.65294567154932,2.056087114832,3.21166569624599,-5.26775281107799
1.63984012098952,0.552707425663374,-4.21521898665385,-4.76792641231723,1.83125578049524,2.6603169189903,-4.49157269948554
1.64200064815815,0.388768992603699,-3.2924905320504,-3.6812595246541,1.45186076972335,2.0350142586289,-3.48687502835225
1.64416117532678,0.295389559196805,-2.40077157114342,-2.69616113034023,1.05269100597331,1.49577534476852,-2.54846635074183
1.64632170249541,0.259883219225092,-1.84269545776977,-2.10257867699486,0.79140611927234,1.18123094810998,-1.97263706738232
1.64848222966404,0.249892717440718,-1.79803460603037,-2.04792732347109,0.774070944294827,1.1489100204559,-1.92298096475073
1.65064275683267,0.228961836066119,-2.24151596626387,-2.47047780232999,1.00627706509887,1.34971981919805,-2.35599688429693
1.6528032840013,0.170839687421869,-2.96105502584172,-3.13189471326359,1.39510766920993,1.65136720034273,-3.04647486955266
1.65496381116993,0.0677061894310306,-3.6663861145179,-3.73409230394894,1.79933996254344,1.90089924668998,-3.70023920923342
1.65712433833855,-0.0686461805269128,-4.13047849473761,-4.06183231421069,2.09956233763226,1.99659306684189,-4.09615540447415
1.65928486550718,-0.210797351971807,-4.29007807059817,-4.07928071862637,2.25043771128499,1.93424168332728,-4.18467939461227
1.66144539267581,-0.322405745194306,-4.25475972644089,-3.93235398124659,2.2885827358176,1.80497411802614,-4.09355685384374
1.66360591984444,-0.366455920550063,-4.22274514818891,-3.85628922763885,2.29460053436949,1.74491665354439,-4.03951718791388
1.66576644701307,-0.314860353317781,-4.35094754527079,-4.03608719195301,2.33290394929428,1.86061341931761,-4.1935173686119
1.6679269741817,-0.158054493559625,-4.65140061186004,-4.49334611830041,2.40472755270983,2.16764581237039,-4.57237336508022
1.67008750135033,0.0890454657159473,-4.9730053884065,-5.06205085412244,2.44197996134527,2.5755481599192,-5.01752812126447
1.67224802851896,0.388566706985685,-5.0815213914732,-5.47008809845888,2.34647734224376,2.92932740272228,-5.27580474496604
1.67440855568759,0.689444898727455,-4.7958904810086,-5.48533537973605,2.05322279114057,3.08739013923175,-5.14061293037232
1.67656908285622,0.941992532456594,-4.10629201103868,-5.04828454349527,1.58214973929104,2.99513853797593,-4.57728827726698
1.67872961002485,1.11153657802071,-3.20749356360712,-4.31903014162782,1.0479784927932,2.71528335982427,-3.76326185261747
1.68089013719348,1.1860865964913,-2.42515474195702,-3.61124133844832,0.619534072732858,2.39866396746981,-3.01819804020267
1.6830506643621,1.17586127926263,-2.06899435300354,-3.24485563226616,0.446566536870456,2.21035845576439,-2.65692499263485
1.68521119153073,1.10609499058856,-2.28618139323853,-3.39227638382709,0.590043201324985,2.24918568720782,-2.83922888853281
1.68737171869936,1.00727397582964,-2.99008139857158,-3.99735537440122,0.991403711370968,2.50231467511543,-3.4937183864864
1.68953224586799,0.907314827035323,-3.90129416677447,-4.80860899380979,1.49698966986957,2.85796191042256,-4.35495158029213
1.69169277303662,0.827896837993432,-4.67962584577237,-5.5075226837658,1.92586450388947,3.16770976087962,-5.09357426476909
1.69385330020525,0.783942572541522,-5.07920523360559,-5.86314780614711,2.14763133053203,3.32354518934432,-5.47117651987635
1.69601382737388,0.783725174571999,-5.04919282751323,-5.83291800208523,2.13273382647062,3.30832158832861,-5.44105541479923
1.69817435454251,0.828239390243968,-4.7333395978128,-5.56157898805677,1.95255010378442,3.19490918915037,-5.14745929293479
1.70033488171114,0.910628918137328,-4.37536571700716,-5.28599463514449,1.73236839943491,3.09831177664091,-4.83068017607582
1.70249540887977,1.01726876892537,-4.18471241771525,-5.20198118664062,1.58372182439494,3.109624977783,-4.69334680217793
1.7046559360484,1.13106786344218,-4.23425024189555,-5.36531810533774,1.55159118922668,3.24819298438996,-4.79978417361665
1.70681646321702,1.2359934620206,-4.44101790601639,-5.67701136803699,1.60251222199789,3.4565024150288,-5.05901463702669
1.70897699038565,1.32099946065403,-4.63490591620654,-5.95590537686058,1.65695322777625,3.63845241875731,-5.29540564653356
1.71113751755428,1.38176759041469,-4.67203106491836,-6.05379865533305,1.64513173725184,3.71778312287387,-5.36291486012571
1.71329804472291,1.4196439001305,-4.52514490775708,-5.94478880788758,1.55275050381329,3.68221635400904,-5.23496685782233
1.71545857189154,1.43846090044004,-4.29784265008951,-5.73630355052955,1.42969087482474,3.5873822254848,-5.01707310030953
1.71761909906017,1.44100878029822,-4.15523478242917,-5.59624356272739,1.35711300106548,3.5186261715128,-4.87573917257828
1.7197796262288,1.4270099531085,-4.2138274001306,-5.6408373532391,1.39340872351105,3.5339236531738,-4.92733237668485
1.72194015339743,1.3934033478478,-4.45817529444152,-5.85157864228932,1.53238597329686,3.62249099506856,-5.15487696836542
1.72410068056606,1.33646593800654,-4.73739874086621,-6.07386467887275,1.70046640142983,3.70516530843965,-5.40563170986948
1.72626120773469,1.25469452649812,-4.84866000149014,-6.10335452798826,1.79698273749601,3.67902452724319,-5.4760072647392
1.72842173490332,1.15132148114148,-4.66264957075546,-5.81397105189693,1.75566404480699,3.4826462665192,-5.2383103113262
1.73058226207195,1.0353623081479,-4.21852811292639,-5.25389042107429,1.59158290238925,3.14462636461109,-4.73620926700034
1.73274278924057,0.920334106439412,-3.72989589614232,-4.65023000258174,1.40478089485146,2.78528205451057,-4.19006294936203
1.7349033164092,0.820666281254695,-3.4914966613717,-4.31216294262639,1.3354151900585,2.56641461194054,-3.90182980199905
1.73706384357783,0.747039120635072,-3.73128597210053,-4.4783250927356,1.49212342573273,2.61268210668534,-4.10480553241807
1.73922437074646,0.70249664513746,-4.48439281078651,-5.18688945592397,1.89094808282453,2.94469305053072,-4.83564113335524
1.74138489791509,0.680897706682289,-5.55702883730575,-6.23792654398803,2.43806556531173,3.45941212533516,-5.89747769064689
1.74354542508372,0.668587156352886,-6.60314097598976,-7.27172813234264,2.96727690981844,3.97015764434777,-6.9374345541662
1.74570595225235,0.649174056616316,-7.27843738024984,-7.92761143686616,3.31463166181676,4.28839274674124,-7.603024408558
1.74786647942098,0.609915298980863,-7.39635926339519,-8.00627456237605,3.39322198220716,4.30809493067846,-7.70131691288562
1.75002700658961,0.547265077198346,-7.00904940213206,-7.55631447933041,3.23089216246686,4.05178977826438,-7.28268194073123
1.75218753375824,0.469475747264795,-6.37398215473927,-6.84345790200406,2.95225320373724,3.65646682463443,-6.60872002837167
1.75434806092687,0.395193815691245,-5.82511130130143,-6.22030511699267,2.71495874280509,3.30774946634196,-6.02270820914705
1.7565085880955,0.348041371608606,-5.61581953290356,-5.96386090451216,2.63388908064748,3.15595113806038,-5.78984021870786
1.75866911526412,0.3484486288479,-5.81295460686631,-6.16140323571421,2.73225298900921,3.25492593228106,-5.98717892129026
1.76082964243275,0.405521706293778,-6.2909870570528,-6.69650876334658,2.94273267537951,3.55101523482018,-6.49374791019969
1.76299016960138,0.512248444753394,-6.82123716586754,-7.33348561062093,3.15449436055707,3.92286702768716,-7.07736138824424
1.76515069677001,0.645935385570952,-7.20268902184317,-7.84862440741413,3.27837681813611,4.24727989649254,-7.52565671462865
1.76731122393864,0.773491856045673,-7.36245909608486,-8.13595095213053,3.29448362001959,4.4547214040881,-7.7492050241077
1.76947175110727,0.859856072363335,-7.37422323530802,-8.23407930767135,3.25718358147234,4.54696769001734,-7.80415127148969
1.7716322782759,0.877656520975647,-7.39039642350031,-8.26805294447595,3.25636995126233,4.5728547327258,-7.82922468398813
1.77379280544453,0.815841800342251,-7.53197274972102,-8.34781455006327,3.35806547468939,4.58182817520276,-7.93989364989215
1.77595333261316,0.684308111235347,-7.80235548381577,-8.48666359505111,3.55902368629021,4.58548585314323,-8.14450953943344
1.77811385978179,0.512009550115322,-8.0769166692771,-8.58892621939242,3.78245355958089,4.55046788475387,-8.33292144433476
1.78027438695042,0.338507978620803,-8.17621025799588,-8.51471823661668,3.91885113968754,4.42661310761874,-8.34546424730628
1.78243491411904,0.202121267786169,-7.98092600068637,-8.18304726847254,3.8894023664501,4.19258426812936,-8.08198663457946
1.78459544128767,0.129543627845226,-7.51971490491767,-7.6492585327629,3.69508563853622,3.88940108030406,-7.58448671884029
1.7867559684563,0.130756930904055,-6.97448904412557,-7.10524597502962,3.42186605661076,3.61800145296684,-7.03986750957759
1.78891649562493,0.19989142123341,-6.59435304210847,-6.79424446334188,3.19723081043753,3.49706794228765,-6.69429875272518
1.79107702279356,0.319825357388013,-6.56155760528395,-6.88138296267197,3.12086612394797,3.60060416002999,-6.72147028397796
1.79323754996219,0.467780405079773,-6.88187701357521,-7.34965741865499,3.20704830424772,3.90871891186738,-7.1157672161151
1.79539807713082,0.620397797175682,-7.36232053988576,-7.98271833706144,3.37096137135504,4.30155806711856,-7.6725194384736
1.79755860429945,0.757667927126064,-7.69502194598317,-8.45268987310924,3.46867700942855,4.60517890011765,-8.0738559095462
1.79971913146808,0.865167958861853,-7.6093928261561,-8.47456078501795,3.37211243364712,4.6698643719399,-8.04197680558703
1.80187965863671,0.934506899464193,-7.01562748147735,-7.95013438094155,3.04056029100658,4.44232064020287,-7.48288093120945
1.80404018580534,0.962805825719922,-6.06385564195559,-7.02666146767551,2.55052490811783,3.99473364669772,-6.54525855481555
1.80620071297397,0.952278655354348,-5.0853033470771,-6.03758200243145,2.06651234586137,3.4949303288929,-5.56144267475427
1.80836124014259,0.91010287888302,-4.4426492752282,-5.35275215411122,1.76627319817259,3.13142751649712,-4.89770071466971
1.81052176731122,0.847694173692816,-4.36387072269863,-5.21156489639145,1.75808827450291,3.02962953504213,-4.78771780954504
1.81268229447985,0.778397916980811,-4.84226109576834,-5.62065901274916,2.03193158939377,3.19952846486498,-5.23146005425875
1.81484282164848,0.713835653561217,-5.65102984143056,-6.36486549499178,2.46859709393467,3.5393505742765,-6.00794766821117
1.81700334881711,0.660658372822121,-6.46257896201755,-7.12323733483967,2.90096029459772,3.8919478538309,-6.79290814842861
1.81916387598574,0.619554522990478,-7.01014772295779,-7.62970224594826,3.19529659998365,4.12462838446937,-7.31992498445303
1.82132440315437,0.586781818774474,-7.20901317638807,-7.79579499516254,3.3111156788068,4.19128840696851,-7.50240408577531
1.823484930323,0.55706502511595,-7.17643713507415,-7.7335021601901,3.3096860549791,4.14528359265303,-7.45496964763213
1.82564545749163,0.526714725438266,-7.14352237762929,-7.67023710306756,3.30840382609551,4.09847591425291,-7.40687974034843
1.82780598466026,0.496200302178477,-7.30962204924255,-7.80582235142102,3.40671087353204,4.15101132679975,-7.55772220033179
1.82996651182889,0.471047026613633,-7.71978359412599,-8.19083062073963,3.62436828375618,4.33093882367663,-7.95530710743281
1.83212703899752,0.459867454068703,-8.2321997859363,-8.69206724000501,3.8861661659338,4.57596734703685,-8.46213351297065
1.83428756616614,0.469760106786674,-8.59326064577917,-9.06302075256584,4.06175026949625,4.76639042967626,-8.82814069917251
1.83644809333477,0.501263538345059,-8.57861892348015,-9.07988246182521,4.03867769256754,4.79057300008513,-8.82925069265268
1.8386086205034,0.54583071448488,-8.12203324943299,-8.66786396391787,3.78810126747406,4.60684733920138,-8.39494860667543
1.84076914767203,0.587807308881198,-7.3609496516743,-7.94875696055549,3.38657117139655,4.26828213471835,-7.6548533061149
1.84292967484066,0.610513039758727,-6.57472617126475,-7.18523921102347,2.98210656575301,3.8978761253911,-6.87998269114411
1.84509020200929,0.603358982932327,-6.05010512037736,-6.65346410330969,2.72337306872252,3.62841154312101,-6.35178461184352
1.84725072917792,0.566015419207039,-5.94586784957748,-6.51188326878452,2.68992621518522,3.53894934399578,-6.228875559181
1.84941125634655,0.507729252881027,-6.22636987097585,-6.73409912385687,2.85932030904741,3.62091418836895,-6.48023449741636
1.85157178351518,0.443443536456154,-6.69547307716848,-7.13891661362463,3.12601477035616,3.79118007504039,-6.91719484539656
1.85373231068381,0.390123301366257,-7.10891373411144,-7.4990370354777,3.35939521637259,3.94458016842198,-7.30397538479457
1.85589283785244,0.365050943789087,-7.302331002063,-7.66738194585209,3.46864002913696,4.01621644482059,-7.48485647395754
1.85805336502107,0.384716653611868,-7.26591955654324,-7.65063621015511,3.44060145146569,4.01767643188349,-7.45827788334918
1.86021389218969,0.461726488939985,-7.12798532732819,-7.58971181626818,3.3331294191941,4.02571915260408,-7.35884857179818
1.86237441935832,0.599186490262173,-7.06069478548944,-7.65988127575161,3.23075414761363,4.12953388300689,-7.36028803062052
1.86453494652695,0.785195402689332,-7.16409057025478,-7.94928597294411,3.18944758378272,4.36724068781672,-7.55668827159944
1.86669547369558,0.991335444983876,-7.39604063609067,-8.38737608107455,3.2023525955534,4.68935576302921,-7.89170835858261
1.86885600086421,1.17736992101844,-7.58961087158773,-8.76698079260618,3.20612047528465,4.97217535681231,-8.17829583209696
1.87101652803284,1.30115048442371,-7.54929191286779,-8.8504423972915,3.12407071422204,5.07579644085761,-8.19986715507964
1.87317705520147,1.33021703920909,-7.17148893280957,-8.50170597201866,2.92063594680024,4.91596150561387,-7.83659745241411
1.8753375823701,1.25105990433266,-6.51913981879361,-7.77019972312627,2.63403995723047,4.51062981372947,-7.14466977095994
1.87749810953873,1.07327800266789,-5.80483831078956,-6.87811631345746,2.36578015406084,3.97569715806267,-6.34147731212351
1.87965863670736,0.827757221839206,-5.28826619927274,-6.11602342111195,2.23025448871677,3.47189032147558,-5.70214481019235
1.88181916387599,0.559541620482794,-5.14294597626573,-5.70248759674852,2.29170217789147,3.13101460861566,-5.42271678650712
1.88397969104461,0.317048782634294,-5.36574950123391,-5.6827982838682,2.52435035929981,2.99992353325125,-5.52427389255106
1.88614021821324,0.140028280510108,-5.77981276388927,-5.91984104439937,2.81989224168958,3.02993466245474,-5.84982690414432
1.88830074538187,0.0493867093758719,-6.13092100910273,-6.1803077184786,3.04076714986343,3.11484721392723,-6.15561436379066
1.8904612725505,0.0421979584620876,-6.22655081355227,-6.26874877201436,3.09217642754509,3.15547336523822,-6.24764979278331
1.89262179971913,0.0940478991760946,-6.04232654688447,-6.13637444606056,2.97413932385419,3.11521117261833,-6.08935049647252
1.89478232688776,0.168218623385472,-5.73672514675825,-5.90494377014373,2.78425326168639,3.0365811967646,-5.82083445845099
1.89694285405639,0.22822457166981,-5.56429374294415,-5.79251831461396,2.66803458563717,3.01037144314188,-5.67840602877905
1.89910338122502,0.248630853525595,-5.73299645310507,-5.98162730663066,2.74218279978974,3.11512908007813,-5.85731187986787
1.90126390839365,0.220086365386404,-6.28147820825666,-6.50156457364307,3.03069592143513,3.36082546951473,-6.39152139094986
1.90342443556228,0.147684321976083,-7.04216256701614,-7.18984688899222,3.44723912252003,3.66876560548415,-7.11600472800418
1.90558496273091,0.0451225437084419,-7.71267452489879,-7.75779706860723,3.83377599059517,3.90145980615784,-7.73523579675301
1.90774548989954,-0.0714800995807732,-8.00201696390693,-7.93053686432616,4.03674853174385,3.92952838237269,-7.96627691411655
1.90990601706816,-0.187301166008782,-7.77702987128576,-7.58972870527697,3.98216551864727,3.7012137696341,-7.68337928828137
1.91206654423679,-0.28943366155111,-7.13237309204303,-6.84293943049192,3.71090337679707,3.27675288447041,-6.98765626126748
1.91422707140542,-0.365691109910381,-6.34678351260543,-5.98109240269505,3.35623731125791,2.80770064639233,-6.16393795765024
1.91638759857405,-0.40381241644121,-5.74796127121095,-5.34414885476974,3.07588684382608,2.47016821916427,-5.54605506299035
1.91854812574268,-0.392735981730571,-5.55569917330281,-5.16296319157224,2.97421757751669,2.38511360492083,-5.35933118243752
1.92070865291131,-0.325782520197703,-5.78340067078117,-5.45761815058347,3.05459159548944,2.56591781519288,-5.62050941068232
1.92286918007994,-0.203902627434791,-6.24664206506663,-6.04273943763184,3.22527234625071,2.91941840509853,-6.14469075134924
1.92502970724857,-0.0369657117835115,-6.67041308003055,-6.63344736824704,3.35368939590703,3.29824082823176,-6.6519302241388
1.9271902344172,0.157815115460466,-6.83510288756327,-6.99291800302373,3.3386438860514,3.5753665592421,-6.9140104452935
1.92935076158583,0.359834101236831,-6.68319143737578,-7.04302553861261,3.16167866806947,3.70142981992472,-6.86310848799419
1.93151128875446,0.549886789176622,-6.33258147173397,-6.88246826091059,2.89134734127867,3.71617752504361,-6.60752486632228
1.93367181592309,0.713969226383939,-5.99436854568739,-6.70833777207133,2.64019965965172,3.71115349922763,-6.35135315887936
1.93583234309171,0.844873473860318,-5.84445943353498,-6.68933290739529,2.49979297983733,3.76710319062781,-6.26689617046514
1.93799287026034,0.941487932057799,-5.92219030839069,-6.86367824044849,2.49035118816645,3.90258308625314,-6.39293427441959
1.94015339742897,1.00666569492943,-6.11235996036434,-7.11902565529377,2.55284713271746,4.0628456751116,-6.61569280782905
1.9423139245976,1.04490260907284,-6.21966809501894,-7.26457070409178,2.58738274297305,4.15473665658231,-6.74211939955536
1.94447445176623,1.06060070616565,-6.09282907412687,-7.15342978029252,2.51611418398061,4.10701524322909,-6.62312942720969
1.94663497893486,1.05677889010273,-5.72749213015901,-6.78427102026173,2.33535662002814,3.92052495518223,-6.25588157521037
1.94879550610349,1.03388068737975,-5.28765624636551,-6.32153693374526,2.12688777949288,3.6777088105625,-5.80459659005539
1.95095603327212,0.989177847633585,-5.0294665265965,-6.01864437423009,2.02014433948146,3.50391111093184,-5.52405545041329
1.95311656044075,0.917923505657868,-5.16554097416,-6.08346447981787,2.12380873425106,3.50069399273787,-5.62450272698893
1.95527708760938,0.816635866005371,-5.74242533423822,-6.55906120024359,2.46289473411642,3.68784853312448,-6.1507432672409
1.95743761477801,0.687219843841711,-6.59927586192461,-7.28649570576632,2.95602800904145,3.98685777480401,-6.94288578384546
1.95959814194663,0.53963181140839,-7.43415892435398,-7.97379073576237,3.44726355647279,4.25671127358538,-7.70397483005817
1.96175866911526,0.39128346939122,-7.94665744460189,-8.3379409139931,3.77768698760533,4.36461219169216,-8.1422991792975
1.96391919628389,0.26304062653725,-7.98287330271047,-8.24591392924772,3.85991633808661,4.25447727789248,-8.11439361597909
1.96607972345252,0.17346069260939,-7.60644063278259,-7.77990132539198,3.7164899700866,3.97668100900069,-7.69317097908729
1.96824025062115,0.133544951168976,-7.05922686417424,-7.19277181534321,3.46284095650263,3.66315838325609,-7.12599933975872
1.97040077778978,0.143528006826326,-6.63467142368245,-6.77819943050878,3.24557170842806,3.46086371866755,-6.70643542709562
1.97256130495841,0.19238829839818,-6.53181273130954,-6.72420102970772,3.16971221645568,3.45829466405295,-6.62800688050863
1.97472183212704,0.260606320520162,-6.76587373133465,-7.02648005185481,3.25263370540724,3.64354318618749,-6.89617689159473
1.97688235929567,0.326147379423683,-7.17919169581871,-7.5053390752424,3.42652215819751,3.91574322733304,-7.34226538553055
1.9790428864643,0.371901368103331,-7.54161297116596,-7.91351433926929,3.58485580153131,4.14270785368631,-7.72756365521763
1.98120341363293,0.391285373102924,-7.68163877303007,-8.072924146133,3.64517669996357,4.23210475961796,-7.87728145958154
1.98336394080156,0.389351791808728,-7.57522556361997,-7.9645773554287,3.59293688590562,4.17696457361871,-7.76990145952433
1.98552446797018,0.379253817082605,-7.34576922046384,-7.72502303754645,3.48325770169062,4.05213842731453,-7.53539612900514
1.98768499513881,0.37604635972342,-7.17983645622255,-7.55588281594597,3.40189504824956,3.96596458783469,-7.36785963608426
1.98984552230744,0.390124819502157,-7.20930296084464,-7.59942778034679,3.40958907067124,3.99477629992448,-7.40436537059572
1.99200604947607,0.421884672820438,-7.42757053861128,-7.84945521143172,3.50284293289542,4.13566994212608,-7.6385128750215
1.9941665766447,0.458827237295468,-7.68799692319176,-8.14682416048723,3.61458484294815,4.30282569889135,-7.9174105418395
1.99632710381333,0.476524139594077,-7.78733680541712,-8.2638609450112,3.65540633291152,4.37019254230264,-8.02559887521416
1.99848763098196,0.444569404252797,-7.58916801050809,-8.03373741476089,3.57229930312765,4.23915340950684,-7.81145271263449
2.00064815815059,0.337070622497255,-7.11741574478138,-7.45448636727863,3.39017256114206,3.89577849488794,-7.28595105603001
2.00280868531922,0.144673559642061,-6.56340151029156,-6.70807506993363,3.20936397532475,3.42637431478784,-6.6357382901126
2.00496921248785,-0.117046928950596,-6.19652077473034,-6.07947384577975,3.15678385184047,2.98121345841458,-6.13799731025504
2.00712973965648,-0.407866788852208,-6.22339682937335,-5.81553004052115,3.31563180911278,2.70383162583447,-6.01946343494725
2.00929026682511,-0.673363772795945,-6.6711054363647,-5.99774166356875,3.67223460458032,2.6621889453864,-6.33442354996672
2.01145079399373,-0.861558021913637,-7.35892339821439,-6.49736537630075,4.11024071006401,2.81790367719356,-6.92814438725757
2.01361132116236,-0.938150684412857,-7.97696889320606,-7.0388182087932,4.45755978880946,3.05033376219017,-7.50789355099963
2.01577184833099,-0.893916025846488,-8.23399401914259,-7.3400779932961,4.56395502249454,3.22308098372481,-7.78703600621934
2.01793237549962,-0.742698147116923,-7.99936625633783,-7.2566681092209,4.37103220172738,3.25698498105199,-7.62801718277937
2.02009290266825,-0.51326244555674,-7.36612507399281,-6.85286262843607,3.93969375977477,3.16980009143966,-7.10949385121444
2.02225342983688,-0.239989718479842,-6.60317970850951,-6.36318999002967,3.42158471349468,3.06160013577492,-6.48318484926959
2.02441395700551,0.0439862536954968,-6.02273517332021,-6.06672142701571,2.98937445981236,3.0553538403556,-6.04472830016796
2.02657448417414,0.310259422134106,-5.83195971826578,-6.14221914039989,2.76085014806584,3.226239281267,-5.98708942933284
2.02873501134277,0.536341551858024,-6.04395309233036,-6.58029464418838,2.75380577023617,3.5583180980232,-6.31212386825937
2.0308955385114,0.706137288588842,-6.49058829301419,-7.19672558160303,2.89222550221268,3.95143143509594,-6.84365693730861
2.03305606568003,0.810506477628059,-6.92592498836847,-7.73643146599653,3.05770925537021,4.2734689718123,-7.3311782271825
2.03521659284866,0.847684935752669,-7.16178661658269,-8.00947155233536,3.15705084041501,4.42857824404401,-7.58562908445903
2.03737712001728,0.822844888026021,-7.16202969245904,-7.98487458048506,3.16959240221651,4.40385973425554,-7.57345213647205
2.03953764718591,0.746260735240213,-7.04652664099858,-7.79278737623879,3.15013295287918,4.2695240557395,-7.41965700861869
2.04169817435454,0.630202994084305,-7.00573379421652,-7.63593678830083,3.18776540006611,4.13306989119257,-7.32083529125867
2.04385870152317,0.485487320723151,-7.17540774254714,-7.66089506327029,3.34496021091199,4.07319119199672,-7.41815140290872
2.0460192286918,0.319035786208866,-7.54309554893915,-7.86213133514802,3.61202988136514,4.09058356067844,-7.70261344204358
2.04817975586043,0.133551555989194,-7.94070560354261,-8.07425715953181,3.90357702377671,4.1039043577605,-8.00748138153721
2.05034028302906,-0.0703520320021233,-8.12916219821554,-8.05881016621341,4.09975711510883,3.99422906710564,-8.09398618221447
2.05250081019769,-0.290204898036606,-7.9291569052825,-7.6389520072459,4.10968090165955,3.67437355460464,-7.7840544562642
2.05466133736632,-0.517414284153421,-7.32606317069601,-6.80864888654259,3.92173872742472,3.14561730119458,-7.0673560286193
2.05682186453495,-0.734434509486155,-6.49093453449614,-5.75650002500999,3.61268452199115,2.51103275776192,-6.12371727975306
2.05898239170358,-0.914765464980932,-5.70465771806485,-4.78989225308392,3.30971159152289,1.9375633940515,-5.24727498557439
2.0611429188722,-1.02670027037106,-5.22423905227598,-4.19753878190491,3.12546966132352,1.58541925576692,-4.71088891709045
2.06330344604083,-1.04111214791359,-5.16102882284882,-4.11991667493523,3.10107048538121,1.53940226351082,-4.64047274889202
2.06546397320946,-0.942071614095447,-5.43396251809512,-4.49189090399967,3.18801706609528,1.77490964495211,-4.9629267110474
2.06762450037809,-0.736707962681294,-5.82082673434496,-5.08411877166367,3.27876734851313,2.17370540449119,-5.45247275300432
2.06978502754672,-0.459089001642951,-6.0789024036037,-5.61981340196075,3.26899570262332,2.5803622001589,-5.84935790278222
2.07194555471535,-0.164268129593784,-6.06998498248024,-5.90571685288645,3.11712655603701,2.87072436164633,-5.98785091768335
2.07410608188398,0.0866543244094607,-5.82299994260678,-5.90965426701624,2.86817280909866,2.99815429571285,-5.86632710481151
2.07626660905261,0.244607330292154,-5.50224222090196,-5.74684955119412,2.62881744530491,2.99572844074314,-5.62454588604804
2.07842713622124,0.286361862815379,-5.301820068856,-5.58818193167138,2.50772910302031,2.93727189724338,-5.44500100026369
2.08058766338987,0.219362052392706,-5.32716693952038,-5.54652899191308,2.55390244356383,2.88294552215289,-5.43684796571673
2.0827481905585,0.0772804002955357,-5.53057157114027,-5.6078519714358,2.72664558542237,2.84256618586567,-5.56921177128803
2.08490871772713,-0.0908512018283514,-5.73748516906506,-5.64663396723671,2.91416818544671,2.77789138270418,-5.69205956815089
2.08706924489575,-0.23419016320239,-5.7498768395935,-5.51568667639111,2.99203350139795,2.64074825659436,-5.63278175799231
2.08922977206438,-0.312857856628365,-5.46860892731856,-5.1557510706902,2.89073339197346,2.42144660703092,-5.31217999900438
2.09139029923301,-0.306959692106794,-4.96417505978881,-4.65721536768202,2.6355673759478,2.17512783778761,-4.81069521373541
2.09355082640164,-0.219799049136391,-4.45310648099659,-4.2333074318602,2.33645276506649,2.0067541913619,-4.3432069564284
2.09571135357027,-0.0749772472805658,-4.19028736119191,-4.11531011391135,2.13263230423624,2.02016643331539,-4.15279873755163
2.0978718807389,0.091167494139781,-4.33466249919787,-4.42582999333765,2.12174750252904,2.25849874373872,-4.38024624626776
2.10003240790753,0.239534367256605,-4.86099785649083,-5.10053222374743,2.31073174461711,2.67003329550202,-4.98076504011913
2.10219293507616,0.338267554394276,-5.56578832391115,-5.90405587830543,2.61376038475844,3.12116171634985,-5.73492210110829
2.10435346224479,0.370245540277902,-6.1650241790181,-6.535269719296,2.8973893193701,3.45275762978695,-6.35014694915705
2.10651398941342,0.335854682370179,-6.43294938633278,-6.76880406870296,3.0485473519813,3.55232937553657,-6.60087672751787
2.10867451658205,0.25056092547899,-6.31005665817295,-6.56061758365194,3.02974786634698,3.40558925456547,-6.43533712091245
2.11083504375067,0.138980643231806,-5.92526872961626,-6.06424937284807,2.89314404319223,3.10161500803994,-5.99475905123216
2.1129955709193,0.0280333900750524,-5.52196869028945,-5.5500020803645,2.7469676501072,2.78901773521978,-5.53598538532698
2.11515609808793,-0.059031512476201,-5.32759256481277,-5.26856105233656,2.69331203864448,2.60476476993018,-5.29807680857467
