t,leadI,leadII,leadIII,aVR,aVL,aVF
0,811.881925649591,812.451432833001,0.569507183410451,-812.166679241296,405.65620923309,406.510470008206
0.00216052716862915,812.647017164017,812.362958689104,-0.284058474912968,-812.504987926561,406.465537819465,406.039450107096
0.00432105433725829,812.585415721032,812.411621530784,-0.1737941902486,-812.498518625908,406.37960495564,406.118913670267
0.00648158150588744,812.52947108204,812.575311615154,0.0458405331148697,-812.552391348597,406.241815274462,406.310576074135
0.00864210867451658,810.92735534164,812.762056797144,1.83470145550416,-811.844706069392,404.546326943068,407.298379126324
0.0108026358431457,809.379717775873,812.861181299834,3.48146352396179,-811.120449537854,402.949127125955,408.171322411898
0.0129631630117749,811.038666263602,812.807999227643,1.76933296404093,-811.923332745622,404.63466664978,407.288666095842
0.015123690180404,811.883541952632,812.624854836718,0.741312884085914,-812.254198394675,405.571114534273,406.683083860402
0.0172842173490332,811.084548675854,807.650089115638,-3.43445956021549,-809.367318895746,407.259504118035,402.107814777711
0.0194447445176623,811.823037252217,809.924594595754,-1.89844265646286,-810.873815923986,406.86073995434,404.013075969646
0.0216052716862915,812.547975516102,812.364693428293,-0.183282087809403,-812.456334472198,406.365628801956,406.090705670242
0.0237657988549206,811.717361526979,812.55675872047,0.839397193490527,-812.137060123724,405.438982166744,406.69807795698
0.0259263260235497,812.533807078141,812.779719319483,0.245912241341557,-812.656763198812,406.1439474184,406.512815780412
0.0280868531921789,811.011787607296,812.909589488752,1.89780188145676,-811.960688548024,404.556992862919,407.403695685105
0.030247380360808,810.285507179696,812.868021926507,2.58251474681106,-811.576764553101,403.851496216442,407.725268336659
0.0324079075294372,812.690853778228,812.668432099037,-0.0224216791909839,-812.679642938633,406.35663772871,406.323005209923
0.0345684346980663,812.647400694064,812.414852463873,-0.232548230190787,-812.531126578969,406.439974462127,406.091152116841
0.0367289618666955,811.77129919513,811.456237513533,-0.315061681596603,-811.613768354331,406.043180438363,405.570587915968
0.0388894890353246,810.9152967182,812.278490870326,1.36319415212654,-811.596893794263,404.776051283037,406.820842511226
0.0410500162039538,812.507001119582,812.496777883947,-0.0102232356344985,-812.501889501764,406.258612177608,406.243277324156
0.0432105433725829,810.985163167501,812.791688665798,1.80652549829745,-811.88842591665,404.589318834602,407.299107082048
0.0453710705412121,812.659458691049,812.994662210862,0.335203519813149,-812.827060450955,406.162127585618,406.664932865337
0.0475315977098412,811.91002694539,810.594848891419,-1.31517805397061,-811.252437918405,406.61260249968,404.639835418724
0.0496921248784703,811.882205312318,802.412147384869,-9.47005792744847,-807.147176348593,410.676131619883,396.47104472871
0.0518526520470995,811.005928401922,798.109928600027,-12.8959998018953,-804.557928500975,411.950964101909,392.606964399066
0.0540131792157286,810.925535640583,796.286119307644,-14.6394163329393,-803.605827474114,412.782475986761,390.823351487352
0.0561737063843578,810.901147498325,801.044697461789,-9.85645003653553,-805.972922480057,410.37879876743,395.594123712627
0.0583342335529869,811.742959042635,806.036544996395,-5.70641404624052,-808.889752019515,408.724686544438,400.165065475077
0.0604947607216161,811.829733677714,812.729746510267,0.900012832553102,-812.27974009399,405.46486042258,406.81487967141
0.0626552878902452,811.898058846388,813.003190540246,1.10513169385752,-812.450624693317,405.396463576265,407.054161117052
0.0648158150588744,812.697394542041,813.070286974139,0.372892432097956,-812.88384075809,406.162251054971,406.721589703118
0.0669763422275035,809.460801341733,812.892273027221,3.43147168548751,-811.176537184477,403.014664828123,408.161872356354
0.0691368693961327,810.174246794187,808.58160801934,-1.59263877484648,-809.377927406763,405.883442784516,403.494484622247
0.0712973965647618,811.711582703971,802.696434167928,-9.01514853604272,-807.20400843595,410.363365620007,396.840642815943
0.0734579237333909,812.511219832055,800.973818954904,-11.5374008771502,-806.74251939348,412.024310354602,394.718209038877
0.0756184509020201,810.978360442332,807.460025376703,-3.51833506562855,-809.219192909517,407.24834775398,401.970845155537
0.0777789780706492,811.845224809572,812.552622522003,0.707397712431089,-812.198923665788,405.568913548571,406.630010117217
0.0799395052392784,811.096932294504,812.906187498664,1.80925520416019,-812.001559896584,404.643838545172,407.357721351412
0.0821000324079075,811.090130964012,813.109423230599,2.01929226658694,-812.099777097306,404.535419348713,407.564357748593
0.0842605595765367,811.0361299435,813.054631814336,2.01850187083573,-812.045380878918,404.508814036332,407.536566842586
0.0864210867451658,812.555352558089,810.374052944248,-2.18129961384113,-811.464702751169,407.368326085965,404.096376665203
0.088581613913795,812.510115022064,802.035958107394,-10.4741569146699,-807.273036564729,411.492135968367,395.780900596362
0.0907421410824241,811.722057540499,800.958138512099,-10.7639190284,-806.340098026299,411.242988284449,395.097109741849
0.0929026682510533,812.57209195125,804.91141157742,-7.66068037383013,-808.741751764335,410.11638616254,398.625365601795
0.0950631954196824,811.056307702529,809.93975386928,-1.11655383324944,-810.498030785904,406.086430767889,404.411600018015
0.0972237225883115,811.897394748791,812.739048310251,0.841653561459907,-812.318221529521,405.527870593666,406.790350935855
0.0993842497569407,812.68194551177,813.101751626655,0.419806114885091,-812.891848569213,406.131069698443,406.76077887077
0.10154477692557,811.824567783476,813.21906189684,1.39449411336409,-812.521814840158,405.215036835056,407.306778005102
0.103705304094199,812.540696164759,810.628004242296,-1.9126919224633,-811.584350203527,407.226694043611,404.357656159916
0.105865831262828,811.701888195337,804.622101014241,-7.07978718109621,-808.161994604789,409.390837688217,398.771156916573
0.108026358431457,810.926694820202,802.576009064911,-8.35068575529044,-806.751351942556,409.638690287746,397.11266165481
0.110186885600086,812.58749016841,803.9439234045,-8.64356676391026,-808.265706786455,410.61552846616,397.650178320295
0.112347412768716,811.078187968591,804.099419051882,-6.97876891670956,-807.588803510236,409.02847844265,398.560325067586
0.114507939937345,811.115370774282,810.929809686399,-0.185561087883457,-811.022590230341,405.650465931083,405.372124299258
0.116668467105974,811.08681462897,813.071911010468,1.98509638149812,-812.079362819719,404.550859123736,407.528503695983
0.118828994274603,812.596508067295,812.603405121927,0.00689705463241808,-812.599956594611,406.294805506331,406.30515108828
0.120989521443232,811.720465249611,809.324813647046,-2.39565160256507,-810.522639448328,407.058058426088,403.46458102224
0.123150048611861,812.48293899681,807.231929418938,-5.25100957787186,-809.857434207874,408.866974287341,400.990459920533
0.12531057578049,810.935895455255,801.020343849863,-9.91555160539212,-805.978119652559,410.425723530324,395.552396122235
0.12747110294912,811.822280809436,797.41060015785,-14.4116806515865,-804.616440483643,413.116980730511,391.499459753132
0.129631630117749,812.700052983813,801.435264599514,-11.2647883842991,-807.067658791663,411.982420684056,395.085238107607
0.131792157286378,812.71821617599,809.912845258532,-2.80537091745805,-811.315530717261,407.761793546724,403.553737170537
0.133952684455007,810.275560157764,813.027692509255,2.75213235149101,-811.65162633351,403.761713903137,407.889912430373
0.136113211623636,811.76549204359,813.550707569437,1.78521552584698,-812.658099806514,404.990138258872,407.667961547642
0.138273738792265,811.68928773199,811.175821448367,-0.513466283622392,-811.432554590179,406.101377007806,405.331177582373
0.140434265960894,811.683437573387,807.460544021453,-4.22289355193357,-809.57199079742,407.95316556266,401.61882523476
0.142594793129524,810.959523136343,798.713140733286,-12.2463824030571,-804.836331934814,411.6029527697,393.233379165114
0.144755320298153,811.857889542683,794.121671891062,-17.7362176516206,-802.989780716872,414.797053597152,388.192727119721
0.146915847466782,811.929171300642,798.814193803377,-13.114977497265,-805.371682552009,412.522074398953,392.849608153056
0.149076374635411,811.127076184823,804.905386788662,-6.22168939616097,-808.016231486742,408.674382790492,399.34184869625
0.15123690180404,811.044646704938,809.730823495547,-1.31382320939122,-810.387735100242,406.179234957165,404.208500143078
0.153397428972669,812.526495204522,812.027293890027,-0.49920131449494,-812.276894547274,406.512848259508,405.764046287766
0.155557956141298,811.667024576052,812.979887165556,1.31286258950411,-812.323455870804,405.177080993274,407.14637487753
0.157718483309928,812.480746236551,806.918756791672,-5.56198944487915,-809.699751514111,409.021367840715,400.678383673396
0.159879010478557,811.781333942777,797.284248015234,-14.4970859275431,-804.532790979006,413.13920993516,391.393581043845
0.162039537647186,811.100623426293,794.105134847161,-16.9954885791319,-802.602879136727,414.048056002713,388.554823134015
0.164200064815815,811.955572418539,795.447702597323,-16.5078698212155,-803.701637507931,414.231721119877,389.469916388054
0.166360591984444,811.126590428828,799.873839338891,-11.2527510899366,-805.500214883859,411.189670759382,394.310544124477
0.168521119153073,812.602205719731,807.147243683073,-5.45496203665812,-809.874724701402,409.028583878195,400.846140823207
0.170681646321702,810.891198154211,812.793718691496,1.90252053728557,-811.842458422853,404.494338808463,407.348119614391
0.172842173490332,812.42782389357,813.141701748394,0.713877854823409,-812.784762820982,405.856973019373,406.927789801609
0.175002700658961,812.483086030674,808.777707701313,-3.70537832936134,-810.630396865994,408.094232180018,402.536164685976
0.17716322782759,811.821082281531,799.110638730775,-12.7104435507554,-805.465860506153,412.265762916143,393.20009759001
0.179323754996219,812.74391561889,794.975064241296,-17.7688513775937,-803.859489930093,415.256383498242,388.603106431851
0.181484282164848,812.784464709104,791.344629673329,-21.4398350357753,-802.064547191217,417.11214987244,384.952397318777
0.183644809333477,812.705620390536,795.632560188985,-17.0730602015514,-804.16909028976,414.889340296044,389.279749993717
0.185805336502107,810.171160255743,802.118678024008,-8.05248223173453,-806.144919139875,409.111821243739,397.033097896137
0.187965863670736,810.837869329888,811.090954392058,0.253085062170499,-810.964411860973,405.292392133859,405.672019727114
0.190126390839365,810.816077728101,811.648665554335,0.832587826233521,-811.232371641218,404.991744950934,406.240626690284
0.192286918007994,812.503600303527,809.826454354207,-2.67714594932045,-811.165027328867,407.590373126424,403.574654202443
0.194447445176623,811.074428918458,802.56321849255,-8.51121042590819,-806.818823705504,409.792819672183,397.026004033321
0.196607972345252,812.785036581274,795.914757683078,-16.8702788981959,-804.349897132176,414.827657739735,389.522239392441
0.198768499513881,812.791544678453,791.282058399015,-21.5094862794377,-802.036801538734,417.150515478945,384.886286059789
0.200929026682511,812.675675119338,794.604067068316,-18.0716080510218,-803.639871093827,415.37364158518,388.266229508647
0.20308955385114,810.920997392324,804.222369381081,-6.6986280112427,-807.571683386703,408.809812701783,398.761870684919
0.205250081019769,809.222694609486,809.32758649248,0.104891882993684,-809.275140550983,404.558901363246,404.716239187737
0.207410608188398,811.621645294685,813.264250785352,1.64260549066705,-812.442948040018,404.989519902009,407.453428138009
0.209571135357027,812.543345910267,812.426548964307,-0.116796945959663,-812.484947437287,406.330071428113,406.154876009174
0.211731662525656,812.699729287007,806.030165162781,-6.66956412422599,-809.364947224894,409.684646705616,399.680300519277
0.213892189694285,811.201859427684,794.531334293106,-16.6705251345776,-802.866596860395,413.936192281131,388.930404579264
0.216052716862915,812.763550044463,791.292401291189,-21.4711487532742,-802.027975667826,417.117349398868,384.910626268957
0.218213244031544,811.842630656984,795.203704768923,-16.6389258880608,-803.523167712953,414.240778272522,389.282389440431
0.220373771200173,810.900922325755,801.537975217228,-9.36294710852678,-806.219448771492,410.131934717141,396.087514054351
0.222534298368802,811.617207814822,805.112198690131,-6.50500912469101,-808.364703252476,409.061108469757,399.30359478272
0.224694825537431,811.652980712572,812.42434910467,0.771368392098111,-812.038664908621,405.440806160237,406.597858748384
0.22685535270606,811.777688609141,813.404123877549,1.62643526840725,-812.590906243345,405.075626670367,407.515279572978
0.229015879874689,812.708405767451,805.549274306317,-7.1591314611336,-809.128840036884,409.933768614292,399.195071422592
0.231176407043319,811.186378971218,794.802096602264,-16.3842823689534,-802.994237786741,413.785330670086,389.208907116655
0.233336934211948,811.940891952543,789.778640727637,-22.1622512249062,-800.85976634009,417.051571588725,383.808194751365
0.235497461380577,812.614504714005,788.683396228819,-23.9311084851855,-800.648950471412,418.272806599595,382.376143871817
0.237657988549206,811.691068040901,790.90044707547,-20.7906209654305,-801.295757558186,416.240844503166,385.05491305502
0.239818515717835,810.837779029337,799.27137264343,-11.5664063859077,-805.054575836383,411.202092707623,393.852483128761
0.241979042886464,811.678237201364,808.3527809145,-3.32545628686421,-810.015509057932,407.501846744114,402.513662313818
0.244139570055093,811.79863354047,811.940265186106,0.141631645636153,-811.869449363288,405.828500947417,406.040948415871
0.246300097223723,811.918524483164,803.441313602075,-8.47721088108904,-807.679919042619,410.197867682126,397.482051360493
0.248460624392352,812.759839395085,795.080153427109,-17.6796859679757,-803.919996411097,415.21976268153,388.700233729567
0.250621151560981,811.11936626777,787.534160179128,-23.5852060886421,-799.326763223449,417.352286178206,381.974477045243
0.25278167872961,811.004410610148,783.851425596216,-27.152985013932,-797.427918103182,419.07869781204,378.349220291142
0.254942205898239,811.691245980195,782.729360573186,-28.961885407009,-797.210303276691,420.326565693602,376.883737583089
0.257102733066868,811.653020897329,790.266248768678,-21.3867721286509,-800.959634833003,416.51989651299,384.439738320013
0.259263260235497,812.497590382698,796.267718401884,-16.2298719808148,-804.382654392291,414.363731181757,390.018923210534
0.261423787404127,811.016051737481,794.480868823786,-16.5351829136953,-802.748460280633,413.775617325588,388.972842955045
0.263584314572756,812.70558601785,791.722075583811,-20.9835104340384,-802.21383080083,416.844548225944,385.369282574886
0.265744841741385,811.152932518218,779.463731469599,-31.689201048619,-795.308331993908,421.421066783418,373.88726521049
0.267905368910014,811.899095238657,768.66964547654,-43.2294497621161,-790.284370357599,427.564272500386,362.720097857212
0.270065896078643,810.20828634888,758.458698839351,-51.7495875095291,-784.333492594116,430.978936929205,353.354555664911
0.272226423247272,811.700682400709,757.152263296183,-54.5484191045258,-784.426472848446,433.124550752617,351.301922095828
0.274386950415901,811.664038562402,762.995678468528,-48.6683600938742,-787.329858515465,430.166199328138,357.163659187327
0.276547477584531,810.912616488052,765.052811203919,-45.8598052841335,-787.982713845985,428.386210886093,359.596502959893
0.27870800475316,811.80535099298,765.799260855995,-46.0060901369847,-788.802305924488,428.905720564982,359.896585359505
0.280868531921789,811.902514324532,760.063565096503,-51.8389492280284,-785.983039710517,431.87073177628,354.112307934237
0.283029059090418,811.942412471664,746.367279080876,-65.5751333907876,-779.15484577627,438.758772931226,340.396072845044
0.285189586259047,811.108474126066,728.447414259645,-82.6610598664204,-769.777944192855,446.884766996243,322.893177196612
0.287350113427676,812.600377736043,713.347762977893,-99.2526147581502,-762.974070356968,455.926496247097,307.047574109871
0.289510640596305,811.70621933225,707.851645138983,-103.854574193268,-759.778932235616,457.780396762759,301.998535472857
0.291671167764935,812.455089784288,700.779975542174,-111.675114242114,-756.617532663231,462.065102013201,294.55243065003
0.293831694933564,812.491521337416,697.201847858607,-115.289673478809,-754.846684598012,463.890597408113,290.956087189899
0.295992222102193,811.796898041982,691.70322440067,-120.093673641312,-751.750061221326,465.945285841647,285.804775379679
0.298152749270822,811.110763645197,685.414333661725,-125.696429983471,-748.262548653461,468.403596814334,279.858951839127
0.300313276439451,812.752256312995,668.778899329102,-143.973356983894,-740.765577821049,478.362806648445,262.402771172604
0.30247380360808,812.713422401579,654.129307936992,-158.584114464587,-733.421365169286,485.648768433083,247.772596736202
0.304634330776709,811.807489239836,638.911823772073,-172.895665467763,-725.359656505955,492.3515773538,233.008079152155
0.306794857945339,810.895426135527,629.178873016012,-181.716553119514,-720.03714957577,496.305989627521,223.731159948249
0.308955385113968,812.431999082303,622.649969937462,-189.782029144841,-717.540984509882,501.107014113572,216.43397039631
0.311115912282597,810.890085915702,628.514741646737,-182.375344268966,-719.70241378122,496.632715092334,223.069698688885
0.313276439451226,811.01150821151,635.047628084627,-175.963880126884,-723.029568148069,493.487694169197,229.541873978872
0.315436966619855,812.724308792271,638.539381548802,-174.184927243469,-725.631845170536,493.45461801787,232.177227152667
0.317597493788484,811.185271904716,635.650030401409,-175.535241503307,-723.417651153062,493.360256704011,230.057394449051
0.319758020957114,812.716480783493,633.816123117209,-178.900357666284,-723.266301950351,495.808419224889,227.457882725463
0.321918548125743,812.583480091953,630.431606228339,-182.151873863614,-721.507543160146,497.367676977784,224.139866182362
0.324079075294372,810.866801276283,629.219246505827,-181.647554770456,-720.043023891055,496.257178023369,223.785845867686
0.326239602463001,810.031704466427,637.552246686149,-172.479457780278,-723.791975576288,491.255581123352,232.536394452936
0.32840012963163,810.900332346387,649.650299968973,-161.250032377415,-730.27531615768,486.075182361901,244.200133795779
0.330560656800259,810.249430409573,661.79918186931,-148.450248540263,-736.024306139441,479.349839474918,256.674466664523
0.332721183968888,812.75419485434,671.853011010075,-140.901183844265,-742.303602932208,476.827689349303,265.475913582905
0.334881711137518,811.981854974058,674.768248379369,-137.213606594689,-743.375051676714,474.597730784374,268.77732089234
0.337042238306147,811.891040113642,674.664615490992,-137.22642462265,-743.277827802317,474.558732368146,268.719095434171
0.339202765474776,810.952837163953,669.649248089772,-141.303589074181,-740.301042626862,476.128213119067,264.172829507796
0.341363292643405,810.053844811092,665.850756211782,-144.20308859931,-737.952300511437,477.128466705201,260.823833806236
0.343523819812034,810.847391573729,669.960203070628,-140.8871885031,-740.403797322179,475.867290038414,264.536507283764
0.345684346980663,811.740525694642,680.307109132322,-131.43341656232,-746.023817413482,471.586971128481,274.436846285001
0.347844874149292,811.079009752177,692.469230259797,-118.60977949238,-751.774120005987,464.844394622279,286.929725383708
0.350005401317922,811.957708085505,702.701584398004,-109.256123687501,-757.329646241755,460.606915886503,296.722730355252
0.352165928486551,811.150227230733,709.832698693727,-101.317528537006,-760.49146296223,456.233877883869,304.257585078361
0.35432645565518,811.052665210849,706.730247105792,-104.322418105057,-758.891456158321,457.687541657953,301.203914500367
0.356486982823809,811.728015952784,699.356227354479,-112.371788598305,-755.542121653632,462.049902275545,293.492219378087
0.358647509992438,811.659301149401,694.625574956028,-117.033726193372,-753.142438052714,464.346513671387,288.795924381328
0.360808037161067,812.473367029224,696.915140394621,-115.558226634603,-754.694253711923,464.015796831914,290.678456880009
0.362968564329696,810.977735699766,701.49520666844,-109.482529031326,-756.236471184103,460.230132365546,296.006338818557
0.365129091498326,812.675057065806,711.997634343972,-100.677422721835,-762.336345704889,456.67623989382,305.660105811068
0.367289618666955,811.939266240171,721.54009716606,-90.3991690741111,-766.739681703116,451.169217657141,315.570464045975
0.369450145835584,812.708858008256,729.690762015716,-83.01809599254,-771.199810011986,447.863477000398,323.336333011588
0.371610673004213,812.618811682966,726.814732705694,-85.8040789772713,-769.71677219433,449.211445330119,320.505326864212
0.373771200172842,812.519610486622,724.310195744003,-88.2094147426189,-768.414903115313,450.364512614621,318.050390500692
0.375931727341471,812.470963382612,719.498651657913,-92.9723117246994,-765.984807520263,452.721637553656,313.263169966607
0.3780922545101,812.499757463618,719.184326340231,-93.3154311233867,-765.842041901925,452.907594293502,312.934447608422
0.38025278167873,810.997855841305,721.942293672206,-89.0555621690988,-766.470074756755,450.026709005202,316.443365751554
0.382413308847359,812.677662103768,729.949014633911,-82.728647469857,-771.313338368839,447.703154786812,323.610183582027
0.384573836015988,811.922955106795,741.942765592697,-69.9801895140973,-776.932860349746,440.951572310446,335.9812880393
0.386734363184617,812.682842188377,749.503455117257,-63.1793870711198,-781.093148652817,437.931114629748,343.162034023068
0.388894890353246,812.597772312081,749.232474311091,-63.3652980009896,-780.915123311586,437.981535156535,342.933588155051
0.391055417521875,810.133935673669,749.226092607321,-60.9078430663478,-779.680014140495,435.520889370008,344.159124770487
0.393215944690504,812.490137991152,746.743917656459,-65.7462203346931,-779.617027823805,439.118179162923,340.498848660883
0.395376471859134,810.940492258427,746.243727319736,-64.6967649386911,-778.592109789081,437.818628598559,340.773481190522
0.397536999027763,812.605425499409,751.176767744872,-61.4286577545373,-781.891096622141,437.017041626973,344.874054995167
0.399697526196392,809.494929292865,762.246174547116,-47.2487547457483,-785.87055191999,428.371842019306,357.498709900684
0.401858053365021,812.691949016174,767.132968106333,-45.5589809098408,-789.912458561254,429.125464963008,360.786993598246
0.40401858053365,811.860161617364,761.377771558691,-50.4823900586731,-786.618966588028,431.171275838019,355.447690750009
0.406179107702279,810.996837288901,748.64060340694,-62.3562338819617,-779.81872034792,436.676535585431,343.142184762489
0.408339634870908,810.940984226003,731.319536918848,-79.6214473071551,-771.130260572425,445.281215766579,325.849044805846
0.410500162039538,812.517791639438,708.949991657419,-103.567799982019,-760.733891648428,458.042795810728,302.6910958377
0.412660689208167,810.963071635658,691.541861323789,-119.421210311869,-751.252466479723,465.192140973763,286.06032550596
0.414821216376796,809.432803424354,687.413673811018,-122.019129613336,-748.423238617686,465.725966518845,282.697272098841
0.416981743545425,810.276723348763,692.669308733263,-117.607414615499,-751.473016041013,463.942068982131,287.530947058882
0.419142270714054,811.876001785418,698.31846187318,-113.557539912238,-755.097231829299,462.716770848828,292.380460980471
0.421302797882683,812.634611745282,707.091500122345,-105.543111622937,-759.863055933814,459.08886168411,300.774194249704
0.423463325051313,811.781905708043,714.591228936276,-97.1906767717674,-763.186567322159,454.486291239905,308.700276082254
0.425623852219942,811.74022388321,712.684731060727,-99.055492822483,-762.212477471968,455.397858352846,306.814619119122
0.427784379388571,811.741849761525,703.912301566447,-107.829548195078,-757.827075663986,459.785698978301,298.041376685685
0.4299449065572,811.783267935741,699.822970762856,-111.960297172885,-755.803119349298,461.871782554313,293.931336794985
0.432105433725829,812.629139496955,699.303690972129,-113.325448524826,-755.966415234542,462.97729401089,292.989121223652
0.434265960894458,812.65611177904,701.84129679504,-110.814814984,-757.24870428704,461.73546338152,295.51324090552
0.436426488063087,811.055378190504,712.932508774253,-98.1228694162512,-761.993943482379,454.589123803378,307.404819679001
0.438587015231717,811.811286668965,724.24210756681,-87.5691791021551,-768.026697117887,449.69023288556,318.336464232327
0.440747542400346,812.566447377889,734.451833355635,-78.1146140222545,-773.509140366762,445.340530700072,328.16860966669
0.442908069568975,811.754938333431,731.273729865253,-80.4812084681785,-771.514334099342,446.118073400805,325.396260698537
0.445068596737604,812.562223150486,728.991456679465,-83.5707664710205,-770.776839914975,448.066494810753,322.710345104222
0.447229123906233,811.800251599657,722.401588895157,-89.3986627044998,-767.100920247407,450.599457152078,316.501463095329
0.449389651074862,811.037624825321,719.200939198393,-91.8366856269272,-765.119282011857,451.437155226124,313.682126785733
0.451550178243491,812.639136108736,718.253602575127,-94.3855335336089,-765.446369341932,453.512334821172,311.934034520759
0.453710705412121,811.038063557736,724.43141607575,-86.6066474819861,-767.734739816743,448.822355519861,318.912384296882
0.45587123258075,812.598671513034,736.621408227563,-75.9772632854714,-774.610039870299,444.287967399253,330.322072471046
0.458031759749379,812.571792701191,743.120683299951,-69.4511094012398,-777.846238000571,441.011451051215,336.834786949355
0.460192286918008,812.560781208656,743.406588879681,-69.1541923289744,-777.983685044169,440.857486768815,337.126198275353
0.462352814086637,810.983627833295,743.659954775547,-67.323673057748,-777.321791304421,439.153650445521,338.168140858899
0.464513341255266,811.011450756116,737.803371109,-73.2080796471158,-774.407410932558,442.109765201616,332.297645730942
0.466673868423895,812.625823709361,731.197634241414,-81.4281894679465,-771.911728975387,447.027006588654,324.884722386734
0.468834395592525,811.043423115717,728.405745423192,-82.6376776925252,-769.724584269455,446.840550404121,322.884033865333
0.470994922761154,812.616151406426,739.203545129867,-73.4126062765588,-775.909848268146,443.014378841492,332.895469426654
0.473155449929783,812.588774215417,747.451219429876,-65.1375547855415,-780.019996822646,438.863164500479,341.156832322167
0.475315977098412,812.567650450181,754.925180528082,-57.6424699220993,-783.746415489131,435.10506018614,348.641355302991
0.477476504267041,810.97913549713,758.619064944788,-52.3600705523417,-784.799100220959,431.669603024736,353.129497196223
0.47963703143567,811.001429453847,756.647928513187,-54.3535009406604,-783.824678983517,432.677465197254,351.147213786263
0.481797558604299,811.823606406801,749.214463926314,-62.6091424804869,-780.519035166557,437.216374443644,343.302660722913
0.483958085772929,812.629070156723,742.474659856605,-70.1544103001186,-777.551865006664,441.391740228421,336.160124778243
0.486118612941558,811.820734644958,739.469452355586,-72.3512822893723,-775.645093500272,442.086008467165,333.559085033107
0.488279140110187,811.794075018258,742.139402930573,-69.6546720876855,-776.966738974416,440.724373552972,336.242365421444
0.490439667278816,812.570192601034,748.742779948031,-63.8274126530033,-780.656486274532,438.198802627019,342.457683647514
0.492600194447445,812.573444933534,757.907723367345,-54.6657215661886,-785.240584150439,433.619583249861,351.621000900578
0.494760721616074,812.595271088648,763.391131065505,-49.2041400231424,-787.993201077076,430.899705555895,357.093495521181
0.496921248784703,811.825472765954,762.406186548675,-49.4192862172793,-787.115829657314,430.622379491617,356.493450165698
0.499081775953333,811.834926825232,755.852161150735,-55.9827656744962,-783.843543987984,433.908846249864,349.93469773812
0.501242303121962,811.027681991965,750.637261242952,-60.3904207490131,-780.832471617459,435.709051370489,345.12342024697
0.503402830290591,812.588784479428,745.864519148417,-66.7242653310108,-779.226651813923,439.656524905219,339.570126908703
0.50556335745922,810.976442069554,744.365209892826,-66.6112321767279,-777.67082598119,438.793837123141,338.876988858049
0.507723884627849,811.769065345093,752.446361827726,-59.3227035173669,-782.10771358641,435.54588443123,346.56182915518
0.509884411796478,810.204314919707,763.229385091693,-46.9749298280141,-786.7168500057,428.58962237386,358.127227631839
0.512044938965107,812.620587572552,769.657435386682,-42.9631521858696,-791.139011479617,427.791869879211,363.347141600406
0.514205466133737,811.843449068097,770.45594265629,-41.3875064118076,-791.149695862194,426.615477739953,364.534218122241
0.516365993302366,811.037473978691,766.425726162393,-44.6117478162979,-788.731600070542,427.824610897494,360.906989173047
0.518526520470995,812.594091354606,762.018577336569,-50.5755140180368,-787.306334345588,431.584802686321,355.721531659266
0.520687047639624,812.562891582313,752.359392095392,-60.2034994869207,-782.461141838853,436.383195534617,346.077946304236
0.522847574808253,811.760929876571,749.875305705458,-61.8856241711134,-780.818117791014,436.823277023842,343.994840767172
0.525008101976882,812.57894429124,758.584476988909,-53.9944673023311,-785.581710640075,433.286705796786,352.295004843289
0.527168629145511,811.82406524703,769.305314084568,-42.518751162462,-790.564689665799,427.171408204746,363.393281461053
0.529329156314141,812.645418049353,774.222508480748,-38.4229095686051,-793.43396326505,425.534163808979,367.899799456071
0.53148968348277,811.05103195536,776.004261180448,-35.0467707749117,-793.527646567904,423.048901365136,370.478745202768
0.533650210651399,811.015657980966,776.946531309705,-34.0691266712606,-793.981094645336,422.542392326113,371.438702319222
0.535810737820028,810.974244393764,770.267519617658,-40.706724776107,-790.620882005711,425.840484584936,364.780397420775
0.537971264988657,810.160843158648,760.558710806423,-49.6021323522248,-785.359776982535,429.881487755436,355.478289227099
0.540131792157286,811.766432888937,756.293791338498,-55.4726415504391,-784.030112113717,433.619537219688,350.410574894029
0.542292319325915,811.807498109528,759.207030093449,-52.6004680160788,-785.507264101488,432.203983062803,353.303281038685
0.544452846494545,811.845318314682,765.01671764851,-46.8286006661722,-788.431017981596,429.336959490427,359.094058491169
0.546613373663174,811.06188929271,774.729101834744,-36.3327874579657,-792.895495563727,423.697338375338,369.198157188389
0.548773900831803,811.039944792996,778.283130146472,-32.7568146465238,-794.661537469734,421.89837971976,372.763157749974
0.550934428000432,812.587068965297,779.4620785849,-33.1249903803978,-796.024573775098,422.856029672848,373.168544102251
0.553094955169061,812.550480073301,771.361954728651,-41.18852534465,-791.956217400976,426.869502708975,365.086714692
0.55525548233769,812.542534292213,764.84104713695,-47.701487155263,-788.691790714582,430.122010723738,358.569779990844
0.55741600950632,812.570564631091,758.82995817047,-53.7406064606206,-785.70026140078,433.155585545856,352.544675854925
0.559576536674949,812.618312075918,761.496868368642,-51.1214437072757,-787.05759022228,431.869877891597,355.187712330683
0.561737063843578,811.861387616709,763.927431229506,-47.9339563872031,-787.894409423107,429.897672001956,357.996737421151
0.563897591012207,812.657459779475,775.979297918495,-36.6781618609798,-794.318378848985,424.667810820227,369.650568028758
0.566058118180836,809.443863183683,780.470055918634,-28.973807265049,-794.956959551158,419.208835224366,375.748124326792
0.568218645349465,811.775085517106,779.522521327114,-32.252564189992,-795.64880342211,422.013824853549,373.634978568561
0.570379172518094,810.94410875247,775.627857221336,-35.3162515311341,-793.285982986903,423.130180141802,370.155802845101
0.572539699686724,812.533177102678,771.564056697902,-40.9691204047754,-792.04861690029,426.751148753727,365.297468146563
0.574700226855353,810.983916185974,762.238881736195,-48.7450344497789,-786.611398961085,429.864475317877,356.746923643208
0.576860754023982,810.248120364957,759.075202376707,-51.1729179882509,-784.661661370832,430.710519176604,353.951142194228
0.579021281192611,812.673668837962,762.846177167844,-49.8274916701173,-787.759923002903,431.250580254039,356.509342748864
0.58118180836124,811.875270725916,774.808757404546,-37.0665133213701,-793.342014065231,424.470892023643,368.871122041588
0.583342335529869,811.0302469815,781.005040558599,-30.0252064229009,-796.017643770049,420.5277267022,375.489917067849
0.585502862698498,812.552513033477,779.523503640661,-33.0290093928159,-796.038008337069,422.790761213146,373.247247123923
0.587663389867128,810.129447636303,778.275136212987,-31.8543114233156,-794.202291924645,420.991879529809,373.210412394836
0.589823917035757,811.732144566417,773.538223812168,-38.1939207542487,-792.635184189293,424.963032660333,367.67215152896
0.591984444204386,812.586084512103,762.534955364131,-50.051129147972,-787.560519938117,431.318606830037,356.241913108079
0.594144971373015,811.064752675311,757.529203233348,-53.5355494419626,-784.296977954329,432.300151058637,351.996826895693
0.596305498541644,812.686816899619,762.605682894456,-50.0811340051636,-787.646249897037,431.383975452391,356.262274444646
0.598466025710273,812.663895410362,769.644114267138,-43.0197811432239,-791.15400483875,427.841838276793,363.312166561957
0.600626552878902,811.010313924887,775.108923249566,-35.901390675321,-793.059618587227,423.455852300104,369.603766287123
0.602787080047532,810.946505528838,778.648808868848,-32.2976966599903,-794.797657198843,421.622101094414,373.175556104429
0.604947607216161,812.511905665175,781.673798154525,-30.8381075106499,-797.09285190985,421.675006587912,375.417845321938
0.60710813438479,810.952746527163,775.524515283333,-35.4282312438303,-793.238630905248,423.190488885497,370.048142019751
0.609268661553419,811.016579461775,766.064504442792,-44.9520750189827,-788.540541952284,427.984327240379,360.556214711905
0.611429188722048,811.869115452487,761.611113017483,-50.2580024350037,-786.740114234985,431.063558943745,355.67655529124
0.613589715890677,811.884345435373,763.206025916773,-48.6783195185999,-787.545185676073,430.281332476986,357.263853199086
0.615750243059306,811.847881109662,766.080962840926,-45.7669182687358,-788.964421975294,428.807399689199,360.157022286095
0.617910770227936,812.578524937833,771.57739374148,-41.0011311963536,-792.077959339656,426.789828067093,365.288131272563
0.620071297396565,810.940737776907,779.320094241587,-31.6206435353201,-795.130416009247,421.280690656113,373.849725353133
0.622231824565194,812.526426479608,781.048709019992,-31.4777174596163,-796.7875677498,422.002071969612,374.785495780188
0.624392351733823,811.774831890925,773.501952267227,-38.272879623698,-792.638392079076,425.023855757312,367.614536321765
0.626552878902452,811.833858203959,766.413917743407,-45.4199404605519,-789.123887973683,428.626899332255,360.496988641428
0.628713406071081,811.870947224913,760.960578854462,-50.9103683704509,-786.415763039688,431.390657797682,355.025105242006
0.63087393323971,811.862950434838,759.09476866332,-52.7681817715174,-785.478859549079,432.315566103178,353.163293445902
0.63303446040834,811.023011224222,763.356747547432,-47.6662636767893,-787.189879385827,429.344637450506,357.845241935322
0.635194987576969,811.765537444809,774.39888260512,-37.3666548396892,-793.082210024965,424.566096142249,368.516113882716
0.637355514745598,812.534251604096,781.520958749886,-31.01329285421,-797.027605176991,421.773772229153,375.253832947838
0.639516041914227,810.961051346211,780.346385982333,-30.6146653638774,-795.653718664272,420.787858355044,374.865860309228
0.641676569082856,811.801550864392,778.593926638359,-33.2076242260327,-795.197738751376,422.504587545212,372.693151206163
0.643837096251485,811.053491064303,776.330628299875,-34.7228627644284,-793.692059682089,422.888176914366,370.803882767723
0.645997623420114,811.069804537447,765.158652520098,-45.9111520173486,-788.114228528773,428.490478277398,359.623750251375
0.648158150588744,811.840163572688,759.8303972564,-52.0097663162878,-785.835280414544,431.924964944488,353.910315470056
0.650318677757373,811.791454193036,762.254248267484,-49.5372059255518,-787.02285123026,430.664330059294,356.358521170966
0.652479204926002,810.95692471475,771.631361714485,-39.3255630002651,-791.294143214617,425.141243857507,366.15289935711
0.654639732094631,812.541210833567,777.302339563598,-35.2388712699686,-794.921775198583,423.890041051768,371.031734146815
0.65680025926326,811.780176838128,781.959304176193,-29.8208726619342,-796.86974050716,420.800524750031,376.06921575713
0.658960786431889,812.622606810332,784.42517965129,-28.1974271590428,-798.523893230811,420.410016984688,378.113876246123
0.661121313600519,811.859267953928,779.865525953577,-31.9937420003508,-795.862396953752,421.926504977139,373.935891976613
0.663281840769148,812.647265910796,767.791950257445,-44.8553156533508,-790.21960808412,428.751290782073,361.468317302047
0.665442367937777,811.02023733621,763.026208182536,-47.9940291536744,-787.023222759373,429.507133244942,357.516089514431
0.667602895106406,810.183130426783,764.424304010425,-45.758826416358,-787.303717218604,427.97097842157,359.332738797033
0.669763422275035,812.546377732203,771.306437647743,-41.2399400844595,-791.926407689973,426.893158908331,365.033248781642
0.671923949443664,811.76389461625,777.039463585905,-34.7244310303445,-794.401679101078,423.244162823297,371.15751627778
0.674084476612293,810.210047022867,783.482699015369,-26.7273480074981,-796.846373019118,418.468697515183,378.377675503936
0.676245003780923,811.041551604243,786.968339243895,-24.0732123603482,-799.004945424069,417.557381982296,381.447563441773
0.678405530949552,811.057407766827,782.545545818979,-28.5118619478475,-796.801476792903,419.784634857337,377.016841935566
0.680566058118181,811.835705808424,772.040965670817,-39.7947401376071,-791.93833573962,425.815222973015,366.123112766605
0.68272658528681,811.004576088354,765.522137243806,-45.4824388445479,-788.26335666608,428.243507466451,360.019849199629
0.684887112455439,810.178769013961,763.521534771768,-46.6572342421929,-786.850151892864,428.418001628077,358.432150264787
0.687047639624068,810.968174881056,767.860411990804,-43.1077628902523,-789.41429343593,427.037968885654,362.376324550276
0.689208166792697,812.578018658874,777.546215146833,-35.0318035120408,-795.062116902854,423.804911085457,371.257205817396
0.691368693961326,809.431669726668,785.702772148119,-23.7288975785483,-797.567220937393,416.580283652608,380.986937284785
0.693529221129956,811.042508704782,790.18594043724,-20.8565682675423,-800.614224571011,415.949538486162,384.664686084849
0.695689748298585,811.042050121011,788.330061898744,-22.7119882222669,-799.686056009878,416.877019171639,382.809036838239
0.697850275467214,812.607258685854,780.282177506913,-32.3250811789412,-796.444718096384,422.466169932398,373.978548163986
0.700010802635843,812.57657236449,776.067760581823,-36.5088117826666,-794.322166473156,424.542692073578,369.779474399578
0.702171329804472,812.56083180429,770.693831902243,-41.8669999020474,-791.627331853266,427.213915853169,364.413416000098
0.704331856973101,812.572725652203,771.644338443575,-40.9283872086274,-792.108532047889,426.750556430415,365.357975617474
0.706492384141731,811.810774675498,778.83599847718,-32.9747761983185,-795.323386576339,422.392775436908,372.930611139431
0.70865291131036,812.634768731955,787.042538063044,-25.5922306689102,-799.838653397499,419.113499700432,380.725153697067
0.710813438478989,811.050306638125,790.9165807712,-20.1337258669253,-800.983443704662,415.592016252525,385.391427452137
0.712973965647618,811.024725116466,789.28277936632,-21.7419457501459,-800.153752241393,416.383335433306,383.770416808087
0.715134492816247,810.192096883121,786.136967349415,-24.0551295337062,-798.164532116268,417.123613208414,381.040918907854
0.717295019984876,811.755360246176,778.716461609764,-33.0388986364115,-795.23591092797,422.397129441294,372.838781486676
0.719455547153505,811.759847252249,771.577785309915,-40.1820619423338,-791.668816281082,425.970954597292,365.697861683791
0.721616074322135,812.586829948058,777.067448832861,-35.5193811151975,-794.827139390459,424.053105531628,370.774033858832
0.723776601490764,811.834176255751,782.512959858516,-29.3212163972357,-797.173568057133,420.577696326494,376.59587173064
0.725937128659393,811.859510343415,789.133700494438,-22.7258098489771,-800.496605418926,417.292660096196,383.20394532273
0.728097655828022,810.263852803688,793.973782502119,-16.2900703015692,-802.118817652903,413.276961552629,388.841856100275
0.730258182996651,812.609209038265,796.559154839482,-16.0500541987833,-804.584181938874,414.329631618524,390.254550320349
0.73241871016528,811.765744869116,791.211510510844,-20.5542343582721,-801.48862768998,416.159989613694,385.328638076286
0.734579237333909,811.7352606621,781.41941113593,-30.31584952617,-796.577335899015,421.025555094135,375.55178080488
0.736739764502539,810.952109386163,775.700357723108,-35.2517516630556,-793.326233554636,423.10193052461,370.224303030026
0.738900291671168,811.796194304759,775.369260731502,-36.4269335732573,-793.58272751813,424.111563939008,369.471163579122
0.741060818839797,811.854319387977,779.81606813222,-32.0382512557571,-795.835193760098,421.946285321867,373.888908438231
0.743221346008426,811.882864549117,787.994614068313,-23.8882504808034,-799.938739308715,417.88555751496,382.053181793755
0.745381873177055,811.861529910686,796.965319847034,-14.8962100636522,-804.41342487886,413.378869987169,391.034554891691
0.747542400345684,812.595382112426,803.780947166721,-8.8144349457051,-808.188164639574,410.704908529066,397.483256110508
0.749702927514313,811.738610739409,801.032146394396,-10.7064643450132,-806.385378566903,411.222537542211,395.162841024691
0.751863454682943,811.715807517577,796.062149515784,-15.6536580017922,-803.88897851668,413.684732759684,390.204245756996
0.754023981851572,811.749931868318,791.00387636023,-20.7460555080876,-801.376904114274,416.247993688203,385.128910426071
0.756184509020201,811.820664253787,788.837713508927,-22.9829507448603,-800.329188881357,417.401807499324,382.927381382033
0.75834503618883,812.676508337858,790.683105676932,-21.9934026609259,-801.679807007395,417.334955499392,384.344851508003
0.760505563357459,811.893428947032,799.585579707675,-12.3078492393577,-805.739504327353,412.100639093195,393.638865234158
0.762666090526088,811.846543162759,807.871511223616,-3.97503193914304,-809.859027193188,407.910787550951,401.948239642237
0.764826617694717,810.977534871616,809.35318413192,-1.62435073969584,-810.165359501768,406.300942805656,403.864416696112
0.766987144863347,811.717292138503,808.41349381509,-3.30379832341305,-810.065392976796,407.510545230958,402.554847745838
0.769147672031976,812.510796382965,798.770206414417,-13.740589968548,-805.640501398691,413.125693175756,392.514808222934
0.771308199200605,811.76934297381,787.273331086129,-24.4960118876813,-799.52133702997,418.132677430746,381.388659599224
0.773468726369234,811.843982199111,774.572990133971,-37.2709920651401,-793.208486166541,424.557487132125,368.650999034415
0.775629253537863,812.68832318481,772.229904956221,-40.4584182285896,-792.459114070516,426.5733707067,365.885743363816
0.777789780706492,812.681372092613,777.836599239323,-34.8447728532901,-795.258985665968,423.763072472952,371.495913193017
0.779950307875122,809.446238448246,783.770436764822,-25.6758016834239,-796.608337606534,417.561020065835,379.047317540699
0.782110835043751,811.758696485725,787.793773198989,-23.9649232867353,-799.776234842357,417.86180988623,381.914424956127
0.78427136221238,812.509953556593,792.61776930795,-19.8921842486435,-802.563861432272,416.201068902618,386.362792529653
0.786431889381009,810.135050189277,787.887539130134,-22.2475110591434,-799.011294659706,416.19128062421,382.820014035495
0.788592416549638,810.985383243402,779.592569723996,-31.3928135194068,-795.288976483699,421.189098381405,374.099878102294
0.790752943718267,809.468048593358,774.730748122242,-34.7373004711152,-792.0993983578,422.102674532236,369.996723825564
0.792913470886896,811.099902941981,779.349996618609,-31.7499063233718,-795.224949780295,421.424904632676,373.800045147619
0.795073998055525,811.086809213602,783.190853725536,-27.895955488066,-797.138831469569,419.491382350834,377.647449118735
0.797234525224155,811.818210548898,790.645583599014,-21.172626949884,-801.231897073956,416.495418749391,384.736478324565
0.799395052392784,812.538305016819,798.726219223413,-13.8120857934059,-805.632262120116,413.175195405113,392.457066715004
0.801555579561413,811.705771118475,802.158783083719,-9.54698803475594,-806.932277101097,410.626379576616,396.305897524482
0.803716106730042,812.524238923816,797.634133877756,-14.8901050460602,-805.079186400786,413.707171984938,391.372014415848
0.805876633898671,812.596585496843,790.231151067121,-22.3654344297227,-801.413868281982,417.481009963283,383.932858318699
0.8080371610673,811.083695184262,782.910506559973,-28.1731886242889,-796.997100872118,419.628441904275,377.368658967842
0.81019768823593,811.115820075806,778.578875100239,-32.5369449755667,-794.847347588023,421.826382525686,373.020965062336
0.812358215404559,811.081895672114,779.013125146687,-32.0687705254267,-795.047510409401,421.57533309877,373.47217731063
0.814518742573188,812.587298542079,786.350050314426,-26.2372482276538,-799.468674428252,419.412273384867,380.056401043386
0.816679269741817,812.503747315094,795.279953242542,-17.2237940725518,-803.891850278818,414.863770693823,389.028079584995
0.818839796910446,810.886553243362,800.497843017355,-10.3887102260067,-805.692198130359,410.637631734684,395.054566395674
0.821000324079075,812.525729593379,794.620741813229,-17.9049877801505,-803.573235703304,415.215358686765,388.357877016539
0.823160851247704,811.038642706372,791.341869056355,-19.6967736500173,-801.190255881363,415.367708178195,385.822547703169
0.825321378416334,812.716252506923,784.798471306934,-27.9177811999884,-798.757361906929,420.317016853456,378.440345053473
0.827481905584963,812.732357036556,778.695497126971,-34.0368599095843,-795.713927081763,423.38460847307,372.329318608693
0.829642432753592,810.278827085418,778.878894148065,-31.3999329373536,-794.578860616741,420.839380011386,373.739480605355
0.831802959922221,812.547628113386,786.827117052939,-25.7205110604465,-799.687372583162,419.134069586916,380.553302996246
0.83396348709085,811.66554705013,794.950429938258,-16.7151171118716,-803.307988494194,414.190332081001,389.117656413193
0.836124014259479,812.45498695729,800.341728277653,-12.1132586796366,-806.398357617471,412.284122818463,394.114234799008
0.838284541428108,810.952295709836,799.498791406117,-11.4535043037189,-805.225543557977,411.202900006777,394.022643551199
0.840445068596738,811.080229065022,797.225145158679,-13.8550839063437,-804.152687111851,412.467656485683,391.685030626168
0.842605595765367,812.758308104645,789.125580470349,-23.6327276342961,-800.941944287497,418.195517869471,382.746426418026
0.844766122933996,811.159692500682,778.887012552051,-32.2726799486309,-795.023352526367,421.716186224657,373.30716630171
0.846926650102625,812.640788113992,778.006247058544,-34.6345410554488,-795.323517586268,423.637664584721,371.685853001547
0.849087177271254,811.705787207953,782.548358422382,-29.1574287855719,-797.127072815167,420.431607996763,376.695464818405
0.851247704439883,812.415250906707,789.021672843121,-23.3935780635851,-800.718461874914,417.904414485146,382.814047389768
0.853408231608512,811.64943969569,794.555217810609,-17.094221885081,-803.10232875315,414.371830790386,388.730497962764
0.855568758777142,811.778837510952,800.332092783062,-11.4467447278903,-806.055465147007,411.612791119421,394.442674027586
0.857729285945771,811.136878916494,796.708356238857,-14.4285226776366,-803.922617577676,412.782700797065,391.13991678061
0.8598898131144,811.215411001501,787.900060740459,-23.3153502610418,-799.55773587098,417.265380631271,382.292355239709
0.862050340283029,811.165424169353,780.728858317089,-30.4365658522639,-795.947141243221,420.800995010808,375.146146232413
0.864210867451658,812.599604975838,780.39255163324,-32.2070533425981,-796.496078304539,422.403329159218,374.092749145321
0.866371394620287,811.639319427388,779.914117583084,-31.7252018443037,-795.776718505236,421.682260635846,374.09445786939
0.868531921788916,812.363599328331,787.067232670586,-25.2963666577443,-799.715415999458,418.829982993037,380.885433006421
0.870692448957546,810.059342619224,795.073216546818,-14.9861260724053,-802.566279583021,412.522734345815,390.043545237207
0.872852976126175,811.834316342296,801.091998514698,-10.7423178275984,-806.463157428497,411.288317084947,395.17484034355
0.875013503294804,811.217642994532,797.730670186459,-13.486972808073,-804.474156590495,412.352307901302,392.121848689193
0.877174030463433,812.857091396531,791.44403907238,-21.4130523241513,-802.150565234455,417.135071860341,385.015493374114
0.879334557632062,811.151955111868,784.207310420581,-26.9446446912874,-797.679632766224,419.048299901578,378.631332864647
0.881495084800691,809.349342160145,778.870723552115,-30.47861860803,-794.11003285613,419.913980384088,374.196052472043
0.883655611969321,810.762213747181,774.946640881212,-35.8155728659691,-792.854427314197,423.288893306575,369.565534007621
0.88581613913795,812.324851236196,781.947663174057,-30.3771880621389,-797.136257205126,421.351019649167,375.785237555959
0.887976666306579,812.468326640074,793.172372966619,-19.2959536734545,-802.820349803347,415.882140156764,386.938209646582
0.890137193475208,812.697782724001,797.808474694086,-14.8893080299143,-805.253128709044,413.793545376958,391.459583332086
0.892297720643837,811.286330534891,797.089730059346,-14.1966004755446,-804.188030297119,412.741465505218,391.446564791901
0.894458247812466,812.888224082007,794.154751987451,-18.7334720945555,-803.521488034729,415.810848088281,387.710639946448
0.896618774981095,811.926773432772,786.913156545578,-25.013616887194,-799.419964989175,418.470195159983,380.949769829192
0.898779302149724,812.469078674916,778.222136145063,-34.2469425298528,-795.345607409989,423.358010602384,371.987596807605
0.900939829318354,812.285270759292,775.636077481425,-36.6491932778672,-793.960674120358,424.46723201858,369.493442101779
0.903100356486983,812.287539685257,781.649853928183,-30.6376857570741,-796.96869680672,421.462612721165,375.506084085554
0.905260883655612,810.895967654691,789.663753002701,-21.2322146519898,-800.279860328696,416.06409115334,384.215769175355
0.907421410824241,811.96928706992,794.447290954552,-17.521996115368,-803.208289012236,414.745641592644,388.462647419592
0.90958193799287,812.951823299726,797.948784569784,-15.0030387299412,-805.450303934755,413.977431014833,391.472872919922
0.911742465161499,812.924545271858,795.224919356993,-17.699625914865,-804.074732314425,415.312085593361,388.762646721064
0.913902992330129,812.689111999581,788.836012962687,-23.8530990368937,-800.762562481134,418.271105518237,382.491456962897
0.916063519498758,811.591792450658,780.814030251482,-30.7777621991759,-796.20291135107,421.184777324917,375.018134026153
0.918224046667387,811.410736148769,777.9868767841,-33.4238593646693,-794.698806466434,422.417297756719,372.281508709715
0.920384573836016,809.882956409308,782.981736706568,-26.9012197027399,-796.432346557938,418.392088056024,378.040258501914
0.922545101004645,812.538811541441,790.118986543483,-22.419824997958,-801.328899042462,417.4793182697,383.849580772763
0.924705628173274,812.062414304738,795.010916056842,-17.0514982478958,-803.53666518079,414.556956276317,388.979708904473
0.926866155341903,813.020377762678,803.516392385499,-9.50398537717911,-808.268385074088,411.262181569929,397.00620350416
0.929026682510533,812.922780713364,801.817804678126,-11.104976035238,-807.370292695745,412.013878374301,395.356414321444
0.931187209679162,812.618395505156,794.730651122138,-17.8877443830178,-803.674523313647,415.253069944087,388.42145336956
0.933347736847791,811.499490553271,785.827445956865,-25.6720445964061,-798.663468255068,418.585767574838,380.077700680229
0.93550826401642,810.564746800186,781.986806718228,-28.5779400819586,-796.275776759207,419.571343441072,376.704433318135
0.937668791185049,812.288870561113,783.573523435016,-28.7153471260972,-797.931196998065,420.502108843605,377.429088154459
0.939829318353678,811.031179320347,790.593270582126,-20.4379087382207,-800.812224951236,415.734544029284,385.077680921953
0.941989845522307,812.149227980344,800.304249385409,-11.8449785949341,-806.226738682876,411.997103287639,394.229635395238
0.944150372690936,811.469474477525,806.616339137635,-4.85313533989017,-809.04290680758,408.161304908708,400.881601898872
0.946310899859566,812.887229438213,805.941933490569,-6.94529594764458,-809.414581464391,409.916262692929,399.498318771462
0.948471427028195,812.530413951757,802.978901549282,-9.55151240247494,-807.754657750519,411.040963177116,396.713694573403
0.950631954196824,811.412812783575,794.860744548961,-16.5520682346137,-803.136778666268,413.982440509094,389.154338157174
0.952792481365453,811.327985091226,789.262211702119,-22.0657733891074,-800.295098396673,416.696879240167,383.598219156506
0.954953008534082,811.540418887127,785.846417408545,-25.6940014785824,-798.693418147836,418.617210182855,380.076207964981
0.957113535702711,812.716642415176,791.898004376255,-20.818638038921,-802.307323395715,416.767640227048,385.539683168667
0.959274062871341,813.031055160139,800.001380637037,-13.0296745231026,-806.516217898588,413.030364841621,393.485853056967
0.96143459003997,813.07983229331,804.869007336132,-8.21082495717746,-808.974419814721,410.645328625244,398.329091189477
0.963595117208599,812.0343702554,806.806012824303,-5.22835743109727,-809.420191539851,408.631363843249,400.788827696603
0.965755644377228,811.635892203707,806.41192893724,-5.22396326646776,-809.023910570474,408.429927735088,400.593982835386
0.967916171545857,811.33569752568,798.33555640879,-13.0001411168902,-804.835626967235,412.167919321285,392.66770764595
0.970076698714486,808.939615360125,790.234413484929,-18.7052018751953,-799.587014422527,413.82240861766,385.764605804867
0.972237225883115,810.815320394814,786.608389175246,-24.2069312195673,-798.71185478503,417.51112580719,381.200728977839
0.974397753051745,811.226052110251,792.471866992003,-18.754185118248,-801.848959551127,414.99011861425,386.858840936878
0.976558280220374,813.092763376293,802.093052312728,-10.9997110635647,-807.592907844511,412.046237219929,395.546670624582
0.978718807389003,812.269429100359,804.659470819462,-7.6099582808971,-808.464449959911,409.939693690628,398.524756269282
0.980879334557632,811.157143062281,810.761349383774,-0.395793678506948,-810.959246223027,405.776468370394,405.182777852633
0.983039861726261,810.748211450281,810.570878854752,-0.177332595529379,-810.659545152516,405.462772022905,405.196773129611
0.98520038889489,811.294600018115,801.80813320472,-9.48646681339471,-806.551366611417,410.390533415755,396.160833195663
0.98736091606352,808.977409898304,795.250041132133,-13.7273687661709,-802.113725515219,411.352389332238,390.761336182981
0.989521443232149,812.493518054859,791.441620816039,-21.0518972388203,-801.967569435449,416.77270764684,385.194861788609
0.991681970400778,811.306090426979,793.106892666511,-18.1991977604677,-802.206491546745,414.752644093723,387.453847453022
0.993842497569407,812.317640595798,796.231280224163,-16.0863603716352,-804.27446040998,414.202000483717,390.072459926264
0.996003024738036,812.219299543006,804.383760351481,-7.83553919152541,-808.301529947243,410.027419367266,398.274110579978
0.998163551906665,811.073191130889,809.867726792135,-1.20546433875427,-810.470458961512,406.139327734822,404.33113122669
1.00032407907529,810.685133757792,807.525435972283,-3.15969778550902,-809.105284865038,406.922415771651,402.182869093387
1.00248460624392,810.497309486751,806.072284516358,-4.42502497039266,-808.284797001555,407.461167228572,400.823629772983
1.00464513341255,810.62160566976,801.096944047682,-9.52466162207804,-805.859274858721,410.073133645919,395.786141212802
1.00680566058118,812.567296253336,795.527720533875,-17.0395757194616,-804.047508393606,414.803435986399,389.244072407207
1.00896618774981,812.143629246365,789.018023404232,-23.1256058421329,-800.580826325298,417.634617544249,382.946208781049
1.01112671491844,811.51180029255,796.755199957147,-14.7566003354035,-804.133500124849,413.134200313977,390.999299810872
1.01328724208707,812.960757251238,805.703991188459,-7.25676606277977,-809.332374219849,410.108761657009,399.223612562839
1.0154477692557,811.810525758502,810.537659962699,-1.27286579580311,-811.1740928606,406.541695777153,404.632397083448
1.01760829642433,811.453532179398,811.57543868305,0.121906503651644,-811.514485431224,405.665812837873,405.848672593351
1.01976882359296,810.515255141994,808.68632915801,-1.82892598398394,-809.600792150002,406.172090562989,403.428701587013
1.02192935076159,810.668407207493,803.739097955983,-6.92930925151006,-807.203752581738,408.798858229501,398.404894352236
1.02408987793021,812.611365958933,795.683277594299,-16.9280883646337,-804.147321776616,414.769727161783,389.377594614833
1.02625040509884,811.363719112338,792.963664005465,-18.4000551068732,-802.163691558901,414.881887109606,387.281804449296
1.02841093226747,813.078513722572,797.35222036073,-15.7262933618418,-805.215367041651,414.402403542207,390.812963499444
1.0305714594361,812.917815335453,804.640823516409,-8.27699181904416,-808.779319425931,410.597403577249,398.181915848682
1.03273198660473,811.775342693275,806.371162510123,-5.40418018315154,-809.073252601699,408.589761438213,400.483491163486
1.03489251377336,811.44952490801,810.772262933145,-0.67726197486445,-811.110893920577,406.063393441437,405.04750047914
1.03705304094199,812.131604210256,812.842327723662,0.710723513406037,-812.486965966959,405.710440348425,406.776525618534
1.03921356811062,812.293950864394,803.219053126011,-9.07489773838256,-807.756501995202,410.684424301388,397.072077693814
1.04137409527925,811.043451367896,795.897614909194,-15.1458364587023,-803.470533138545,413.094643913299,390.375889225246
1.04353462244788,811.359398150681,793.794630566107,-17.5647675845736,-802.577014358394,414.462082867627,388.114931490767
1.04569514961651,812.263037173917,796.392435285061,-15.8706018888563,-804.327736229489,414.066819531387,390.260916698102
1.04785567678514,810.51419476122,800.390729753203,-10.1234650080169,-805.452462257211,410.318829884618,395.133632372593
1.05001620395376,810.974404809358,808.516560806521,-2.45784400283719,-809.74548280794,406.716124406098,403.029358401842
1.05217673112239,810.660978316167,813.881188480089,3.2202101639225,-812.271083398128,403.720384076122,408.550699322006
1.05433725829102,811.343183291314,813.775859506895,2.4326762155813,-812.559521399104,404.455253537866,408.104267861238
1.05649778545965,810.70288762162,809.056146888202,-1.64674073341803,-809.879517254911,406.174814177519,403.704703077392
1.05865831262828,811.829746249212,801.722782136248,-10.1069641129643,-806.77626419273,410.968355181088,395.807909011642
1.06081883979691,812.149638550018,795.489345919984,-16.660292630034,-803.819492235001,414.404965590026,389.414526644975
1.06297936696554,811.478252828776,796.281548055861,-15.1967047729157,-803.879900442319,413.337478800846,390.542421641473
1.06513989413417,812.126342631163,799.329486243308,-12.7968563878554,-805.727914437236,412.461599509509,393.266314927726
1.0673004213028,812.584860179315,807.443858480454,-5.14100169886126,-810.014359329885,408.862930939088,401.151428390796
1.06946094847143,811.455022440541,813.741628701662,2.28660626112014,-812.598325571102,404.584208089711,408.014117481391
1.07162147564006,810.521078105103,813.851320477971,3.33024237286816,-812.186199291537,403.595417866117,408.59078142542
1.07378200280869,811.457850443744,812.483899616899,1.02604917315512,-811.970875030321,405.215900635294,406.754974395027
1.07594252997731,811.01126729744,806.77578199526,-4.23548530218022,-808.89352464635,407.62337629981,401.27014834654
1.07810305714594,812.160908374318,798.83026838734,-13.3306399869778,-805.495588380829,412.745774180648,392.749814200181
1.08026358431457,812.316234396406,793.058132991599,-19.2581014048075,-802.687183694003,415.787167900607,386.900015793396
1.0824241114832,812.175058174567,797.519241764834,-14.655816409733,-804.8471499697,413.41543729215,391.43171267755
1.08458463865183,802.285496533504,802.407088482987,0.121591949483445,-802.346292508246,401.08195229201,401.264340216235
1.08674516582046,789.220366653145,804.038919571377,14.8185529182319,-796.629643112261,387.200906867457,409.428736244805
1.08890569298909,783.520672415186,805.13608579798,21.6154133827936,-794.328379106583,380.952629516196,413.375749590387
1.09106622015772,778.90142254136,800.768483902863,21.8670613615028,-789.834953222112,378.517180589929,411.317772632183
1.09322674732635,781.607593570602,795.123031571127,13.5154380005249,-788.365312570865,384.046077785039,404.319234785826
1.09538727449498,786.663948696477,783.915370173217,-2.74857852325999,-785.289659434847,394.706263609869,390.583395824979
1.09754780166361,795.486984727299,781.135022748328,-14.3519619789714,-788.311003737814,404.919473353135,383.391530384678
1.09970832883223,804.074852001108,788.5847787108,-15.4900732903085,-796.329815355954,409.782462645708,386.547352710246
1.10186885600086,811.752827977932,799.734439796811,-12.0183881811212,-805.743633887371,411.885608079527,393.858025807845
1.10402938316949,811.55712906401,807.776394780318,-3.78073428369146,-809.666761922164,407.668931673851,401.997830248314
1.10618991033812,810.763937074853,813.029009968673,2.26507289381937,-811.896473521763,404.249432090517,407.647041431246
1.10835043750675,812.531223451431,813.653150705595,1.12192725416423,-813.092187078513,405.704648098633,407.38753897988
1.11051096467538,809.564850618252,805.778113614402,-3.78673700385013,-807.671482116327,406.675793811051,400.995688305276
1.11267149184401,797.743999598648,793.771760863718,-3.97223873492987,-795.757880231183,400.858119166789,394.899761064394
1.11483201901264,795.287705912857,786.845010900053,-8.44269501280405,-791.066358406455,401.865200462831,389.201157943625
1.11699254618127,794.312026567421,786.084940592562,-8.22708597485939,-790.198483579991,401.26955627114,388.928927308851
1.1191530733499,791.762943508139,788.280630269342,-3.48231323879759,-790.021786888741,397.622628373469,392.399158515272
1.12131360051853,793.309104028814,795.485610410837,2.17650638202235,-794.397357219825,395.566298823396,398.831058396429
1.12347412768716,794.998837068122,804.071883521295,9.07304645317322,-799.535360294709,392.962895307475,406.572464987234
1.12563465485578,796.757102018398,808.142783973207,11.3856819548085,-802.449942995803,392.685710031795,409.764232964008
1.12779518202441,799.265299362656,801.302455077128,2.03715571447219,-800.283877219892,398.614071824092,401.6698053958
1.12995570919304,804.829039165149,796.530128103172,-8.29891106197692,-800.67958363416,406.563975113563,394.115608520598
1.13211623636167,803.131377559879,791.073162751857,-12.0582148080218,-797.102270155868,407.59479618395,389.507473971918
1.1342767635303,806.967617177865,786.084158760316,-20.8834584175494,-796.525887969091,413.925537797707,382.600350171383
1.13643729069893,810.868514406362,791.999055330938,-18.8694590754244,-801.43378486865,414.868986740893,386.564798127757
1.13859781786756,811.691869126356,803.059203648243,-8.63266547811281,-807.3755363873,410.162267302235,397.213269085065
1.14075834503619,812.58279869294,810.135130150115,-2.447668542825,-811.358964421528,407.515233617883,403.843730803645
1.14291887220482,812.675336113111,812.857420366262,0.182084253150947,-812.766378239687,406.24662592998,406.519752309707
1.14507939937345,812.704095248202,811.063389746443,-1.64070550175938,-811.883742497323,407.172400374981,404.711342122342
1.14723992654208,812.660301410901,805.661399381134,-6.99890202976724,-809.160850396017,409.829601720334,399.331248675683
1.14940045371071,810.204223801952,796.979421081067,-13.2248027208849,-803.59182244151,411.714513261419,391.877309180091
1.15156098087933,812.541214398067,793.336871861105,-19.2043425369617,-802.939043129586,415.872778467514,387.066264662072
1.15372150804796,809.370569856338,790.998580739277,-18.3719891170609,-800.184575297807,413.871279486699,386.313295811108
1.15588203521659,799.886366075713,795.50489030967,-4.38147576604365,-797.695628192691,402.133920920878,395.561707271813
1.15804256238522,795.1724517624,799.437651060901,4.26519929850122,-797.305051411651,395.453626231949,401.851425179701
1.16020308955385,794.387877989966,804.792025867347,10.4041478773814,-799.589951928656,391.991865056292,407.598086872364
1.16236361672248,798.303300617623,807.282474870246,8.97917425262244,-802.792887743934,394.6620631825,408.130824561434
1.16452414389111,800.593628063551,802.071269105228,1.4776410416772,-801.33244858439,399.557993510937,401.774455073453
1.16668467105974,802.921945091323,794.14788800446,-8.77405708686319,-798.534916547892,405.848001089093,392.686915458799
1.16884519822837,812.496670419846,789.48037895254,-23.016291467306,-800.988524686193,417.756480943576,383.232043742617
1.171005725397,811.039996526125,790.826391474249,-20.2136050518761,-800.933194000187,415.626800789,385.306393211186
1.17316625256563,812.775497721826,796.737750062421,-16.0377476594044,-804.756623892124,414.406622690615,390.350001201508
1.17532677973426,811.246725638317,803.071309863305,-8.17541577501197,-807.159017750811,409.711070706665,397.447947044147
1.17748730690288,811.157024112669,810.219923345296,-0.937100767372954,-810.688473728983,406.047062440021,404.641411288962
1.17964783407151,810.155643062132,813.783213958519,3.62757089638694,-811.969428510326,403.264036082873,408.705392427453
1.18180836124014,811.540942213168,809.565213795599,-1.97572841756971,-810.553078004383,406.758335315369,403.794742689014
1.18396888840877,811.481043415159,802.445619116845,-9.03542429831396,-806.963331266002,410.258233856737,396.705097409266
1.1861294155774,810.835223699951,796.796505374208,-14.0387183257428,-803.815864537079,412.436971012847,391.378893524232
1.18828994274603,811.9175298752,789.127236611075,-22.790293264125,-800.522383243138,417.353911569663,383.168471673475
1.19045046991466,812.96111059527,791.654180994909,-21.3069296003603,-802.30764579509,417.134020097815,385.173625697275
1.19261099708329,811.407438659806,797.963373223912,-13.4440654358939,-804.685405941859,412.42575204785,392.259653894009
1.19477152425192,810.385670816594,808.446770350387,-1.9389004662072,-809.41622058349,406.162285641401,403.25393494209
1.19693205142055,811.608153315208,812.251464903356,0.64331158814764,-811.929809109282,405.48242086353,406.447388245752
1.19909257858918,808.951116477469,811.405723420645,2.45460694317649,-810.178419949057,403.248254767146,406.930165181911
1.2012531057578,810.552470837607,807.515413206752,-3.03705763085441,-809.033942022179,406.79476423423,402.239177787949
1.20341363292643,810.870868842473,799.377181983397,-11.4936868590755,-805.124025412935,411.182277850774,393.941747562161
1.20557416009506,812.896916638756,790.718428822646,-22.17848781611,-801.807672730701,417.537702227433,384.269970503268
1.20773468726369,811.582652833565,789.095696202489,-22.4869566310766,-800.339174518027,417.034804732321,383.304369785706
1.20989521443232,806.736157961321,795.328181778584,-11.4079761827368,-801.032169869952,409.072067072029,391.960102797924
1.21205574160095,798.392045517059,801.890491547648,3.49844603058818,-800.141268532353,397.446799743236,402.694468789118
1.21421626876958,789.97634485949,802.663449391994,12.6871045325038,-796.319897125742,388.644620163493,407.675276962249
1.21637679593821,788.939283462737,799.60437958097,10.6650961182331,-794.271831521853,389.137093672252,405.134737849602
1.21853732310684,800.195174900146,797.413500513127,-2.78167438701917,-798.804337706636,401.488424643583,397.315913063054
1.22069785027547,810.142484292317,791.650369286711,-18.492115005606,-800.896426789514,414.317299648961,386.579127140552
1.2228583774441,811.374238821254,788.42059292656,-22.9536458946935,-799.897415873907,417.163942357974,382.733473515933
1.22501890461273,812.380932534986,789.782225967576,-22.5987065674099,-801.081579251281,417.489819551198,383.591759700083
1.22717943178135,813.058052141272,795.868633432611,-17.1894187086614,-804.463342786942,415.123735424967,389.339607361975
1.22933995894998,812.693011189003,801.635483818673,-11.0575273703301,-807.164247503838,411.875269279667,395.288978224172
1.23150048611861,812.293357727327,808.921850045851,-3.37150768147637,-810.607603886589,407.832432704402,402.775171182187
1.23366101328724,812.080146002577,810.061279687915,-2.0188663146622,-811.070712845246,407.04950615862,404.021206686626
1.23582154045587,812.161525255912,808.026947062024,-4.13457819388782,-810.094236158968,408.1480517249,401.946184434068
1.2379820676245,810.892336409471,799.873017801836,-11.0193186076352,-805.382677105653,410.955827508553,394.4268495971
1.24014259479313,811.266538452936,793.29841207136,-17.9681263815753,-802.282475262148,414.617332417256,387.665142844893
1.24230312196176,810.693277771727,788.871255467929,-21.8220223037979,-799.782266619828,416.257650037763,383.524616582066
1.24446364913039,812.230353466032,790.036292891961,-22.1940605740704,-801.133323178996,417.212207020051,383.921116158945
1.24662417629902,812.732673083682,798.982224978033,-13.7504481056488,-805.857449030858,413.241560594665,392.615888436192
1.24878470346765,810.779242582462,808.001212613389,-2.77802996907235,-809.390227597926,406.778636275767,402.611591322159
1.25094523063628,810.551208128339,811.719586688707,1.1683785603675,-811.135397408523,404.691414783986,406.443982624537
1.2531057578049,810.588697659523,808.241281528036,-2.34741613148753,-809.41498959378,406.468056895505,402.946932698274
1.25526628497353,811.6604239319,800.911541667681,-10.7488822642191,-806.28598279979,411.204653098059,395.081329701731
1.25742681214216,812.015240211528,795.835668588864,-16.1795716226641,-803.925454400196,414.097405917096,389.8280484831
1.25958733931079,812.243509970139,787.277193798444,-24.966316171695,-799.760351884291,418.604913070917,381.155438813374
1.26174786647942,812.216496439656,789.0872516306,-23.1292448090553,-800.651874035128,417.672870624355,382.979003410772
1.26390839364805,811.158879056129,797.167723009228,-13.9911560469002,-804.163301032679,412.575017551514,391.588283481164
1.26606892081668,811.607391914634,806.223012745441,-5.38437916919349,-808.915202330038,408.495885541914,400.419316788124
1.26822944798531,810.583583172283,807.687069789984,-2.8965133822993,-809.135326481133,406.740048277291,402.395278203842
1.27038997515394,810.60148897655,806.756071753741,-3.84541722280903,-808.678780365146,407.22345309968,401.455327265466
1.27255050232257,810.854663341767,802.721386958194,-8.13327638357293,-806.788025149981,409.49396986267,397.294055287311
1.2747110294912,811.194930390557,794.474824323631,-16.7201060669263,-802.834877357094,413.957518228742,388.877359128352
1.27687155665982,811.424785772017,787.392536851586,-24.0322489204311,-799.408661311802,417.728517346224,381.680143965578
1.27903208382845,812.205629965213,785.846288707736,-26.3593412574776,-799.025959336475,419.282485611345,379.743473725129
1.28119261099708,811.163611743199,795.360398179684,-15.8032135635148,-803.262004961441,413.483412653357,389.778592308085
1.28335313816571,812.415848536167,801.986632417747,-10.4292161184202,-807.201240476957,411.422532327294,395.778708149664
1.28551366533434,812.186440757305,808.311606124986,-3.87483463231888,-810.249023441146,408.030637694812,402.218385746334
1.28767419250297,811.403961261488,809.954306258696,-1.44965500279216,-810.679133760092,406.42680813214,404.252325627952
1.2898347196716,810.8577121206,806.107724760787,-4.74998735981262,-808.482718440694,407.803849740206,400.678868700487
1.29199524684023,811.197132350178,797.153866191061,-14.0432661591174,-804.175499270619,412.620199254648,391.555300015972
1.29415577400886,811.426476776732,791.593104185823,-19.8333725909096,-801.509790481277,415.629924683821,385.879865797456
1.29631630117749,811.407886925821,788.259957307825,-23.1479296179958,-799.833922116823,417.277908271908,382.556013844915
1.29847682834612,812.738429891263,793.574110253629,-19.1643196376343,-803.156270072446,415.951374764449,387.204895307997
1.30063735551475,811.598584918545,799.277111669693,-12.3214732488517,-805.437848294119,411.960029083698,393.477819210421
1.30279788268337,812.16779704987,808.033925818837,-4.13387123103314,-810.100861434354,408.150834140452,401.950027293902
1.304958409852,812.200430688573,809.089220913717,-3.11120977485632,-810.644825801145,407.655820231715,402.98900556943
1.30711893702063,811.679750052983,803.912979304011,-7.76677074897214,-807.796364678497,409.723260400977,398.073104277519
1.30927946418926,812.825975683995,799.097999322562,-13.7279763614332,-805.961987503279,413.276976022714,392.685011480564
1.31143999135789,811.454931593775,793.505914402473,-17.949017191302,-802.480422998124,414.701974392538,387.778448605585
1.31360051852652,812.993151117172,789.946378338004,-23.0467727791677,-801.469764727588,418.01996194817,383.449802779418
1.31576104569515,812.700688906006,790.198690519668,-22.5019983863383,-801.449689712837,417.601343646172,383.848346066665
1.31792157286378,811.546827199367,795.713365494717,-15.8334617046495,-803.630096347042,413.690144452008,389.939951895034
1.32008210003241,810.546588370797,806.88829280917,-3.65829556162726,-808.717440589984,407.102441966212,401.614998623771
1.32224262720104,809.035413976868,808.979732401529,-0.0556815753385536,-809.007573189198,404.545547776103,404.462025413095
1.32440315436967,810.939906095075,808.87860779637,-2.06129829870486,-809.909256945723,406.50060219689,403.408654748833
1.3265636815383,812.092706283305,805.846235578386,-6.24647070491903,-808.969470930845,409.169588494112,399.799882436733
1.32872420870692,813.065144445296,799.42469006345,-13.6404543818455,-806.244917254373,413.352799413571,392.892117840802
1.33088473587555,812.953475031228,789.272695495989,-23.6807795352391,-801.113085263609,418.317127283234,382.795957980375
1.33304526304418,812.62347313099,787.640338701306,-24.9831344296838,-800.131905916148,418.803303780337,381.328602135811
1.33520579021281,810.693502789738,793.761198755487,-16.9323040342505,-802.227350772612,413.812903411994,388.414447360618
1.33736631738144,811.346784558139,803.362792556763,-7.98399200137578,-807.354788557451,409.665388279757,397.689400277694
1.33952684455007,810.695076496106,808.038835412447,-2.65624108365898,-809.366955954277,406.675658789883,402.691297164394
1.3416873717187,811.028385494449,808.210203266476,-2.81818222797301,-809.619294380462,406.923283861211,402.696010519251
1.34384789888733,812.137504444642,807.756691444741,-4.38081299990142,-809.947097944692,408.259158722272,401.68793922242
1.34600842605596,809.857782974002,800.559456123415,-9.29832685058693,-805.208619548709,409.578054912294,395.630564636414
1.34816895322459,812.867908899467,790.245511182616,-22.6223977168509,-801.556710041041,417.745153308159,383.811556732882
1.35032948039322,812.535808825795,789.948150820229,-22.5876580055657,-801.241979823012,417.56173341568,383.680246407332
1.35249000756185,810.657738352912,793.474210883895,-17.1835274690168,-802.065974618403,413.920632910964,388.145341707439
1.35465053473047,810.592232256848,803.019030560158,-7.57320169668992,-806.805631408503,409.082716976769,397.722914431734
1.3568110618991,810.788121206314,808.618675391927,-2.16944581438736,-809.703398299121,406.478783510351,403.22461478877
1.35897158906773,811.911820428163,813.005892320783,1.0940718926197,-812.458856374473,405.408874267772,407.049982106701
1.36113211623636,811.371984849228,809.60346278476,-1.76852206446824,-810.487723816994,406.570253456848,403.917470360146
1.36329264340499,811.395622908883,802.500906781171,-8.89471612771206,-806.948264845027,410.145169518298,396.80309532673
1.36545317057362,811.179369876371,795.271759089934,-15.9076107864373,-803.225564483153,413.543490331404,389.682074151748
1.36761369774225,810.068737520834,789.969960486575,-20.0987770342598,-800.019349003705,415.083757277547,384.935591726157
1.36977422491088,811.43882690771,788.475091008585,-22.9637358991253,-799.956958958147,417.201281403418,382.75567755473
1.37193475207951,809.06752667821,794.716649648626,-14.3508770295841,-801.892088163418,411.709201853897,390.182886309521
1.37409527924814,810.886149565532,804.360415888871,-6.52573367666059,-807.623282727201,408.705941621096,398.917341106105
1.37625580641677,811.979920792242,808.973418163983,-3.00650262825911,-810.476669478112,407.493211710251,402.983457767862
1.37841633358539,811.366596025556,809.0014566308,-2.36513939475594,-810.184026328178,406.865867710156,403.318158618022
1.38057686075402,812.116297385781,802.837367515466,-9.27892987031521,-807.476832450623,410.697613628048,396.779218822575
1.38273738792265,811.880793273748,797.950791467943,-13.9300018058051,-804.915792370846,412.905397539777,392.010394831069
1.38489791509128,812.39926722747,790.066766695737,-22.3325005317328,-801.233016961604,417.365883879601,383.867133082002
1.38705844225991,809.872068335043,787.531665342343,-22.3404029927004,-798.701866838693,416.106235663872,382.595631174821
1.38921896942854,812.327798648743,795.201461887058,-17.1263367616855,-803.764630267901,414.727067705214,389.037562562686
1.39137949659717,812.56311099866,804.851157133561,-7.71195386509874,-808.70713406611,410.137532431879,398.569601634231
1.3935400237658,811.221346977264,806.45573724032,-4.7656097369437,-808.838542108792,407.993478357104,400.845063751688
1.39570055093443,812.918240669753,808.318018509455,-4.60022216029847,-810.618129589604,408.759231415026,401.858898174578
1.39786107810306,812.032357705873,808.694639102374,-3.33771860349884,-810.363498404124,407.685038154686,402.678460249438
1.40002160527169,812.598692134353,801.442977491013,-11.1557146433395,-807.020834812683,411.877203388846,395.143631423837
1.40218213244032,811.584671249488,791.018636991064,-20.5660342584239,-801.301654120276,416.075352753956,385.22630136632
1.40434265960894,812.301374822931,789.831228465559,-22.4701463573717,-801.066301644245,417.385760590151,383.680541054094
1.40650318677757,812.406884463718,793.337805837197,-19.0690786265211,-802.872345150458,415.73798154512,387.134363605338
1.4086637139462,811.035889682432,799.775816075326,-11.2600736071057,-805.405852878879,411.147981644769,394.25787123411
1.41082424111483,811.230810129068,806.285772587219,-4.9450375418495,-808.758291358143,408.087923835459,400.670367522685
1.41298476828346,812.873030330387,811.549870294738,-1.32316003564893,-812.211450312562,407.098095183018,405.113355129544
1.41514529545209,812.754851157533,807.343580292903,-5.41127086463052,-810.049215725218,409.083061011082,400.966154714136
1.41730582262072,810.954817965371,800.145205897282,-10.8096120680887,-805.550011931326,410.88221501673,394.667796914597
1.41946634978935,811.579425629857,792.005817481193,-19.5736081486639,-801.792621555525,415.576516889261,386.216104666265
1.42162687695798,810.759838034343,789.030692978208,-21.7291450561355,-799.895265506276,416.244491545239,383.650773961036
1.42378740412661,810.888754998521,792.340609580727,-18.5481454177932,-801.614682289624,414.718450208157,386.896232081467
1.42594793129524,811.086420922545,797.099963982673,-13.9864569398723,-804.093192452609,412.536438931209,391.5567535214
1.42810845846387,812.022156517302,802.883092307427,-9.13906420987541,-807.452624412365,410.580610363589,396.872014048776
1.43026898563249,812.022158743288,811.515752864755,-0.506405878532973,-811.768955804022,406.264282310911,405.504673493111
1.43242951280112,811.887407778245,809.902493759039,-1.98491401920671,-810.894950768642,406.936160898726,403.958789869916
1.43459003996975,810.913972032189,805.199491047498,-5.71448098469057,-808.056731539843,408.31422650844,399.742505031404
1.43675056713838,811.597576061335,797.013547459242,-14.5840286020928,-804.305561760288,413.090802331714,391.214759428575
1.43891109430701,812.412356286559,790.684920668653,-21.7274356179051,-801.548638477606,417.069895952232,384.478742525374
1.44107162147564,810.955106493129,789.819743107727,-21.1353633854019,-800.387424800428,416.045234939266,384.342189861163
1.44323214864427,811.907023011548,793.665643450404,-18.2413795611442,-802.786333230976,415.074201286346,387.71213194463
1.4453926758129,811.993734934307,802.645569641799,-9.34816529250816,-807.319652288053,410.670950113408,396.648702174645
1.44755320298153,812.754172583162,809.031655976,-3.72251660716131,-810.892914279581,408.238344595161,402.65456968442
1.44971373015016,811.832444916085,806.806108978524,-5.02633593756093,-809.319276947305,408.429390426823,400.889886520482
1.45187425731879,811.695112769646,802.243181811775,-9.45193095787045,-806.969147290711,410.573521863758,396.395625426953
1.45403478448741,810.838372549203,796.468207913965,-14.3701646352382,-803.653290231584,412.60426859222,391.049021639363
1.45619531165604,810.884273608774,790.036927491889,-20.8473461168855,-800.460600550332,415.86580986283,384.594790687502
1.45835583882467,811.002824706038,786.605452983001,-24.3973717230368,-798.80413884452,417.700098214538,381.104040629982
1.4605163659933,811.116130606374,793.458993575075,-17.6571370312987,-802.287562090724,414.386633818836,387.900928271888
1.46267689316193,811.949445773453,799.989634794369,-11.9598109790842,-805.969540283911,411.954628376269,394.014911907642
1.46483742033056,811.895761666534,804.074703881465,-7.82105778506832,-807.985232774,409.858409725801,398.126823048199
1.46699794749919,812.584055299738,809.986396804736,-2.59765849500184,-811.285226052237,407.59085689737,403.694369154867
1.46915847466782,812.495081079168,809.589619647367,-2.90546143180131,-811.042350363267,407.700271255485,403.342079107783
1.47131900183645,812.476837824338,800.722080198138,-11.7547576261995,-806.599459011238,412.115797725269,394.483661285969
1.47347952900508,810.947420884908,792.636752700907,-18.3106681840017,-801.792086792907,414.629044534455,387.163042258452
1.47564005617371,812.630097853304,788.233921882278,-24.3961759710257,-800.432009867791,418.513136912165,381.918872955626
1.47780058334234,811.107483298001,793.301597453854,-17.8058858441468,-802.204540375927,414.456684571074,387.747855804854
1.47996111051096,811.106330147987,801.303050354907,-9.80327979307947,-806.204690251447,410.454804970533,395.749885280914
1.48212163767959,812.63206615192,810.172382931004,-2.4596832209163,-811.402224541462,407.545874686418,403.856349855044
1.48428216484822,810.962252282441,813.848724330296,2.88647204785502,-812.405488306368,404.037890117293,408.367598189075
1.48644269201685,812.505149686461,813.666622962441,1.1614732759798,-813.085886324451,405.671838205241,407.41404811921
1.48860321918548,812.521332236705,812.917479996881,0.39614776017595,-812.719406116793,406.062592238265,406.656813878529
1.49076374635411,812.584760798236,808.038253049904,-4.54650774833215,-810.31150692407,408.565634273284,401.745872650786
1.49292427352274,811.858853819674,802.692992008388,-9.16586181128548,-807.275922914031,410.51235781548,396.763565098551
1.49508480069137,811.889591252511,800.36754500354,-11.5220462489702,-806.128568128026,411.70581875074,394.422749377285
1.49724532786,812.658945518105,803.409213982078,-9.24973153602673,-808.034079750091,410.954338527066,397.079741223026
1.49940585502863,811.007528595308,806.69230169406,-4.31522690124746,-808.849915144684,407.661377748278,401.188537396407
1.50156638219726,810.949495741191,808.935258120682,-2.01423762050911,-809.942376930936,406.48186668085,403.460510250086
1.50372690936589,811.726550306714,804.22680826079,-7.49974204592343,-807.976679283752,409.613146176319,398.363533107433
1.50588743653451,811.756848142773,797.304924912737,-14.4519232300361,-804.530886527755,413.104385686404,391.42650084135
1.50804796370314,811.018816281947,787.680691340773,-23.338124941174,-799.34975381136,417.178470611561,382.1712831998
1.51020849087177,812.654115052706,781.388249560964,-31.2658654917421,-797.021182306835,421.959990272224,375.061192034611
1.5123690180404,812.662502855081,777.230893601069,-35.4316092540122,-794.946698228075,424.047056054547,370.899642173528
1.51452954520903,811.042727481792,784.046492981685,-26.9962345001073,-797.544610231738,419.01948099095,378.525129240789
1.51669007237766,810.996784866362,794.436954985049,-16.5598298813132,-802.716869925706,413.778307373838,388.938562551868
1.51885059954629,812.55261248253,802.38119777488,-10.1714147076497,-807.466905128705,411.36201359509,396.104891533615
1.52101112671492,810.959441372895,805.076027637746,-5.88341373514902,-808.017734505321,408.421427554022,399.596306951299
1.52317165388355,811.77641409107,804.743163665317,-7.03325042575239,-808.259788878194,409.404832258411,398.854956619783
1.52533218105218,810.222467943048,799.176460802011,-11.0460071410371,-804.699464372529,410.634237542043,394.065226830487
1.52749270822081,811.044173805236,789.595330469182,-21.4488433360544,-800.319752137209,416.246508570645,384.073243566564
1.52965323538943,812.637891624172,786.775930518354,-25.8619611058174,-799.706911071263,419.249926364995,380.456984706268
1.53181376255806,811.824597808631,790.948239190855,-20.8763586177757,-801.386418499743,416.350478213203,385.03594028654
1.53397428972669,812.589913913943,795.649080602533,-16.9408333114095,-804.119497258238,414.765373612676,389.354123645562
1.53613481689532,812.568936820531,798.908667360348,-13.6602694601829,-805.738802090439,413.114603140357,392.624198950082
1.53829534406395,810.979265262141,808.208211144595,-2.77105411754576,-809.593738203368,406.875159689843,402.718578513525
1.54045587123258,811.791734960114,808.146840421283,-3.64489453883084,-809.969287690698,407.718314749472,402.250972941226
1.54261639840121,810.226930799532,801.129747108378,-9.09718369115365,-805.678338953955,409.662057245343,396.016281708612
1.54477692556984,812.622684555512,792.275454999383,-20.3472295561282,-802.449069777448,416.48495705582,385.964112721628
1.54693745273847,811.821037220398,788.429316824171,-23.3917203962277,-800.125177022285,417.606378808313,382.518798213971
1.5490979799071,809.419431443685,789.953403819045,-19.4660276246401,-799.686417631365,414.442729534163,385.243688097202
1.55125850707573,811.789379574862,791.330117259222,-20.4592623156404,-801.559748417042,416.124320945251,385.435427471791
1.55341903424436,810.994855301688,800.993915181029,-10.0009401206589,-805.994385241358,410.497897711173,395.496487530185
1.55557956141298,811.0045943927,808.913056975322,-2.09153741737771,-809.958825684011,406.548065905039,403.410759778972
1.55774008858161,811.015515786984,810.689713681445,-0.325802105538287,-810.852614734215,405.670658946261,405.181955787954
1.55990061575024,811.812649256875,804.624916942886,-7.18773231398848,-808.21878309988,409.500190785432,398.718592314449
1.56206114291887,811.011499418359,798.137294643218,-12.8742047751407,-804.574397030788,411.94285209675,392.631544934039
1.5642216700875,811.003010812251,790.935639047305,-20.0673717649462,-800.969324929778,415.535191288599,385.434133641179
1.56638219725613,811.001924356911,785.869406738426,-25.1325176184855,-798.435665547669,418.067220987698,380.36844455997
1.56854272442476,812.597533249178,790.259684321261,-22.3378489279163,-801.42860878522,417.467691088547,383.960917696673
1.57070325159339,812.604850771392,799.113630109538,-13.4912206618535,-805.859240440465,413.048035716623,392.811204723842
1.57286377876202,812.605438256935,805.57547114445,-7.02996711248545,-809.090454700693,409.81770268471,399.272752015982
1.57502430593065,811.80503771453,805.974353960031,-5.83068375449955,-808.88969583728,408.817860734515,400.071835102766
1.57718483309928,811.004454595557,808.033946900645,-2.97050769491193,-809.519200748101,406.987481145234,402.531719602866
1.57934536026791,811.79802355059,799.217471921071,-12.5805516295186,-805.50774773583,412.189287590054,393.318460145776
1.58150588743653,811.008093253375,791.125233317053,-19.8828599363214,-801.066663285214,415.445476594848,385.621186690366
1.58366641460516,811.013389394513,789.044240174696,-21.9691492198164,-800.028814784604,416.491269307164,383.53754547744
1.58582694177379,812.602204520274,792.448989833813,-20.1532146864602,-802.525597177043,416.377709603367,386.147887573677
1.58798746894242,811.800613281084,799.623380588353,-12.177232692731,-805.711996934718,411.988922986907,393.723073947811
1.59014799611105,810.998837072559,806.146899790816,-4.85193728174352,-808.572868431687,407.925387177151,400.647481254536
1.59230852327968,811.79468363015,807.525423474927,-4.26926015522281,-809.660053552539,408.031971892686,401.628081659852
1.59446905044831,811.01191322239,809.002501921395,-2.00941130099523,-810.007207571893,406.510662261693,403.4965453102
1.59662957761694,812.613642603719,802.691359410844,-9.9222831928746,-807.652501007282,411.267962898297,396.384538108985
1.59879010478557,811.821848894427,792.176704935378,-19.6451439590494,-801.999276914902,415.733496426738,386.265780488164
1.6009506319542,812.603489094029,785.147612985059,-27.4558761089701,-798.875551039544,420.029682601499,378.845868438044
1.60311115912283,810.994991905784,787.533272229484,-23.4617196763007,-799.264132067634,417.228355791043,382.035776276591
1.60527168629146,810.983765964272,794.560283532558,-16.423482431714,-802.772024748415,413.703624197993,389.068400550422
1.60743221346008,812.578966269682,801.092292405166,-11.4866738645158,-806.835629337424,412.032820067099,394.802809270325
1.60959274062871,812.598289525557,809.779348414395,-2.81894111116196,-811.188818969976,407.70861531836,403.480203651617
1.61175326779734,811.030088232704,811.482280916064,0.452192683359726,-811.256184574384,405.288947774672,405.967236799712
1.61391379496597,809.452603761217,805.350654057763,-4.10194970345435,-807.40162890949,406.777276732336,400.624352177154
1.6160743221346,811.035073365416,797.262526794416,-13.7725465710005,-804.148800079916,412.403809968208,391.744990111708
1.61823484930323,811.803453690418,793.286986599304,-18.5164670911138,-802.545220144861,415.159960390766,387.385259754095
1.62039537647186,809.387882860769,791.464239921788,-17.9236429389814,-800.426061391278,413.655762899875,386.770298491403
1.62255590364049,810.960758730719,790.327414502573,-20.6333442281459,-800.644086616646,415.797051479432,384.847035137213
1.62471643080912,812.562843793188,799.959605350019,-12.6032384431693,-806.261224571603,412.583041118179,393.678183453425
1.62687695797775,811.011217276119,805.578687437096,-5.43252983902335,-808.294952356607,408.221873557571,400.073078799036
1.62903748514638,812.640959177333,807.519091967636,-5.12186720969692,-810.080025572485,408.881413193515,401.19861237897
1.631198012315,812.659588933244,805.593666689497,-7.06592224374651,-809.126627811371,409.862755588495,399.263872222875
1.63335853948363,812.640314358835,799.983764781979,-12.6565495768564,-806.312039570407,412.648431967846,393.663607602561
1.63551906665226,811.797968393099,792.732259570503,-19.065708822596,-802.265113981801,415.431838607847,386.833275373953
1.63767959382089,810.956360720501,788.296384053417,-22.6599766670839,-799.626372386959,416.808168693793,382.818203693167
1.63984012098952,811.734496429732,789.313158118551,-22.4213383111809,-800.523827274141,417.077917370456,383.445909903685
1.64200064815815,809.378641774545,798.839389781433,-10.5392519931117,-804.109015777989,409.958946883828,394.150068894161
1.64416117532678,811.023300535018,805.32436780528,-5.69893272973866,-808.173834170149,408.361116632379,399.812717537771
1.64632170249541,812.659663634445,811.444088177512,-1.21557545693292,-812.051875905978,406.937619545689,405.114256360289
1.64848222966404,811.87130649866,809.748777532225,-2.12252896643542,-810.810042015443,406.996917732548,403.813124282895
1.65064275683267,811.038554265235,803.477115585225,-7.56143868001084,-807.25783492523,409.299996472623,397.957838452607
1.6528032840013,811.776866233318,795.39966307506,-16.3772031582575,-803.588264654189,414.077034695788,389.511229958401
1.65496381116993,810.9453642402,790.782556270719,-20.1628079694809,-800.86396025546,415.554086104841,385.309874150619
1.65712433833855,809.363238569906,790.763656767321,-18.5995818025852,-800.063447668613,413.981410186246,386.082037482368
1.65928486550718,811.79120436888,795.349531874471,-16.4416724944092,-803.570368121675,414.116438431644,389.453929690031
1.66144539267581,811.840748966193,800.239424826629,-11.6013241395634,-806.040086896411,411.721036552878,394.319050343533
1.66360591984444,811.066557315473,807.32579536275,-3.74076195272301,-809.196176339112,407.403659634098,401.792516705014
1.66576644701307,810.253446057839,810.652744363061,0.39929830522226,-810.45309521045,404.927073876308,405.526021334142
1.6679269741817,809.418538674843,805.369537060726,-4.04900161411638,-807.394037867784,406.733770144479,400.660267723305
1.67008750135033,811.766555462149,796.521614295736,-15.2449411664124,-804.144084878943,413.505748314281,390.638336564662
1.67224802851896,810.962247765568,790.159829739498,-20.8024180260705,-800.561038752533,415.882332895819,384.678705856714
1.67440855568759,812.569103540781,789.892752843275,-22.6763506975053,-801.230928192028,417.622727119143,383.608201072885
1.67656908285622,811.807956511701,792.684831913529,-19.1231245981713,-802.246394212615,415.465540554936,386.780853657679
1.67872961002485,812.63010700604,799.111823602583,-13.5182834034576,-805.870965304312,413.074195204749,392.796770099563
1.68089013719348,812.636988220373,807.121236462131,-5.51575175824189,-809.879112341252,409.076369989307,400.802742351945
1.6830506643621,811.033063016185,813.864107008716,2.83104399253125,-812.448585012451,404.101009511827,408.347575500624
1.68521119153073,811.802093326843,808.801310396977,-3.00078292986541,-810.30170186191,407.401438128354,402.900263733556
1.68737171869936,810.98691123846,801.626895113818,-9.36001612464202,-806.306903176139,410.173463681551,396.133439494588
1.68953224586799,812.567829300328,794.373753668211,-18.1940756321169,-803.470791484269,415.380952466222,388.089839018047
1.69169277303662,812.573317586229,789.90798260763,-22.6653349785988,-801.240650096929,417.619326282414,383.621323814516
1.69385330020525,811.793924470371,789.289979736294,-22.5039447340768,-800.541952103333,417.148934602224,383.393017501109
1.69601382737388,811.019720600846,797.19081364759,-13.8289069532558,-804.105267124218,412.424313777051,391.680953347167
1.69817435454251,811.83166924619,804.465807392918,-7.36586185327235,-808.148738319554,409.598765549731,398.549972769823
1.70033488171114,811.836539869306,806.648406599935,-5.18813326937072,-809.242473234621,408.512336569338,400.730136665282
1.70249540887977,811.823394366253,808.186770353694,-3.63662401255965,-810.005082359974,407.730009189407,402.275073170567
1.7046559360484,812.591075574864,805.925591674357,-6.66548390050764,-809.258333624611,409.628279737686,399.630053886925
1.70681646321702,811.770386886836,797.838116794785,-13.9322700920517,-804.804251840811,412.851328489444,391.952923351367
1.70897699038565,812.555238384731,788.407176002749,-24.1480623819812,-800.48120719374,418.351650383356,382.129556810384
1.71113751755428,812.570473461453,790.726144827983,-21.8443286334698,-801.648309144718,417.207401047461,384.440908097257
1.71329804472291,811.809933219981,795.29994977477,-16.5099834452102,-803.554941497375,414.159958332595,389.39498316478
1.71545857189154,811.844386432552,802.595093281372,-9.24929315118004,-807.219739856962,410.546839791866,396.672900065096
1.71761909906017,812.651586002974,808.128386373464,-4.52319962951071,-810.389986188219,408.587392816242,401.802593371976
1.7197796262288,812.630781051136,809.89177682943,-2.73900422170561,-811.261278940283,407.684892636421,403.576386303862
1.72194015339743,811.792130080062,806.991732122579,-4.80039795748257,-809.391931101321,408.296264018772,401.095667082548
1.72410068056606,812.545919244048,796.531162914808,-16.0147563292401,-804.538541079428,414.280337786644,390.258203292784
1.72626120773469,811.741345136462,789.34651581351,-22.3948293229513,-800.543930474986,417.068087229706,383.47584324528
1.72842173490332,812.564465200967,790.65688026947,-21.9075849314974,-801.610672735218,417.236025066232,384.374647668986
1.73058226207195,812.615811839458,795.048528875765,-17.5672829636931,-803.832170357611,415.091547401575,388.740622956036
1.73274278924057,811.070234521136,799.909793641152,-11.1604408799844,-805.490014081144,411.11533770056,394.374676380584
1.7349033164092,811.872846452319,809.527202872879,-2.34564357944032,-810.700024662599,407.10924501588,403.590779646719
1.73706384357783,812.632005335467,812.302707408595,-0.329297926871163,-812.467356372031,406.480651631169,405.986704740862
1.73922437074646,810.983483390236,806.435486227164,-4.5479971630723,-808.7094848087,407.765740276654,400.943744532046
1.74138489791509,810.93721140485,798.449395948609,-12.4878154562404,-804.69330367673,411.712513430545,392.980790246184
1.74354542508372,812.52298653134,793.560293739359,-18.9626927919804,-803.04164013535,415.74283966166,387.298800473689
1.74570595225235,811.771177534707,787.492050762893,-24.2791267718137,-799.6316141488,418.02515215326,381.60646199554
1.74786647942098,811.834832602706,787.66951189655,-24.1653207061566,-799.752172249628,418.000076654431,381.752095595196
1.75002700658961,811.088120190177,795.590771986403,-15.4973482037742,-803.33944608829,413.292734196976,390.046711891314
1.75218753375824,812.678106293536,806.072914034742,-6.60519225879375,-809.375510164139,409.641649276165,399.733860887974
1.75434806092687,811.834813473903,809.069473726466,-2.76533974743688,-810.452143600185,407.30007661067,403.152066989515
1.7565085880955,810.97033272717,806.634889322451,-4.33544340471929,-808.802611024811,407.652888065945,401.149722958866
1.75866911526412,810.923330355374,802.768916349223,-8.15441400615157,-806.846123352298,409.538872180763,397.307251171536
1.76082964243275,810.928931351562,796.247660328446,-14.6812710231164,-803.588295840004,412.805101187339,390.783194652665
1.76299016960138,812.571343713114,788.380152362993,-24.1911913501202,-800.475748038054,418.381267531617,382.094480506437
1.76515069677001,811.844978303931,788.29677789335,-23.5482004105804,-800.07087809864,417.696589357256,382.374288741385
1.76731122393864,811.093384762504,795.254043331704,-15.8393414307995,-803.173714047104,413.466363096652,389.707350950452
1.76947175110727,811.881749496702,800.986932037848,-10.8948174588539,-806.434340767275,411.388283477778,395.046057289497
1.7716322782759,812.624189561066,804.183123275493,-8.44106628557222,-808.40365641828,410.532627923319,397.871028494961
1.77379280544453,812.555615979228,808.371767184512,-4.18384879471603,-810.46369158187,408.369732386972,402.093959194898
1.77595333261316,811.717213952459,804.683714339641,-7.03349961281788,-808.20046414605,409.375356782639,398.825107363412
1.77811385978179,811.725446930678,794.973919634754,-16.7515272959242,-803.349683282716,414.238487113301,389.111196169415
1.78027438695042,810.987550870325,786.922070327207,-24.0654805431179,-798.954810598766,417.526515706721,381.428294892044
1.78243491411904,810.26434288609,788.175979214189,-22.0883636719004,-799.22016105014,416.176353278995,383.043807771144
1.78459544128767,811.894471334921,794.156684535639,-17.7377867992818,-803.02557793528,414.816129067101,388.209448868179
1.7867559684563,811.877946818896,798.287211886852,-13.5907349320436,-805.082579352874,412.73434087547,392.348238477404
1.78891649562493,812.60656973504,806.410189966305,-6.19637976873571,-809.508379850673,409.401474751888,400.106905098785
1.79107702279356,809.358068241792,810.048010998154,0.689942756361575,-809.703039619973,404.334062742715,405.368976877258
1.79323754996219,812.506210594159,805.760742223606,-6.74546837055289,-809.133476408883,409.625839482356,399.507636926527
1.79539807713082,812.534805722212,799.271121147081,-13.2636845751314,-805.902963434646,412.899245148672,393.003718285975
1.79755860429945,811.012577543859,789.494970574575,-21.5176069692845,-800.253774059217,416.265092256572,383.988681802645
1.79971913146808,812.664745555834,787.330980388587,-25.3337651672476,-799.99786297221,418.999255361541,380.99860761067
1.80187965863671,811.097395313014,789.923875265569,-21.1735200474453,-800.510635289291,416.13545768023,384.375177609062
1.80404018580534,812.652696095346,797.165602725906,-15.48709336944,-804.909149410626,414.069894732393,390.839254678233
1.80620071297397,811.791450396744,806.984919387751,-4.80653100899372,-809.388184892248,408.298990702869,401.089194189378
1.80836124014259,812.526932355225,811.637622115216,-0.889310240009195,-812.08227723522,406.708121297617,405.374155937603
1.81052176731122,812.512241890313,809.158059165443,-3.35418272487027,-810.835150527878,407.933212307592,402.901938220286
1.81268229447985,810.962346545504,803.567510875449,-7.39483567005482,-807.264928710476,409.178591107779,398.086337602697
1.81484282164848,811.031725854153,797.69582044023,-13.3359054139224,-804.363773147192,412.183815634038,392.179957513154
1.81700334881711,812.675608040199,788.177059889611,-24.4985481505882,-800.426333964905,418.587078095394,381.839255869511
1.81916387598574,812.679010135869,787.362889431616,-25.3161207042524,-800.020949783742,418.99756542006,381.023384363682
1.82132440315437,811.040813674674,793.68135421135,-17.3594594633236,-802.361083943012,414.200136568999,388.160947374013
1.823484930323,810.973753807897,801.947580245297,-9.02617356259975,-806.460667026597,409.999963685248,396.460703341349
1.82564545749163,812.520823115094,806.777343247196,-5.74347986789883,-809.649083181145,409.132151491497,400.516931689648
1.82780598466026,812.527560223875,809.284556035225,-3.24300418864993,-810.90605812955,407.885282206263,403.020775923288
1.82996651182889,810.98817189247,806.220839033017,-4.76733285945306,-808.604505462743,407.877752375961,400.726753086782
1.83212703899752,811.844086589064,796.374163224012,-15.4699233650528,-804.109124906538,413.657004977059,390.452119929479
1.83428756616614,811.879162994999,787.513181748396,-24.3659812466032,-799.696172371697,418.122572120801,381.573600250896
1.83644809333477,811.072033614771,785.709687747446,-25.3623458673248,-798.390860681108,418.217189741048,380.173670940061
1.8386086205034,811.021449366873,791.86988259611,-19.1515667707628,-801.445665981491,415.086508068818,386.359157912674
1.84076914767203,812.553153142905,800.88301310118,-11.6701400417246,-806.718083122042,412.111646592315,394.606436529728
1.84292967484066,812.522881007857,805.004406522417,-7.51847448544049,-808.763643765137,410.020677746649,398.742966018488
1.84509020200929,812.537190696763,809.281462727211,-3.25572796955203,-810.909326711987,407.896459333158,403.01286737883
1.84725072917792,811.000584832177,807.995952182254,-3.004632649923,-809.498268507215,407.00260874105,402.495659766165
1.84941125634655,811.060903979517,800.632054787544,-10.4288491919725,-805.846479383531,410.744876585745,395.101602797786
1.85157178351518,811.092130870667,791.72245945817,-19.3696714124972,-801.407295164418,415.230901141582,386.176394022836
1.85373231068381,812.659962810834,789.738936304526,-22.9210265063084,-801.19944955768,417.790494658571,383.408954899109
1.85589283785244,812.595994602973,790.914194759431,-21.6817998435414,-801.755094681202,417.138897223257,384.616197457945
1.85805336502107,811.734625244427,796.615592541136,-15.1190327032915,-804.175108892782,413.426828973859,390.748279918922
1.86021389218969,810.916636857092,803.148822847275,-7.76781400981668,-807.032729852184,409.342225433454,397.690504418729
1.86237441935832,811.749124364207,809.190026284754,-2.55909807945272,-810.46957532448,407.15411122183,403.315464102651
1.86453494652695,811.030924988901,807.336018606774,-3.69490638212767,-809.183471797837,407.362915685515,401.820556112323
1.86669547369558,812.683056663638,801.715425181128,-10.9676314825103,-807.199240922383,411.825344073074,395.373896849309
1.86885600086421,812.689696268184,793.597361121896,-19.0923351462886,-803.14352869504,415.891015707236,387.252512987804
1.87101652803284,812.633728982224,789.069281108843,-23.5644478733807,-800.851505045533,418.099088427802,382.752416617731
1.87317705520147,812.552866282207,789.218216965659,-23.3346493165478,-800.885541623933,417.943757799377,382.941783824556
1.8753375823701,812.501930725947,794.744303299434,-17.757627426513,-803.623117012691,415.12977907623,388.493337936461
1.87749810953873,811.721922591435,806.018439529654,-5.70348306178096,-808.870181060544,408.712702826608,400.157478233936
1.87965863670736,812.586839899996,809.816485968751,-2.77035393124504,-811.201662934374,407.678596915621,403.523066018753
1.88181916387599,811.8712646529,808.20064746793,-3.67061718496973,-810.035956060415,407.770940918935,402.26501514148
1.88397969104461,811.904607564444,805.175779197727,-6.72882836671761,-808.540193381086,409.316717965581,399.223475415505
1.88614021821324,811.075508469392,798.710182346777,-12.3653261226152,-804.892845408084,411.720417296004,393.172428112081
1.88830074538187,810.995724577606,790.079923362622,-20.9158012149837,-800.537823970114,415.955762896295,384.582061073819
1.8904612725505,810.924012651708,787.588881692582,-23.3351309591262,-799.256447172145,417.129571805417,382.126875366728
1.89262179971913,811.701978916355,795.254336189567,-16.4476427267872,-803.478157552961,414.074810821571,389.40334673139
1.89478232688776,811.751717029407,804.050531092626,-7.70118593678069,-807.901124061016,409.726451483094,398.174672577923
1.89694285405639,812.629493172301,806.376948428978,-6.25254474332337,-809.503220800639,409.441018957812,400.062201842827
1.89910338122502,811.89837899716,807.419546373533,-4.47883262362711,-809.658962685347,408.188605810394,401.470356874953
1.90126390839365,811.107438557812,810.232682858796,-0.874755699015736,-810.670060708304,405.991097128414,404.67896357989
1.90342443556228,811.049691574734,799.910673539711,-11.139018035023,-805.480182557222,411.094354804878,394.385827752344
1.90558496273091,811.760531640047,789.577060914766,-22.1834707252808,-800.668796277407,416.972001182664,383.696795094743
1.90774548989954,810.908306318632,787.598026080422,-23.3102802382097,-799.253166199527,417.109293278421,382.143872921106
1.90990601706816,810.913071251894,790.998141421773,-19.914929830121,-800.955606336834,415.414000541008,385.541605795826
1.91206654423679,811.772377934601,797.276593285721,-14.4957846488796,-804.524485610161,413.13408129174,391.390404318421
1.91422707140542,811.85629216179,803.6790764553,-8.1772157064903,-807.767684308545,410.01675393414,397.750930374405
1.91638759857405,811.112900304865,811.355295128301,0.242394823435461,-811.234097716583,405.435252740715,405.798844975868
1.91854812574268,810.306663300016,810.490390899763,0.183727599746362,-810.39852709989,405.061467850135,405.337059249755
1.92070865291131,811.827839112522,801.908794196241,-9.91904491628145,-806.868316654382,410.873442014402,395.99487463998
1.92286918007994,810.949965236144,795.474686888659,-15.4752783474844,-803.212326062402,413.212621791814,389.999704270587
1.92502970724857,810.901439505855,790.057780407194,-20.8436590986613,-800.479609956524,415.872549302258,384.607060654266
1.9271902344172,811.712663212428,789.977695410455,-21.7349678019723,-800.845179311441,416.7238155072,384.121363804241
1.92935076158583,812.57847424386,794.494589322509,-18.0838849213515,-803.536531783185,415.331179582606,388.205352200579
1.93151128875446,811.073169046477,802.537357445781,-8.53581160069643,-806.805263246129,409.804490323587,397.000772922542
1.93367181592309,812.707961365841,809.662212527224,-3.0457488386171,-811.185086946532,407.876855102229,403.308231844303
1.93583234309171,812.687878382373,809.095815910537,-3.59206247183613,-810.891847146455,408.139970427104,402.75187671935
1.93799287026034,811.024684080257,804.67367949812,-6.35100458213742,-807.849181789188,408.687844331197,399.161337457991
1.94015339742897,812.530014778315,799.003776199393,-13.5262385789218,-805.766895488854,413.028126678618,392.738768810236
1.9423139245976,812.486565023474,791.768637712318,-20.7179273111562,-802.127601367896,416.602246167315,385.525355200581
1.94447445176623,812.508252777938,789.011859980844,-23.4963927970946,-800.760056379391,418.002322787517,382.757733591875
1.94663497893486,812.583274152842,793.339461761206,-19.2438123916355,-802.961367957024,415.913543272239,387.047824684785
1.94879550610349,811.080396664502,802.193945675919,-8.88645098858285,-806.63717117021,409.983423826542,396.653747343668
1.95095603327212,812.715224536139,807.144613203022,-5.57061133311629,-809.929918869581,409.142917934628,400.787000934953
1.95311656044075,812.691188437223,810.829580411692,-1.86160802553138,-811.760384424458,407.276398231377,404.48398619308
1.95527708760938,811.814425436356,808.979895229993,-2.83453020636284,-810.397160333175,407.32447782136,403.072682511815
1.95743761477801,812.517236543269,801.715900363953,-10.8013361793163,-807.116568453611,411.659286361293,395.457282092318
1.95959814194663,812.472057038541,789.530143578225,-22.9419134603168,-801.001100308383,417.706985249429,383.294115058954
1.96175866911526,810.914461739184,786.52362054024,-24.3908411989439,-798.719041139712,417.652651469064,381.066389670648
1.96391919628389,811.006894709609,791.465150959409,-19.5417437501991,-801.236022834509,415.274319229904,385.961703604605
1.96607972345252,812.692801981431,797.118714527095,-15.5740874543358,-804.905758254263,414.133444717883,390.772313536379
1.96824025062115,811.937395002626,804.589848534761,-7.34754646786484,-808.263621768694,409.642470735245,398.621151033448
1.97040077778978,811.09825870193,809.28848577676,-1.80977292516968,-810.193372239345,406.45401581355,403.739356425795
1.97256130495841,810.997647663275,809.212584804219,-1.78506285905553,-810.105116233747,406.391355261165,403.713760972582
1.97472183212704,811.696980351872,802.802478486374,-8.89450186549823,-807.249729419123,410.295741108685,396.953988310438
1.97688235929567,812.459355899308,792.907693526196,-19.5516623731113,-802.683524712752,416.005509136209,386.678015576542
1.9790428864643,812.510656883168,788.118800629628,-24.39185625354,-800.314728756398,418.451256568354,381.863472188044
1.98120341363293,811.028707373134,790.484712240567,-20.5439951325669,-800.756709806851,415.786351252851,384.970358554
1.98336394080156,811.923049769418,796.047417057401,-15.8756327120162,-803.985233413409,413.899341240717,390.085892172693
1.98552446797018,811.953540977097,801.985711087512,-9.96782988958523,-806.969626032304,410.960685433341,396.008940598963
1.98768499513881,811.891370512039,807.650320184305,-4.24105032773434,-809.770845348172,408.066210419887,401.704634928285
1.98984552230744,812.564909660633,807.771569441032,-4.79334021960096,-810.168239550833,408.679124940117,401.489114610716
1.99200604947607,810.870291761327,803.862480691726,-7.00781106960153,-807.366386226526,408.939051415464,398.427334811062
1.9941665766447,811.642210995652,797.11750711311,-14.5247038825423,-804.379859054381,413.083457439097,391.296401615284
1.99632710381333,811.720930696863,789.784934672803,-21.9359960240604,-800.752932684833,416.828463360462,383.924469324371
1.99848763098196,811.060632661724,787.184120481333,-23.8765121803909,-799.122376571528,417.468572421057,381.653804150471
2.00064815815059,812.755926029575,791.828257938942,-20.9276680906338,-802.292091984258,416.841797060105,385.450294924154
2.00280868531922,812.765129604274,803.341037120328,-9.42409248394665,-808.053083362301,411.094611044111,396.958472318191
2.00496921248785,812.667326399344,809.137400118857,-3.52992628048639,-810.9023632591,408.098626339915,402.803736919185
2.00712973965648,810.934568938272,807.846937096997,-3.08763184127474,-809.390753017634,407.011100389773,402.379652627861
2.00929026682511,809.24883922692,807.250815423424,-1.99802380349661,-808.249827325172,405.623431515208,402.626395809964
2.01145079399373,810.056310614745,799.739128886212,-10.3171817285324,-804.897719750478,410.186746171639,394.71097357884
2.01361132116236,810.963596394745,789.931571163012,-21.0320252317327,-800.447583778879,415.997810813239,384.44977296564
2.01577184833099,811.10218518211,785.57859476798,-25.5235904141298,-798.340389975045,418.31288779812,380.027502176925
2.01793237549962,811.972809108091,791.654311830532,-20.3184972775589,-801.813560469312,416.145653192825,385.667907276487
2.02009290266825,811.14655650036,799.120305527477,-12.0262509728826,-805.133431013919,411.586403736621,393.547027277297
2.02225342983688,811.82438727917,804.173389960852,-7.6509973183189,-807.998888620011,409.737692298745,398.261196321266
2.02441395700551,810.904629631773,810.18813781668,-0.716491815093718,-810.546383724226,405.810560723434,404.735823000793
2.02657448417414,811.643202304709,808.977661727648,-2.66554057706094,-810.310432016179,407.154371440885,403.156060575294
2.02873501134277,811.688975160884,803.166968089471,-8.52200707141355,-807.427971625177,410.105491116149,397.322480509029
2.0308955385114,812.597692421604,792.55207713202,-20.0456152895838,-802.574884776812,416.321653855594,386.253230921218
2.03305606568003,811.912920562369,790.443850631108,-21.4690699312607,-801.178385596738,416.690995246815,384.487390349924
2.03521659284866,812.745100169871,790.761635019489,-21.983465150382,-801.75336759468,417.364282660126,384.389084934553
2.03737712001728,812.690757976559,794.900717355436,-17.7900406211221,-803.795737665997,415.24039929884,388.555338367157
2.03953764718591,811.787563508651,800.732147883927,-11.0554156247238,-806.259855696289,411.421489566687,394.838366129602
2.04169817435454,811.69462079607,810.050034679771,-1.64458611629959,-810.872327737921,406.669603456185,404.202724281736
2.04385870152317,812.467699663233,809.038317157642,-3.42938250559075,-810.753008410438,407.948541084412,402.804467326026
2.0460192286918,810.938151280944,802.601969430995,-8.33618184994987,-806.770060355969,409.637166565447,397.132893790522
2.04817975586043,811.831950003156,794.420294493678,-17.4116555094786,-803.126122248417,414.621802756317,388.5043194921
2.05034028302906,811.908108270625,790.623851040565,-21.2842572300603,-801.265979655595,416.596182750343,384.669796905252
2.05250081019769,811.914822000151,788.358874145836,-23.5559478543148,-800.136848072994,417.735384927233,382.401463145761
2.05466133736632,810.264689223655,793.098070737471,-17.1666184861839,-801.681379980563,413.715653854919,387.965726125644
2.05682186453495,811.76667410281,801.226244704207,-10.5404293986024,-806.496459403509,411.153551750706,395.342907652802
2.05898239170358,810.91402482129,808.233443820836,-2.68058100045448,-809.573734321063,406.797302910872,402.776431410191
2.0611429188722,810.916994338304,809.807652792535,-1.10934154576955,-810.36232356542,406.013167942037,404.349155623383
2.06330344604083,811.769036513755,805.189193091287,-6.57984342246789,-808.479114802521,409.174439968112,399.30467483441
2.06546397320946,809.459988925479,801.897507056004,-7.56248186947505,-805.678747990741,408.511235397477,397.167512593264
2.06762450037809,809.506722575597,794.069915567356,-15.4368070082405,-801.788319071476,412.471764791919,389.316554279558
2.06978502754672,811.88198416136,787.62132179994,-24.2606623614195,-799.75165298065,418.07132326139,381.68032971926
2.07194555471535,811.824071907852,792.909231663915,-18.9148402439366,-802.366651785884,415.369456075894,386.997195709989
2.07410608188398,812.547634965752,800.891680904161,-11.6559540615909,-806.719657934956,412.101794513671,394.617863421285
2.07626660905261,812.510352198532,805.552451147391,-6.95790105114031,-809.031401672961,409.734126624836,399.297275048126
2.07842713622124,810.943393956177,807.333142835628,-3.6102511205487,-809.138268395903,407.276822538363,401.86144585754
2.08058766338987,811.805233016198,810.126156868335,-1.67907614786282,-810.965694942267,406.74215458203,404.223540360236
2.0827481905585,811.872286304514,803.029713233744,-8.84257307076973,-807.450999769129,410.357429687642,397.093570081487
2.08490871772713,811.891976690051,793.59311253121,-18.2988641588413,-802.742544610631,415.095420424446,387.647124186184
2.08706924489575,811.056380015913,790.125212179218,-20.9311678366953,-800.590796097566,415.993773926304,384.597022171261
2.08922977206438,810.98273065497,791.172712312842,-19.8100183421284,-801.077721483906,415.396374498549,385.681346985357
2.09139029923301,810.926886272776,798.964782601223,-11.9621036715527,-804.945834436999,411.444494972164,393.501339464835
2.09355082640164,812.514327117379,805.211449437586,-7.30287767979348,-808.862888277483,409.908602398586,398.954285878896
2.09571135357027,810.979716674808,809.562422261128,-1.41729441367943,-810.271069467968,406.198505544244,404.072563923724
2.0978718807389,811.055034004961,811.04294227862,-0.0120917263410547,-811.048988141791,405.533562865651,405.51542527614
2.10003240790753,812.690143902478,803.368770154049,-9.32137374842955,-808.029457028264,411.005758825454,397.02369820281
2.10219293507616,812.67378620571,795.555718896188,-17.1180673095226,-804.114752550949,414.895926757617,389.218825793333
2.10435346224479,811.810270531928,793.498417389114,-18.3118531428139,-802.654343960521,415.061061837371,387.59328212315
2.10651398941342,811.736124848019,790.273818608145,-21.4623062398738,-801.004971728082,416.599215543946,384.405756184136
2.10867451658205,810.914180755756,793.845214123842,-17.068966631914,-802.379697439799,413.991573693835,388.388123745964
2.11083504375067,812.540427223012,800.045903924973,-12.4945232980396,-806.293165573993,412.517475260526,393.775690313467
2.1129955709193,811.028277181275,808.554643238349,-2.47363394292643,-809.791460209812,406.750955562101,403.040504647711
2.11515609808793,812.680204071158,809.549957538853,-3.13024653230434,-811.115080805006,407.905225301731,403.209855503275
2.11731662525656,811.098413913206,805.306724238334,-5.79168967487169,-808.20256907577,408.445051794039,399.757517281731
2.11947715242519,811.044979852047,799.926648727787,-11.11833112426,-805.485814289917,411.081655488154,394.404158801764
2.12163767959382,811.761773080513,795.303845722735,-16.457927357778,-803.532809401624,414.109850219145,389.422959182478
2.12379820676245,811.711127815256,787.805393642497,-23.9057341727591,-799.758260728877,417.808430994008,381.949829734869
2.12595873393108,811.721598107299,791.134993782569,-20.5866043247293,-801.428295944934,416.154101216014,385.27419472892
2.12811926109971,811.787555466319,799.670058201419,-12.1174972648996,-805.728806833869,411.952526365609,393.77628046826
2.13027978826834,812.659735590408,805.957298096161,-6.70243749424753,-809.308516843284,409.681086542328,399.627430300957
2.13244031543697,810.3150834828,808.816084242329,-1.49899924047122,-809.565583862564,405.907041361635,403.658542500929
2.1346008426056,811.877224240797,808.774661363648,-3.10256287714878,-810.325942802222,407.489893558973,402.83604924325
2.13676136977422,812.594357349527,801.863702440444,-10.7306549090829,-807.229029894986,411.662506129305,395.566523765681
2.13892189694285,811.72049326583,793.929321651538,-17.7911716142912,-802.824907458684,414.75583244006,388.069075018624
2.14108242411148,809.311752740389,788.573620843834,-20.7381318965554,-798.942686792112,415.024942318472,383.917744473639
2.14324295128011,812.537976293573,790.099727961584,-22.4382483319885,-801.318852127578,417.488112312781,383.830739814798
2.14540347844874,811.039970048097,797.761757022908,-13.2782130251892,-804.400863535503,412.159091536643,392.241771998859
