t,leadI,leadII,leadIII,aVR,aVL,aVF
0,8.35447047116088,8.36961597013659,0.0151454989757145,-8.36204322064874,4.16966248609258,4.19238073455615
0.00216379963215406,-25.6295698158463,12.3997027186682,38.0292725345145,6.61493354858907,-31.8294211751804,25.2144876265913
0.00432759926430813,-56.7037078794941,15.7024929454085,72.4062008249026,20.5006074670428,-64.5549543521983,44.0543468851556
0.00649139889646219,-82.5721650681748,17.7243713994121,100.296536467587,32.4238968343814,-91.4343507678809,59.0104539334995
0.00865519852861625,-101.971161789192,18.2005200218801,120.171681811072,41.885320883656,-111.071421800132,69.1861009164762
0.0108189981607703,-114.779583883752,17.1850233966329,131.964607280385,48.7972802435597,-123.372095582069,74.574815338509
0.0129827977929244,-121.840332697484,14.996832625201,136.837165322685,53.4217500361414,-129.338749010084,75.916998973943
0.0151465974250784,-124.598528675538,12.1096743737843,136.708203049322,56.2444271508769,-130.65336586243,74.4089387115534
0.0173103970572325,-124.690542162745,9.02489632295676,133.715438485702,57.8328229198942,-129.202990324224,71.3701674043294
0.0194741966893866,-123.595358797237,6.16298335676662,129.758342154003,58.7161877202351,-126.67685047562,67.960662755385
0.0216379963215406,-122.412698334369,3.79674215200209,126.209440486371,59.3079780911835,-124.31106941037,65.0030913191866
0.0238017959536947,-121.782803571653,2.0327772686949,123.815580840348,59.8750131514791,-122.799192206001,62.9241790545215
0.0259655955858488,-121.924982257183,0.833230250127898,122.758212507311,60.5458760035277,-122.341597382247,61.7957213787195
0.0281293952180028,-122.751675487221,0.0612041120115674,122.812879599232,61.3452356876047,-122.782277543227,61.437041855622
0.0302931948501569,-124.010736201421,-0.467037109284254,123.543699092137,62.2388866553528,-123.777217646779,61.5383309914265
0.0324569944823109,-125.415768848299,-0.934631796676442,124.481137051623,63.1752003224878,-124.948452949961,61.7732526274731
0.034620794114465,-126.73791660198,-1.48739175349528,125.250524848485,64.1126541777376,-125.994220725232,61.8815665474947
0.0367845937466191,-127.848394926676,-2.21077516116076,125.637619765515,65.0295850439183,-126.743007346095,61.7134223021772
0.0389483933787731,-128.715790459304,-3.12203886309364,125.59375159621,65.9189146611986,-127.154771027757,61.2358563665581
0.0411121930109272,-129.373025777094,-4.1774199888574,125.195605788236,66.7752228829755,-127.284315782665,60.5090928996894
0.0432759926430813,-129.874235706903,-5.29214835853856,124.582087348365,67.5831920327208,-127.228161527634,59.644969494913
0.0454397922752353,-130.260379549129,-6.36842689353377,123.891952655595,68.3144032213314,-127.076166102362,58.7617628810308
0.0476035919073894,-130.544792099285,-7.32398136604205,123.220810733242,68.9343867326633,-126.882801416264,57.9484146836002
0.0497673915395434,-130.719393907711,-8.11338171648436,122.606012191226,69.4163878120976,-126.662703049469,57.2463152373711
0.0519311911716975,-130.773178118829,-8.73668140153813,122.036496717291,69.7549297601835,-126.40483741806,56.6499076578763
0.0540949908038516,-130.710347016218,-9.23364379114606,121.476703225072,69.9719954036822,-126.093525120645,56.1215297169631
0.0562587904360056,-130.557999930578,-9.66605007357954,120.891949856999,70.1120250020789,-125.724974893788,55.6129498917096
0.0584225900681597,-130.360787979884,-10.0947361378886,120.266051841996,70.2277620588865,-125.31341991094,55.0856578520536
0.0605863897003138,-130.167166515313,-10.5601069738809,119.607059541432,70.3636367445971,-124.887113028373,54.5234762837758
0.0627501893324678,-130.014807930201,-11.0732607901342,118.941547140067,70.5440343601678,-124.478177535134,53.9341431749665
0.0649139889646219,-129.921506022063,-11.6202414550553,118.301264567007,70.770873738559,-124.111385294535,53.3405115559761
0.0670777885967759,-129.884408971239,-12.1762450338019,117.708163937437,71.0303270025204,-123.796286454338,52.7659594518176
0.06924158822893,-129.886357175849,-12.7220370172476,117.164320158602,71.3041970965485,-123.525338667226,52.2211415706771
0.0714053878610841,-129.905266352275,-13.2540989035281,116.651167448747,71.5796826279017,-123.278216900511,51.6985342726095
0.0735691874932381,-129.922040664663,-13.7840881529229,116.13795251174,71.8530644087929,-123.029996588201,51.1769321794086
0.0757329871253922,-129.923915087486,-14.3292431639821,115.594671923503,72.1265791257338,-122.759293505494,50.6327143797607
0.0778967867575463,-129.902464556086,-14.8995534006472,115.002911155439,72.4010089783667,-122.452687855763,50.0516788773959
0.0800605863897003,-129.848362537931,-15.4884541116945,114.359908426236,72.6684083248126,-122.104135482083,49.4357271572708
0.0822243860218544,-129.747138849761,-16.0718102190104,113.675328630751,72.9094745343857,-121.711233740256,48.8017592058701
0.0843881856540084,-129.579873260128,-16.6157635760259,112.964109684102,73.0978184180768,-121.271991472115,48.1741730540379
0.0865519852861625,-129.329984354249,-17.0897298952153,112.240254459034,73.2098571247324,-120.785119406642,47.5752622819094
0.0887157849183166,-128.993835210678,-17.4790361030455,111.514799107633,73.2364356568619,-120.254317159156,47.0178815022936
0.0908795845504706,-128.590253805244,-17.7926832693618,110.797570535883,73.1914685373031,-119.693912170564,46.5024436332605
0.0930433841826247,-128.163488451941,-18.0638412025819,110.099647249359,73.1136648272614,-119.13156785065,46.0179030233885
0.0952071838147788,-127.776692042917,-18.3428572125615,109.433834830356,73.0597746277394,-118.605263436637,45.5454888088972
0.0973709834469328,-127.497529927307,-18.6846415499968,108.81288837731,73.091085738652,-118.155209152309,45.0641234136567
0.0995347830790869,-127.38054076739,-19.1338505218197,108.246690245571,73.257195644605,-117.813615506481,44.5564198618755
0.101698582711241,-127.450681431298,-19.7114594441865,107.739221987112,73.5810704377424,-117.594951709205,44.0138812714627
0.103862382343395,-127.690445781974,-20.4048031783977,107.285642603576,74.0476244801859,-117.488044192775,43.4404197125893
0.106026181975549,-128.031190531926,-21.1612057628663,106.86998476906,74.5961981473964,-117.450587650493,42.8543895030968
0.108189981607703,-128.348666288706,-21.8846985568177,106.463967731888,75.1166824227618,-117.406317010297,42.2896345875352
0.110353781239857,-128.462918843769,-22.4360372870061,106.026881556763,75.4494780653878,-117.244900200266,41.7954221348786
0.112517580872011,-128.143176347869,-22.6369136589248,105.506262688944,75.390045003397,-116.824719518407,41.4346745150098
0.114681380504165,-127.119291173375,-22.279850180418,104.839440992957,74.6995706768965,-115.979366083166,41.2797954062695
0.116845180136319,-125.103252566988,-21.1464091796765,103.956843387311,73.1248308733321,-114.530047977149,41.4052171038174
0.119008979768473,-121.825837101447,-19.0365082050781,102.789328896369,70.4311726532625,-112.307582998908,41.8764103456452
0.121172779400628,-117.091261147936,-15.8085525060064,101.28270864193,66.4499068269712,-109.186984894933,42.7370780679616
0.123336579032782,-110.845016359499,-11.4247358488101,99.4202805106891,61.1348761041546,-105.132648435094,43.9977723309395
0.125500378664936,-103.23935749122,-5.99131023168365,97.2480472595367,54.615333861452,-100.243702375379,45.6283685139265
0.12766417829709,-94.6726562266017,0.218613974244284,94.891270200846,47.2270211261787,-94.7819632137238,47.5549420875451
0.129827977929244,-85.7790165718464,6.77143553301158,92.550452104858,39.5037905194174,-89.1647343383522,49.6609438189348
0.131991777561398,-77.3562518752185,13.1150892362888,90.4713411115073,32.1205813194649,-83.9137964933629,51.793215173898
0.134155577193552,-70.2402513274341,18.6537724452352,88.8940237726692,25.7932394410994,-79.5671375500516,53.7738981089522
0.136319376825706,-65.153235356484,22.8422071669178,87.9954425234018,21.1555140947831,-76.5743389399429,55.4188248451598
0.13848317645786,-62.5642173284696,25.2792771895226,87.8434945179922,18.6424700694735,-75.2038559232309,56.5613858537574
0.140646976090014,-62.5985586656272,25.7792980265318,88.377856692159,18.4096303195477,-75.4882076788931,57.0785773593454
0.142810775722168,-65.0204440695262,24.4036885371668,89.424132606693,20.3083777661797,-77.2222883381096,56.9139105719299
0.144974575354322,-69.2912763789476,21.4455264166354,90.736802795583,23.9228749811561,-80.0140395872653,56.0911646061092
0.147138374986476,-74.6853094042569,17.3716683412166,92.0569777454734,28.6568205315202,-83.3711435748652,54.714323043345
0.14930217461863,-80.4292619072656,12.7378965137294,93.167158420995,33.8456826967681,-86.7982101641303,52.9525274673622
0.151465974250784,-85.830346489921,8.09798271610928,93.9283292060303,38.8661818869059,-89.8793378479756,51.0131559610698
0.153629773882938,-90.3666566872713,3.92561510168891,94.2922717889602,43.2205207927912,-92.3294642381158,49.1089434453246
0.155793573515093,-93.7295721507824,0.560693995379262,94.2902661461617,46.5844390777016,-94.0099191484721,47.4254800707705
0.157957373147247,-95.8225164352895,-1.81678334870132,94.0057330865882,48.8196498919954,-94.9141247609388,46.0944748689434
0.160121172779401,-96.7291284719262,-3.18777292332784,93.5413555485983,49.958450697627,-95.1352420102623,45.1767913126353
0.162284972411555,-96.6656538601295,-3.67540399751385,92.9902498626156,50.1705289288216,-94.8279518613725,44.6574229325509
0.164448772043709,-95.928998864684,-3.51187278070039,92.4171260839836,49.7204358226922,-94.1730624743338,44.4526266516416
0.166612571675863,-94.846739617272,-2.99527701659133,91.8514626006806,48.9210083169316,-93.3491011089763,44.4280927920446
0.168776371308017,-93.7317370967184,-2.4398559937981,91.2918811029203,48.0857965452583,-92.5118090998193,44.4260125545611
0.170940170940171,-92.8432600013235,-2.12431186770581,90.7189481336177,47.4837859345146,-91.7811040674706,44.2973181329559
0.173103970572325,-92.3575109440568,-2.24550436469091,90.1120065793659,47.3015076543739,-91.2347587617113,43.9332511073375
0.175267770204479,-92.3511452631623,-2.88673095719503,89.4644143059672,47.6189381101786,-90.9077797845648,43.2888416743861
0.177431569836633,-92.800475193718,-4.00888329714383,88.7915918965741,48.4046792454309,-90.796033545146,42.3913542997151
0.179595369468787,-93.5964335039741,-5.4678216822889,88.1286118216852,49.5321275931315,-90.8625226628297,41.3303950696982
0.181759169100941,-94.572194171428,-7.05379479234126,87.5183993790867,50.8129944818846,-91.0452967752573,40.2323022933727
0.183922968733095,-95.5382078521976,-8.54261075586785,86.9955970963297,52.0404093040327,-91.2669024742636,39.2264931702309
0.186086768365249,-96.3185410458915,-9.7461727888795,86.572368257012,53.0323569173855,-91.4454546514517,38.4130977340662
0.188250567997403,-96.7820331012991,-10.5510849398295,86.2309481614696,53.6665590205643,-91.5064906313844,37.8399316108201
0.190414367629558,-96.8622755844359,-10.9368087064544,85.9254668779815,53.8995421454451,-91.3938712312087,37.4943290857635
0.192578167261712,-96.5629701970064,-10.9694532921107,85.5935169048958,53.7662117445585,-91.0782435509511,37.3120318063925
0.194741966893866,-95.9493475549023,-10.7738047848946,85.1755427700077,53.3615761698985,-90.562445162455,37.2008689925566
0.19690576652602,-95.1296818370525,-10.4930278343396,84.6366540027128,52.8113548356961,-89.8831679198827,37.0718130841866
0.199069566158174,-94.2318341764087,-10.249753363394,83.9820808130147,52.2407937699014,-89.1069574947117,36.8661637248103
0.201233365790328,-93.3788231939372,-10.1210648384353,83.2577583555019,51.7499440161862,-88.3182907747195,36.5683467585333
0.203397165422482,-92.6665984006524,-10.1327463509589,82.5338520496935,51.3996723758056,-87.600225225173,36.2005528493673
0.205560965054636,-92.147431658022,-10.2691759044635,81.8782557535585,51.2083037812427,-87.0128437057902,35.8045399245475
0.20772476468679,-91.8225299787146,-10.4901694391195,81.3323605395951,51.1563497089171,-86.5774452591549,35.4210955502378
0.209888564318944,-91.6460322455243,-10.7469404872467,80.8990917582775,51.1964863663855,-86.2725620019009,35.0760756355154
0.212052363951098,-91.5396085387784,-10.9936456846773,80.5459628541011,51.2666271117279,-86.0427856964397,34.7761585847119
0.214216163583252,-91.4139291025677,-11.1948763342467,80.219052768321,51.3044027184072,-85.8164909354444,34.5120882170371
0.216379963215406,-91.1913381558225,-11.3305800216417,79.8607581341808,51.2609590887321,-85.5260481450016,34.2650890562695
0.21854376284756,-90.8235082318244,-11.3986660528959,79.4248421789285,51.1110871423601,-85.1241752053764,34.0130880630163
0.220707562479714,-90.2991764312502,-11.4141462290546,78.8850302021956,50.8566613301524,-84.5921033167229,33.7354419865705
0.222871362111868,-89.6403925569729,-11.4035782030309,78.236814353942,50.5219853800019,-83.9386034554574,33.4166180754555
0.225035161744023,-88.8898443699182,-11.394966901186,77.4948774687322,50.1424056355521,-83.1923609193252,33.0499552837731
0.227198961376177,-88.0948746286555,-11.4059171748096,76.6889574538459,49.7503959017326,-82.3919160412507,32.6415201395181
0.229362761008331,-87.294354944294,-11.435423502372,75.858931441922,49.364889223333,-81.576643193108,32.211753969775
0.231526560640485,-86.5123807923843,-11.4643759288938,75.0480048634906,48.9883783606391,-80.7801928279375,31.7918144672984
0.233690360272639,-85.7590295252728,-11.4653784642446,74.2936510610283,48.6122039947587,-80.0263402931505,31.4141362983919
0.235854159904793,-85.0352704551369,-11.4167772396874,73.6184932154494,48.2260238474122,-79.3268818352932,31.100857987881
0.238017959536947,-84.3380037595034,-11.3132279440899,73.0247758154135,47.8256158517966,-78.6813897874585,30.8557739356618
0.240181759169101,-83.6622580454266,-11.1671508871684,72.4951071582581,47.4147044662975,-78.0786826018423,30.6639781355448
0.242345558801255,-83.000084284673,-11.0004912571414,71.9995930275316,47.0002877709072,-77.4998386561023,30.4995508851951
0.244509358433409,-82.338424015525,-10.8316220117197,71.5068020038053,46.5850230136224,-76.9226130096652,30.3375899960428
0.246673158065563,-81.659357591994,-10.6649930498374,70.9943645421566,46.1621753209157,-76.3268610670753,30.1646857461596
0.248836957697717,-80.9444606322835,-10.4895823058031,70.4548783264805,45.7170214690433,-75.699669479382,29.9826480103387
0.251000757329871,-80.1818125802339,-10.2874732154862,69.8943393647477,45.2346428978601,-75.0380759724908,29.8034330746307
0.253164556962025,-79.3721074945477,-10.0483902419297,69.323717252618,44.7102488682387,-74.3479123735829,29.6376635053442
0.255328356594179,-78.5303537488277,-9.78198868093968,68.748365067888,44.1561712148837,-73.6393594083579,29.4831881934742
0.257492156226333,-77.6813549621504,-9.51955613057678,68.1617988315736,43.6004555463636,-72.921576896862,29.3211213504984
0.259655955858487,-76.8499893116842,-9.30173477075079,67.5482545409334,43.0758620412175,-72.1991219263088,29.1232598850913
0.261819755490642,-76.0501247061836,-9.1565157339199,66.8936089722637,42.6033202200518,-71.4718668392237,28.8685466191719
0.263983555122796,-75.2771149658773,-9.07781418423323,66.199300781644,42.1774645750553,-70.7382078737607,28.5607432987054
0.26614735475495,-74.5075056886713,-9.01638498306873,65.4911207056025,41.76194533587,-69.9993131971369,28.2373678612669
0.268311154387104,-73.7064147960004,-8.89031994304445,64.816094852956,41.2983673695224,-69.2612548244782,27.9628874549558
0.270474954019258,-72.8393979453312,-8.61293451203516,64.226463433296,40.7261662286832,-68.5329306893136,27.8067644606304
0.272638753651412,-71.8836628782447,-8.12649350766505,63.7571693705796,40.0050781929549,-67.8204161244122,27.8153379314573
0.274802553283566,-70.8347316751688,-7.4269528718679,63.4077788033009,39.1308422735184,-67.1212552392348,27.9904129657165
0.27696635291572,-69.7076948736064,-6.56936008807666,63.1383347855297,38.1385274808415,-66.423014829568,28.2844873487265
0.279130152547874,-68.5343276469855,-5.65241508767505,62.8819125593105,37.0933713673303,-65.708120103148,28.6147487358177
0.281293952180028,-67.357659734114,-4.78920309702007,62.5684566370939,36.073431415567,-64.963058185604,28.8896267700369
0.283457751812182,-66.2252384407184,-4.07581400319684,62.1494244375215,35.1505262219576,-64.18733143912,29.0368052171623
0.285621551444336,-65.1823083665801,-3.56912752359843,61.6131808429817,34.3757179450893,-63.3977446047809,29.0220266596916
0.28778535107649,-64.2662082546247,-3.28020063498741,60.9860076196373,33.7732044448061,-62.626107937131,28.8529034923249
0.289949150708644,-63.5026021435198,-3.18255427201536,60.3200478715044,33.3425782077676,-61.9113250075121,28.5687467997445
0.292112950340798,-62.9027913734886,-3.22840061662581,59.6743907568628,33.0655959950572,-61.2885910651757,28.2229950701185
0.294276749972953,-62.4608612890132,-3.36400180036006,59.0968594886531,32.9124315446866,-60.7788603888332,27.8664288441465
0.296440549605107,-62.1508632496693,-3.53891893412458,58.6119443155447,32.8448910918969,-60.381403782607,27.5365126907101
0.298604349237261,-61.9261975470223,-3.70955669648466,58.2166408505377,32.8178771217535,-60.07141919878,27.2535420770265
0.300768148869415,-61.7236799826219,-3.84054164655207,57.8831383360698,32.782110814587,-59.8034091593459,27.0212983447589
0.302931948501569,-61.4732347818673,-3.90674347537614,57.5664913064912,32.6899891286217,-59.5198630441793,26.8298739155575
0.305095748133723,-61.1118074681242,-3.89613569505348,57.2156717730707,32.5039715815888,-59.1637396205975,26.6597680390086
0.307259547765877,-60.5977695590607,-3.8115771098254,56.7861924492353,32.204673334443,-58.691981004148,26.4873076697049
0.309423347398031,-59.9210171716341,-3.66930937649551,56.2517077951386,31.7951632740648,-58.0863624833864,26.2911992093215
0.311587147030185,-59.1052610827873,-3.4936640942009,55.6115969885864,31.2994625884941,-57.3584290356868,26.0589664471927
0.313750946662339,-58.2017674368245,-3.30986452177688,54.8919029150476,30.7558159793007,-56.546835175936,25.7910191966354
0.315914746294493,-57.2760881630633,-3.13794631860939,54.1381418444539,30.2070172408363,-55.7071150037586,25.5000977629223
0.318078545926647,-56.390666458471,-2.98985259912244,53.4008138593486,29.6902595287967,-54.8957401589098,25.2054806301131
0.320242345558801,-55.5872559162585,-2.86947662966067,52.7177792865978,29.2283662729596,-54.1525176014282,24.9241513284686
0.322406145190955,-54.8737775610687,-2.77361554076158,52.1001620203071,28.8236965509151,-53.4869697906879,24.6632732397728
0.324569944823109,-54.2199765139826,-2.69205467752145,51.5279218364611,28.456015595752,-52.8739491752219,24.4179335794698
0.326733744455263,-53.5647084307756,-2.60698734002772,50.9577210907479,28.0858478854017,-52.2612147607618,24.1753668753601
0.328897544087418,-52.8346103336259,-2.49345649658052,50.3411538370454,27.6640334151032,-51.5878820853356,23.9238486702324
0.331061343719572,-51.9695821830538,-2.32227816091543,49.6473040221384,27.1459301719846,-50.8084431025961,23.6625129306115
0.333225143351726,-50.9466641619002,-2.06587401291388,48.8807901489863,26.506269087407,-49.9137271554433,23.4074580680362
0.33538894298388,-49.7928355005855,-1.70617986807143,48.0866556325141,25.7495076843285,-48.9397455665498,23.1902378822213
0.337552742616034,-48.580311731489,-1.24208828815955,47.3382234433294,24.9112000098243,-47.9592675874092,23.0480675775849
0.339716542248188,-47.404646753747,-0.692774103285049,46.7118726504619,24.048710428516,-47.0582597021044,23.0095492735884
0.341880341880342,-46.3535515043086,-0.0943373323850164,46.2592141719236,23.2239444183468,-46.3063828381161,23.0824384197693
0.344044141512496,-45.4786544763795,0.509795659003291,45.9884501353828,22.4844294086881,-45.7335523058812,23.2491228971931
0.34620794114465,-44.7811017146759,1.08119969314881,45.8623014078247,21.8499510107635,-45.3217015612503,23.4717505504867
0.348371740776804,-44.2159109778637,1.59661719555423,45.8125281734179,21.3096468911547,-45.0142195756408,23.7045726844861
0.350535540408958,-43.7121154485965,2.05208832518108,45.7642037737776,20.8300135617077,-44.7381596111871,23.9081460494793
0.352699340041112,-43.1993635928096,2.45957106934082,45.6589346621504,20.3698962617344,-44.42914912748,24.0592528657456
0.354863139673266,-42.6302067758058,2.83681409263427,45.4670208684401,19.8966963415858,-44.048613822123,24.1519174805372
0.35702693930542,-41.9913940565298,3.19344775391752,45.1848418104473,19.3989731513061,-43.5881179334886,24.1891447821824
0.359190738937574,-41.3034001839745,3.51891415133124,44.8223143353057,18.8922430163216,-43.0628572596401,24.1706142433185
0.361354538569728,-40.6111161787775,3.77884930572056,44.3899654844981,18.4161334365285,-42.5005408316378,24.0844073951093
0.363518338201883,-39.9696390600671,3.92338119976108,43.8930202598282,18.023128930153,-41.9313296599477,23.9082007297946
0.365682137834037,-39.42887780766,3.9049740144371,43.3338518220971,17.7619518966115,-41.3813648148786,23.6194129182671
0.367845937466191,-39.0201203422964,3.69874741880472,42.7188677611011,17.6606864617458,-40.8694940516987,23.2088075899529
0.370009737098345,-38.7472303841958,3.31666736009744,42.0638977442933,17.7152815120492,-40.4055640642446,22.6902825521954
0.372173536730499,-38.5848975937136,2.80893687529184,41.3938344690055,17.8879803592109,-39.9893660313595,22.1013856721487
0.374337336362653,-38.4855358995435,2.25100435409013,40.7365402536337,18.1172657727267,-39.6110380765886,21.4937723038619
0.376501135994807,-38.394151617072,1.72078676576096,40.114938382833,18.3366824256555,-39.2545449999525,20.917862574297
0.378664935626961,-38.2672585277589,1.27465343408251,39.5419119618414,18.4963025468382,-38.9045852448001,20.4082826979619
0.380828735259115,-38.0894138960104,0.930754003149435,39.0201678991598,18.5793299464305,-38.5547908975851,19.9754609511546
0.382992534891269,-37.8810347084928,0.665032842520919,38.5460675510137,18.6080009329859,-38.2135511297533,19.6055501967673
0.385156334523423,-37.6942453292245,0.420346223510466,38.114591552735,18.636949552857,-37.9044184409798,19.2674688881227
0.387320134155577,-37.5978480901271,0.124734990754616,37.7225830808817,18.7365565496862,-37.6602155855044,18.9236590358182
0.389483933787731,-37.6559490184776,-0.286951259251111,37.3689977592264,18.9714501388643,-37.512473388852,18.5410232499877
0.391647733419885,-37.9066609925909,-0.853591053534039,37.0530699390569,19.3801260230625,-37.4798654658239,18.0997394427614
0.393811533052039,-38.3475363576298,-1.57521654941336,36.7723198082165,19.9613764535216,-37.5599280829232,17.5985516294016
0.395975332684193,-38.9324373338882,-2.41082073928591,36.5216165946023,20.6716290365871,-37.7270269642453,17.0553979276582
0.398139132316348,-39.5809199792946,-3.28742080620888,36.2934991730858,21.4341703927518,-37.9372095761902,16.5030391834384
0.400302931948502,-40.1975551034956,-4.11789812026986,36.0796569832257,22.1577266118827,-38.1386060433607,15.9808794314779
0.402466731580656,-40.6957959283876,-4.8227511357252,35.8730447926624,22.7592735320564,-38.284420360525,15.5251468284686
0.40463053121281,-41.0192913535227,-5.35021992860039,35.6690714249224,23.1847556410616,-38.3441813892225,15.159425748161
0.406794330844964,-41.1542243475314,-5.68989147940014,35.4643328681313,23.4220579134658,-38.3092786078314,14.8872206943656
0.408958130477118,-41.1298224956844,-5.87620135106268,35.2536211446218,23.5030119233736,-38.1917218201531,14.6887098967795
0.411121930109272,-41.0082355979781,-5.97996929026362,35.0282663077144,23.4941024441208,-38.0182509528462,14.5241485087254
0.413285729741426,-40.8670682228831,-6.08881635764643,34.7782518652367,23.4779422902648,-37.8226600440599,14.3447177537951
0.41544952937358,-40.7785846298114,-6.28118949925261,34.4973951305588,23.529887064532,-37.6379898801851,14.1081028156531
0.417613329005734,-40.7903505469103,-6.60207860124032,34.18827194567,23.6962145740753,-37.4893112462901,13.7930966722148
0.419777128637888,-40.912320002872,-7.04900191319593,33.863318089676,23.9806609580339,-37.387819046274,13.40715808824
0.421940928270042,-41.114181386841,-7.57372039773463,33.5404609891064,24.3439508922878,-37.3273211879737,12.9833702956859
0.424104727902196,-41.3344023755262,-8.09950875919884,33.2348936163274,24.7169555673625,-37.2846479959268,12.5676924285643
0.42626852753435,-41.4993069827544,-8.5478612909042,32.9514456918502,25.0235841368293,-37.2253763373023,12.201792200473
0.428432327166504,-41.5470516501605,-8.86505320046025,32.6819984497002,25.2060524253104,-37.1145250499304,11.90847262462
0.430596126798658,-41.4487659762759,-9.03971278754729,32.4090531887286,25.2442393819116,-36.9289095825023,11.6846702005907
0.432759926430813,-41.2188953222827,-9.10645662471193,32.1124386975708,25.1626759734973,-36.6656670099268,11.5029910364294
0.434923726062967,-40.9097231847352,-9.13526516142844,31.7744580233068,25.0224941730818,-36.342090604021,11.3195964309392
0.437087525695121,-40.591079930213,-9.21015271079796,31.3809272194151,24.9006163205055,-35.9860035748141,11.0853872543086
0.439251325327275,-40.3232559661492,-9.40341138319834,30.9198445829508,24.8633336746738,-35.62155027455,10.7582165998763
0.441415124959429,-40.1347157270434,-9.75303064516728,30.3816850818761,24.9438731861054,-35.2582004044598,10.3143272183544
0.443578924591583,-40.0135863509283,-10.2505006074815,29.7630857434468,25.1320434792049,-34.8883360471876,9.75629256798261
0.445742724223737,-39.9153515998709,-10.8436173073994,29.0717342924715,25.3794844536352,-34.4935429461712,9.11405849253603
0.447906523855891,-39.783066812642,-11.4539884255324,28.3290783871095,25.6185276190872,-34.0560725998757,8.43754498078857
0.450070323488045,-39.5726499334032,-12.0032985538204,27.5693513795828,25.7879742436118,-33.571000656493,7.78302641288116
0.452234123120199,-39.2741952594335,-12.4389317489945,26.8352635104391,25.856563504214,-33.0547293849363,7.19816588072231
0.454397922752353,-38.9209276272268,-12.7498974979071,26.1710301293197,25.835412562567,-32.5459788782733,6.71056631570628
0.456561722384507,-38.5811477413905,-12.9676863389602,25.6134614024303,25.7744170401753,-32.0973045719104,6.32288753173505
0.458725522016661,-38.3350735993363,-13.1522078429707,25.1828657563655,25.7436407211535,-31.7589696778509,6.01532895669739
0.460889321648815,-38.2451239923049,-13.3682347117358,24.8768892805691,25.8066793520203,-31.561006636437,5.75432728441665
0.463053121280969,-38.3310094245836,-13.6606846758644,24.6703247487193,25.995847050224,-31.5006670866515,5.50482003642744
0.465216920913123,-38.5585199899288,-14.0369602326423,24.5215597572865,26.2977401112855,-31.5400398736076,5.24229976232211
0.467380720545278,-38.8452634150849,-14.4620806546782,24.3831827604067,26.6536720348816,-31.6142230877458,4.96055105286422
0.469544520177432,-39.0808446690447,-14.8682281129477,24.212616556097,26.9745363909962,-31.6467306125708,4.67219422157465
0.471708319809586,-39.1549300295306,-15.1756305905865,23.9792994389442,27.1652803100585,-31.5671147342374,4.40183442417885
0.47387211944174,-38.9852534163853,-15.3180742215844,23.6671791948008,27.1516638189849,-31.3262163055931,4.1745524866082
0.476035919073894,-38.5387386201052,-15.2649672493282,23.273771370777,26.9018529347167,-30.9062549954411,4.00440206072438
0.478199718706048,-37.8409717346253,-15.0328606716599,22.8081110629654,26.4369162031426,-30.3245413987953,3.88762519565272
0.480363518338202,-36.9713623461417,-14.6824502007662,22.2889121453755,25.8269062734539,-29.6301372457586,3.80323097230469
0.482527317970356,-36.0443569898872,-14.3018959078908,21.7424610819965,25.173126448889,-28.8934090359419,3.72028258705287
0.48469111760251,-35.1812494224392,-13.9821634203122,21.199086002127,24.5817064213757,-28.1901677122831,3.60846129090743
0.486854917234664,-34.4806204734964,-13.7927658376049,20.6878546358915,24.1366931555507,-27.584237554694,3.4475443991433
0.489018716866818,-33.9962435269513,-13.7657092275231,20.2305342994282,23.8809763772372,-27.1133889131897,3.23241253595254
0.491182516498972,-33.7288824046745,-13.8920321879898,19.8368502166847,23.8104572963321,-26.7828663106796,2.97240901434744
0.493346316131126,-33.6336579196282,-14.1304414200482,19.5032164995799,23.8820496698382,-26.568437209604,2.68638753976585
0.49551011576328,-33.6394550053471,-14.4234021587226,19.2160528466244,24.0314285820348,-26.4277539259857,2.39632534395089
0.497673915395434,-33.6730576842843,-14.7144735440515,18.9585841402328,24.1937656141679,-26.3158209122586,2.12205529809068
0.499837715027588,-33.6793853228274,-14.9615476390758,18.7178376837516,24.3204664809516,-26.1986115032895,1.87814502233795
0.502001514659743,-33.6310829672895,-15.1428944964149,18.4881884708746,24.3869887318522,-26.0596357190821,1.67264698722987
0.504165314291897,-33.5256579168732,-15.2560168269048,18.2696410899684,24.390837371889,-25.8976495034208,1.50681213153178
0.506329113924051,-33.3738690523052,-15.3121539079887,18.0617151443165,24.3430114801469,-25.7177920983109,1.37478061816394
0.508492913556205,-33.1858682714891,-15.3298843500547,17.8559839214343,24.2578763107719,-25.5209260964617,1.26304978568981
0.510656713188359,-32.9608945037305,-15.3295611253157,17.6313333784148,24.1452278145231,-25.2961139410726,1.15088612654953
0.512820512820513,-32.6837646304871,-15.3284321771459,17.3553324533412,24.0060984038165,-25.0195485419142,1.01345013809769
0.514984312452667,-32.328492294961,-15.3357521899435,16.9927401050175,23.8321222424523,-24.6606161999892,0.828493957536965
0.517148112084821,-31.8669059190575,-15.3479748066917,16.5189311123658,23.6074403628746,-24.1929185157116,0.585478152837043
0.519311911716975,-31.2789300819548,-15.3457644159078,15.933165666047,23.3123472489313,-23.6060478740009,0.293700625069622
0.521475711349129,-30.5614805293285,-15.2956648921814,15.2658156371471,22.9285727107549,-22.9136480832378,-0.0149246275171571
0.523639510981283,-29.7338723209863,-15.1579708141898,14.5759015067965,22.445921567588,-22.1548869138914,-0.291034653696645
0.525803310613437,-28.8384322810674,-14.8990475723818,13.9393847086856,21.8687399267246,-21.3889084948765,-0.479831431848082
0.527967110245591,-27.9357809322892,-14.5037311267051,13.432049805584,21.2197560294971,-20.6839153689366,-0.535840660560533
0.530130909877745,-27.09539392775,-13.9835099111402,13.1118840166098,20.5394519194451,-20.1036389721799,-0.435812947265202
0.532294709509899,-26.3834842490602,-13.3785546016203,13.00492964744,19.8810194253403,-19.6942069482501,-0.186812477090147
0.534458509142054,-25.8515195596145,-12.7542035002908,13.0973160593237,19.3028615299526,-19.4744178094691,0.171556279516416
0.536622308774208,-25.5287952454059,-12.1931795551363,13.3356156902695,18.8609874002711,-19.4322054678377,0.571218067566598
0.538786108406362,-25.4204486318519,-11.783733118155,13.6367155136969,18.6020908750034,-19.5285820727744,0.926491197770982
0.540949908038516,-25.5091415184397,-11.6035328483847,13.905608670055,18.5563371834122,-19.7073750942473,1.15103791083513
0.54311370767067,-25.757169412656,-11.7011565582529,14.0560128544031,18.7291629854544,-19.9065911335295,1.17742814807508
0.545277507302824,-26.1073969498131,-12.0800543057261,14.0273426440869,19.0937256277696,-20.06736979695,0.973644169180384
0.547441306934978,-26.4844914063328,-12.6911894971194,13.7933019092134,19.5878404517261,-20.1388966577731,0.551056206046965
0.549605106567132,-26.7996253647237,-13.4388434390347,13.360781925689,20.1192344018792,-20.0802036452064,-0.039030756672835
0.551768906199286,-26.9609686968867,-14.1995991706574,12.7613695262293,20.580283933772,-19.861169111558,-0.719114822214014
0.55393270583144,-26.8897941591334,-14.8493177257945,12.0404764333389,20.8695559424639,-19.4651352962361,-1.40442064622779
0.556096505463594,-26.5392245036847,-15.2900437395456,11.2491807641391,20.9146341216151,-18.8942026339119,-2.02043148770324
0.558260305095748,-25.9102182090509,-15.4695463279752,10.4406718810757,20.6898822685131,-18.1754450450633,-2.51443722344974
0.560424104727902,-25.058200888408,-15.389178818285,9.66902207012303,20.2236898533465,-17.3636114792655,-2.86007837408099
0.562587904360056,-24.0855221952886,-15.0992476683039,8.98627452698469,19.5923849317963,-16.5358983611367,-3.05648657065963
0.56475170399221,-23.120121865042,-14.6844244035905,8.43569746145155,18.9022731343163,-15.7779096632468,-3.12436347106947
0.566915503624364,-22.2866177645838,-14.243979066412,8.04263869817176,18.2652984154979,-15.1646282313778,-3.10067018412013
0.569079303256518,-21.6786958828937,-13.8718106948082,7.80688518808545,17.775253288851,-14.7427905354896,-3.0324627533614
0.571243102888673,-21.3402763364183,-13.6398723560438,7.7004039803745,17.490074346231,-14.5203401583964,-2.96973418783464
0.573406902520827,-21.2593496033478,-13.5870714169164,7.67227818643135,17.4232105101321,-14.4658138948896,-2.95739661524254
0.575570702152981,-21.3746667967311,-13.7148964474207,7.65977034931038,17.5447816220759,-14.5172185730207,-3.02756304905517
0.577734501785135,-21.5926694903628,-13.9905678836876,7.60210160667517,17.7916186870252,-14.597385548519,-3.19423313850622
0.579898301417289,-21.8102633154805,-14.3574256588929,7.45283765658758,18.0838444871867,-14.631550486034,-3.45229400115266
0.582062101049443,-21.9377785323237,-14.7500306067568,7.18774792556699,18.3439045695402,-14.5627632289454,-3.78114134059488
0.584225900681597,-21.9159570932917,-15.1092836559721,6.80667343731958,18.5126203746319,-14.3613152653056,-4.15130510932627
0.586389700313751,-21.7224799372864,-15.3928262467583,6.32965369052804,18.5576530920223,-14.0260668139072,-4.53158627811513
0.588553499945905,-21.3676425779258,-15.5784089551736,5.78923362275219,18.4730257665497,-13.578438100339,-4.89458766621071
0.590717299578059,-20.8828763332543,-15.6610676324142,5.22180870084008,18.2719719828342,-13.0523425170472,-5.21962946578706
0.592881099210213,-20.3074567233517,-15.647224584699,4.66023213865274,17.9773406540254,-12.4838444310022,-5.49349622302312
0.595044898842367,-19.6779544792604,-15.5494783340771,4.12847614518325,17.6137164066688,-11.9032153122218,-5.71050109444694
0.597208698474521,-19.0228347188369,-15.3842856326475,3.63854908618939,17.2035601757422,-11.3306919025132,-5.87286827322907
0.599372498106675,-18.3618716157185,-15.1716631182488,3.19020849746962,16.7667673669836,-10.776040056594,-5.9907273103896
0.601536297738829,-17.7080841864691,-14.9341000651027,2.77398412136641,16.3210921257859,-10.2410341539177,-6.08005797186813
0.603700097370984,-17.0700893103558,-14.6930577829253,2.37703152743051,15.8815735466406,-9.72356041889318,-6.15801312774741
0.605863897003138,-16.4544523190124,-14.4644700847578,1.98998223425463,15.4594612018851,-9.22221727663354,-6.23724392525159
0.608027696635292,-15.8685666658032,-14.2563355687409,1.61223109706236,15.062451117272,-8.74039888143279,-6.32205223583925
0.610191496267446,-15.3236960118092,-14.0700433357252,1.25365267608403,14.6968696737672,-8.28867434394662,-6.40819532982058
0.6123552958996,-14.8363425287069,-13.9040304039234,0.932312124783508,14.3701864663151,-7.8843273267452,-6.48585913956994
0.614519095531754,-14.4261360395903,-13.7569336605416,0.66920237904873,14.0915348500659,-7.54766920931951,-6.54386564074642
0.616682895163908,-14.1102382919526,-13.6287123017399,0.481525990212672,13.8694752968462,-7.29588214108262,-6.57359315576361
0.618846694796062,-13.8960664523695,-13.520081859847,0.375984592522576,13.7080741561082,-7.13602552244606,-6.57204863366219
0.621010494428216,-13.77467118331,-13.4308294917701,0.343841691539913,13.60275033754,-7.05925643742494,-6.54349390011507
0.62317429406037,-13.7169551457558,-13.3570248523083,0.359930293447526,13.536989999032,-7.03844271960165,-6.49854727943036
0.625338093692524,-13.6748447454882,-13.287667206226,0.38717753926214,13.4812559758571,-7.03101114237516,-6.45024483348195
0.627501893324678,-13.5887604431736,-13.2026549558356,0.386105487337902,13.3957076995046,-6.98743296525573,-6.40827473424887
0.629665692956832,-13.4004218494708,-13.0745826462246,0.32583920324614,13.2375022478477,-6.86313052635845,-6.37437172148924
0.631829492588986,-13.0672793244767,-12.8758524622118,0.191426862264914,12.9715658933443,-6.62935309337082,-6.34221279997345
0.63399329222114,-12.5736741538259,-12.5897316886239,-0.0160575347979393,12.5817029212249,-6.27880830951399,-6.3028946117109
0.636157091853294,-11.9348677746529,-12.2204821760868,-0.285614401433955,12.0776749753699,-5.82462668660946,-6.25304828876039
0.638320891485448,-11.1926619683551,-11.7964928680214,-0.603830899666276,11.4945774181883,-5.29441553434444,-6.20016188384385
0.640484691117603,-10.4043444225178,-11.3633574427182,-0.959013020200468,10.883850932618,-4.72266570115865,-6.16118523145935
0.642648490749757,-9.62898321454844,-10.9694162424583,-1.34043302790984,10.2991997285034,-4.1442750933193,-6.15492463518406
0.644812290381911,-8.9159555170129,-10.6507817481388,-1.73482623112595,9.78336863257587,-3.59056464294348,-6.1928039896324
0.646976090014065,-8.29978717775668,-10.4233775980292,-2.12359042027254,9.36158238789295,-3.08809837874207,-6.27348400915088
0.649139889646219,-7.80262105741737,-10.2854635203287,-2.48284246291134,9.04404228887304,-2.65988929725301,-6.38415299162003
0.651303689278373,-7.44150436870944,-10.227999808274,-2.78649543956456,8.83475208849172,-2.32750446457244,-6.50724762391928
0.653467488910527,-7.23453844723202,-10.2461210661221,-3.01158261889006,8.74032975667705,-2.11147791417098,-6.62885184250607
0.655631288542681,-7.20018092970154,-10.3451844909546,-3.14500356125309,8.77268271032808,-2.02758868422423,-6.74509402610386
0.657795088174835,-7.34803604227452,-10.5384398346806,-3.19040379240604,8.94323793847754,-2.07881612493424,-6.8644218135433
0.659958887806989,-7.66548890246965,-10.8379616696006,-3.17247276713097,9.25172528603514,-2.24650806766934,-7.0052172183658
0.662122687439143,-8.10886550082778,-11.2437499808226,-3.13488447999481,9.67630774082518,-2.48699051041648,-7.1893172304087
0.664286487071297,-8.6066885376528,-11.7364652509241,-3.1297767132713,10.1715768942884,-2.73845591219075,-7.4331209820977
0.666450286703451,-9.07595896592976,-12.2774484076931,-3.20148944176331,10.6767036868114,-2.93723476208323,-7.73946892472819
0.668614086335605,-9.44482632166746,-12.8166789636854,-3.37185264201795,11.1307526426764,-3.03648683982475,-8.09426580285168
0.670777885967759,-9.67164957231247,-13.3059327726706,-3.63428320035812,11.4887911724915,-3.01868318597718,-8.47010798651435
0.672941685599914,-9.75277575520656,-13.7116713695465,-3.95889561433991,11.7322235623765,-2.89694007043333,-8.83528349194319
0.675105485232068,-9.71731521050279,-14.022089830067,-4.30477461956417,11.8697025202849,-2.70627029546931,-9.16343222481557
0.677269284864222,-9.61319545508731,-14.246067188412,-4.63287173332466,11.9296313217496,-2.49016186088132,-9.43946946086832
0.679433084496376,-9.49157858149376,-14.4062918979009,-4.91471331640718,11.9489352396974,-2.28843263254329,-9.66050260715406
0.68159688412853,-9.39553546788846,-14.5313415955308,-5.13580612764237,11.9634385317096,-2.12986467012304,-9.8335738615866
0.683760683760684,-9.35555469617642,-14.6506851601482,-5.29513046397182,12.0031199281623,-2.0302121161023,-9.97290781206003
0.685924483392838,-9.39093085190586,-14.793353508953,-5.40242265704715,12.0921421804294,-1.99425409742936,-10.0978880830001
0.688088283024992,-9.51326996445957,-14.9876832221148,-5.47441325765527,12.2504765932872,-2.01942835340215,-10.2310482398851
0.690252082657146,-9.72759272424392,-15.2586261256101,-5.53103340136623,12.493109424927,-2.09827966143884,-10.3948297634882
0.6924158822893,-10.0287485924014,-15.6211467657772,-5.59239817337581,12.8249476790893,-2.21817520951277,-10.6067724695765
0.694579681921454,-10.3947436206655,-16.0713164611219,-5.67657284045641,13.2330300408937,-2.35908539010456,-10.8739446507892
0.696743481553608,-10.7816637481963,-16.5792252904121,-5.79756154221583,13.6804445193042,-2.49205110299022,-11.188393416314
0.698907281185762,-11.1255699078121,-17.0890161607391,-5.96344625292699,14.1072930342756,-2.58106182744254,-11.526231206833
0.701071080817916,-11.3542912473334,-17.529793291313,-6.17550204397965,14.4420422693232,-2.58939460167687,-11.8526476676463
0.70323488045007,-11.4069791512092,-17.8361830221963,-6.42920387098713,14.6215810867027,-2.48888764011101,-12.1326934465917
0.705398680082224,-11.254533516052,-17.9714089458779,-6.71687542982589,14.6129712309649,-2.26882904311305,-12.3441421878519
0.707562479714378,-10.9126735423286,-17.9428956497445,-7.03022210741595,14.4277845960365,-1.94122571745631,-12.4865588785802
0.709726279346533,-10.4418710497223,-17.8026010962343,-7.36073004651209,14.1222360729783,-1.54057050160509,-12.5816655713732
0.711890078978687,-9.93318327005144,-17.6305110381814,-7.69732776812991,13.7818471541164,-1.11792775096077,-12.6639194031556
0.714053878610841,-9.4844246531259,-17.5071993554736,-8.02277470234766,13.4958120042997,-0.730824975389124,-12.7649870289106
0.716217678242995,-9.1747076115949,-17.4865660470717,-8.31185843547681,13.3306368293333,-0.431424588059047,-12.8992122412743
0.718381477875149,-9.04556509309919,-17.5800135008766,-8.53444840777737,13.3127892969879,-0.25555834266091,-13.057230954327
0.720545277507303,-9.09422060850002,-17.7579840638873,-8.66376345538726,13.4261023361936,-0.215228576556381,-13.2108737596373
0.722709077139457,-9.2802705280385,-17.9666281714115,-8.686357643373,13.623449349725,-0.29695644233275,-13.3264929073923
0.724872876771611,-9.54211885003545,-18.1509210525601,-8.60880220252464,13.8465199512978,-0.466658323755402,-13.3798616275424
0.727036676403765,-9.81612084375637,-18.2741111664118,-8.45799032265546,14.0451160050841,-0.679065260550455,-13.3660507445336
0.729200476035919,-10.0516790332116,-18.3267149382082,-8.27503590499658,14.1891969857099,-0.888321564107494,-13.3008754216024
0.731364275668073,-10.2188778383191,-18.3236388806327,-8.10476104231362,14.2712583594759,-1.05705839800275,-13.2141999614732
0.733528075300227,-10.3089807096554,-18.2929740663115,-7.98399335665607,14.3009773879835,-1.16249367649968,-13.1384837114838
0.735691874932381,-10.3303872097742,-18.2630066100671,-7.93261940029287,14.2966969099206,-1.19888390474067,-13.09781300518
0.737855674564535,-10.3031539217688,-18.2537421400796,-7.95058821831072,14.2784480309242,-1.17628285172907,-13.1021651791951
0.740019474196689,-10.2543716603144,-18.275898627438,-8.02152696712367,14.2651351438762,-1.11642234659535,-13.1487127972809
0.742183273828844,-10.2153457666774,-18.3361415124825,-8.12079574580509,14.27574363958,-1.04727501043617,-13.2284686291438
0.744347073460998,-10.2201178424695,-18.4444933040397,-8.22437546157017,14.3323055732546,-0.997871190449654,-13.3344343828049
0.746510873093152,-10.3032435325547,-18.6187483671021,-8.31550483454738,14.4609959498284,-0.993869349003656,-13.4671266008247
0.748674672725306,-10.4933091249316,-18.881360699601,-8.38805157466944,14.6873349122663,-1.05262877513106,-13.6347061371352
0.75083847235746,-10.7988690177509,-19.2469856042427,-8.44811658649176,15.0229273109968,-1.17537621562959,-13.8475510953672
0.753002271989614,-11.1863188540277,-19.7027291412795,-8.51641028725181,15.4445239976536,-1.33495428338796,-14.1095697142657
0.755166071621768,-11.554232161789,-20.1863017469878,-8.63206958519874,15.8702669543884,-1.46108128829515,-14.4091856660932
0.757329871253922,-11.7139265495891,-20.5690723704416,-8.85514582085245,16.1414994600153,-1.42939036436834,-14.712109095647
0.759493670886076,-11.3883434972956,-20.6516863921438,-9.26334289484818,16.0200149447197,-1.06250030122372,-14.957514643496
0.76165747051823,-10.2385919923305,-20.1787733734773,-9.94018138114675,15.2086826829039,-0.149205305591897,-15.059477377312
0.763821270150384,-7.92082135381694,-18.8756631577786,-10.9548418039616,13.3982422557977,1.51701022507234,-14.9152524808701
0.765985069782538,-4.16764679797742,-16.5042922975029,-12.3366454995255,10.3359695477402,4.08449935077404,-14.4204688985142
0.768148869414692,1.12131283111925,-12.9285482746511,-14.0498611057703,5.90361772176591,7.58558696844478,-13.4892046902107
0.770312669046846,7.80433034968826,-8.17326073462966,-15.9775910843179,0.184465192470701,11.8909607170031,-12.0754259094738
0.772476468679,15.465220777136,-2.45915818261676,-17.9243789597528,-6.50303129725963,16.6947998684444,-10.1917685711848
0.774640268311154,23.4428685026378,3.79989399269117,-19.6429745099467,-13.6213812476645,21.5429215062923,-7.92154025862775
0.776804067943308,30.9246550321538,10.0425163794164,-20.8821386527374,-20.4835857057851,25.9033968424456,-5.41981113666048
0.778967867575463,37.0863292913914,15.6430160223036,-21.4433132690877,-26.3646726568475,29.2648212802395,-2.90014862339207
0.781131667207617,41.2455736380083,20.0168720836368,-21.2287015543715,-30.6312228608226,31.2371375961899,-0.605914735367346
0.783295466839771,42.9908927652965,22.7258373680701,-20.2650553972265,-32.8583650666833,31.6279740812615,1.2303909854218
0.785459266471925,42.2540577052107,23.55770727101,-18.6963504342007,-32.9058824881104,30.4752040697057,2.43067841840465
0.787623066104079,39.3106932121803,22.560659250188,-16.7500339619924,-30.9356762311841,28.0303635870863,2.90531264409779
0.789786865736233,34.7135754767999,20.0240679799928,-14.6895074968071,-27.3688217283963,24.7015414868035,2.66728024159282
0.791950665368387,29.1799919595864,16.4130042267122,-12.7669877328742,-22.7964980931493,20.9734898462303,1.82300824691899
0.794114465000541,23.4627295158153,12.2754982476191,-11.1872312681962,-17.8691138817172,17.3249803920058,0.544133489711449
0.796278264632695,18.2324097076664,8.14556224601232,-10.0868474616541,-13.1889859768393,14.1596285846602,-0.970642607820869
0.798442064264849,13.9903718516748,4.46184962609656,-9.52852222557828,-9.2261107388857,11.7594470386266,-2.53333629974086
0.800605863897003,11.0212690446273,1.51523193302834,-9.50603711159893,-6.26825048882781,10.2636530781131,-3.99540258928529
0.802769663529157,9.38609943125642,-0.569080667014483,-9.9551800982709,-4.40850938212097,9.67063976476366,-5.26213038264269
0.804933463161311,8.95032556326196,-1.81679993102234,-10.7671254942843,-3.56676281611981,9.85872552877313,-6.29196271265332
0.807097262793465,9.4378177415705,-2.36569050717846,-11.803508248749,-3.53606361719602,10.6206629951597,-7.08459937796371
0.809261062425619,10.498894358543,-2.41545015482206,-12.914344513365,-4.04172210186046,11.706619435954,-7.66489733409354
0.811424862057774,11.7795121516297,-2.17948488339885,-13.9589970350285,-4.80001363411541,12.8692545933291,-8.06924095921369
0.813588661689928,12.9796118358091,-1.8472309324755,-14.8268427682846,-5.56619045166678,13.9032273020468,-8.33703685038003
0.815752461322082,13.8920760878072,-1.55974609975997,-15.4518221875671,-6.1661649940236,14.6719491376871,-8.50578414366355
0.817916260954236,14.4182184102979,-1.39829226401838,-15.8165106743163,-6.50996307313979,15.1173645423071,-8.60740146916735
0.82008006058639,14.5599233375357,-1.38558548549866,-15.9455088230343,-6.5871689260185,15.252716080285,-8.66554715426648
0.822243860218544,14.392759780228,-1.49887664781853,-15.8916364280465,-6.44694156620473,15.1421981041372,-8.69525653793252
0.824407659850698,14.0284891160835,-1.69137193015391,-15.7198610462374,-6.16855859296478,14.8741750811604,-8.70561648819565
0.826571459482852,13.5778053175934,-1.91535390590966,-15.493159223503,-5.83122570584186,14.5354822705482,-8.70425656470634
0.828735259115006,13.1232957800026,-2.13940698639351,-15.2627027663961,-5.49194439680454,14.1929992731993,-8.7010548763948
0.83089905874716,12.7083360622519,-2.35485579881854,-15.0631918610704,-5.17674013171668,13.8857639616612,-8.70902382994448
0.833062858379314,12.3414777289905,-2.57171561605866,-14.9131933450491,-4.88488105646591,13.6273355370198,-8.7424544805539
0.835226658011468,12.0105782013934,-2.80878532612425,-14.8193635275177,-4.60089643763459,13.4149708644556,-8.81407442682097
0.837390457643622,11.6987159806397,-3.08359916151777,-14.7823151421575,-4.30755840956098,13.2405155613986,-8.93295715183764
0.839554257275776,11.3953692643791,-3.40616048443916,-14.8015297488183,-3.99460438996999,13.0984495065987,-9.10384511662873
0.84171805690793,11.100390197483,-3.77726097111423,-14.8776511685973,-3.66156461318441,12.9890206830402,-9.32745606985575
0.843881856540084,10.8225894496212,-4.18941082942043,-15.0120002790416,-3.31658931010038,12.9172948643314,-9.60070555423102
0.846045656172238,10.5763895192169,-4.62772845010089,-15.2041179693178,-2.97433053455803,12.8902537442674,-9.91592320970936
0.848209455804393,10.3785403008433,-5.06974591165376,-15.4482862124971,-2.65439719459477,12.9134132566702,-10.2590160620754
0.850373255436547,10.2450982172008,-5.48498643974928,-15.7300846569501,-2.38005588872576,12.9875914370755,-10.6075355483497
0.852537055068701,10.1889632030737,-5.83584503259444,-16.0248082356681,-2.17655908523961,13.1068857193709,-10.9303266341313
0.854700854700855,10.2190533345418,-6.0810749839988,-16.3001283185406,-2.0689891752715,13.2595908265412,-11.1906016512697
0.856864654333009,10.3415229906346,-6.18245544787532,-16.5239784385099,-2.07953377137964,13.4327507145723,-11.3532169431926
0.859028453965163,10.5614049194591,-6.11386407748799,-16.6752689969471,-2.22377042098554,13.6183369582031,-11.3945665372175
0.861192253597317,10.8817631239453,-5.87047957087506,-16.7522426948204,-2.50564177653513,13.8170029093829,-11.3113611328477
0.863356053229471,11.2987651762463,-5.47499809479176,-16.773763271038,-2.91188354072727,14.0362642236422,-11.1243806829149
0.865519852861625,11.7947295969655,-4.97784869385622,-16.7725782908218,-3.40844045155466,14.2836539438936,-10.875213492339
0.867683652493779,12.3342224658034,-4.4496796042207,-16.7839020700241,-3.94227143079137,14.5590622679138,-10.6167908371224
0.869847452125933,12.8675771667398,-3.96706597049926,-16.834643137239,-4.45025559812025,14.8511101519894,-10.4008545538691
0.872011251758087,13.3420434889564,-3.59541783521585,-16.9374613241722,-4.87331282687027,15.1397524065643,-10.266439579694
0.874175051390241,13.7164543987607,-3.37446974562089,-17.0909241443815,-5.17099232656988,15.4036892715711,-10.2326969450012
0.876338851022395,13.9735002583676,-3.31073903002785,-17.2842392883954,-5.33138061416986,15.6288697733815,-10.2974891592116
0.878502650654549,14.124525957517,-3.37896658054945,-17.5034925380665,-5.37277968848378,15.8140092477917,-10.4412295593079
0.880666450286704,14.204234554894,-3.53191132992913,-17.7361458848231,-5.33616161248242,15.9701902198585,-10.6340286073761
0.882830249918858,14.2562503288475,-3.71530451576364,-17.9715548446111,-5.27047290654192,16.1139025867293,-10.8434296801874
0.884994049551012,14.3146382931465,-3.88279215715303,-18.1974304502995,-5.21592306799671,16.256034371723,-11.0401113037263
0.887157849183166,14.3895137392577,-4.00542993847518,-18.3949436777329,-5.19204190039125,16.3922287084953,-11.200186808104
0.88932164881532,14.464310233555,-4.0726141488556,-18.5369243824106,-5.19584804234968,16.5006173079828,-11.3047692656331
0.891485448447474,14.5072258845267,-4.08550327173545,-18.5927291562622,-5.21086130639563,16.5499775203944,-11.3391162139988
0.893649248079628,14.4921853768551,-4.04733763718369,-18.5395230140388,-5.22242386983573,16.515854195447,-11.2934303256113
0.895813047711782,14.4193923737554,-3.95544955440901,-18.3748419281644,-5.23197140967318,16.3971171509599,-11.1651457412867
0.897976847343936,14.3251070647668,-3.7981684649915,-18.1232755297583,-5.26346929988766,16.2241912972626,-10.9607219973749
0.90014064697609,14.2748540660925,-3.55826243081974,-17.8331164969123,-5.3582958176364,16.0539852815024,-10.695689463866
0.902304446608244,14.3415640694319,-3.22261259294484,-17.5641766623767,-5.55947573824351,15.9528703659043,-10.3933946276608
0.904468246240398,14.5768287027778,-2.79467938650069,-17.3715080892785,-5.89107465813854,15.9741683960281,-10.0830937378896
0.906632045872552,14.9867067563423,-2.30384645351405,-17.2905532098564,-6.34143015141414,16.1386299830994,-9.79719983168522
0.908795845504706,15.5222136413072,-1.80616237188792,-17.3283760131951,-6.85802563470965,16.4252948272512,-9.56726919254153
0.91095964513686,16.0893399010923,-1.37415467007547,-17.4634945711678,-7.3575926155084,16.77641723613,-9.41882462062161
0.913123444769014,16.5760003233336,-1.07788759764959,-17.6538879209832,-7.74905636284203,17.1149441221584,-9.36588775931641
0.915287244401168,16.8865983846936,-0.963643568797522,-17.8502419534911,-7.96147740794803,17.3684201690923,-9.40694276114431
0.917451044033323,16.9720359865989,-1.03815086632754,-18.0101868529265,-7.96694256013569,17.4911114197627,-9.524168859627
0.919614843665477,16.845219875058,-1.26393293642244,-18.1091528114804,-7.79064346931778,17.4771863432692,-9.68654287395144
0.921778643297631,16.5778482209546,-1.56692644432118,-18.1447746652758,-7.50546088831671,17.3613114431152,-9.85585055479848
0.923942442929785,16.2808396973151,-1.85365435668424,-18.1344940539994,-7.21359267031545,17.2076668756573,-9.99407420534181
0.926106242561939,16.075767774354,-2.03288006223527,-18.1086478365893,-7.02144385605937,17.0922078054716,-10.0707639494123
0.928270042194093,16.0662098378139,-2.03580683652602,-18.1020166743399,-7.01520150064395,17.0841132560769,-10.068911755433
0.930433841826247,16.315949600969,-1.82970915048423,-18.1456587514533,-7.24312022524239,17.2308041762111,-9.98768395096874
0.932597641458401,16.8376603834056,-1.42216130448701,-18.2598216878926,-7.70774953945929,17.5487410356491,-9.84099149618981
0.934761441090555,17.5930510255569,-0.855793965445877,-18.4488449910028,-8.36862853005552,18.0209480082798,-9.65231947822433
0.936925240722709,18.5036092049082,-0.195690200811496,-18.6992994057197,-9.15395950204837,18.601454305314,-9.44749480326562
0.939089040354863,19.4694959563969,0.487321309303009,-18.9821746470939,-9.97840863284997,19.2258353017454,-9.24742666889545
0.941252839987017,20.3925789238672,1.13360025663364,-19.2589786672335,-10.7630895902504,19.8257787955503,-9.06268920529994
0.943416639619171,21.1979960782042,1.70733581800093,-19.4906602602033,-11.4526659481026,20.3443281692037,-8.89166222110118
0.945580439251325,21.8479487969089,2.20065501942138,-19.6472937774876,-12.0243019081652,20.7476212871983,-8.7233193790331
0.947744238883479,22.3433682272443,2.62768673529467,-19.7156814919496,-12.4855274812695,21.0295248595969,-8.54399737832746
0.949908038515634,22.7137018315818,3.01141012943169,-19.7022917021501,-12.8625559805067,21.2079967668659,-8.3454407863592
0.952071838147788,22.9997067238012,3.3691553728193,-19.6305513509819,-13.1844310483103,21.3151290373916,-8.13069798908132
0.954235637779942,23.2362964769757,3.70281051544966,-19.5334859615261,-13.4695534962127,21.3848912192509,-7.9153377230382
0.956399437412096,23.441760809903,3.99766591245441,-19.4440948974486,-13.7197133611787,21.4429278536758,-7.72321449249709
0.95856323704425,23.6167334839711,4.2302480110534,-19.3864854729177,-13.9234907475123,21.5016094784444,-7.57811873093217
0.960727036676404,23.7521665578469,4.3816708706776,-19.3704956871693,-14.0669187142622,21.5613311225081,-7.49441240824584
0.962890836308558,23.8419652495522,4.45077135071736,-19.3911938988349,-14.1463683001348,21.6165795741936,-7.47021127405877
0.965054635940712,23.8943094595296,4.46143364791904,-19.4328758116106,-14.1778715537243,21.6635926355701,-7.48572108184578
0.967218435572866,23.9365587061541,4.4606748893709,-19.4758838167832,-14.1986167977625,21.7062212614687,-7.50760446370617
0.96938223520502,24.0117540984016,4.50765567417234,-19.5040984242293,-14.259704886287,21.7579262613155,-7.49822137502848
0.971546034837174,24.1685962933722,4.65758838877192,-19.5110079046003,-14.4130923410721,21.8398020989863,-7.42670975791419
0.973709834469328,24.4491769992085,4.94668034728197,-19.5024966519265,-14.6979286732452,21.9758368255675,-7.27790815232227
0.975873634101482,24.8788733761319,5.38379045863486,-19.4950829174971,-15.1313319173834,22.1869781468145,-7.0556462294311
0.978037433733636,25.461332293149,5.95175899731916,-19.5095732958298,-15.7065456452341,22.4854527944894,-6.77890714925533
0.98020123336579,26.178985189672,6.61721946088101,-19.561765728791,-16.3981023252765,22.8703754592315,-6.47227313395498
0.982365032997944,26.9971948074243,7.34366801379984,-19.6535267936245,-17.1704314106121,23.3253608005244,-6.15492938991233
0.984528832630098,27.8697370013555,8.10116459744505,-19.7685724039105,-17.9854507994003,23.819154702633,-5.8337039032327
0.986692632262253,28.7447637504808,8.8685689217736,-19.8761948287072,-18.8066663361272,24.310479289594,-5.50381295346681
0.988856431894407,29.571439868764,9.62895728987995,-19.942482578884,-19.600198579322,24.756961223824,-5.15676264450203
0.991020231526561,30.3069731082014,10.3627987978669,-19.9441743103345,-20.3348859530342,25.125573709268,-4.79068775623378
0.993184031158715,30.9227361267152,11.0444810232125,-19.8782551035027,-20.9836085749638,25.4004956151089,-4.41688704014511
0.995347830790869,31.4077153321599,11.64516229376,-19.7625530383999,-21.5264388129599,25.5851341852799,-4.05869537231995
0.997511630423023,31.7680923244016,12.1402166552955,-19.6278756691061,-21.9541544898485,25.6979839967539,-3.74382950690531
0.999675430055177,32.023273579395,12.5163758469234,-19.5068977324716,-22.2698247131592,25.7650856559333,-3.49526094277411
1.00183922968733,32.2001082029311,12.7744769469346,-19.4256312559964,-22.4872925749329,25.8128697294638,-3.3255771545309
1.00400302931949,32.3273134112653,12.927175574703,-19.4001378365623,-22.6272444929842,25.8637256239138,-3.23648113092965
1.00616682895164,32.4313319761438,12.9939047960818,-19.437427180062,-22.7126183861128,25.9343795781029,-3.22176119199007
1.00833062858379,32.5335471945789,12.9958285049951,-19.5377186895838,-22.764687849787,26.0356329420813,-3.27094509229438
1.01049442821595,32.6475804488201,12.9520469103221,-19.695533538498,-22.7998136795711,26.171556993659,-3.37174331408794
1.0126582278481,32.7755404590676,12.8769164790918,-19.8986239799758,-22.8262284690797,26.3370822195217,-3.51085375044201
1.01482202748026,32.9042967213153,12.7784159399081,-20.1258807814072,-22.8413563306117,26.5150887513613,-3.67373242074954
1.01698582711241,33.0050806858116,12.6581645394537,-20.3469161463579,-22.8316226126326,26.6759984160847,-3.84437580345208
1.01914962674456,33.038970543024,12.513437262335,-20.525533280689,-22.7762039026795,26.7822519118565,-4.00604800917702
1.02131342637672,32.9673635304849,12.340476764153,-20.6268867663319,-22.6539201473189,26.7971251484084,-4.14320500108949
1.02347722600887,32.7635403775816,12.1377001787026,-20.625840198879,-22.4506202781421,26.6946902882303,-4.24407001008818
1.02564102564103,32.4208419352855,11.9073075175945,-20.5135344176911,-22.16407472644,26.4671881764883,-4.3031134500483
1.02780482527318,31.9545176070912,11.6543351176321,-20.3001824894591,-21.8044263623616,26.1273500482752,-4.32292368591353
1.02996862490533,31.3969033990178,11.3836339949924,-20.0132694040254,-21.3902686970051,25.7050864015216,-4.31481770451653
1.03213242453749,30.7879183010034,11.0966859997562,-19.6912323012472,-20.9423021503798,25.2395753011253,-4.29727315074554
1.03429622416964,30.1639839284001,10.7900937476905,-19.3738901807096,-20.4770388380453,24.7689370545549,-4.29189821650959
1.0364600238018,29.5486178457792,10.4562839718109,-19.0923338739683,-20.002450908795,24.3204758598738,-4.31802495107873
1.03862382343395,28.9475252280642,10.0858072169523,-18.8617180111118,-19.5166662225082,23.904621619588,-4.38795539707976
1.0407876230661,28.34958810777,9.66983563095339,-18.6797524768166,-19.0097118693617,23.5146702922933,-4.50495842293159
1.04295142269826,27.7327488188484,9.20107422505954,-18.5316745937888,-18.4669115219539,23.1322117063186,-4.66530018436464
1.04511522233041,27.0717740684474,8.67222009247579,-18.3995539759716,-17.8719970804616,22.7356640222095,-4.86366694174793
1.04727902196257,26.3446389939151,8.07324542466574,-18.2713935692493,-17.2089422092904,22.3080162815822,-5.0990740722918
1.04944282159472,25.5359091342013,7.39018679016795,-18.1457223440333,-16.4630479621846,21.8408157391173,-5.37776777693268
1.05160662122687,24.6379044791381,6.6074234007566,-18.0304810783815,-15.6226639399474,21.3341927787598,-5.71152883881246
1.05377042085903,23.6517392485172,5.71345904908095,-17.9382801994363,-14.6825991487991,20.7950097239768,-6.11241057517767
1.05593422049118,22.5894258600321,4.70850930128366,-17.8809165587484,-13.6489675806579,20.2351712093902,-6.58620362873237
1.05809802012334,21.4762118106275,3.611201006046,-17.8650108045815,-12.5437064083368,19.6706113076045,-7.12690489926778
1.06026181975549,20.3511915479962,2.46118982150911,-17.8900017264871,-11.4061906847526,19.1205966372416,-7.71440595248897
1.06242561938764,19.2645450521226,1.31498510904717,-17.9495599430754,-10.2897650805849,18.607052497599,-8.31728741701411
1.0645894190198,18.270933196159,0.234877742319463,-18.0360554538396,-9.25290546923925,18.1534943249993,-8.90058885576005
1.06675321865195,17.4202153646739,-0.725013213629242,-18.1452285783032,-8.34760107552234,17.7827219714885,-9.4351208959662
1.06891701828411,16.747919117451,-1.5293745793986,-18.2772936968497,-7.60927226902622,17.5126064071504,-9.90333413812413
1.07108081791626,16.2677290328127,-2.16513630834473,-18.4328653411574,-7.05129636223397,17.350297186985,-10.2990008247511
1.07324461754842,15.967241564511,-2.63853088512874,-18.6057724496398,-6.66435533969115,17.2865070070754,-10.6221516673843
1.07540841718057,15.8079833789607,-2.9694056808045,-18.7773890597652,-6.41928884907812,17.292686219363,-10.8733973702849
1.07757221681272,15.7310656031799,-3.18594089437338,-18.9170064975533,-6.27256235440326,17.3240360503666,-11.0514736959633
1.07973601644488,15.6690198666436,-3.32073543248599,-18.9897552991296,-6.1741422170788,17.3293875828866,-11.1552453658078
1.08189981607703,15.5618602491812,-3.40723127403316,-18.9690915232144,-6.07731448757404,17.2654758861978,-11.1881613986238
1.08406361570919,15.3728974983674,-3.47500490082961,-18.847902399197,-5.9489462987689,17.1103999487822,-11.1614536500133
1.08622741534134,15.0989335327765,-3.54397537733478,-18.6429089101113,-5.77747907772086,16.8709212214439,-11.093442143723
1.08839121497349,14.7706091100068,-3.61982919933547,-18.3904383093423,-5.57538995533567,16.5805237096745,-11.0051337543389
1.09055501460565,14.4416314124326,-3.69391859115431,-18.1355500035869,-5.37385641063916,16.2885907080098,-10.9147342973706
1.0927188142378,14.1696291752357,-3.74937920403392,-17.9190083792696,-5.21012498560089,16.0443187772527,-10.8341937916518
1.09488261386996,13.9949359617977,-3.77164009208602,-17.7665760538837,-5.11164793485583,15.8807560078407,-10.7691080729849
1.09704641350211,13.9248586074832,-3.7581844238762,-17.6830430313594,-5.08333709180348,15.8039508194213,-10.7206137276178
1.09921021313426,13.9290268328923,-3.72252582450503,-17.6515526573973,-5.10325050419362,15.7902897451448,-10.6870392409512
1.10137401276642,13.9471897241619,-3.69129382055514,-17.6384835447171,-5.1279479518034,15.7928366344395,-10.6648886826361
1.10353781239857,13.9066280095663,-3.69734007426818,-17.6039680838344,-5.10464396764904,15.7552980467003,-10.6506540790513
1.10570161203073,13.7438382220281,-3.7724698666716,-17.5163080886997,-4.98568417767825,15.6300731553639,-10.6443889776857
1.10786541166288,13.4242744189857,-3.94153137826126,-17.3658057972469,-4.74137152036221,15.3950401081163,-10.6536685877541
1.11002921129503,12.9541709420599,-4.21785683955303,-17.1720277816129,-4.36815705125342,15.0630993618364,-10.694942310583
1.11219301092719,12.3799944976941,-4.59973437106531,-16.9797288687594,-3.89013006331439,14.6798616832267,-10.7897316199123
1.11435681055934,11.7744798064021,-5.06844399461601,-16.8429238010181,-3.35301790589303,14.3087018037101,-10.955683897817
1.1165206101915,11.21328055406,-5.58929982881474,-16.8025803828748,-2.81199036262264,14.0079304684674,-11.1959401058448
1.11868440982365,10.7507726126125,-6.11673650735598,-16.8675091199684,-2.31701805262824,13.8091408662905,-11.4921228136622
1.1208482094558,10.4043414547373,-6.60261123007176,-17.0069526848091,-1.90086511233279,13.7056470697732,-11.8047819574404
1.12301200908796,10.1530582377486,-7.00501633875514,-17.1580745765037,-1.57402094949671,13.6555664071261,-12.0815454576294
1.12517580872011,9.9514699092935,-7.29445299191469,-17.2459229012082,-1.3285084586894,13.5986964052508,-12.2701879465614
1.12733960835227,9.75404938879868,-7.45547962897557,-17.2095290177742,-1.14928487991155,13.4817892032865,-12.3325043233749
1.12950340798442,9.5411034529621,-7.484202610819,-17.0253060637811,-1.02845042107155,13.2832047583716,-12.2547543373
1.13166720761657,9.33485352595452,-7.38379483368076,-16.7186483596353,-0.975529346136882,13.0267509427949,-12.051221596658
1.13383100724873,9.19790906746731,-7.16043170961585,-16.3583407770832,-1.01873867892573,12.7781249222752,-11.7593862433495
1.13599480688088,9.21415996612444,-6.82108184931094,-16.0352418154354,-1.19653905840675,12.6247008907799,-11.4281618323732
1.13815860651304,9.45924977470711,-6.37372878741208,-15.8329785621192,-1.54276049364751,12.6461141684131,-11.1033536747656
1.14032240614519,9.97110030041117,-5.82989357458714,-15.8009938749983,-2.07060336291201,12.8860470877047,-10.8154437247927
1.14248620577735,10.7305926611177,-5.20827353366613,-15.9388661947838,-2.76115956372577,13.3347294279507,-10.573569864225
1.1446500054095,11.659162018405,-4.53740955799436,-16.1965715763993,-3.56087623020531,13.9278667974022,-10.3669905671968
1.14681380504165,12.634420774218,-3.85541376986291,-16.4898345440809,-4.38950350217755,14.5621276591495,-10.1726241569719
1.14897760467381,13.5188806884139,-3.20605883415849,-16.7249395225724,-5.15641092712769,15.1219101054931,-9.96549917836543
1.15114140430596,14.1926117461886,-2.63237636620991,-16.8249881123986,-5.78011768998937,15.5087999292936,-9.72868223930423
1.15330520393812,14.5795465791069,-2.1702125006586,-16.7497590797655,-6.20466703922414,15.6646528294362,-9.45998579021204
1.15546900357027,14.6596519271076,-1.84390807952509,-16.5035600066327,-6.40787192379127,15.5816059668702,-9.17373404307891
1.15763280320242,14.4646500815755,-1.6647747460015,-16.129424827577,-6.39993766778702,15.2970374545763,-8.89709978678927
1.15979660283458,14.0610491152422,-1.63179416957344,-15.6928432848157,-6.2146274728344,14.876946200029,-8.66231872719456
1.16196040246673,13.528367714799,-1.73367513821612,-15.2620428530151,-5.89734628829143,14.3952052839071,-8.49785899561562
1.16412420209889,12.940865182426,-1.95162255345362,-14.8924877358796,-5.49462131448617,13.9166764591528,-8.4220551446666
1.16628800173104,12.3573983708468,-2.26238277306937,-14.6197811439162,-5.04750779888874,13.4885897573815,-8.44108195849279
1.16845180136319,11.8187547883611,-2.64100152515554,-14.4597563135166,-4.58887663160276,13.1392555509388,-8.55037891933607
1.17061560099535,11.3493020081222,-3.06234623212128,-14.4116482402435,-4.14347788800048,12.8804751241829,-8.7369972361824
1.1727794006275,10.9611114993393,-3.50071884232724,-14.4618303416665,-3.73019632850603,12.7114709205029,-8.98127459199689
1.17494320025966,10.660270161283,-3.92819841014235,-14.5884685714253,-3.3660358755703,12.6243693663541,-9.25833349078384
1.17710699989181,10.4540547806018,-4.31334665457607,-14.7674014351779,-3.07035406301287,12.6107281078898,-9.54037404487697
1.17927079952396,10.355657170103,-4.62154729059407,-14.9772044606971,-2.86705493975448,12.6664308154001,-9.79937587564558
1.18143459915612,10.3831798264878,-4.81753415851893,-15.2007139850067,-2.78282283398442,12.7919469057472,-10.0091240717628
1.18359839878827,10.5520819760562,-4.87052068707943,-15.4226026631356,-2.84078064448837,12.9873423195959,-10.1465616751075
1.18576219842043,10.8634496383881,-4.76197110903528,-15.6254207474234,-3.05073926467643,13.2444351929058,-10.1936959282293
1.18792599805258,11.2926401893804,-4.49472753848379,-15.7873677278642,-3.39895632544831,13.5400039586223,-10.141047633174
1.19008979768473,11.7832797708349,-4.10047038112525,-15.8837501519601,-3.84140469485482,13.8335149613975,-9.99211026654269
1.19225359731689,12.2506951710979,-3.64116292253606,-15.891858093634,-4.30476612428094,14.071276632366,-9.76651050808503
1.19441739694904,12.5969773610113,-3.20034186012424,-15.7973192211355,-4.69831775044353,14.1971482910734,-9.49883054062989
1.1965811965812,12.736298091175,-2.86336577045205,-15.599663861627,-4.93646616036146,14.167980976401,-9.23151481603954
1.19874499621335,12.6237842095193,-2.69152431011518,-15.3153085196345,-4.96612994970208,13.9695463645769,-9.00341641487485
1.2009087958455,12.2767625566475,-2.69978908623817,-14.9765516428857,-4.78848673520469,13.6266570997666,-8.83817036456194
1.20307259547766,11.7774192042213,-2.84853212647936,-14.6259513307006,-4.46444353887096,13.201685267461,-8.73724172859
1.20523639510981,11.2525785958445,-3.05475358588635,-14.3073321817309,-4.09891250497908,12.7799553887877,-8.6810428838086
1.20740019474197,10.8366142241714,-3.21984265911856,-14.0564568832899,-3.8083857825264,12.4465355537306,-8.63814977120424
1.20956399437412,10.6314439833918,-3.26300676580137,-13.8944507491931,-3.6842186087952,12.2629473662925,-8.57872875749725
1.21172779400628,10.6784032794111,-3.1472632602342,-13.8256665396453,-3.76557000958846,12.2520349095282,-8.48646489993976
1.21389159363843,10.9507907436375,-2.88924071467801,-13.8400314583155,-4.03077501447975,12.3954111009765,-8.36463608649677
1.21605539327058,11.3672400935226,-2.55119456479814,-13.9184346583207,-4.40802276436221,12.6428373759216,-8.23481461155943
1.21821919290274,11.8188720899051,-2.21959714662153,-14.0384692365266,-4.7996374716418,12.9286706632159,-8.12903319157408
1.22038299253489,12.1996661304442,-1.97784734427954,-14.1775134747238,-5.11090939308234,13.188589802584,-8.07768040950165
1.22254679216705,12.4307131747452,-1.88103410204058,-14.3117472767858,-5.27483953635232,13.3712302257655,-8.09639068941319
1.2247105917992,12.4740365226542,-1.93921922019768,-14.4132557428519,-5.26740865122825,13.443646132753,-8.17623748152478
1.22687439143135,12.3367526228846,-2.11360345231333,-14.4503560751979,-5.11157458528562,13.3935543490412,-8.28197976375561
1.22903819106351,12.0678914136564,-2.32701857375764,-14.394909987414,-4.87043641994938,13.2314007005352,-8.36096428058584
1.23120199069566,11.748545081774,-2.48584786376702,-14.234392945541,-4.63134860900349,12.9914690136575,-8.36012040465402
1.23336579032782,11.474739361061,-2.50643846218383,-13.9811778232448,-4.4841504494386,12.7279585921529,-8.24380814271434
1.23552958995997,11.3342608001323,-2.3378490902158,-13.6721098903481,-4.49820585495826,12.5031853452402,-8.00497949028196
1.23769338959212,11.3829189042804,-1.97440438973823,-13.3573232940187,-4.7042572572711,12.3701210991496,-7.66586384187845
1.23985718922428,11.6288150513151,-1.45473063019097,-13.0835456815061,-5.08704221056207,12.3561803664106,-7.26913815584853
1.24202098885643,12.0316324790412,-0.848270173701471,-12.8799026527427,-5.59168115266986,12.4557675658919,-6.86408641322206
1.24418478848859,12.5177067367087,-0.234637448361909,-12.7523441850706,-6.14153464417337,12.6350254608896,-6.49349081671624
1.24634858812074,13.0045270688043,0.316719642609047,-12.6878074261953,-6.6606233557067,12.8461672474998,-6.18554389179313
1.24851238775289,13.4246539256926,0.760273874945543,-12.6643800507471,-7.09246390031908,13.0445169882198,-5.95205308790077
1.25067618738505,13.7404169474166,1.07860805820066,-12.661808889216,-7.40951250280864,13.2011129183163,-5.79160041550765
1.2528399870172,13.9457900669918,1.27783492597876,-12.667955141013,-7.61181249648527,13.3068726040024,-5.69506010751712
1.25500378664936,14.0574097996918,1.37789334409917,-12.6795164555927,-7.71765157189551,13.3684631276423,-5.65081155574675
1.25716758628151,14.1001660749036,1.40213149779373,-12.6980345771099,-7.75114878634866,13.3991003260067,-5.64795153965807
1.25933138591366,14.0937079611445,1.36952595425642,-12.7241820068881,-7.73161695770048,13.4089449840163,-5.67732802631585
1.26149518554582,14.0452636611131,1.29154261045625,-12.7537210506568,-7.66840313578468,13.399492355885,-5.7310892201003
1.26365898517797,13.9515270003593,1.17459662625433,-12.776930374105,-7.56306181330684,13.3642286872322,-5.80116687392534
1.26582278481013,13.8084949602386,1.02749294771587,-12.7810020125227,-7.41799395397723,13.2947484863807,-5.87675453240343
1.26798658444228,13.6248064613221,0.870908888792429,-12.7538975725297,-7.24785767505729,13.1893520169259,-5.94149434186864
1.27015038407443,13.4327663620659,0.744116869523822,-12.6886494925421,-7.08844161579485,13.060707927304,-5.97226631150912
1.27231418370659,13.2918283955029,0.704312900857593,-12.5875154946453,-6.99807064818024,12.9396719450741,-5.94160129689385
1.27447798333874,13.2814963179977,0.816700936895736,-12.4647953811019,-7.04909862744669,12.8731458495498,-5.82404722210309
1.2766417829709,13.4839920121692,1.13756630931115,-12.346425702858,-7.31077916074017,12.9152088575136,-5.60442969677344
1.27880558260305,13.9604535326733,1.69555367524676,-12.2648998574265,-7.82800360396001,13.1126766950499,-5.28467309108987
1.28096938223521,14.7267693934364,2.47708516149064,-12.2496842319458,-8.60192727746354,13.4882268126911,-4.88629953522758
1.28313318186736,15.7363402788056,3.42089961411814,-12.3154406646875,-9.57861994646188,14.0258904717465,-4.44727052528467
1.28529698149951,16.8767182098674,4.42456278918949,-12.4521554206779,-10.6506404995284,14.6644368152726,-4.01379631574421
1.28746078113167,17.9840558041837,5.36239713965993,-12.6216586645237,-11.6732264719218,15.3028572343537,-3.6296307624319
1.28962458076382,18.8738051048495,6.11036110244619,-12.7634440024033,-12.4920831036479,15.8186245536264,-3.32654144997857
1.29178838039598,19.3806924968936,6.57082674572641,-12.8098657511672,-12.97575962131,16.0952791240304,-3.11951950272038
1.29395218002813,19.3982582914924,6.69058201941098,-12.7076762720814,-13.0444201554517,16.0529672817869,-3.0085471263352
1.29611597966028,18.908459463713,6.46875636337292,-12.4397031003401,-12.688607913543,15.6740812820265,-2.98547336848358
1.29827977929244,17.9936642886502,5.95541765856322,-12.038246630087,-11.9745409736067,15.0159554593686,-3.04141448576188
1.30044357892459,16.8262692874669,5.24314523556278,-11.5831240519041,-11.0347072615148,14.2046966696855,-3.16998940817066
1.30260737855675,15.6357594514505,4.45263232953717,-11.1831271219133,-10.0441958904938,13.4094432866819,-3.36524739618806
1.3047711781889,14.6589925960575,3.71241252171964,-10.9465800743379,-9.18570255888857,12.8027863351977,-3.61708377630911
1.30693497782105,14.0846685168007,3.134317325583,-10.9503511912177,-8.60949292119187,12.5175098540092,-3.90801693281737
1.30909877745321,14.0053717486864,2.78903965384133,-11.2163320948451,-8.39720570126388,12.6108519217658,-4.21364622050188
1.31126257708536,14.3899369113832,2.68806209319498,-11.7018748181883,-8.5389995022891,13.0459058647857,-4.50690636249664
1.31342637671752,15.0852892731194,2.77808128505438,-12.307207988065,-8.93168527908687,13.6962486305922,-4.76456335150531
1.31559017634967,15.8500238616254,2.95137799310812,-12.8986458685173,-9.40070092736677,14.3743348650714,-4.97363393770459
1.31775397598182,16.4127976862241,3.07099588747042,-13.3418017987537,-9.74189678684725,14.8772997424889,-5.13540295564162
1.31991777561398,16.5405273185805,3.00512674776945,-13.5354005708111,-9.77282703317499,15.0379639446958,-5.26513691152082
1.32208157524613,16.0977911651574,2.66209174341911,-13.4356994217383,-9.37994145428825,14.7667452934478,-5.38680383915958
1.32424537487829,15.0808237741844,2.01612012809837,-13.0647036460861,-8.54847195114141,14.0727637101353,-5.52429175899385
1.32640917451044,13.6165655648404,1.11579346562326,-12.5007720992172,-7.36617951523185,13.0586688320288,-5.69248931679696
1.32857297414259,11.927702744376,0.0720934102552503,-11.8556093341208,-5.99989807731563,11.8916560392484,-5.89175796193275
1.33073677377475,10.2748942728098,-0.970401023501757,-11.2452952963116,-4.65224662465403,10.7600947845607,-6.10784815990666
1.3329005734069,8.89344664419784,-1.87024931587435,-10.7636959600722,-3.51159866416174,9.82857130213502,-6.31697263797328
1.33506437303906,7.94178157342058,-2.52264019864562,-10.4644217720662,-2.70957068738748,9.20310167274339,-6.49353098535591
1.33722817267121,7.47387958348139,-2.88029855559588,-10.3541781390773,-2.29679051394276,8.91402886127933,-6.61723834733657
1.33939197230336,7.43973615000034,-2.95768951129758,-10.3974256612979,-2.24102331935138,8.91858090564913,-6.67755758629775
1.34155577193552,7.70973600515105,-2.82019354843204,-10.5299295535831,-2.4447712283595,9.11983277936707,-6.67506155100757
1.34371957156767,8.11324380197057,-2.56376044803765,-10.6770042500082,-2.77474167696646,9.39512402598939,-6.62038234902293
1.34588337119983,8.4797586203009,-2.29182123295234,-10.7715798532532,-3.09396869367428,9.62566923677707,-6.53170054310279
1.34804717083198,8.67270758307909,-2.09522545777446,-10.7679330408536,-3.28874106265231,9.72032031196632,-6.43157924931401
1.35021097046414,8.61020276444054,-2.03834583128292,-10.6485485957235,-3.28592846657881,9.629375680082,-6.34344721350319
1.35237477009629,8.27151058415838,-2.15191652278442,-10.4234271069428,-3.05979703068698,9.34746884555059,-6.28767181486361
1.35453856972844,7.69094359288282,-2.4320877759099,-10.1230313687927,-2.62942790848646,8.90698748083777,-6.27755957235131
1.3567023693606,6.94278288929082,-2.84505310885324,-9.78783599814406,-2.04886489021879,8.36530944371744,-6.31644455349865
1.35886616899275,6.12224553094134,-3.33616299648741,-9.45840852742875,-1.39304126722697,7.79032702918505,-6.39728576195808
1.36102996862491,5.32758070133878,-3.84167995750772,-9.1692606588465,-0.742950371915531,7.24842068009264,-6.50547030817711
1.36319376825706,4.64652254070269,-4.30078661654497,-8.94730915724765,-0.17286796207886,6.79691584897517,-6.62404788689631
1.36535756788921,4.14770313683234,-4.66531177841916,-8.8130149152515,0.258804320793411,6.48035902604192,-6.73916334683533
1.36752136752137,3.8758063430728,-4.90542804835713,-8.78123439142993,0.514810852642162,6.32852036725137,-6.84333121989353
1.36968516715352,3.84869133311075,-5.0114300916625,-8.86012142477325,0.581369379275878,6.354406378942,-6.93577575821788
1.37184896678568,4.05517025280996,-4.99312315687819,-9.04829340968815,0.468976452034115,6.55173183124905,-7.02070828328317
1.37401276641783,4.45341906310395,-4.87797513953793,-9.33139420264188,0.212278038216993,6.89240663287292,-7.10468467108991
1.37617656604998,4.97192254964201,-4.70771052833574,-9.67963307797775,-0.132106010653137,7.32577781380988,-7.19367180315674
1.37834036568214,5.51635064954794,-4.5320544311132,-10.0484050806611,-0.492148109217368,7.78237786510454,-7.29022975588718
1.38050416531429,5.98490904031538,-4.39880010903071,-10.3837091493461,-0.793054465642334,8.18430909483073,-7.3912546291884
1.38266796494645,6.29060623449887,-4.3412397247287,-10.6318459592276,-0.974683254885086,8.46122609686322,-7.48654284197813
1.3848317645786,6.38370230745783,-4.36626812916923,-10.7499704366271,-1.0087170891443,8.56683637204245,-7.55811928289814
1.38699556421075,6.26527542512318,-4.44799255925589,-10.7132679843791,-0.908641432933645,8.48927170475112,-7.58063027181748
1.38915936384291,5.98529548043494,-4.53184259789451,-10.5171380783294,-0.726726441270212,8.25121677938219,-7.52449033811198
1.39132316347506,5.62437962704859,-4.55187641406693,-10.1762560411155,-0.536251606490829,7.90031783408205,-7.36406622759122
1.39348696310722,5.26462192184769,-4.45817671547091,-9.7227986373186,-0.403222603188385,7.49371027958314,-7.09048767639476
1.39565076273937,4.95919364898907,-4.24418304547509,-9.20337669446415,-0.35750530175699,7.08128517172661,-6.72377986996962
1.39781456237152,4.71180738238915,-3.96073456011441,-8.67254194250356,-0.375536411137374,6.69217466244636,-6.31663825130898
1.39997836200368,4.47589704262805,-3.70729404842379,-8.18319109105184,-0.38430149710213,6.32954406683995,-5.94524256973782
1.40214216163583,4.17946444376452,-3.59905278266235,-7.77851722642687,-0.290205830551085,5.97899083509569,-5.68878500454461
1.40430596126799,3.77374330290517,-3.71729535239872,-7.49103865530389,-0.0282239752532247,5.63239097910453,-5.6041670038513
1.40646976090014,3.29268087430667,-4.05679799446748,-7.34947886877416,0.382058560080405,5.32107987154041,-5.70313843162082
1.40863356053229,2.90110857703746,-4.48676432757049,-7.38787290460796,0.792827875266514,5.14449074082271,-5.93731861608923
1.41079736016445,2.90900389063195,-4.74021845843127,-7.64922234906322,0.915607283899661,5.27911311984758,-6.19472040374725
1.4129611597966,3.73860416208617,-4.44094707411587,-8.17955123620204,0.351171456014849,5.95907769914411,-6.31024915515895
1.41512495942876,5.84544747551389,-3.16785826191283,-9.01330573742672,-1.33879460680053,7.42937660647031,-6.09058199966977
1.41728875906091,9.60812295594738,-0.546148895595009,-10.1542718515424,-4.53098703017619,9.88119740374489,-5.3502103735687
1.41945255869307,15.2114651266934,3.65377402404662,-11.5576911026468,-9.43261957536999,13.3845781146701,-3.95195853930007
1.42161635832522,22.5524239583034,9.43266010573922,-13.1197638525642,-15.9925420320213,17.8360939054338,-1.84355187341247
1.42378015795737,31.1958756927798,16.5161060577385,-14.6797696350413,-23.8559908752591,22.9378226639105,0.918168211348599
1.42594395758953,40.3991833302863,24.3616810463586,-16.0375022839276,-32.3804321883224,28.2183428071069,4.16208938121549
1.42810775722168,49.2101627809134,32.2250237537049,-16.9851390272085,-40.7175932673091,33.0976509040609,7.61994236324818
1.43027155685384,56.6249743007491,39.2767504227235,-17.3482238780256,-47.9508623617363,36.9865990893874,10.964263272349
1.43243535648599,61.7740346270763,44.7479921825308,-17.0260424445455,-53.2610134048035,39.4000385358109,13.8609748689926
1.43459915611814,64.091583769525,48.0717921973054,-16.0197915722196,-56.0816879834152,40.0556876708723,16.0260003125429
1.4367629557503,63.4247255149495,48.9853387461565,-14.439386768793,-56.205032130553,38.9320561418712,17.2729759886817
1.43892675538245,60.0530150092641,47.567569249877,-12.4854457593871,-53.8102921295705,36.2692303843256,17.541061745245
1.44109055501461,54.6151461099839,44.2054647886017,-10.4096813213822,-49.4103054492928,32.5124137156831,16.8978917336098
1.44325435464676,47.9653690397683,39.5021276918324,-8.4632413479359,-43.7337483658004,28.2143051938521,15.5194431719483
1.44541815427891,40.9999409577195,34.152963878103,-6.84697707961647,-37.5764524179113,23.923459018668,13.6529933992433
1.44758195391107,34.4980396610198,28.8203776995458,-5.677661961474,-31.6592086802828,20.0878508112469,11.5713578690359
1.44974575354322,29.011832177052,24.0334505282731,-4.97838164877896,-26.5226413526625,16.9951069129155,9.52753443974705
1.45190955317538,24.8216539533644,20.1296008348548,-4.69205311850962,-22.4756273941096,14.756853535937,7.71877385817258
1.45407335280753,21.9525429723235,17.2430402412164,-4.70950273110705,-19.5977916067699,13.3310228517153,6.26676875505468
1.45623715243968,20.2343573422179,15.3328996406762,-4.90145770154167,-17.7836284914471,12.5679075218798,5.21572096956728
1.45840095207184,19.382119007025,14.2355734598962,-5.14654554712879,-16.8088462334606,12.2643322770769,4.5445139563837
1.46056475170399,19.0753549800216,13.7239300442097,-5.35142493581192,-16.3996425121156,12.2133899579168,4.18625255419888
1.46272855133615,19.0218874628553,13.5600577110149,-5.46182975184039,-16.2909725869351,12.2418586073479,4.04911397958727
1.4648923509683,18.9988693706155,13.5343817724044,-5.46448759821116,-16.2666255715099,12.2316784844133,4.0349470870966
1.46705615060045,18.8697797525255,13.4892810123694,-5.3804987401561,-16.1795303824474,12.1251392463408,4.05439113610665
1.46921995023261,18.5804905164338,13.3290764470994,-5.25141406933441,-15.9547834817666,11.9159522928841,4.03883118888251
1.47138374986476,18.1403917143578,13.0198351584415,-5.12055655591631,-15.5801134363996,11.630474135137,3.94963930126258
1.47354754949692,17.5957132984029,12.5813150831712,-5.01439821523167,-15.088514190787,11.3050557568173,3.78345843396976
1.47571134912907,17.0021559473296,12.0714898853245,-4.93066606200504,-14.5368229163271,10.9664110046673,3.57041191165975
1.47787514876122,16.4033251245601,11.5644382398611,-4.83888688469893,-13.9838816822106,10.6211060046295,3.3627756775811
1.48003894839338,15.8197237483703,11.1253522538399,-4.69437149453037,-13.4725380011051,10.2570476214503,3.21549037965476
1.48220274802553,15.2496568706171,10.7894960627271,-4.46016080789008,-13.0195764666721,9.85490883925361,3.16466762741849
1.48436654765769,14.6792824777473,10.5522903902413,-4.12699208750599,-12.6157864339943,9.40313728262664,3.21264915136765
1.48653034728984,14.0960450289198,10.3740931079048,-3.72195192101501,-12.2350690684123,8.90899847496739,3.32607059344488
1.488694146922,13.4992240854358,10.1970541630645,-3.30216992237123,-11.8481391242502,8.4006970039035,3.44744212034666
1.49085794655415,12.903414190658,9.9662955174215,-2.93711867323649,-11.4348548540397,7.92026643194724,3.51458842209251
1.4930217461863,12.334051953282,9.64676764649145,-2.68728430679056,-10.9904097998867,7.51066813003628,3.47974166985045
1.49518554581846,11.817079994976,9.23043153031494,-2.58664846466105,-10.5237557626455,7.20186422981852,3.32189153282695
1.49734934545061,11.3671487015955,8.73345799025186,-2.6336907113436,-10.0503033459237,7.00041970646953,3.04988363945413
1.49951314508277,10.9801942669599,8.18736449214131,-2.7928297748186,-9.58377937955061,6.88651202088926,2.69726735866135
1.50167694471492,10.635351230215,7.62958354572596,-3.00576768448904,-9.13246738797048,6.82055945735202,2.31190793061846
1.50384074434707,10.3068743952893,7.09737891770896,-3.20949547758036,-8.70212665649914,6.75818493643484,1.9439417200643
1.50600454397923,9.98076001790926,6.6258188500864,-3.35494116782286,-8.30328943399783,6.66785059286606,1.63543884113177
1.50816834361138,9.66704039600275,6.24787413200594,-3.41916626399681,-7.95745726400435,6.54310332999978,1.41435393400457
1.51033214324354,9.40035461633707,5.99372296672671,-3.40663164961035,-7.69703879153189,6.40349313297371,1.29354565855818
1.51249594287569,9.22774326505887,5.88710619059092,-3.34063707446795,-7.55742472782489,6.28419016976341,1.27323455806148
1.51465974250784,9.18936235148813,5.93857549633429,-3.25078685515384,-7.56396892391121,6.22007460332099,1.34389432059022
1.51682354214,9.30054966012164,6.13770476276411,-3.16284489735754,-7.71912721144288,6.23169727873959,1.48742993270328
1.51898734177215,9.54185093648043,6.44797877762364,-3.09387215885679,-7.99491485705204,6.31786154766861,1.67705330938343
1.52115114140431,9.85989817837605,6.8084206905881,-3.05147748778796,-8.33415943448207,6.455687833082,1.87847160140007
1.52331494103646,10.1786216285427,7.14406343396234,-3.03455819458032,-8.6613425312525,6.60658991156149,2.05475261969101
1.52547874066861,10.4177227638521,7.38334378299851,-3.03437898085358,-8.9005332734253,6.72605087235284,2.17448240107246
1.52764254030077,10.5136312983288,7.47672460657888,-3.03690669174992,-8.99517795245384,6.77526899503936,2.21990895741448
1.52980633993292,10.4371879309873,7.40961891994709,-3.02756901104022,-8.9234034254672,6.73237847101377,2.19102495445343
1.53197013956508,10.202454113131,7.20464248850129,-2.99781162462972,-8.70354830081614,6.60013286888036,2.10341543193578
1.53413393919723,9.86348275509783,6.91266699438598,-2.95081576071185,-8.3880748747419,6.40714925790484,1.98092561683707
1.53629773882938,9.50025047503922,6.59696331502906,-2.90328716001016,-8.04860689503414,6.20176881752469,1.84683807750945
1.53846153846154,9.19863789658993,6.31703429765761,-2.88160359893231,-7.75783609712377,6.04012074776112,1.71771534936265
1.54062533809369,9.0304490280823,6.11747853304181,-2.91297049504049,-7.57396378056205,5.97170976156139,1.60225401900066
1.54278913772585,9.0384378079448,6.02395877235549,-3.01447903558931,-7.53119829015015,6.02645842176706,1.50473986838309
1.544952937358,9.22907342246594,6.04496534053723,-3.18410808192871,-7.63701938150158,6.20659075219732,1.43042862930426
1.54711673699015,9.57300116626823,6.17565583644046,-3.39734532982777,-7.87432850135434,6.485173248048,1.38915525330634
1.54928053662231,10.0113936704801,6.39993209027554,-3.61146158020453,-8.2056628803778,6.8114276253423,1.3942352550355
1.55144433625446,10.466761164874,6.68988028244867,-3.77688088242536,-8.57832072366135,7.1218210236497,1.45649970001165
1.55360813588662,10.8577742887156,7.00573309558861,-3.85204119312697,-8.93175369215209,7.35490774092127,1.57684595123082
1.55577193551877,11.1168852301036,7.30081572281258,-3.816069507291,-9.20885047645807,7.46647736869728,1.74237310776079
1.55793573515093,11.2072114223624,7.53299548705216,-3.67421593531022,-9.37010345470727,7.4407136788363,1.92938977587097
1.56009953478308,11.1334616000495,7.67921998385127,-3.45424161619818,-9.40634079195036,7.29385160812382,2.11248918382654
1.56226333441523,10.9421735898057,7.74642077378309,-3.19575281602259,-9.34429718179438,7.06896320291413,2.27533397888025
1.56442713404739,10.7095342043354,7.77261386186359,-2.93692034247178,-9.24107403309948,6.82322727340357,2.4178467596959
1.56659093367954,10.519777756146,7.81605659512058,-2.70372116102546,-9.16791717563331,6.61174945858575,2.55616771704756
1.5687547333117,10.4412904284505,7.93541514742998,-2.50587528102054,-9.18835278794025,6.47358285473553,2.71476993320472
1.57091853294385,10.5086455006985,8.16778660298228,-2.3408588977162,-9.33821605184038,6.42475219920734,2.91346385263304
1.573082332576,10.716363642207,8.51297920846908,-2.20338443373793,-9.61467142533804,6.45987403797247,3.15479738736557
1.57524613220816,11.0254782233049,8.93084097307164,-2.09463725023331,-9.97815959818829,6.56005773676913,3.41810186141916
1.57740993184031,11.3790086565773,9.35347717934778,-2.02553147722953,-10.3662429179625,6.70227006690342,3.66397285105913
1.57957373147247,11.7195833833578,9.70781575408629,-2.01176762927155,-10.7136995687221,6.8656755063147,3.84802406240737
1.58173753110462,12.0031059983821,9.93941318801228,-2.0636928103698,-10.9712595931972,7.03339940437594,3.93786018882124
1.58390133073677,12.205668515581,10.0282309905977,-2.17743752498331,-11.1169497530893,7.19155302028214,3.92539673280718
1.58606513036893,12.3245925013506,9.99172246595043,-2.33287003540012,-11.1581574836505,7.32873126837534,3.82942621527516
1.58822893000108,12.3763984417857,9.87703961346238,-2.49935882832329,-11.126719027624,7.43787863505448,3.68884039256954
1.59039272963324,12.3937281939705,9.74796663584274,-2.64576155812779,-11.0708474149066,7.51974487604916,3.55110253885748
1.59255652926539,12.4208763905921,9.67155773299257,-2.74931865759955,-11.0462170617923,7.58509752409583,3.46111953769651
1.59472032889754,12.506286041969,9.70672710603673,-2.79955893593224,-11.1065065740029,7.65292248895061,3.45358408505224
1.5968841285297,12.6916298111378,9.89508189297913,-2.79654791815867,-11.2933558520585,7.74408886464824,3.54926698741023
1.59904792816185,12.9996226729646,10.253878870258,-2.74574380270656,-11.6267507716113,7.87268323783556,3.75406753377572
1.60121172779401,13.4242796411805,10.771494073862,-2.65278556731851,-12.0978868575212,8.03853260424949,4.05935425327172
1.60337552742616,13.927177389356,11.4063756255711,-2.52080176378487,-12.6667765074636,8.22398957657043,4.44278693089313
1.60553932705831,14.4420034205642,12.090654272012,-2.35134914855218,-13.2663288462881,8.3966762845582,4.86965256172993
1.60770312669047,14.8879934242435,12.7396205920784,-2.14837283216511,-13.8138070081609,8.5181831282043,5.29562387995664
1.60986692632262,15.1907110498514,13.2678987162419,-1.92281233360945,-14.2293048830466,8.55676169173041,5.67254319131623
1.61203072595478,15.3055003477037,13.6109260999869,-1.69457424771683,-14.4582132238453,8.50003729771025,5.95817592613501
1.61419452558693,15.2357914809797,13.7461275718792,-1.48966390910045,-14.4909595264295,8.36272769504007,6.12823183138939
1.61635832521908,15.0382831026503,13.7051270577381,-1.33315604491217,-14.3717050801942,8.18571957378125,6.18598550641299
1.61852212485124,14.8115996324576,13.5700721134593,-1.24152751899826,-14.1908358729585,8.02656357572793,6.16427229723055
1.62068592448339,14.6720322935626,13.453593186503,-1.21843910705957,-14.0628127400328,7.9452357003111,6.11757703972174
1.62284972411555,14.7253117723509,13.4694705970827,-1.25584117526821,-14.0973911847168,7.99057647380956,6.10681471090725
1.6250135237477,15.0443190099817,13.7052679783651,-1.33905103161665,-14.3747934941734,8.1916850207992,6.18310847337422
1.62717732337986,15.6586822358082,14.2062336857131,-1.45244855009511,-14.9324579607607,8.55556539295167,6.376892567809
1.62934112301201,16.5555890583818,14.9729425766945,-1.58264648168726,-15.7642658175382,9.06911777003452,6.69514804750364
1.63150492264416,17.6865331906927,15.9684809911637,-1.71805219952895,-16.8275070909282,9.70229269511081,7.12521439581739
1.63366872227632,18.9752163904776,17.1287200753339,-1.84649631514361,-18.0519682329057,10.4108563528106,7.64111188009516
1.63583252190847,20.3256742912196,18.3714016147168,-1.95427267650273,-19.3485379529682,11.1399734838611,8.20856446910705
1.63799632154063,21.6324959640962,19.6037248604171,-2.02877110367904,-20.6181104122566,11.8306335338876,8.78747687836905
1.64016012117278,22.794255810912,20.7310438532003,-2.06321195771172,-21.7626498320561,12.4287338843118,9.33391594774427
1.64232392080493,23.7281006798411,21.6689943927249,-2.05910628711625,-22.698547536283,12.8936034834787,9.80494405280432
1.64448772043709,24.3811019743921,22.3578963414737,-2.02320563291845,-23.3694991579329,13.2021538036553,10.1673453542776
1.64665152006924,24.7348383271828,22.7747788056684,-1.96005952151441,-23.7548085664256,13.3474489243486,10.407359642077
1.6488153197014,24.8029346249389,22.9380202491066,-1.86491437583231,-23.8704774370228,13.3339245003856,10.5365529366372
1.65097911933355,24.6241402983063,22.9020496679098,-1.72209063039647,-23.763094983108,13.1731154643514,10.5899795187567
1.6531429189657,24.2541878178349,22.7426817939139,-1.51150602392101,-23.4984348058744,12.882846920878,10.6155878849965
1.65530671859786,23.7583766685626,22.5367789251717,-1.2215977433909,-23.1475777968671,12.4899872059767,10.6575905908904
1.65747051823001,23.2048021722745,22.3426797583741,-0.862122413900341,-22.7737409653243,12.0334622930874,10.7402786722369
1.65963431786217,22.656932594801,22.1882293492855,-0.468703245515574,-22.4225809720432,11.5628179201583,10.8597630518849
1.66179811749432,22.1650397400049,22.0699692521488,-0.0950704878560948,-22.1175044960769,11.1300551139305,10.9874493821464
1.66396191712647,21.7582827050386,21.9620094184507,0.203726713412056,-21.8601460617446,10.7772779958133,11.0828680659314
1.66612571675863,21.4408349646896,21.8298002528252,0.388965288135534,-21.6353176087574,10.525934838277,11.1093827704803
1.66828951639078,21.1946411943443,21.6440325580706,0.449391363726331,-21.4193368762075,10.372624915309,11.0467119608985
1.67045331602294,20.9884417531687,21.3914753811474,0.403033627978772,-21.1899585671581,10.2927040625949,10.8972545045631
1.67261711565509,20.7893461506241,21.0802263783016,0.290880227677516,-20.9347862644629,10.2492329614733,10.6855533029896
1.67478091528724,20.571657163182,20.7371117763285,0.165454613146409,-20.6543844697553,10.2031012750178,10.4512831947374
1.6769447149194,20.3190782925416,20.397201279197,0.0781229866553197,-20.3581397858693,10.1204776529432,10.2376621329261
1.67910851455155,20.0201014512352,20.0892198843396,0.0691184331043893,-20.0546606677874,9.97549150906543,10.079169158722
1.68127231418371,19.6602918097019,19.8230081354445,0.162716325742579,-19.7416499725732,9.74878774197965,9.99286223059351
1.68343611381586,19.217477176005,19.5844417622397,0.366964586234747,-19.4009594691224,9.42525629488512,9.97570317423724
1.68559991344801,18.6648375484539,19.3399424711048,0.675104922650867,-19.0023900097793,8.99486631290151,10.0075236968778
1.68776371308017,17.9820990294022,19.0483082866359,1.06620925723375,-18.5152036580191,8.45794488608421,10.0572587719348
1.68992751271232,17.169139635439,18.6743857856607,1.5052461502217,-17.9217627105499,7.83194674260867,10.0898159679412
1.69209131234448,16.253758201311,18.1992084637516,1.94545026244059,-17.2264833325313,7.15415396943522,10.0723293630961
1.69425511197663,15.2879414789894,17.6238563974395,2.33591491845014,-16.4558989382145,6.47601328026963,9.97988565794484
1.69641891160879,14.33263698501,16.9667760704894,2.6341390854794,-15.6497065277497,5.84924894976529,9.8004575779844
1.69858271124094,13.4367219225872,16.2557941630221,2.81907224043484,-14.8462580428047,5.3088248410762,9.53743320172846
1.70074651087309,12.6191577631031,15.5174921696468,2.89833440654371,-14.068324966375,4.8604116782797,9.20791328809527
1.70291031050525,11.8625060603532,14.7677678157668,2.90526175541362,-13.31513693806,4.47862215246977,8.8365147855902
1.7050741101374,11.1210217380665,14.0071061352095,2.88608439714299,-12.564063936638,4.11746867046177,8.44659526617625
1.70723790976956,10.339935407118,13.2223306098787,2.88239520276077,-11.7811330084983,3.7287701021786,8.05236290631975
1.70940170940171,9.47783769848489,12.3944209288171,2.91658323033224,-10.936129313651,3.28062723407633,7.65550207957469
1.71156550903386,8.5235552058557,11.5100040312917,2.98644882543596,-10.0167796185737,2.76855319020987,7.24822642836381
1.71372930866602,7.50215822902486,10.572599429288,3.07044120026317,-9.03737882915644,2.21585851438085,6.8215203147756
1.71589310829817,6.4691191146706,9.6090167670389,3.1398976523683,-8.03906794085475,1.66461073115115,6.3744572097036
1.71805690793033,5.49495408915177,8.6671656973461,3.17221160819433,-7.08105989324894,1.16137124047872,5.91968865277022
1.72022070756248,4.64511829338719,7.80460171230236,3.15948341891517,-6.22486000284478,0.742817437236011,5.48204256560877
1.72238450719463,3.9618232273625,7.07163341612328,3.10981018876078,-5.51672832174289,0.426006519300859,5.09072180244203
1.72454830682679,3.45400304227683,6.49597043382598,3.04196739154914,-4.97498673805141,0.206017825363847,4.76896891268756
1.72671210645894,3.09777493036648,6.07519018799647,2.97741525762999,-4.58648255918147,0.0601798363682478,4.52630272281323
1.7288759060911,2.84505080474547,5.77924449461813,2.93419368987266,-4.3121476496818,-0.0445714425635932,4.35671909224539
1.73103970572325,2.63575998564707,5.56066167131729,2.92490168567021,-4.09821082848218,-0.14457085001157,4.24278167849375
1.7332035053554,2.40959570819397,5.36754874403975,2.95795303584578,-3.88857222611686,-0.274178663825903,4.16275088994277
1.73536730498756,2.11488195204868,5.15478619018484,3.03990423813616,-3.63483407111676,-0.462511143043741,4.0973452141605
1.73753110461971,1.71435677105588,4.89095036875726,3.17659359770137,-3.30265356990657,-0.731118413322744,4.03377198322931
1.73969490425187,1.18934560492074,4.56051280178296,3.37116719686222,-2.87492920335185,-1.09091079597074,3.96583999932259
1.74185870388402,0.543411244605879,4.16181225647978,3.6184010118739,-2.35261175054283,-1.53749488363401,3.89010663417684
1.74402250351617,-0.195634008739248,3.70200523302187,3.89763924176112,-1.75318561214131,-2.04663662525018,3.79982223739149
1.74618630314833,-0.978129454947308,3.19126158591231,4.16939104085962,-1.1065660654825,-2.57376024790346,3.68032631338596
1.74835010278048,-1.74140001071009,2.63899575310831,4.3803957638184,-0.448797871199107,-3.06089788726424,3.50969575846335
1.75051390241264,-2.42407635175795,2.05402084081526,4.47809719257321,0.185027755471344,-3.45108677216558,3.26605901669423
1.75267770204479,-2.98157263222158,1.44846572201652,4.4300383542381,0.766553455102527,-3.70580549322984,2.93925203812731
1.75484150167694,-3.39691516986819,0.842953604114946,4.23986877398314,1.27698078287662,-3.81839197192566,2.54141118904904
1.7570053013091,-3.68287646239485,0.269044047124218,3.95192050951907,1.70691620763532,-3.81739848595696,2.11048227832164
1.75916910094125,-3.87544816814678,-0.234366666862947,3.64108150128384,2.05490741750487,-3.75826483471531,1.70335741721044
1.76133290057341,-4.02245177026061,-0.630982870776151,3.39146889948446,2.32671732051838,-3.70696033487253,1.38024301435415
1.76349670020556,-4.17210416858568,-0.900026665571767,3.27207750301391,2.53606541707872,-3.7220908357998,1.18602541872107
1.76566049983772,-4.36441509692538,-1.04646907158163,3.31794602534376,2.70544208425351,-3.84118056113457,1.13573847688106
1.76782429946987,-4.62584175701955,-1.10336382414766,3.52247793287189,2.86460279058361,-4.07415984494572,1.20955705436211
1.76998809910202,-4.96687631587802,-1.12458872502351,3.84228759085451,3.04573252045077,-4.40458195336626,1.3588494329155
1.77215189873418,-5.38235826766358,-1.17072549666143,4.21163277100214,3.27654188216251,-4.79699551933286,1.52045363717036
1.77431569836633,-5.8536076381906,-1.29298939712392,4.56061824106667,3.57329851765726,-5.20711293962864,1.63381442197137
1.77647949799849,-6.35083881784796,-1.51973150566204,4.83110731218592,3.935285161755,-5.59097306501694,1.65568790326194
1.77864329763064,-6.83544114884805,-1.84901398639086,4.98642716245719,4.34222756761945,-5.91093415565262,1.56870658803317
1.78080709726279,-7.26375057615165,-2.24948243641467,5.01426813973698,4.75661650628316,-6.13900935794431,1.38239285166115
1.78297089689495,-7.59443762063529,-2.66949986306791,4.92493775756737,5.1319687418516,-6.25968768910133,1.12771894724973
1.7851346965271,-7.79950881698363,-3.05192484399132,4.74758397299231,5.42571683048747,-6.27354639498797,0.847829564500499
1.78729849615926,-7.87527626436199,-3.35002053404684,4.52525573031515,5.61264839920441,-6.20026599733857,0.587617598134153
1.78946229579141,-7.847273843099,-3.53906782348368,4.30820601961533,5.69317083329134,-6.07773993135716,0.384569098065825
1.79162609542356,-7.76476873791052,-3.61921302750752,4.14555571040299,5.69199088270902,-5.95516222415675,0.263171341447736
1.79378989505572,-7.68589853890231,-3.60861147326332,4.07728706563899,5.64725500608282,-5.88159280227065,0.234337796187833
1.79595369468787,-7.65943345666468,-3.53043868840553,4.12899476825916,5.59493607253511,-5.89421411246192,0.299278039926817
1.79811749432003,-7.71006092285994,-3.4001445731731,4.30991634968684,5.55510274801652,-6.00998863627339,0.454885888256868
1.80028129395218,-7.83160600077296,-3.21908188451263,4.61252411626033,5.5253439426428,-6.22206505851664,0.696721115873846
1.80244509358433,-7.98979827152498,-2.97757964582937,5.01221862569562,5.48368895867717,-6.5010084486103,1.01731948993313
1.80460889321649,-8.13416888044052,-2.66604597417435,5.46812290626618,5.40010742730744,-6.80114589335335,1.40103846604592
1.80677269284864,-8.21632038307361,-2.28890979201657,5.92741059105704,5.25261508754509,-7.07186548706532,1.81925039952023
1.8089364924808,-8.20892833643156,-1.87473649061357,6.33419184581799,5.04183241352257,-7.27156009112478,2.22972767760221
1.81110029211295,-8.11820049343505,-1.4771852663061,6.64101522712894,4.79769287987058,-7.379607860282,2.58191498041142
1.8132640917451,-7.98411682524456,-1.1653982596511,6.81871856559346,4.57475754244783,-7.40141769541901,2.82666015297118
1.81542789137726,-7.86752048573615,-1.00720897634862,6.86031150938753,4.43736473104238,-7.36391599756184,2.92655126651945
1.81759169100941,-7.8285291459108,-1.05112751956194,6.77740162634886,4.43982833273637,-7.30296538612983,2.86313705339346
1.81975549064157,-7.90395687730758,-1.31218823667231,6.59176864063527,4.60807255698994,-7.24786275897143,2.63979020198148
1.82191929027372,-8.0915744235181,-1.76467285150212,6.32690157201598,4.92812363751011,-7.20923799776704,2.28111436025693
1.82408308990587,-8.34673045228481,-2.34348746366993,6.00324298861488,5.34510895797737,-7.17498672044985,1.82987776247247
1.82624688953803,-8.59287447332687,-2.95479076325543,5.63808371007144,5.77383261829115,-7.11547909169916,1.341646473408
1.82841068917018,-8.7430760457363,-3.49432175782337,5.24875428791293,6.11869890177984,-6.99591516682462,0.877216265044777
1.83057448880234,-8.72642035326513,-3.8695133147552,4.85690703850993,6.29796683401017,-6.79166369588753,0.493696861877365
1.83273828843449,-8.51188371434466,-4.01999672178061,4.49188699256404,6.26594021806264,-6.50188535345435,0.235945135391714
1.83490208806665,-8.12267264212567,-3.93119942302801,4.19147321909766,6.02693603257684,-6.15707293061167,0.130136898034822
1.8370658876988,-7.63598670705376,-3.63775314893595,3.99823355811782,5.63686992799486,-5.81711013258579,0.180240204590934
1.83922968733095,-7.16668862825224,-3.21626440446334,3.95042422378889,5.19147651635779,-5.55855642602057,0.367079909662776
1.84139348696311,-6.83793666971348,-2.76901507531523,4.06892159439825,4.80347587251435,-5.45342913205587,0.649953259541514
1.84355728659526,-6.74663779445875,-2.40161415003233,4.34502364442642,4.57412597224554,-5.54583071944259,0.971704747197047
1.84572108622742,-6.93484129540165,-2.19943707579327,4.73540421960838,4.56713918559746,-5.83512275750501,1.26798357190756
1.84788488585957,-7.37733991412925,-2.20884992476592,5.16848998936333,4.79309491944759,-6.27291495174629,1.47982003229871
1.85004868549172,-7.98994751693479,-2.42816633473449,5.5617811822003,5.20905692583464,-6.77586434956755,1.5668074237329
1.85221248512388,-8.6547994702983,-2.81029210110425,5.84450736919405,5.73254578570128,-7.24965341974618,1.5171076340449
1.85437628475603,-9.25284061353781,-3.27553209419487,5.97730851934295,6.26418635386634,-7.61507456644038,1.35088821257404
1.85654008438819,-9.69227693879385,-3.73044777028134,5.96182916851251,6.71136235453759,-7.82705305365318,1.11569069911558
1.85870388402034,-9.92511832534647,-4.08772023760228,5.8373980877442,7.00641928147437,-7.88125820654533,0.87483892507096
1.86086768365249,-9.9495018004202,-4.28235783017853,5.66714397024167,7.11592981529936,-7.80832288533093,0.69239307003157
1.86303148328465,-9.80026770312534,-4.28081736945081,5.51945033367453,7.04054253628807,-7.65985901839993,0.61931648211186
1.8651952829168,-9.5329913032717,-4.08208586818118,5.45090543509052,6.80753858572644,-7.49194836918111,0.684409783454671
1.86735908254896,-9.20756640327122,-3.71292303996842,5.49464336330281,6.46024472161982,-7.35110488328701,0.890860161667193
1.86952288218111,-8.87641769288878,-3.22090864734343,5.65550904554535,6.0486631701161,-7.26596336921706,1.21730019910096
1.87168668181326,-8.57938479678222,-2.66775441292547,5.91163038385675,5.62356960485384,-7.24550759031948,1.62193798546564
1.87385048144542,-8.34382599821133,-2.12335507127144,6.2204709269399,5.23359053474138,-7.28214846257561,2.04855792783423
1.87601428107757,-8.18687169929468,-1.65961508221988,6.5272566170748,4.92324339075728,-7.35706415818474,2.43382076742746
1.87817808070973,-8.1174914951487,-1.3422291506224,6.77526234452631,4.72986032288555,-7.4463769198375,2.71651659695195
1.88034188034188,-8.13755860826409,-1.21934370818443,6.91821490007966,4.67845115822426,-7.52788675417188,2.84943559594761
1.88250567997403,-8.24189924567627,-1.30922587731245,6.93267336836382,4.77556256149436,-7.58728630702005,2.81172374552569
1.88466947960619,-8.41727503495353,-1.59232318722102,6.82495184773252,5.00479911108728,-7.62111344134302,2.61631433025575
1.88683327923834,-8.64049283010396,-2.01279626539452,6.62769656470944,5.32664454774924,-7.6340946974067,2.30745014965746
1.8889970788705,-8.87717613316563,-2.4904705792963,6.38670555386933,5.68382335623097,-7.63194084351748,1.94811748728652
1.89116087850265,-9.08379069120954,-2.93926948754248,6.14452120366706,6.01153008937601,-7.6141559474383,1.60262585806229
1.8933246781348,-9.21425996983815,-3.28562092538234,5.9286390444558,6.24994044761025,-7.57144950714698,1.32150905953673
1.89548847776696,-9.22966537033816,-3.48118021603165,5.74848515430651,6.35542279318491,-7.48907526232234,1.13365246913743
1.89765227739911,-9.10766007784481,-3.50739642915961,5.60026364868519,6.30752825350221,-7.353961863265,1.04643360976279
1.89981607703127,-8.84814182917264,-3.37249565924291,5.47564616992973,6.11031874420777,-7.16189399955118,1.05157525534341
1.90197987666342,-8.47282349914116,-3.10293842238799,5.36988507675318,5.78788096076457,-6.92135428794717,1.1334733271826
1.90414367629558,-8.01852593485151,-2.73219412885371,5.2863318059978,5.37536003185261,-6.65242887042466,1.27706883857205
1.90630747592773,-7.52660176710945,-2.29056011648553,5.23604165062392,4.90858094179749,-6.38132170886668,1.47274076706919
1.90847127555988,-7.03213024104502,-1.79968240676461,5.23244783428041,4.41590632390482,-6.13228903766272,1.7163827137579
1.91063507519204,-6.55606806466944,-1.27340890772014,5.2826591569493,3.91473848619479,-5.91936361080937,2.00462512461458
1.91279887482419,-6.10272483663438,-0.723510559203618,5.37921427743076,3.413117697919,-5.74096955703257,2.32785185911357
1.91496267445635,-5.66403308861336,-0.166563350078463,5.49746973853489,2.91529821934591,-5.58075141357412,2.66545319422821
1.9171264740885,-5.23012820235198,0.371756056336043,5.60188425868802,2.42918607300797,-5.41600623052,2.98682015751203
1.91929027372065,-4.80275773455494,0.856795773686579,5.65955350824152,1.97298098043418,-5.23115562139823,3.25817464096405
1.92145407335281,-4.4054585237201,1.24914650045628,5.65460502417638,1.57815601163191,-5.03003177394824,3.45187576231633
1.92361787298496,-4.08420019247601,1.51152887226362,5.59572906473963,1.28633566010619,-4.83996462860782,3.55362896850163
1.92578167261712,-3.89574739378082,1.61663174226668,5.5123791360475,1.13955782575707,-4.70406326491416,3.56450543915709
1.92794547224927,-3.8873633582023,1.55409208210813,5.44145544031044,1.16663563804709,-4.66440939925637,3.49777376120929
1.93010927188142,-4.07661368809985,1.33502890011922,5.41164258821907,1.37079239399031,-4.74412813815946,3.37333574416915
1.93227307151358,-4.44040661345366,0.992936509077062,5.43334312253072,1.7237350521883,-4.93687486799219,3.21313981580389
1.93443687114573,-4.9183819366256,0.579876826961317,5.49825876358692,2.16925255483214,-5.20832035010626,3.03906779527412
1.93660067077789,-5.43003337857474,0.157370426970836,5.58740380554558,2.63633147580195,-5.50871859206016,2.87238711625821
1.93876447041004,-5.89976739913637,-0.216989861081323,5.68277753805505,3.05837863010885,-5.79127246859571,2.73289383848686
1.94092827004219,-6.28097916075746,-0.504051654589169,5.77692750616829,3.39251540767331,-6.02895333346287,2.63643792578956
1.94309206967435,-6.57020873538594,-0.694264376469467,5.87594435891648,3.6322365559277,-6.22307654715121,2.5908399912235
1.9452558693065,-6.80576015892845,-0.811064261749447,5.994695897179,3.80841221033895,-6.40022802805373,2.59181581771478
1.94741966893866,-7.0510698245575,-0.903911012738944,6.14715881181856,3.97749041864822,-6.59911431818803,2.62162389953981
1.94958346857081,-7.36941666286678,-1.03211577924252,6.33730088362426,4.20076622105465,-6.85335877324552,2.65259255219087
1.95174726820296,-7.80000246077561,-1.24465537121166,6.55534708956396,4.52232891599363,-7.17767477516978,2.65534585917615
1.95391106783512,-8.3442171964277,-1.56343811357162,6.78077908285608,4.95382765499966,-7.56249813964189,2.60867048464223
1.95607486746727,-8.96633468136617,-1.97691513174552,6.98941954962065,5.47162490655584,-7.97787711549341,2.50625220893756
1.95823866709943,-9.6074053538048,-2.44734174488881,7.16006360891599,6.02737354934681,-8.3837344813604,2.35636093201359
1.96040246673158,-10.2066432017624,-2.9291918815286,7.27745132023384,6.56791754164552,-8.74204726099813,2.17412971935262
1.96256626636373,-10.7227200185626,-3.39088337069528,7.3318366478673,7.05680169462893,-9.02727833321494,1.97047663858601
1.96473006599589,-11.1484042140058,-3.83024381233064,7.31816040167519,7.48932401316823,-9.23328230784051,1.74395829467228
1.96689386562804,-11.5144181975747,-4.27707323388316,7.2373449636915,7.89574571572891,-9.37588158063308,1.48013586490417
1.9690576652602,-11.8812519692278,-4.78220791737708,7.09904405185074,8.33172994330245,-9.49014801053928,1.15841806723683
1.97122146489235,-12.3213510474285,-5.39857959068191,6.92277145674664,8.85996531905523,-9.6220612520876,0.762095933032366
1.97338526452451,-12.8977105570764,-6.16251742010196,6.73519313697444,9.53011398858918,-9.81645184702542,0.286337858436241
1.97554906415666,-13.6459944625768,-7.08173768701713,6.56425677555968,10.363866074797,-10.1051256190682,-0.258740455728723
1.97771286378881,-14.5651673559969,-8.13244418575734,6.43272317023956,11.3488057708771,-10.4989452631182,-0.849860507758892
1.97987666342097,-15.6180869308188,-9.26466963774202,6.35341729307676,12.4413782842804,-10.9857521119478,-1.45562617233263
1.98204046305312,-16.7402784342,-10.4129032891595,6.32737514504055,13.5765908616797,-11.5338267896203,-2.04276407205946
1.98420426268528,-17.8530250854948,-11.5079190936035,6.34510599189129,14.6804720895492,-12.0990655386931,-2.58140655085612
1.98636806231743,-18.8766312899703,-12.4864769779505,6.39015431201979,15.6815541339604,-12.633392800995,-3.04816133296535
1.98853186194958,-19.7411299315759,-13.2980583450027,6.44307158657322,16.5195941382893,-13.0921007590745,-3.42749337921472
1.99069566158174,-20.3936416454973,-13.9095407497345,6.4841008957628,17.1515911976159,-13.43887127063,-3.71271992698585
1.99285946121389,-20.8030003093906,-14.3081939277983,6.49480638159233,17.5555971185944,-13.6489033454915,-3.90669377310298
1.99502326084605,-20.9625834857878,-14.5021403117143,6.46044317407351,17.732361898751,-13.7115133299307,-4.02084856882038
1.9971870604782,-20.8914039895511,-14.5175558607826,6.37384812876852,17.7044799251668,-13.6326260591598,-4.07185386600703
1.99935086011035,-20.6324336999831,-14.3933607943643,6.2390729056188,17.5128972471737,-13.4357533028009,-4.07714394437274
2.00151465974251,-20.2473878624185,-14.1754213102199,6.07196655219859,17.2114045863192,-13.1596772073085,-4.05172737901065
2.00367845937466,-19.8086752231783,-13.912063777152,5.89661144602632,16.8603695001651,-12.8526433346023,-4.00772616556283
2.00584225900682,-19.3902006976137,-13.6510781162201,5.7391225813936,16.5206394069169,-12.5646616395037,-3.95597776741327
2.00800605863897,-19.0585523987292,-13.4369099375975,5.62164246113169,16.2477311681633,-12.3400974299304,-3.9076337382329
2.01016985827112,-18.8657223708008,-13.3068082160984,5.55891415470247,16.0862652934496,-12.2123182627516,-3.87394703069794
2.01233365790328,-18.8442459617356,-13.2860636469621,5.55818231477357,16.0651548043489,-12.2012141382546,-3.86394066609425
2.01449745753543,-19.0050260650258,-13.3840907597713,5.62093530525454,16.1945584123985,-12.3129806851402,-3.88157772725837
2.01666125716759,-19.3373220532884,-13.5939675104506,5.74335454283783,16.4656447818695,-12.5403382980631,-3.92530648380636
2.01882505679974,-19.8101435191496,-13.896886419493,5.9132570996566,16.8535149693213,-12.8617003094031,-3.99181465991819
2.02098885643189,-20.3747771520042,-14.2696830365745,6.10509411542975,17.3222300942894,-13.239935633717,-4.08229446057236
2.02315265606405,-20.9689682475296,-14.6908931028653,6.27807514466433,17.8299306751975,-13.623521696097,-4.20640897910049
2.0253164556962,-21.5236951468543,-15.1416571044228,6.38203804243153,18.3326761256386,-13.9528665946429,-4.37980953099564
2.02748025532836,-21.9730174818018,-15.6017984554826,6.37121902631925,18.7874079686422,-14.1721182540605,-4.61528971458167
2.02964405496051,-22.2664092400047,-16.0452765774465,6.22113266255821,19.1558429087256,-14.2437709512814,-4.91207195744413
2.03180785459266,-22.3819195526977,-16.4401903538436,5.94172919885409,19.4110549532707,-14.1618243757759,-5.24923057749475
2.03397165422482,-22.3374674284469,-16.7560501030759,5.58141732537101,19.5467587657614,-13.9594423769089,-5.58731638885243
2.03613545385697,-22.196399774173,-16.9766205074131,5.21977926675985,19.5865101407931,-13.7080895204664,-5.87842062032665
2.03829925348913,-22.0626429409141,-17.1125314935672,4.95011144734689,19.5875872172407,-13.5063771941305,-6.08121002311017
2.04046305312128,-22.0613278635409,-17.2058082797589,4.85551958378203,19.6335680716499,-13.4584237236615,-6.17514434798844
2.04262685275344,-22.3035149253261,-17.3195192251731,4.98399570015304,19.8115170752496,-13.6437553127396,-6.16776176251002
2.04479065238559,-22.8388234950115,-17.5102858873127,5.32853760769876,20.1745546911621,-14.0836805513551,-6.09087413980699
2.04695445201774,-23.6061808275604,-17.7884220884728,5.81775873908758,20.6973014580166,-14.711969783324,-5.98533167469262
2.0491182516499,-24.3979452811438,-18.0773956948422,6.32054958630158,21.237670487993,-15.3592474337227,-5.87842305427032
2.05128205128205,-24.8537252235318,-18.1881543571883,6.66557086634353,21.5209397903601,-15.7596480449377,-5.76129174542239
2.05344585091421,-24.4957871118171,-17.8223418464522,6.67344526536495,21.1590644791346,-15.584616188591,-5.5744482905436
2.05560965054636,-22.8079890650167,-16.6112792759001,6.19670978911661,19.7096341704584,-14.5023494270667,-5.20728474339176
2.05777345017851,-19.3468444403171,-14.1872778445354,5.15956659578175,16.7670611424262,-12.2532055180494,-4.51385562437681
2.05993724981067,-13.8610401633608,-10.2738151414027,3.58722502195808,12.0674276523817,-8.72413259265943,-3.34329505972231
2.06210104944282,-6.38914162776434,-4.77360787410923,1.61553375365511,5.58137475093678,-4.00233769070972,-1.57903706022706
2.06426484907498,2.69322660458343,2.16940954803964,-0.523817056543792,-2.43131807631154,1.60852183056361,0.822796245747925
2.06642864870713,12.6955126475119,10.154335019694,-2.54117762781787,-11.4249238336029,7.61834513766487,3.80657869593806
2.06859244833928,22.7057561561876,18.5628955541246,-4.14286060206301,-20.6343258551561,13.4243083791253,7.2100174760308
2.07075624797144,31.7383079641045,26.648945999709,-5.08936196439554,-29.1936269819067,18.41383496425,10.7797920176567
2.07292004760359,38.9029942206991,33.6591837316608,-5.24381048903837,-36.28108897618,22.0734023548688,14.2076866213112
2.07508384723575,43.5562173930768,38.9580239202664,-4.59819347281044,-41.2571206566716,24.0772054329436,17.179915223728
2.0772476468679,45.3989514315726,42.1287052506678,-3.27024618090486,-43.7638283411202,24.3345988062387,19.4292295348814
2.07941144650005,44.5018336198801,43.0302304933479,-1.47160312653216,-43.766032056614,22.9867183732061,20.7793136834079
2.08157524613221,41.2589022060591,41.8025303099759,0.543628103916809,-41.5307162580175,20.3576370510711,21.1730792069463
2.08373904576436,36.2902592230211,38.8244541899102,2.53419496688911,-37.5573567064657,16.878032128066,20.6793245783997
2.08590284539652,30.3224321150008,34.637008237436,4.31457612243516,-32.4797201762184,13.0039279962828,19.4757921799356
2.08806664502867,24.0724559512037,29.8477019334626,5.77524598225894,-26.9600789423332,9.14860498447237,17.8114739578608
2.09023044466082,18.1531462289529,25.0328897534578,6.87974352450488,-21.5930179912054,5.63670135222403,15.9563166389813
2.09239424429298,13.0091293044903,20.6548707763717,7.64574147188136,-16.832000040431,2.68169391630448,14.1503061241265
2.09455804392513,8.88809418370787,17.0084175217832,8.12032333807536,-12.9482558527455,0.383885422816252,12.5643704299293
2.09672184355729,5.84737203328876,14.2056186211338,8.35824658784508,-10.0264953272113,-1.25543727727816,11.2819326044895
2.09888564318944,3.79052503864835,12.1988342636327,8.40830922498437,-7.99467965114054,-2.30889209316801,10.3035717443085
2.10104944282159,2.52303243004965,10.8321529045372,8.30912047448756,-6.67759266729343,-2.89304402221896,9.57063668951238
2.10321324245375,1.8125665076436,9.90496837139028,8.09240186374668,-5.85876743951694,-3.13991767805154,8.99868511756848
2.1053770420859,1.43960311239118,9.22924662388094,7.78964351148976,-5.33442486813606,-3.17502019954929,8.50944506768535
2.10754084171806,1.22895261183551,8.66625274932667,7.43730013749116,-4.94760268058109,-3.10417376282782,8.05177644340892
2.10970464135021,1.06046211831327,8.13779092884302,7.07732881052975,-4.59912652357814,-3.00843334610824,7.60755986968638
2.11186844098237,0.863720847422134,7.61660362935101,6.75288278192888,-4.24016223838657,-2.94458096725337,7.18474320563995
2.11403224061452,0.604516839926533,7.10607227951043,6.5015554395839,-3.85529455971848,-2.94851929982868,6.80381385954716
2.11619604024667,0.270454015606562,6.61983342854465,6.34937941293809,-3.4451437220756,-3.03946269866576,6.48460642074137
2.11835983987883,-0.139247593895967,6.16851813524097,6.30776572913694,-3.0146352706725,-3.22350666151645,6.23814193218895
2.12052363951098,-0.618311231725881,5.75533049356613,6.37364172529201,-2.56850963092013,-3.49597647850895,6.06448610942907
2.12268743914314,-1.15398721588444,5.37739931311874,6.53138652900318,-2.11170604861715,-3.84268687244381,5.95439292106096
