t,leadI,leadII,leadIII,aVR,aVL,aVF
0,291.458998927553,314.571525845281,23.1125269177282,-303.015262386417,134.173236004912,168.842026381504
0.00216379963215406,295.535482113884,311.448709499526,15.9132273856421,-303.492095806705,139.811127364121,163.680968442584
0.00432759926430813,299.590732205967,309.870800785055,10.2800685790878,-304.730766495511,144.65533181344,160.075434682071
0.00649139889646219,301.986243862193,310.622020789744,8.63577692755138,-306.304132325969,146.675233467321,159.628898858648
0.00865519852861625,301.125357038208,308.16525211529,7.03989507708178,-304.645304576749,147.042730980563,157.602573596186
0.0108189981607703,298.637729574386,304.932614277583,6.29488470319671,-301.785171925985,146.171422435595,155.61374949039
0.0129827977929244,300.938208328248,306.523813324029,5.58560499578061,-303.731010826138,147.676301666234,156.054709159905
0.0151465974250784,300.125015505759,304.994016137232,4.86900063147317,-302.559515821496,147.628007437143,154.931508384353
0.0173103970572325,299.382651600772,303.483256707097,4.1006051063257,-301.432954153935,147.641023247223,153.791930906712
0.0194741966893866,298.683238568802,304.324716542393,5.64147797359112,-301.503977555598,146.520880297605,154.983097257992
0.0216379963215406,299.563815726514,303.514014106823,3.95019838030822,-301.538914916669,147.806808673103,153.732106243565
0.0238017959536947,299.592683961531,301.06155061305,1.46886665151931,-300.327117287291,149.061908655006,151.265208632285
0.0259655955858488,297.959205301507,300.985947305137,3.02674200362924,-299.472576303322,147.466231648939,152.006344654383
0.0281293952180028,298.660362124804,301.746531239428,3.08616911462394,-300.203446682116,147.78709650509,152.416350177026
0.0302931948501569,296.981857071811,301.773485516867,4.79162844505612,-299.377671294339,146.095114313377,153.282556980961
0.0324569944823109,295.358698261722,298.667373530067,3.30867526834567,-297.013035895895,146.025011496688,150.988024399206
0.034620794114465,296.988786157473,299.534935991515,2.54614983404224,-298.261861074494,147.221318161715,151.040542912779
0.0367845937466191,297.874320138891,300.356779903546,2.48245976465512,-299.115550021219,147.695930187118,151.419619834101
0.0389483933787731,296.373857354091,298.72984300828,2.35598565418883,-297.551850181185,147.008935849951,150.542914331234
0.0411121930109272,295.617838869136,297.063072376097,1.44523350696124,-296.340455622617,147.086302681087,149.254152941529
0.0432759926430813,297.968004411358,299.378724415203,1.41072000384474,-298.673364413281,148.278642203757,150.394722209524
0.0454397922752353,297.878728924589,300.155963576103,2.27723465151394,-299.017346250346,147.800747136538,151.216599113808
0.0476035919073894,294.606838925194,297.02272668849,2.41588776329672,-295.814782806842,146.095475580948,149.719307225894
0.0497673915395434,296.153898558597,297.899039904764,1.74514134616652,-297.02646923168,147.204378606215,149.822090625465
0.0519311911716975,295.395616166607,297.968036737946,2.57242057133908,-296.681826452276,146.411597797634,150.270228654643
0.0540949908038516,293.8998497098,296.390045325137,2.49019561533663,-295.144947517468,145.704827047232,149.440120470237
0.0562587904360056,293.995975463306,295.540592795786,1.54461733248053,-294.768284129546,146.225679065413,148.542605064133
0.0584225900681597,294.036580479863,296.246781275517,2.21020079565466,-295.14168087769,145.913189842104,149.228491035586
0.0605863897003138,293.200321360464,293.796651810497,0.596330450032781,-293.498486585481,146.301995455216,147.196491130265
0.0627501893324678,292.305795138666,293.794448466376,1.48865332770941,-293.050121802521,145.408570905478,147.641550897043
0.0649139889646219,291.414325926121,296.241309016267,4.82698309014614,-293.827817471194,143.293671417987,150.534146053207
0.0670777885967759,291.38024705593,293.946957750536,2.56671069460606,-292.663602403233,144.406768180662,148.256834222571
0.06924158822893,291.430319882404,291.626173665109,0.19585378270483,-291.528246773757,145.61723304985,145.911013723907
0.0714053878610841,291.533983207003,293.21517088217,1.68118767516711,-292.374577044587,144.926397765918,147.448179278669
0.0735691874932381,293.215663783748,296.325120113608,3.10945632986062,-294.770391948678,145.053103726944,149.717288221734
0.0757329871253922,292.446031277075,293.049035043652,0.603003766577103,-292.747533160364,145.921513755249,146.826019405115
0.0778967867575463,291.595187425062,292.189648938315,0.594461513252554,-291.892418181688,145.500362955905,146.392055225784
0.0800605863897003,291.495018516177,293.792104906914,2.29708639073709,-292.643561711545,144.59896606272,148.044595648826
0.0822243860218544,291.412513527738,293.875858783066,2.46334525532887,-292.644186155402,144.474584136204,148.169602019198
0.0843881856540084,289.014215384816,290.800843230312,1.78662784549613,-289.907529307564,143.61379376966,146.293735537904
0.0865519852861625,290.662241277413,293.241435832372,2.57919455495886,-291.951838554892,144.041523361227,147.910315193665
0.0887157849183166,292.343020103973,294.007539778997,1.66451967502377,-293.175279941485,145.339250214475,147.83602972701
0.0908795845504706,290.819942163968,293.112545687944,2.29260352397614,-291.966243925956,144.263669319996,147.70257460596
0.0930433841826247,291.617702529054,291.416871913138,-0.200830615916232,-291.517287221096,145.909266572485,145.608020648611
0.0952071838147788,289.975451252802,292.96413379676,2.98868254395802,-291.469792524781,143.493384354422,147.976408170359
0.0973709834469328,289.903010779962,289.840079880091,-0.0629308998710485,-289.871545330026,144.982970839916,144.88857449011
0.0995347830790869,289.855234114343,290.750121548601,0.894887434258408,-290.302677831472,144.480173340042,145.82250449143
0.101698582711241,289.854344431981,290.851429448116,0.9970850161356,-290.352886940049,144.428629707923,145.924257232126
0.103862382343395,289.099215240495,290.867840055249,1.76862481475439,-289.983527647872,143.66529521287,146.318232435002
0.106026181975549,286.769943630936,287.610511551118,0.840567920181513,-287.190227591027,142.964687855377,144.22553973565
0.108189981607703,286.015662894834,287.489094905524,1.47343201068969,-286.752378900179,142.271115442072,144.481263458107
0.110353781239857,286.816498311888,288.994072597754,2.177574285866,-287.905285454821,142.319462013011,145.58582344181
0.112517580872011,285.992851802369,286.618205216592,0.625353414223298,-286.30552850948,142.683749194073,143.621779315408
0.114681380504165,285.151952775424,285.919349496662,0.767396721237958,-285.535651136043,142.192278027093,143.34337310895
0.116845180136319,283.527585785035,287.630234031455,4.10264824641996,-285.578909908245,139.712468769308,145.866441138938
0.119008979768473,283.52188283685,286.108615214476,2.58673237762679,-284.815249025663,140.467575229611,144.347673796052
0.121172779400628,280.369467643376,282.107186594814,1.73771895143892,-281.238327119095,139.315874345968,141.922452773127
0.123336579032782,281.202812190826,282.797617748878,1.59480555805243,-282.000214969852,139.804003316387,142.196211653465
0.125500378664936,282.02429297947,284.271807677752,2.24751469828186,-283.148050328611,139.888389140594,143.259661188017
0.12766417829709,278.84706455016,282.626473742432,3.77940919227183,-280.736769146296,137.533827678944,143.202941467352
0.129827977929244,278.827035840882,281.870424466875,3.04338862599252,-280.348730153878,137.891823607445,142.456906546434
0.131991777561398,280.390561952439,281.982786640114,1.59222468767553,-281.186674296277,139.399168632382,141.787505663895
0.134155577193552,280.371845919243,282.099496417768,1.72765049852495,-281.235671168506,139.322097710359,141.913573458147
0.136319376825706,278.779053940449,279.764753025349,0.985699084899295,-279.271903482899,138.896677427775,140.375226055124
0.13848317645786,278.791371780134,280.508512004612,1.71714022447861,-279.649941892373,138.537115777828,141.112826114546
0.140646976090014,278.812150456508,280.38752619461,1.57537573810134,-279.599838325559,138.618387359203,140.981450966355
0.142810775722168,276.447319265545,277.886951808678,1.43963254313337,-277.167135537112,137.503843361206,139.663292175906
0.144974575354322,277.249345259876,279.43603673916,2.18669147928432,-278.342690999518,137.531326890296,140.811364109222
0.147138374986476,276.447978914756,279.499064941727,3.05108602697084,-277.973521928241,136.698446443893,141.275075484349
0.14930217461863,275.634847025467,277.244311691119,1.60946466565224,-276.439579358293,137.012691179907,139.426888178386
0.151465974250784,273.232331153133,276.568128886442,3.33579773330968,-274.900230019788,134.948266709911,139.951963309876
0.153629773882938,274.81084299213,276.603230557752,1.79238756562148,-275.707036774941,136.509227713254,139.197809061687
0.155793573515093,274.018011197467,276.528833305635,2.51082210816787,-275.273422251551,135.753594544649,139.519827706901
0.157957373147247,273.235417570748,274.798160383543,1.56274281279519,-274.016788977146,135.836337378976,138.180451598169
0.160121172779401,272.460320080515,274.675907256931,2.2155871764158,-273.568113668723,135.12236645205,138.445747216673
0.162284972411555,274.861489270853,277.032057675762,2.17056840490869,-275.946773473307,136.345460432972,139.601313040335
0.164448772043709,273.279218528383,273.942307070702,0.663088542319088,-273.610762799543,136.308064993032,137.302697806511
0.166612571675863,273.270396089666,274.097179260479,0.826783170813428,-273.683787675073,136.221806459426,137.461981215646
0.168776371308017,273.25042362288,276.608552587469,3.35812896458941,-274.929488105175,134.946147329145,139.983340776029
0.170940170940171,273.227671532775,275.831481291791,2.60380975901609,-274.529576412283,135.311930886879,139.217645525403
0.173103970572325,271.62554070986,274.928832938022,3.30329222816209,-273.277186823941,134.161124240849,139.116062583092
0.175267770204479,272.424957052668,275.554885825508,3.12992877283966,-273.989921439088,134.647514139914,139.342407299174
0.177431569836633,274.034716296039,275.430142845864,1.395426549825,-274.732429570952,136.319644873107,138.412784697845
0.179595369468787,273.265829529586,273.840347037992,0.57451750840562,-273.553088283789,136.34565601059,137.207432273199
0.181759169100941,272.490092172355,273.174701153418,0.684608981062752,-272.832396662886,135.902741595646,136.92965506724
0.183922968733095,271.699635698935,274.943522895711,3.24388719677597,-273.321579297323,134.227874251079,139.093705046243
0.186086768365249,270.8908263263,275.059039539933,4.16821321363352,-272.974932933116,133.361306556333,139.613626376783
0.188250567997403,270.861115020175,272.652233021382,1.79111800120734,-271.756674020778,134.534998509484,137.221675511295
0.190414367629558,272.415195549927,274.88610623915,2.47091068922327,-273.650650894539,134.972142430352,138.678508464187
0.192578167261712,270.805094329004,273.908469649877,3.10337532087334,-272.356781989441,133.850859504065,138.505922485375
0.194741966893866,268.434501264935,271.424773179446,2.99027191451091,-269.92963722219,132.722114675212,137.207522546978
0.19690576652602,270.866194775492,272.269018027566,1.40282325207346,-271.567606401529,134.731685761709,136.83592063982
0.199069566158174,270.129579812671,273.232601178203,3.10302136553224,-271.681090495437,133.513279223569,138.167811271868
0.201233365790328,268.570216003089,270.236339784275,1.66612378118566,-269.403277893682,133.452046110952,135.95123178273
0.203397165422482,266.960427611319,267.934689973782,0.974262362463435,-267.44755879255,132.993082624428,134.454476168123
0.205560965054636,266.895017664364,270.246711457565,3.35169379320087,-268.570864560965,131.771661935582,136.799202625383
0.20772476468679,268.406688623272,271.648049312562,3.24136068929027,-270.027368967917,132.582663966991,137.444705000926
0.209888564318944,266.775646882175,269.07491216758,2.29926528540568,-267.925279524877,132.238190798384,135.687088726493
0.212052363951098,268.390614092076,269.801466842814,1.41085275073829,-269.096040467445,133.489880670669,135.606159796776
0.214216163583252,271.654911519133,273.875537211664,2.22062569253126,-272.765224365398,134.717142913301,138.048081452098
0.216379963215406,274.134398404681,274.085302168777,-0.0490962359040168,-274.109850286729,137.091747320292,137.018102966436
0.21854376284756,275.768343464195,276.65531442886,0.886970964665011,-276.211828946528,137.440686249765,138.771142696763
0.220707562479714,281.289057703349,282.259474876091,0.970417172741406,-281.77426628972,140.159320265304,141.614946024416
0.222871362111868,285.945592351571,284.508925634826,-1.43666671674458,-285.227258993199,143.691129534158,141.536129459041
0.225035161744023,289.801545455123,288.251600275089,-1.54994518003417,-289.026572865106,145.675745317579,143.350827547527
0.227198961376177,295.317058140348,294.427199022308,-0.889859118039226,-294.872128581328,148.103458629193,146.768669952135
0.229362761008331,303.322594284716,299.972897789117,-3.34969649559878,-301.647746036916,153.336145390157,148.311600646759
0.231526560640485,308.226085295059,300.933262514311,-7.29282278074771,-304.579673904685,157.759454037903,146.820219866782
0.233690360272639,312.330758702893,305.156890281354,-7.1738684215394,-308.743824492123,159.752313562216,148.991510929907
0.235854159904793,313.173517181885,308.515247670825,-4.65826951106004,-310.844382426355,158.915893346473,151.928489079883
0.238017959536947,307.54805021068,303.742362104626,-3.80568810605422,-305.645206157653,155.676869158367,149.968336999286
0.240181759169101,299.468475272223,297.992372421554,-1.47610285066872,-298.730423846889,150.472289061446,148.258134785443
0.242345558801255,292.193818933366,292.178295736972,-0.0155231963944402,-292.186057335169,146.10467106488,146.081386270289
0.244509358433409,284.996220989956,287.246495148097,2.25027415814077,-286.121358069026,141.372973415908,144.748384653119
0.246673158065563,277.098218257132,279.320764021957,2.22254576482578,-278.209491139544,137.437836246153,140.771654893392
0.248836957697717,271.641766713048,273.946776925,2.30501021195181,-272.794271819024,134.668378250548,138.125893568476
0.251000757329871,268.562249219349,274.182434445864,5.62018522651596,-271.372341832606,131.471031996416,139.90130983619
0.253164556962025,266.216242110172,268.759083723283,2.54284161311182,-267.487662916728,131.83670024853,135.650962668198
0.255328356594179,263.003324150478,267.92469332125,4.92136917077238,-265.464008735864,129.040977489853,136.423031246011
0.257492156226333,263.721054129718,269.327680275708,5.60662614599045,-266.524367202713,129.057213991864,137.467153210849
0.259655955858487,264.444850228027,268.318926309589,3.87407608156241,-266.381888268808,130.285387073232,136.096501195576
0.261819755490642,266.798028678782,267.415836585213,0.617807906431096,-267.106932631998,133.090110386175,134.016822245822
0.263983555122796,266.818309241816,269.861436794946,3.04312755313015,-268.339873018381,131.887590844343,136.452282174038
0.26614735475495,270.050366480126,273.226278141875,3.17591166174878,-271.638322311,133.437227409189,138.201094901812
0.268311154387104,270.903823871982,270.241891240873,-0.661932631109266,-270.572857556428,135.782878251546,134.789979304882
0.270474954019258,270.147562154188,272.709846978804,2.56228482461637,-271.428704566496,133.792638664786,137.63606590171
0.272638753651412,270.947321335217,274.228404646472,3.28108331125497,-272.587862990845,133.833119011981,138.754743978864
0.274802553283566,270.12534158113,270.873555533867,0.748213952737729,-270.499448557498,134.688563814196,135.810884743303
0.27696635291572,269.280412714895,269.908637448517,0.628224733621153,-269.594525081706,134.326093990637,135.268431091069
0.279130152547874,270.019055836761,270.640821695731,0.621765858970264,-270.329938766246,134.698644988895,135.631293777351
0.281293952180028,267.598275237398,269.919670288528,2.32139505112929,-268.758972762963,132.638440093135,136.120532669828
0.283457751812182,265.219359596434,265.311082104231,0.0917225077963622,-265.265220850332,132.563818544319,132.701402306014
0.285621551444336,264.478799345764,265.458617692122,0.9798183463584,-264.968708518943,131.749490499703,133.21921801924
0.28778535107649,266.940780398021,268.684680947237,1.74390054921543,-267.812730672629,132.598439924403,135.214290748226
0.289949150708644,266.998399398071,265.429534021094,-1.56886537697631,-266.213966709583,134.283632387524,131.930334322059
0.292112950340798,263.822335366474,264.48698074256,0.664645376085275,-264.154658054517,131.578844995195,132.575813059323
0.294276749972953,262.971637045162,266.746104534433,3.7744674892711,-264.858870789797,129.598584777945,135.260286011852
0.296440549605107,261.298040206083,264.334704339704,3.03666413362163,-262.816372272894,129.130688036231,133.685684236663
0.298604349237261,261.228495400958,262.031925877805,0.803430476846756,-261.630210639381,130.212532462056,131.417678177326
0.300768148869415,259.623785059448,262.168377499956,2.54459244050736,-260.896081279702,128.539596309471,132.356484970232
0.302931948501569,260.467481857825,265.448579561246,4.98109770342154,-262.958030709535,127.743192077202,135.214838632334
0.305095748133723,260.558629282556,263.863661638741,3.30503235618517,-262.211145460648,128.626798463185,133.584346997463
0.307259547765877,261.437529297796,262.980244894626,1.54271559683025,-262.208887096211,129.947406850483,132.261480245728
0.309423347398031,262.262045287728,264.452765792302,2.19072050457345,-263.357405540015,130.035662391577,133.321743148438
0.311587147030185,263.805269853711,263.590302382483,-0.21496747122842,-263.697786118097,132.01011866247,131.687667455627
0.313750946662339,262.117358338157,262.814816450846,0.697458112689048,-262.466087394502,130.709950112734,131.756137281768
0.315914746294493,261.227114649144,262.900894513385,1.67377986424117,-262.064004581265,129.776667392451,132.287337188813
0.318078545926647,261.192056017196,262.197493760478,1.0054377432815,-261.694774888837,130.093309136957,131.60146575188
0.320242345558801,262.033452503282,261.439601551329,-0.593850951953186,-261.736527027306,131.313651727618,130.422875299688
0.322406145190955,262.136008919788,262.991407854099,0.855398934310756,-262.563708386944,130.640304992739,131.923403394205
0.324569944823109,263.823660834977,266.880589249244,3.05692841426753,-265.35212504211,130.383366210354,134.968758831756
0.326733744455263,262.273559953954,262.83945023317,0.565890279216035,-262.556505093562,130.853834837369,131.702670256193
0.328897544087418,260.64285426767,262.0424709008,1.39961663313056,-261.342662584235,129.62161881727,131.721043766966
0.331061343719572,260.544667428899,262.9033405975,2.35867316860083,-261.724004013199,129.092997130149,132.63100688305
0.333225143351726,258.854612634893,262.984528760358,4.12991612546483,-260.919570697625,127.362348254714,133.557222442911
0.33538894298388,257.217065155164,259.839409952491,2.622344797327,-258.528237553827,127.297360178918,131.230877374909
0.337552742616034,257.248537413575,258.210947267404,0.962409853829456,-257.729742340489,128.143063779873,129.586678560617
0.339716542248188,258.930684535751,262.098139542324,3.16745500657305,-260.514412039037,127.881614764589,132.632797274448
0.341880341880342,259.82715180155,262.026227786041,2.19907598449117,-260.926689793795,128.814037908529,132.112651885266
0.344044141512496,259.882420225908,262.021883796013,2.13946357010502,-260.952152010961,128.871478327902,132.080673683059
0.34620794114465,261.450931875406,262.097816934854,0.646885059448209,-261.77437440513,130.402023407979,131.372350997151
0.348371740776804,260.572787933864,263.795131511419,3.22234357755445,-262.183959722641,128.675222178155,133.508737544487
0.350535540408958,258.090409149679,260.683060024526,2.59265087484698,-259.386734587103,127.748879137416,131.637855449687
0.352699340041112,258.03177905241,261.448964994783,3.41718594237295,-259.740372023596,127.307296555018,132.433075468578
0.354863139673266,257.249554985619,259.748739235034,2.49918424941495,-258.499147110327,127.375185368102,131.123961742224
0.35702693930542,257.322194654434,258.829760151467,1.50756549703317,-258.07597740295,127.9073145787,130.16866282425
0.359190738937574,257.413521959266,259.57150182119,2.15797986192376,-258.492511890228,127.627771048671,130.864740841557
0.361354538569728,259.855250056392,262.807079718625,2.95182966223297,-261.331164887509,128.45171019708,132.879454690429
0.363518338201883,259.849253937533,261.354495765559,1.50524182802542,-260.601874851546,129.172006054754,131.429868796792
0.365682137834037,257.403858883831,259.898408393334,2.49454950950275,-258.651133638583,127.454654687164,131.196478951418
0.367845937466191,260.501161549246,261.531636466428,1.03047491718132,-261.016399007837,129.735343316033,131.281055691805
0.370009737098345,258.856926708262,261.450797209534,2.59387050127219,-260.153861958898,128.131528103495,132.022333855403
0.372173536730499,256.472433910808,256.523857032054,0.0514231212453069,-256.498145471431,128.210505394782,128.287640076649
0.374337336362653,255.732774138001,257.180803689307,1.44802955130598,-256.456788913654,127.142372293348,129.314416620307
0.376501135994807,258.192767475889,261.124793658616,2.93202618272699,-259.658780567253,127.630370646581,132.028409920672
0.378664935626961,257.449170582907,258.046701066027,0.597530483120011,-257.747935824467,128.425820049894,129.322115774574
0.380828735259115,256.651147869536,257.423819937532,0.772672067995643,-257.037483903534,127.93923790077,129.098246002764
0.382992534891269,255.806243961919,259.947527305628,4.14128334370895,-257.876885633774,125.832480309105,132.044405324669
0.385156334523423,255.741693687913,258.376963142191,2.63526945427756,-257.059328415052,126.553212116818,130.506116298234
0.387320134155577,254.905986417644,253.493593784066,-1.41239263357767,-254.199790100855,128.159189525611,126.040600575244
0.389483933787731,253.321007728242,254.902505902046,1.58149817380374,-254.111756815144,125.869754777219,128.242002037925
0.391647733419885,255.746325661908,257.942302526318,2.19597686440909,-256.844314094113,126.77517439875,130.069139695363
0.393811533052039,255.003301496232,255.543809117732,0.540507621500495,-255.273555306982,127.231396937366,128.042158369616
0.395975332684193,255.034329089585,254.078076861151,-0.956252228434209,-254.556202975368,127.995290659009,126.560912316358
0.398139132316348,255.826409581912,259.036853880685,3.21044429877352,-257.431631731299,126.307982641569,131.123649089729
0.400302931948502,255.796743904144,259.17964054047,3.38289663632594,-257.488192222307,126.206923633909,131.281268588398
0.402466731580656,255.759510617109,256.007735824289,0.248225207179786,-255.883623220699,127.755642704965,128.127980515735
0.40463053121281,255.735556036008,256.669505669909,0.933949633900284,-256.202530852958,127.400803201054,128.801727651904
0.406794330844964,254.941055553304,257.271135532771,2.33007997946726,-256.106095543037,126.305487786918,129.800607756119
0.408958130477118,254.961067124636,253.954729657613,-1.00633746702263,-254.457898391125,127.983702295829,126.474196095295
0.411121930109272,254.987011306291,255.542442879114,0.555431572822329,-255.264727092702,127.215789866734,128.048937225968
0.413285729741426,255.797626221812,259.64821000541,3.85058378359719,-257.722918113611,125.973521219108,131.749396894503
0.41544952937358,255.797048390016,257.450613393712,1.65356500369566,-256.623830891864,127.07174169316,129.552089198704
0.417613329005734,255.784433640193,255.200317445694,-0.584116194499046,-255.492375542943,128.184274917346,127.308100625597
0.419777128637888,255.77098637683,257.591534360301,1.82054798347079,-256.681260368566,126.97521919668,129.706041171886
0.421940928270042,254.971039836258,259.056224927965,4.08518509170753,-257.013632382112,125.442927372275,131.570705009836
0.424104727902196,254.973854398729,256.485820586595,1.51196618786611,-255.729837492662,126.730944105431,128.99889338723
0.42626852753435,254.978046591137,255.552222415082,0.574175823945154,-255.265134503109,127.201935383596,128.063199119514
0.428432327166504,254.976476532461,257.92624478956,2.94976825709901,-256.45136066101,126.013354137681,130.438006523329
0.430596126798658,257.351111733556,258.049827267331,0.69871553377493,-257.700469500444,128.326198099891,129.374271400553
0.432759926430813,256.549131253999,258.23322161094,1.68409035694037,-257.391176432469,127.432520448529,129.95865598394
0.434923726062967,258.936608583682,259.959612981308,1.02300439762547,-259.448110782495,128.956802093028,130.491308689467
0.437087525695121,258.162661715052,259.972429379027,1.80976766397509,-259.06754554704,128.176447025538,130.891098521501
0.439251325327275,257.396200437917,259.060838350887,1.66463791296991,-258.228519394402,127.865781262474,130.362738131928
0.441415124959429,255.825302437238,258.090077743914,2.2647753066764,-256.957690090576,126.780263565281,130.177426525295
0.443578924591583,256.60854755872,257.956548908051,1.34800134933067,-257.282548233385,127.630273104695,129.652275128691
0.445742724223737,255.769822869288,257.145459791108,1.37563692181973,-256.457641330198,127.197092973734,129.260548356464
0.447906523855891,256.507135761165,258.838986993949,2.33185123278338,-257.673061377557,127.087642264191,130.585419113366
0.450070323488045,257.268819735051,260.589067374134,3.32024763908265,-258.928943554592,126.974286047984,131.954657506608
0.452234123120199,258.084366836792,259.126857019386,1.04249018259486,-258.605611928089,128.520938327098,130.084673600991
0.454397922752353,259.746558203787,259.948173572733,0.201615368946079,-259.84736588826,129.772471417421,130.07489447084
0.456561722384507,259.833886690628,261.45432851086,1.6204418202326,-260.644107600744,129.106722435197,131.537385165546
0.458725522016661,260.674047699574,262.102478199705,1.42843050013073,-261.38826294964,129.622808599722,131.765454349918
0.460889321648815,259.05295869596,258.002702406788,-1.05025628917247,-258.527830551374,130.051607492566,128.476223058808
0.463053121280969,258.158147739207,259.553157816314,1.39501007710709,-258.85565277776,128.38156883105,130.47408394671
0.465216920913123,256.457186260429,260.415132802236,3.95794654180742,-258.436159531332,126.249619859311,132.186539672022
0.467380720545278,254.815342446521,256.576011403702,1.76066895718091,-255.695676925112,126.52733674467,129.168340180441
0.469544520177432,256.44904345123,256.704000011012,0.254956559782102,-256.576521731121,128.097043445724,128.479478285397
0.471708319809586,258.951643264514,260.728200068758,1.77655680424419,-259.839921666636,128.587543230135,131.252378436501
0.47387211944174,261.455715634282,263.052603984167,1.59688834988469,-262.254159809225,129.929413642199,132.324746167026
0.476035919073894,260.71020983416,261.325861137433,0.615651303272443,-261.018035485797,130.047279265444,130.970756220353
0.478199718706048,259.071297108309,259.605524761785,0.534227653476307,-259.338410935047,129.268534727416,130.069876207631
0.480363518338202,258.160154670599,260.356260796,2.1961061254018,-259.2582077333,127.982024272598,131.276183460701
0.482527317970356,257.25046822228,257.248784743087,-0.00168347919276357,-257.249626482684,128.626075850736,128.623550631947
0.48469111760251,255.612736643318,256.594733001214,0.981996357896094,-256.103734822266,127.315370142711,128.788364679555
0.486854917234664,254.861986515465,258.30567595806,3.44368944259469,-256.583831236763,125.709148536435,130.874682700327
0.489018716866818,254.970961785475,257.536743426843,2.56578164136806,-256.253852606159,126.202590072054,130.051262534106
0.491182516498972,252.699381531247,254.275193406983,1.57581187573629,-253.487287469115,125.561784827755,127.92550264136
0.493346316131126,253.545279553913,254.933838314144,1.38855876023115,-254.239558934029,126.078360396841,128.161198537188
0.49551011576328,253.507165181471,254.830831371125,1.32366618965426,-254.168998276298,126.091749495908,128.07724878039
0.497673915395434,251.018500737976,252.438178275485,1.41967753750953,-251.72833950673,124.799411600233,126.928927906497
0.499837715027588,250.908150814656,249.350123868378,-1.55802694627761,-250.129137341517,126.233088880467,123.89604846105
0.502001514659743,250.856253490002,253.451719742794,2.59546625279197,-252.153986616398,124.130393618605,128.023592997793
0.504165314291897,248.508965662173,251.153129681917,2.64416401974378,-249.831047672045,122.932400821215,126.89864685083
0.506329113924051,248.612724103468,249.553481685932,0.940757582464613,-249.0831028947,123.835983260502,125.247119634198
0.508492913556205,248.723784208883,248.66807789863,-0.0557063102535835,-248.695931053757,124.389745259569,124.306185794188
0.510656713188359,247.981581138184,250.939374257777,2.95779311959328,-249.460477697981,122.511894009295,126.948583688685
0.512820512820513,246.356146839569,247.696788450866,1.34064161129726,-247.026467645218,122.507752614136,124.518715031082
0.514984312452667,247.046756802699,247.716167728882,0.669410926182962,-247.38146226579,123.188672938258,124.192789327532
0.517148112084821,245.347384217203,249.39180664344,4.04442242623719,-247.369595430322,120.651480895483,126.718114534839
0.519311911716975,244.500910576197,246.311267767022,1.81035719082502,-245.406089171609,121.345276692686,124.060812478923
0.521475711349129,244.538905133598,245.567816988332,1.02891185473382,-245.053361060965,121.754996639432,123.298364421533
0.523639510981283,244.644029147415,247.928720192669,3.28469104525382,-246.286374670042,120.679669051081,125.606705618962
0.525803310613437,245.547341443169,247.847073254323,2.29973181115449,-246.697207348746,121.623804816007,125.073402532739
0.527967110245591,243.213557046953,245.374638841582,2.16108179462927,-244.294097944268,120.526237626162,123.767860318106
0.530130909877745,242.383032332013,244.541145795832,2.15811346381895,-243.462089063923,120.112459434097,123.349629629826
0.532294709509899,243.87145722381,245.36847424883,1.49701702501994,-244.61996573632,121.187220099395,123.432745636925
0.534458509142054,241.380040453003,243.858791741503,2.47875128850046,-242.619416097253,119.450644582251,123.168771515002
0.536622308774208,241.326520996557,243.138179352504,1.81165835594726,-242.23235017453,119.757431320305,122.474918854226
0.538786108406362,242.947046042954,244.749973124433,1.80292708147897,-243.848509583693,120.572059480737,123.276450102956
0.540949908038516,241.456273171933,246.297202666117,4.84092949418326,-243.876737919025,118.307671838875,125.56906608015
0.54311370767067,240.772236543032,243.838196505016,3.06595996198408,-242.305216524024,118.853138290524,123.4520782335
0.545277507302824,241.627752526811,244.576238083592,2.94848555678055,-243.101995305202,119.339633485015,123.762361820186
0.547441306934978,243.189978510056,244.576108368523,1.3861298584666,-243.88304343929,120.901924325795,122.981119113495
0.549605106567132,241.498926858282,242.245592179146,0.74666532086448,-241.872259518714,120.376130768709,121.496128750005
0.551768906199286,241.380573902809,242.31325597798,0.932682075171073,-241.846914940394,120.223945913819,121.622969026575
0.55393270583144,241.317161370394,244.729502592616,3.41234122222178,-243.023331981505,118.952410074086,124.070921907419
0.556096505463594,239.759395816259,243.114608128908,3.35521231264869,-241.437001972583,118.202091751805,123.234910220778
0.558260305095748,238.281259831028,240.66946609286,2.38820626183156,-239.475362961944,117.946526784598,121.528836177346
0.560424104727902,239.994759877535,243.003828424767,3.00906854723198,-241.499294151151,118.492845665152,123.006448486
0.562587904360056,240.848425241106,243.00194035752,2.15351511641398,-241.925182799313,119.347455062346,122.577727736967
0.56475170399221,238.420361318039,240.663446281401,2.24308496336241,-239.54190379972,118.088638177338,121.453265622382
0.566915503624364,239.887949694794,240.723076593978,0.835126899184047,-240.305513144386,119.526411397805,120.779101746581
0.569079303256518,240.558610882404,243.13472505031,2.57611416790652,-241.846667966357,118.991248357248,122.855419609108
0.571243102888673,238.919913139928,240.724458138734,1.80454499880656,-239.822185639331,118.557684070561,121.26450156877
0.573406902520827,238.977952086511,239.868041156183,0.890089069672257,-239.422996621347,119.043931508419,120.379065112928
0.575570702152981,240.698050052409,242.201222371204,1.50317231879504,-241.449636211807,119.597438866807,121.852197345
0.577734501785135,239.231707013783,241.405715169916,2.17400815613203,-240.318711091849,118.528849428826,121.789861663024
0.579898301417289,237.68167476121,240.663124650033,2.98144988882274,-239.172399705622,117.350112436194,121.822287269428
0.582062101049443,239.201229115028,240.734534853553,1.53330573852514,-239.967881984291,118.833961688252,121.133920296039
0.584225900681597,239.856708569311,240.773778509843,0.917069940531803,-240.315243539577,119.46981931439,120.845424225187
0.586389700313751,238.9365554047,240.747940236177,1.81138483147637,-239.842247820439,118.562585286612,121.279662533827
0.588553499945905,238.110062937945,239.081802327841,0.971739389895419,-238.595932632893,118.569161774025,120.026770858868
0.590717299578059,239.784133248008,242.975085080682,3.19095183267416,-241.379609164345,118.296590707667,123.083018456678
0.592881099210213,239.935632493228,241.361121856596,1.42548936336783,-240.648377174912,119.25507156493,121.393305609982
0.595044898842367,238.472224430813,240.620052225521,2.14782779470806,-239.546138328167,118.162198318053,121.383940010115
0.597208698474521,239.288741614591,243.107373562295,3.81863194770403,-241.198057588443,117.735054833443,123.463002755
0.599372498106675,239.984608359396,242.398502679612,2.41389432021657,-241.191555519504,118.78535701959,122.406198499914
0.601536297738829,239.027434171537,239.227834127237,0.200399955700192,-239.127634149387,119.413517107918,119.714117041468
0.603700097370984,238.106360783793,239.940733881059,1.83437309726634,-239.023547332426,118.135993843263,120.887553489163
0.605863897003138,238.890687470232,239.816429012849,0.925741542617004,-239.353558241541,118.982472963808,120.371085277733
0.608027696635292,239.005509668989,239.725795269025,0.72028560003568,-239.365652469007,119.142612034477,120.22304043453
0.610191496267446,237.588424987439,238.937753245015,1.34932825757636,-238.263089116227,118.119548364931,120.143540751296
0.6123552958996,240.094991723309,241.428242940697,1.33325121738784,-240.761617332003,119.38087025296,121.380747079042
0.614519095531754,239.296935503829,241.573385225593,2.27644972176435,-240.435160364711,118.510242891032,121.924917473679
0.616682895163908,238.371873718773,240.871113801127,2.49924008235413,-239.62149375995,117.936316818209,121.685176941741
0.618846694796062,238.194918976457,240.849336827707,2.65441785125032,-239.522127902082,117.770250562603,121.751877339479
0.621010494428216,238.874271513267,240.720527643489,1.846256130222,-239.797399578378,118.514007691523,121.283391886856
0.62317429406037,238.097302976514,237.383781531441,-0.713521445072189,-237.740542253977,119.405412210793,118.335130043185
0.625338093692524,235.856509771021,238.089014366626,2.23250459560535,-236.972762068823,116.812002587708,120.160759481116
0.627501893324678,239.215426661601,241.303444800755,2.08801813915358,-240.259435731178,118.563704261224,121.695731469954
0.629665692956832,240.908888490958,243.031199797916,2.12231130695767,-241.970044144437,119.393288592,122.576755552437
0.631829492588986,239.280993985391,239.220251051598,-0.0607429337932501,-239.250622518494,119.670868459592,119.579754058902
0.63399329222114,239.919649097733,241.694964284274,1.77531518654035,-240.807306691004,119.072166955596,121.735139735407
0.636157091853294,238.952785755223,243.248171235903,4.29538548067961,-241.100478495563,117.328700137272,123.771778358291
0.638320891485448,237.28328947431,239.923130858545,2.63984138423501,-238.603210166427,117.321724045037,121.28148612139
0.640484691117603,237.343303245455,238.163128792192,0.819825546737349,-237.753216018823,118.261738849359,119.491477169465
0.642648490749757,237.501826129304,239.659985266954,2.1581591376503,-238.580905698129,117.671833495827,120.909072202302
0.644812290381911,237.655341350591,238.906781108097,1.25143975750586,-238.281061229344,118.201950796543,120.079110432801
0.646976090014065,236.91406652926,239.057509031584,2.14344250232418,-237.985787780422,117.385312013468,120.600475766954
0.649139889646219,239.220209460364,241.612379538472,2.39217007810723,-240.416294499418,118.414019691129,122.002274808289
0.651303689278373,239.064932223041,242.496244745359,3.4313125223178,-240.7805884842,117.816809850362,122.963778633838
0.653467488910527,238.931792281186,241.656485067351,2.72469278616529,-240.294138674268,118.10354974751,122.190588926758
0.655631288542681,238.905590540833,240.712184432524,1.80659389169156,-239.808887486678,118.549498324571,121.259389162108
0.657795088174835,239.793704656301,241.342310146705,1.54860549040319,-240.568007401503,119.122549582949,121.445457818554
0.659958887806989,237.561419167571,238.876927548592,1.3155083810214,-238.219173358081,118.122955393275,120.096217964807
0.662122687439143,235.291871722008,238.129978870187,2.83810714817878,-236.710925296098,116.226882286915,120.484043009183
0.664286487071297,237.680535134918,239.864637130412,2.18410199549461,-238.772586132665,117.748216569712,121.024369562954
0.666450286703451,238.365920811087,240.017942471023,1.65202165993603,-239.191931641055,118.356949575576,120.83498206548
0.668614086335605,237.415757122353,237.705917506163,0.290160383810132,-237.560837314258,118.562798369271,118.998038944987
0.670777885967759,236.521439256233,239.246722664932,2.725283408699,-237.884080960583,116.898077923767,120.986003036816
0.672941685599914,237.338620231766,239.90448789594,2.56586766417399,-238.621554063853,117.386376283796,121.235177780057
0.675105485232068,237.469415225414,238.171214153026,0.701798927611719,-237.82031468922,118.383808148901,119.436506540319
0.677269284864222,235.241260860627,237.310999618343,2.06973875771561,-236.276130239485,116.585761051456,119.690369188029
0.679433084496376,236.909577165132,237.362026776812,0.45244961167927,-237.135801970972,118.228563776727,118.907238194245
0.68159688412853,236.066122466452,237.496206156063,1.43008368961071,-236.781164311258,117.318019388421,119.463144922837
0.683760683760684,235.918001766485,237.63106021336,1.7130584468743,-236.774530989923,117.102471659806,119.672059330117
0.685924483392838,236.560060905823,238.480287030277,1.92022612445393,-237.52017396805,117.319917390685,120.200256577366
0.688088283024992,236.501476834645,238.424398242599,1.92292140795342,-237.462937538622,117.289277713346,120.173659825276
0.690252082657146,234.988105247249,235.119265952995,0.131160705746282,-235.053685600122,117.428472270751,117.625213329371
0.6924158822893,234.358654894476,233.413622275392,-0.945032619084571,-233.886138584934,117.65184375678,116.234294828154
0.694579681921454,235.302065979872,237.345568026393,2.04350204652067,-236.323817003132,116.629281966676,119.694535036457
0.696743481553608,234.541770358967,232.631116857136,-1.91065350183106,-233.586443608051,118.226211930399,115.360231677652
0.698907281185762,232.84794935764,231.946417281866,-0.901532075774099,-232.397183319753,116.874740716707,115.522442603046
0.701071080817916,233.464713265584,235.225825273976,1.76111200839188,-234.34526926978,115.851800628596,118.493468641184
0.70323488045007,234.121146423158,235.257937691772,1.13679126861371,-234.689542057465,116.492177577272,118.197364480193
0.705398680082224,231.729068693242,233.617941439569,1.88887274632725,-232.673505066406,114.920097973457,117.753407092948
0.707562479714378,231.859163741372,233.523306592914,1.66414285154198,-232.691235167143,115.097510444915,117.593724722228
0.709726279346533,232.84121994599,233.445094141532,0.603874195541692,-233.143157043761,116.118672875224,117.024484168537
0.711890078978687,232.170246248195,231.837286703784,-0.332959544410897,-232.00376647599,116.251602896303,115.752163579687
0.714053878610841,231.354918634025,231.881133203868,0.526214569842665,-231.618025918946,115.414352032091,116.203673886855
0.716217678242995,231.996445791713,234.335511836326,2.33906604461268,-233.165978814019,114.82868987355,118.337288940469
0.718381477875149,231.807829987221,232.79918182164,0.991351834419532,-232.30350590443,115.408239076401,116.89526682803
0.720545277507303,231.703596456369,232.015016192929,0.311419736560453,-231.859306324649,115.696088359904,116.163217964745
0.722709077139457,232.545538312653,233.577454344953,1.0319160323001,-233.061496328803,115.756811140176,117.304685188626
0.724872876771611,232.715497186309,235.917262660167,3.2017654738579,-234.316379923238,114.756865856226,119.559514067013
0.727036676403765,229.725388999684,233.497469071245,3.77208007156096,-231.611429035465,112.976654464062,118.634774571403
0.729200476035919,229.814506425126,231.897729641289,2.08322321616271,-230.856118033208,113.865641604482,116.990476428726
0.731364275668073,232.128525751495,233.501888552571,1.3733628010753,-232.815207152033,115.37758147521,117.437625676823
0.733528075300227,231.143277649276,234.320192112222,3.17691446294597,-232.731734880749,113.983181593165,118.748553287584
0.735691874932381,230.949097661801,231.160249441583,0.211151779781687,-231.054673551692,115.36897294101,115.685700610682
0.737855674564535,232.46546175075,233.551889761604,1.08642801085404,-233.008675756177,115.689516869948,117.319158886229
0.740019474196689,231.770428403768,235.1412414552,3.37081305143201,-233.455834929484,114.199807676168,119.256027253316
0.742183273828844,231.190159744102,233.547849189042,2.35768944494009,-232.369004466572,114.416235149581,117.952769316991
0.744347073460998,232.18096505237,232.748496543314,0.567531490943765,-232.464730797842,115.806716780713,116.658014017129
0.746510873093152,233.819944647347,235.124518969604,1.30457432225674,-234.472231808475,116.257685162545,118.21454664593
0.748674672725306,232.097387734505,233.521707221826,1.42431948732155,-232.809547478166,115.336534123592,117.473013354574
0.75083847235746,231.86211664621,231.917147128225,0.0550304820151553,-231.889631887217,115.903543082097,115.98608880512
0.753002271989614,233.263004001911,232.706852272759,-0.556151729152475,-232.984928137335,116.909577865532,116.075350271803
0.755166071621768,232.448223491728,235.102160418949,2.65393692722031,-233.775191955338,114.897143282254,118.878048673084
0.757329871253922,230.230489644969,233.538581879719,3.30809223474955,-231.884535762344,113.46119870511,118.423337057234
0.759493670886076,230.482400753495,233.566506823804,3.08410607030922,-232.02445378865,113.699147341593,118.325306447057
0.76165747051823,229.866291778329,233.58170762998,3.71541585165082,-231.723999704154,113.075437963339,118.648561740815
0.763821270150384,229.852090118654,231.188524247095,1.33643412844035,-230.520307182874,114.257827995107,116.262479187768
0.765985069782538,228.854109313525,231.154147515502,2.3000382019774,-230.004128414513,113.277035555774,116.72709285874
0.768148869414692,229.38137273693,232.698126957336,3.31675422040595,-231.039749847133,113.032309258262,118.007440588871
0.770312669046846,230.808926850686,231.872056918727,1.06313006804146,-231.340491884706,114.872898391322,116.467593493384
0.772476468679,230.065820387531,231.083806315706,1.01798592817474,-230.574813351618,114.523917229678,116.05089612194
0.774640268311154,230.304828022456,232.72210863202,2.41728060956456,-231.513468327238,113.943773706446,117.569694620792
0.776804067943308,232.173081716709,232.790236839363,0.617155122653401,-232.481659278036,115.777963297028,116.703695981008
0.778967867575463,230.725682622919,232.041335001789,1.31565237887017,-231.383508812354,114.705015122024,116.678493690329
0.781131667207617,230.635207700407,232.032135578808,1.39692787840153,-231.333671639608,114.619139911003,116.714531728605
0.783295466839771,230.365029854495,233.553700856364,3.18867100186856,-231.95936535543,113.588179426313,118.371185929116
0.785459266471925,229.288052771088,231.080458583329,1.79240581224136,-230.184255677209,113.747823479423,116.436432197785
0.787623066104079,227.584832189763,230.231263717119,2.64643152735644,-228.908047953441,112.469200331203,116.438847622238
0.789786865736233,229.303267149901,230.25330051705,0.950033367148393,-229.778283833475,114.176616891376,115.601666942099
0.791950665368387,228.008921908848,231.137988588598,3.12906667974994,-229.573455248723,112.439927614549,117.133527634174
0.794114465000541,227.489618996275,230.447533401313,2.95791440503754,-228.968576198794,112.265852295619,116.702723903175
0.796278264632695,228.365556908955,231.292291434212,2.92673452525685,-229.828924171583,112.719411191849,117.109512979734
0.798442064264849,230.579532015468,232.840064787051,2.26053277158371,-231.709798401259,114.159499621942,117.550298779317
0.800605863897003,228.673718661271,231.139699520001,2.46598085872961,-229.906709090636,113.103868901271,116.802840189365
0.802769663529157,229.999459767406,231.028982412406,1.02952264500055,-230.514221089906,114.484968561203,116.029252528703
0.804933463161311,230.755033563591,231.787764553068,1.03273098947679,-231.271399058329,114.861151287057,116.410247771272
0.807097262793465,231.762106285849,233.441092081679,1.67898579582953,-232.601599183764,115.04156024501,117.560038938754
0.809261062425619,232.09382376585,232.772383154361,0.678559388511275,-232.433103460106,115.707632188669,116.725471271436
0.811424862057774,233.922520618129,235.262485526593,1.33996490846414,-234.592503072361,116.291277854833,118.301225217529
0.813588661689928,233.915765737328,236.867891166341,2.95212542901328,-235.391828451834,115.481820154157,119.910008297677
0.815752461322082,232.870777395329,232.810799392461,-0.0599780028688315,-232.840788393895,116.465377699099,116.375410694796
0.817916260954236,231.742438252389,232.682201647087,0.939763394698161,-232.212319949738,115.401337428846,116.810982520893
0.82008006058639,233.919899552784,235.769173719648,1.84927416686381,-234.844536636216,116.03531269296,118.809223943256
0.822243860218544,233.176420654848,234.97454693286,1.79812627801144,-234.075483793854,115.689147188418,118.386336605435
0.824407659850698,231.86332416838,232.681691005446,0.81836683706598,-232.272507586913,115.522478665657,116.750028921256
0.826571459482852,232.191507620376,235.191245497157,2.99973787678158,-233.691376558767,114.595884871797,119.095491686969
0.828735259115006,232.364118194266,234.479332779596,2.11521458533014,-233.421725486931,115.124451804468,118.297273682463
0.83089905874716,231.475994584749,235.258922102804,3.78292751805444,-233.367458343776,113.846533533347,119.520924810429
0.833062858379314,231.968641528453,233.568619866817,1.59997833836343,-232.768630697635,115.184331595045,117.58429910259
0.835226658011468,233.237232518652,235.827747808816,2.59051529016415,-234.532490163734,115.323358614244,119.20913154949
0.837390457643622,232.307072359726,234.964482476058,2.65741011633227,-233.635777417892,114.824831121697,118.810946296195
0.839554257275776,233.238745292358,233.406703169426,0.167957877068318,-233.322724230892,116.535393707645,116.787330523247
0.84171805690793,233.56457774041,235.902223654347,2.33764591393634,-234.733400697379,115.613465913237,119.119934784142
0.843881856540084,235.460437660761,236.022259404676,0.561821743914095,-235.741348532718,117.449307958424,118.292040574295
0.846045656172238,233.170380355855,235.277839062521,2.10745870666642,-234.224109709188,115.531460824594,118.692648884594
0.848209455804393,234.579058179974,237.609249809386,3.03019162941163,-236.09415399468,115.774433275281,120.319720719399
0.850373255436547,235.032837521583,235.900891172572,0.868053650988372,-235.466864347077,117.082391935297,118.38447241178
0.852537055068701,233.952011202254,234.204967287046,0.252956084792629,-234.07848924465,116.849527558731,117.228961685919
0.854700854700855,231.521720035219,234.182536483604,2.66081644838479,-232.852128259412,114.430451793417,118.421676465994
0.856864654333009,233.334966458837,236.638590668013,3.30362420917598,-234.986778563425,115.015671124831,119.971107438594
0.859028453965163,234.479441568803,235.958456205658,1.47901463685571,-235.21894888723,116.500213465973,118.718735421257
0.861192253597317,231.552105300873,234.449851433623,2.89774613274977,-233.000978367248,114.327179584062,118.673798783186
0.863356053229471,234.720447248754,235.241965030674,0.521517781920124,-234.981206139714,117.099464733417,117.881741406297
0.865519852861625,234.45722690411,235.955983707487,1.49875680337644,-235.206605305799,116.479235050367,118.727370255432
0.867683652493779,231.727706536141,233.469814732211,1.74210819606949,-232.598760634176,114.992799170036,117.60596146414
0.869847452125933,231.52593649107,234.208258818485,2.68232232741519,-232.867097654777,114.421807081827,118.44529057295
0.872011251758087,233.186720888032,235.82162719512,2.63490630708725,-234.504174041576,115.275907290473,119.228266751103
0.874175051390241,233.479777384173,234.316177881674,0.836400497500648,-233.897977632923,116.321688443336,117.576289189587
0.876338851022395,231.418382254688,233.607718392935,2.189336138247,-232.513050323811,114.61452305822,117.898527265591
0.878502650654549,231.562967075807,233.641474637237,2.07850756142909,-232.602220856522,114.742229757189,117.859991099333
0.880666450286704,229.058334335355,233.602486920021,4.54415258466571,-231.330410627688,112.257090875345,119.073319752343
0.882830249918858,227.959277869961,230.342675008365,2.38339713840335,-229.150976439163,112.787940365779,116.363036073384
0.884994049551012,229.256967342234,232.65664563679,3.39967829455637,-230.956806489512,112.928644523839,118.028161965673
0.887157849183166,230.749673089505,234.230700878137,3.48102778863156,-232.490186983821,113.634322650437,118.855864333384
0.88932164881532,230.110453237146,231.098573426999,0.988120189852765,-230.604513332072,114.561166523647,116.043346808426
0.891485448447474,229.622953105544,231.176005072285,1.55305196674058,-230.399479088915,114.034950569402,116.364528519513
0.893649248079628,229.888322670402,232.824183429811,2.93586075940837,-231.356253050106,113.476230955497,117.88002209461
0.895813047711782,229.151428683565,232.03066513221,2.87923644864426,-230.591046907888,113.136096117461,117.454950790427
0.897976847343936,228.96670143845,229.591602694191,0.624901255741662,-229.279152066321,114.170900091354,115.108251974967
0.90014064697609,227.864335777797,230.313600193317,2.44926441552028,-229.088967985557,112.707535681138,116.381432304419
0.902304446608244,230.010062521339,231.065664031597,1.05560151025753,-230.537863276468,114.477230505541,116.060632770927
0.904468246240398,228.4019998481,230.283376773882,1.88137692578235,-229.342688310991,113.260311461159,116.082376849832
0.906632045872552,228.611599274874,230.340309586074,1.72871031119922,-229.475954430474,113.441444481838,116.034509948636
0.908795845504706,230.504883655911,232.785986834279,2.281103178368,-231.645435245095,114.111890238771,117.533545006323
0.91095964513686,230.709652236884,231.224009367246,0.514357130361816,-230.966830802065,115.097647553261,115.869183248804
0.913123444769014,226.717604553769,228.026112221617,1.30850766784752,-227.371858387693,112.704548442961,114.667309944732
0.915287244401168,227.287419647534,230.360985288399,3.07356564086453,-228.824202467966,112.106927003335,116.717275464632
0.917451044033323,230.17778198246,233.489673789529,3.31189180706909,-231.833727885995,113.432945087696,118.400782798299
0.919614843665477,228.414391366427,231.87610607009,3.46171470366258,-230.145248718258,112.476338331382,117.668910386876
0.921778643297631,228.459014164609,232.68459293526,4.22557877065032,-230.571803549934,112.116717696979,118.455085852955
0.923942442929785,231.86928090198,233.525051707691,1.65577080571131,-232.697166304836,115.106755048134,117.590411256701
0.926106242561939,228.96514579183,230.400398050278,1.43525225844834,-229.682771921054,113.764946766691,115.917825154363
0.928270042194093,229.112606570707,230.431495427659,1.31888885695201,-229.772050999183,113.896858856877,115.875192142305
0.930433841826247,229.841878148866,232.008330598927,2.16645245006038,-230.925104373896,113.837712849403,117.087391524493
0.932597641458401,229.606185911048,231.159450312884,1.55326440183572,-230.382818111966,114.026460754606,116.35635735736
0.934761441090555,228.552718259892,228.710810766105,0.158092506213308,-228.631764512998,114.197312876839,114.434451636159
0.936925240722709,228.430347645855,231.059427491121,2.62907984526643,-229.744887568488,112.900633900294,116.844253668194
0.939089040354863,227.722981403082,232.665756622901,4.94277521981962,-230.194369012992,111.390103091631,118.80426592136
0.941252839987017,227.166903064276,229.54984880156,2.38294573728487,-228.358375932918,112.391978663495,115.966397269423
0.943416639619171,227.405835520731,229.624365455879,2.21852993514798,-228.515100488305,112.593652792791,115.921447695513
0.945580439251325,229.084666851901,232.843456160856,3.75878930895499,-230.964061506378,112.662938771473,118.301122734905
0.947744238883479,227.384775585393,230.437341217758,3.05256563236523,-228.911058401575,112.166104976514,116.744953425062
0.949908038515634,225.562058671281,227.185375443806,1.62331677252521,-226.373717057543,111.969370949378,114.404346108166
0.952071838147788,226.945876127213,230.282975705926,3.33709957871304,-228.614425916569,111.80438827425,116.810037642319
0.954235637779942,229.275187862137,231.036730101109,1.76154223897115,-230.155958981623,113.756822811583,116.39913617004
0.956399437412096,227.806648054962,227.882863993634,0.0762159386716803,-227.844756024298,113.865216058145,113.979539966153
0.95856323704425,227.226222184724,228.757223799338,1.53100161461452,-227.991722992031,112.847610285055,115.144112706976
0.960727036676404,227.401644561454,232.023758869239,4.62211430778515,-229.712701715346,111.389765126834,118.322936588512
0.962890836308558,227.434032865572,232.063443823543,4.62941095797154,-229.748738344557,111.4023109538,118.346427390757
0.965054635940712,228.104188328496,228.852759550602,0.74857122210642,-228.478473939549,113.677808553195,114.800665386354
0.967218435572866,228.699815454875,232.740775866371,4.0409604114964,-230.720295660623,112.329427521689,118.390868138934
0.96938223520502,230.138503394715,232.65467659862,2.51617320390474,-231.396589996668,113.811165095405,117.585424901262
0.971546034837174,234.094812446037,234.997989418976,0.903176972938894,-234.546400932507,116.595817736549,117.950583195958
0.973709834469328,238.977778879505,238.204404584487,-0.773374295018073,-238.591091731996,119.875576587261,118.715515144734
0.975873634101482,246.294289202086,244.636820056382,-1.65746914570445,-245.465554629234,123.975879173895,121.489675455339
0.978037433733636,251.969874309372,249.481589234355,-2.48828507501733,-250.725731771863,127.229079692195,123.496652079669
0.98020123336579,260.711385666934,255.872620137499,-4.83876552943539,-258.292002902217,132.775075598185,125.516927304032
0.982365032997944,270.147876013226,262.999603182531,-7.14827283069542,-266.573739597878,138.648074421961,127.925665175918
0.984528832630098,278.758262170441,270.084898159257,-8.67336401118428,-274.421580164849,143.715813090813,130.705767074036
0.986692632262253,281.858233590564,270.02223012537,-11.8360034651942,-275.940231857967,146.847118527879,129.093113330088
0.988856431894407,285.054059358005,273.974509218118,-11.0795501398878,-279.514284288062,148.066804748947,131.447479539115
0.991020231526561,280.385927096059,271.625897587867,-8.76002950819202,-276.005912341963,144.572978302126,131.432934039838
0.993184031158715,274.145337309507,266.924524832098,-7.22081247740931,-270.534931070803,140.683074893458,129.851856177344
0.995347830790869,263.085565652964,261.418272983127,-1.66729266983725,-262.251919318045,132.376429161401,129.875490156645
0.997511630423023,257.493855646219,257.452299452143,-0.0415561940753832,-257.473077549181,128.767705920147,128.705371629034
0.999675430055177,251.025655296537,251.838829916682,0.813174620145219,-251.432242606609,125.106240338196,126.326002268414
1.00183922968733,243.741198606547,245.401874373756,1.6606757672094,-244.571536490152,121.040261419669,123.531275070483
1.00400302931949,240.486347489089,242.958745798359,2.47239830927046,-241.722546643724,119.006974589909,122.715572053815
1.00616682895164,234.95650030508,239.780824200839,4.82432389575902,-237.368662252959,115.06608820466,122.302574048299
1.00833062858379,231.907143655183,235.871076286882,3.96393263169875,-233.889109971033,113.971605511742,119.91750445929
1.01049442821595,231.266752998954,236.75453538325,5.4877823842958,-234.010644191102,112.889485307329,121.121158883773
1.0126582278481,233.733715460233,238.401858712661,4.66814325242726,-236.067787086447,114.532786103903,121.535000982544
1.01482202748026,233.690201929905,238.390380031733,4.70017810182799,-236.040290980819,114.495011914038,121.54527906678
1.01698582711241,235.131936899782,238.318198135254,3.18626123547205,-236.725067517518,115.972837832155,120.752229685363
1.01914962674456,238.943582142929,239.823578491878,0.879996348949192,-239.383580317403,119.03179289699,120.351787420414
1.02131342637672,240.459103720084,242.959268167257,2.50016444717284,-241.709185943671,118.979469636456,122.729716307215
1.02347722600887,238.14271621791,240.601963758795,2.45924754088571,-239.372339988353,117.841734338512,121.530605649841
1.02564102564103,239.90586195155,241.475411445922,1.56954949437238,-240.690636698736,119.168156228589,121.522480470147
1.02780482527318,239.286659081425,240.764371431734,1.47771235030928,-240.02551525658,118.904473365558,121.121041891022
1.02996862490533,237.759544069852,239.209460144105,1.44991607425339,-238.484502106978,118.154813997799,120.329688109179
1.03213242453749,235.280091195023,239.170782752806,3.8906915577831,-237.225436973914,115.69469981862,121.530737155295
1.03429622416964,238.254958416674,239.874442919145,1.61948450247047,-239.064700667909,118.317736957102,120.746963710808
1.0364600238018,237.271006552066,239.785364365483,2.51435781341689,-238.528185458775,117.378324369325,121.14986108945
1.03862382343395,235.626984156284,237.373193168189,1.74620901190556,-236.500088662237,116.940387572189,119.559701090047
1.0407876230661,235.752380413464,239.81023160538,4.05785119191557,-237.781306009422,115.847264610774,121.934041398648
1.04295142269826,238.371334232303,240.708664006019,2.33732977371542,-239.539999119161,118.017002229294,121.522996889867
1.04511522233041,236.982964572052,238.415090960468,1.43212638841572,-237.69902776626,117.775419091818,119.923608674442
1.04727902196257,237.814091173421,236.848755574394,-0.965335599026929,-237.331423373907,119.389713386224,117.941709987683
1.04944282159472,238.45168279938,240.759427101873,2.30774430249335,-239.605554950626,118.071969248443,121.533585702183
1.05160662122687,235.810110105013,239.056449703971,3.24633959895851,-237.433279904492,116.281885253027,121.151394651465
1.05377042085903,234.023509886193,235.781928141594,1.75841825540087,-234.902719013894,116.132545815396,118.770173198498
1.05593422049118,234.807449812758,238.149746516825,3.34229670406694,-236.478598164792,115.732576554346,120.746021610446
1.05809802012334,234.198263415659,236.638806677881,2.44054326222115,-235.41853504677,115.878860076719,119.539674970051
1.06026181975549,233.670921635192,235.174899559135,1.50397792394253,-234.422910597163,116.083471855625,118.339438741539
1.06242561938764,235.442335288017,235.271364196731,-0.170971091285992,-235.356849742374,117.806653189652,117.550196552723
1.0645894190198,237.012264474371,240.040030003141,3.02776552877069,-238.526147238756,116.9922494728,121.533897765956
1.06675321865195,236.007371267417,237.556915267368,1.54954399995171,-236.782143267392,117.228913633732,119.55322963366
1.06891701828411,235.738864056141,235.83049161025,0.0916275541092375,-235.784677833196,117.823618251016,117.96105958218
1.07108081791626,236.376903060608,237.336641634709,0.959738574100641,-236.856772347659,117.708582243254,119.148190104405
1.07324461754842,236.430217284868,235.774978283476,-0.655239001392175,-236.102597784172,118.54272814313,117.559869641042
1.07540841718057,232.689392314465,235.894926929135,3.20553461466977,-234.2921596218,114.741928849898,119.550230771902
1.07757221681272,234.543468458513,237.617613588678,3.07414513016516,-236.080541023596,115.734661664174,120.345879359422
1.07973601644488,237.054847208946,238.469427338196,1.41458012925014,-237.762137273571,117.820133539848,119.942003733723
1.08189981607703,235.371150653801,236.030437244758,0.659286590957038,-235.700793949279,117.355932031422,118.344861917857
1.08406361570919,233.526850536783,235.902259417554,2.37540888077086,-234.714554977168,115.575720828006,119.138834149162
1.08622741534134,235.659504880096,237.375234692329,1.71572981223264,-236.517369786213,116.971887533932,119.545482252281
1.08839121497349,233.984519010587,236.549697973251,2.5651789626645,-235.267108491919,115.709670023961,119.557438467958
1.09055501460565,233.323010690491,235.033089567558,1.7100788770675,-234.178050129024,115.806465906712,118.371584222313
1.0927188142378,233.590613956898,235.95572843197,2.3651144750722,-234.773171194434,115.612749740913,119.160421453521
1.09488261386996,235.408324680617,235.261669814091,-0.146654866525182,-235.334997247354,117.777489773571,117.557507473783
1.09704641350211,233.862235866185,235.269246377714,1.40701051152905,-234.56574112195,116.227612677328,118.338128444622
1.09921021313426,234.487515048371,235.974668880678,1.48715383230629,-235.231091964525,116.500180608033,118.730911356492
1.10137401276642,235.804813518278,238.228998963856,2.42418544557867,-237.016906241067,116.69031403635,120.326592204718
1.10353781239857,234.810105426564,236.55514246051,1.74503703394581,-235.682623943537,116.532534196309,119.150089747228
1.10570161203073,234.016208838558,235.778161620863,1.7619527823054,-234.897185229711,116.127128028126,118.770057201584
1.10786541166288,235.012240211559,238.271533843187,3.25929363162766,-236.641887027373,115.876473289966,120.765413737407
1.11002921129503,233.696186204712,236.812043997211,3.11585779249839,-235.254115100962,115.290164206107,119.963950894855
1.11219301092719,233.070566730434,235.287160667024,2.21659393658987,-234.178863698729,115.426986396922,118.751877301807
1.11435681055934,236.996088715359,239.214177880103,2.21808916474382,-238.105133297731,117.388999775308,120.716133522423
1.1165206101915,236.759305149114,238.290920231042,1.53161508192778,-237.525112690078,117.613845033593,119.911267656485
1.11868440982365,234.896821412433,238.16180445739,3.26498304495689,-236.529312934912,115.815919183738,120.713393751174
1.1208482094558,233.975879086072,238.121589521108,4.14571043503548,-236.04873430359,114.915084325518,121.133649978072
1.12301200908796,235.671219403289,238.200803057133,2.52958365384364,-236.936011230211,116.570817874723,120.365193355488
1.12517580872011,235.940099021345,236.761786955339,0.821687933994014,-236.350942988342,117.559205543676,118.791737444667
1.12733960835227,234.605559372041,237.677690548497,3.07213117645563,-236.141624960269,115.766714097793,120.374910862476
1.12950340798442,237.060499439065,238.480051931442,1.41955249237651,-237.770275685254,117.820473473344,119.949802211909
1.13166720761657,236.899582713985,237.568719175064,0.669136461079376,-237.234150944524,118.115223126453,119.118927818072
1.13383100724873,235.022141067102,235.814593101279,0.792452034177558,-235.418367084191,117.114844516462,118.303522567729
1.13599480688088,234.798552811093,236.50744504565,1.7088922345572,-235.652998928371,116.544830288268,119.108168640103
1.13815860651304,238.758422033571,241.302758122648,2.54433608907723,-240.03059007811,118.107042972247,121.923547105863
1.14032240614519,238.168871153758,239.853896469369,1.68502531561134,-239.011383811563,118.241922919073,120.76946089249
1.14248620577735,237.663864228435,239.223624653123,1.55976042468828,-238.443744440779,118.052051901873,120.391692538906
1.1446500054095,240.234748980341,240.104692269813,-0.130056710527583,-240.169720625077,120.182402845434,119.987317779643
1.14681380504165,240.197434990657,240.850182019503,0.652747028846363,-240.52380850508,119.772343980905,120.751464524175
1.14897760467381,236.782585147856,237.516377866229,0.733792718373053,-237.149481507042,118.024396214741,119.125085292301
1.15114140430596,236.502251595777,237.351850531305,0.849598935527382,-236.927051063541,117.826326330125,119.100724733416
1.15330520393812,237.947183999539,239.664165641886,1.71698164234735,-238.805674820712,118.115101178596,120.690573642117
1.15546900357027,235.645144662633,238.933955461328,3.28881079869512,-237.289550061981,116.178166931969,121.111383130012
1.15763280320242,236.691381460293,238.300289378485,1.60890791819199,-237.495835419389,117.541236771051,119.954598648339
1.15979660283458,238.539251619386,240.049705598051,1.51045397866505,-239.294478608718,118.51439882036,120.780079788358
1.16196040246673,237.844608044338,239.317630393583,1.47302234924507,-238.581119218961,118.185792847546,120.395326371414
1.16412420209889,236.137728200578,237.655908097879,1.51817989730154,-236.896818149229,117.309774151638,119.58704399759
1.16628800173104,238.265634201674,239.081347111152,0.815712909477838,-238.673490656413,118.724960646098,119.948530010315
1.16845180136319,239.62365737009,240.511816619866,0.888159249776777,-240.067736994978,119.367749060156,120.699987934822
1.17061560099535,238.766513105849,240.450900065035,1.68438695918647,-239.608706585442,118.541063073331,121.067643512111
1.1727794006275,238.910809791668,239.732058829183,0.821249037514974,-239.321434310426,119.044780377077,120.276653933349
1.17494320025966,240.758266773101,242.28550138621,1.52723461310865,-241.521884079656,119.615516079996,121.906367999659
1.17710699989181,240.171771333288,241.655620750824,1.48384941753665,-240.913696042056,119.343960957875,121.56973508418
1.17927079952396,239.404657687411,240.922374562279,1.5177168748686,-240.163516124845,118.943470406271,121.220045718574
1.18143459915612,240.824926409014,241.637188332657,0.812261923642694,-241.231057370835,120.006332242686,121.22472512815
1.18359839878827,240.566628308042,242.253942492578,1.68731418453584,-241.41028540031,119.439657061753,121.970628338557
1.18576219842043,237.999237978039,241.285938078193,3.28670010015321,-239.642588028116,117.356268938943,122.286319089173
1.18792599805258,241.182650063623,242.014646311651,0.831996248027991,-241.598648187637,120.175326907798,121.42332127984
1.19008979768473,242.165032255243,242.099663646228,-0.0653686090145698,-242.132347950735,121.115200432129,121.017147518607
1.19225359731689,241.619830420713,242.289368555032,0.669538134318941,-241.954599487873,120.475146143197,121.479453344676
1.19441739694904,242.570812968689,243.268015508564,0.697202539875093,-242.919414238627,120.936805214407,121.98260902422
1.1965811965812,243.334283707241,244.923527351554,1.58924364431323,-244.128905529398,120.872520031464,123.256385497934
1.19874499621335,243.137311767438,244.827839096651,1.69052732921304,-243.982575432045,120.723392219113,123.259183212932
1.2009087958455,242.104819842189,243.035825095938,0.931005253749902,-242.570322469064,120.586907294219,121.983415174844
1.20307259547766,241.180311688396,243.641577019039,2.46126533064285,-242.410944353718,119.359523178877,123.051421174841
1.20523639510981,242.030572447008,243.581201843169,1.55062939616161,-242.805887145089,120.239971525423,122.565915619666
1.20740019474197,241.438249934778,242.892539574469,1.45428963969076,-242.165394754624,119.991980147544,122.17341460708
1.20956399437412,243.245628378218,243.103982637746,-0.141645740472597,-243.174805507982,121.693637059346,121.481168448637
1.21172779400628,244.138592750909,247.264849357538,3.12625660662863,-245.701721054223,120.50616807214,125.195552982083
1.21389159363843,244.059821638879,245.725895074945,1.6660734360662,-244.892858356912,121.196874101406,123.695984255506
1.21605539327058,241.478657345043,244.019679176334,2.5410218312916,-242.749168260689,119.468817756876,123.280350503813
1.21821919290274,244.466889502722,245.397435321664,0.930545818942619,-244.932162412193,121.76817184189,123.163990570304
1.22038299253489,244.399271092893,246.01156641839,1.61229532549646,-245.205418755641,121.393487883698,123.811930871943
1.22254679216705,242.105212784365,242.791085681189,0.685872896824407,-242.448149232777,120.70966994377,121.738479289007
1.2247105917992,242.292698831691,243.707001356939,1.41430252524765,-242.999850094315,120.439198153222,122.560651941093
1.22687439143135,243.254576286556,245.507779278023,2.2532029914675,-244.38117778229,120.500686647544,123.880491134745
1.22903819106351,243.298077307883,245.680228486886,2.38215117900327,-244.489152897384,120.45796306444,124.031189832945
1.23120199069566,242.400954949626,243.329062805415,0.928107855789193,-242.86500887752,120.736423546918,122.128585330602
1.23336579032782,243.809803319455,246.382061493252,2.57225817379751,-245.095932406354,120.618772572829,124.477159833525
1.23552958995997,242.078066375247,245.380511627091,3.30244525184378,-243.729289001169,119.387810561702,124.341478439467
1.23769338959212,240.472219965002,242.037686417662,1.56546645265951,-241.254953191332,119.453376756171,121.801576435161
1.23985718922428,242.176295669931,242.015569801023,-0.160725868908372,-242.095932735477,121.16851076942,120.927421966057
1.24202098885643,243.138032743226,243.735229754235,0.597197011009314,-243.436631248731,121.270417866108,122.166213382622
1.24418478848859,241.66052229964,240.758994540475,-0.901527759164736,-241.209758420058,121.281025029402,119.928733390655
1.24634858812074,240.063692989242,240.911025482724,0.847332493482043,-240.487359235983,119.60818024788,120.879178988103
1.24851238775289,241.538376547604,241.719097251854,0.180720704249808,-241.628736899729,120.678827921677,120.949908978052
1.25067618738505,239.010841621423,240.792316010523,1.78147438909971,-239.901578815973,118.614683616162,121.286895199811
1.2528399870172,237.338232940192,238.212708792053,0.874475851861291,-237.775470866123,118.231878544165,119.543592321957
1.25500378664936,235.77489421764,236.484261508881,0.709367291241136,-236.129577863261,117.532763463199,118.596814400061
1.25716758628151,236.678686258789,238.071167160505,1.39248090171566,-237.374926709647,117.643102678537,119.73182403111
1.25933138591366,233.619228745501,234.231529726941,0.612300981439319,-233.925379236221,116.503463882031,117.42191535419
1.26149518554582,232.085399956015,233.623380048491,1.53798009247635,-232.854390002253,115.273709931769,117.580680070484
1.26365898517797,232.844260735672,237.722268528591,4.87800779291874,-235.283264632131,113.983126471377,121.300138160755
1.26582278481013,233.539321102327,235.329094000912,1.78977289858517,-234.43420755162,115.874774101871,118.559433449749
1.26798658444228,231.058450810811,234.39919456072,3.34074374990919,-232.728822685765,113.858853530451,118.869969155315
1.27015038407443,232.612640828872,235.81475807981,3.20211725093762,-234.213699454341,114.705261788967,119.508437665374
1.27231418370659,232.657806872573,235.707381267525,3.04957439495203,-234.182594070049,114.804116238811,119.378477831239
1.27447798333874,229.57240671546,231.757124257344,2.18471754188369,-230.664765486402,113.693844586788,116.970920899614
1.2766417829709,229.654155136988,231.893956295801,2.23980115881307,-230.774055716395,113.707176989088,117.066878727307
1.27880558260305,231.262960992931,234.440819375146,3.17785838221511,-232.851890184038,114.042551305358,118.809338878681
1.28096938223521,231.207889563109,232.937781514483,1.72989195137328,-232.072835538796,114.738998805868,117.333836732928
1.28313318186736,230.320868421241,232.895861645223,2.57499322398269,-231.608365033232,113.872937598629,117.735427434603
1.28529698149951,231.047589647965,233.553014208994,2.50542456102849,-232.300301928479,114.271082543468,118.029219385011
1.28746078113167,229.460988593013,231.821046514218,2.36005792120508,-230.641017553616,113.550465335904,117.090552217712
1.28962458076382,227.149286912817,230.173820619813,3.02453370699575,-228.661553766315,112.062376602911,116.599177163404
1.29178838039598,227.242737072045,229.439237120968,2.19650004892279,-228.340987096506,112.523118511561,115.817868584945
1.29395218002813,228.086236495844,230.366080701589,2.27984420574501,-229.226158598717,112.90319614505,116.322962453667
1.29611597966028,227.259081990216,228.892874223558,1.63379223334226,-228.075978106887,112.812644878437,115.26333322845
1.29827977929244,227.165644007663,230.507479263759,3.34183525609555,-228.836561635711,111.911904375784,116.924657259927
1.30044357892459,229.458646591886,232.020584732763,2.56193814087771,-230.739615662325,113.448354225504,117.291261436821
1.30260737855675,229.43466762804,231.104277685308,1.66961005726793,-230.269472656674,113.882528785386,116.386943871288
1.3047711781889,227.910289972239,228.639797468522,0.72950749628319,-228.27504372038,113.590391237978,114.684652482402
1.30693497782105,228.820156931728,231.829758755901,3.00960182417242,-230.324957843815,112.905277553778,117.419680290037
1.30909877745321,229.702357059763,231.917801408621,2.21544434885814,-230.810079234192,113.743456355452,117.06662287874
1.31126257708536,228.902478558008,228.043888649786,-0.858589908221973,-228.473183603897,114.880534233115,113.592649370782
1.31342637671752,227.21314768222,228.088100418527,0.874952736307051,-227.650624050373,113.169097472956,114.481526577417
1.31559017634967,227.876407055215,231.227729539911,3.35132248469611,-229.552068297563,112.26254228526,117.289526012304
1.31775397598182,227.802029689143,231.132862492684,3.3308328035404,-229.467446090913,112.235598442801,117.231847648112
1.31991777561398,227.837478088859,228.667093703399,0.829615614540074,-228.252285896129,113.503931237159,114.748354658969
1.32208157524613,227.965458156513,231.041952344492,3.07649418797962,-229.503705250503,112.444481984267,117.059223266236
1.32424537487829,228.899358299384,230.31953401638,1.42017571699662,-229.609446157882,113.739591291193,115.869854866688
1.32640917451044,226.575639420169,228.037390519081,1.46175109891203,-227.306514969625,112.556944160629,114.749570808997
1.32857297414259,225.719304563887,229.683662225458,3.96435766157086,-227.701483394673,110.877473451158,116.824009943515
1.33073677377475,227.952740064185,228.857723245045,0.904983180860114,-228.405231654615,113.523878441663,114.881353212953
1.3329005734069,227.010865195025,227.960904623848,0.950039428822436,-227.485884909436,113.030412883101,114.455472026335
1.33506437303906,226.961506454442,227.860248683909,0.898742229467047,-227.410877569176,113.031382112488,114.379495456688
1.33722817267121,228.637696982153,231.010966280949,2.37326929879617,-229.824331631551,113.132213841678,116.692117789873
1.33939197230336,228.812715795926,231.873245593892,3.06052979796544,-230.342980694909,112.87609299898,117.466887695928
1.34155577193552,228.173805983564,228.817961605247,0.644155621683666,-228.495883794406,113.76482518094,114.731058613466
1.34371957156767,229.798056540812,232.092885586558,2.29482904574587,-230.945471063685,113.751613747533,117.193857316152
1.34588337119983,232.064693722707,232.094293015842,0.0295992931345381,-232.079493369275,116.017547214786,116.061946154488
1.34804717083198,226.303749430646,228.814347821853,2.51059839120731,-227.559048626249,111.896575519719,115.66247310653
1.35021097046414,226.150517726184,228.67529599739,2.52477827120549,-227.412906861787,111.812869727489,115.600037134298
1.35237477009629,226.940260134084,230.974322653097,4.03406251901259,-228.95729139359,111.453098807536,117.504192586055
1.35453856972844,227.880704550722,229.412987922186,1.53228337146382,-228.646846236454,113.174210589629,115.472635646825
1.3567023693606,225.702421884244,228.745705329943,3.04328344569947,-227.224063607093,111.329569219272,115.894494387821
1.35886616899275,227.426155523779,230.482364537137,3.05620901335797,-228.954260030458,112.184973255211,116.769286775248
1.36102996862491,228.198100325965,229.757761263862,1.55966093789661,-228.977930794913,113.319219694034,115.658711100879
1.36319376825706,228.823189114486,228.111094027355,-0.712095087131274,-228.46714157092,114.767642100809,113.699499470112
1.36535756788921,226.232560255513,228.753954761121,2.52139450560816,-227.493257508317,111.855582874952,115.637674633365
1.36752136752137,226.917170928627,230.191982740292,3.2748118116651,-228.55457683446,111.821179558481,116.733397275979
1.36968516715352,226.97681309306,227.757867096106,0.781054003046364,-227.367340094583,113.097879545007,114.269460549576
1.37184896678568,227.166324839391,228.641357786239,1.47503294684847,-227.903841312815,112.845645946271,115.058195366544
1.37401276641783,228.950483520661,231.994327709046,3.04384418838509,-230.472405614854,112.953319666138,117.519085948716
1.37617656604998,228.230259439274,231.346310873324,3.11605143404938,-229.788285156299,112.557104002613,117.231181153687
1.37834036568214,228.930814198741,228.985273010364,0.054458811622851,-228.958043604552,114.438177693559,114.519865910993
1.38050416531429,227.144158850175,229.662858599801,2.51869974962608,-228.403508724988,112.312729550274,116.090779174714
1.38266796494645,226.972774571439,227.890970249994,0.918195678555549,-227.431872410716,113.027289446442,114.404582964275
1.3848317645786,225.350595012416,226.96327758298,1.61268257056386,-226.156936297698,111.868956220926,114.287980076772
1.38699556421075,226.267717643266,227.759876296524,1.49215865325769,-227.013796969895,112.387779495004,114.626017474891
1.38915936384291,227.255333850663,231.865402709257,4.61006885859342,-229.56036827996,111.322632496035,118.237735783925
1.39132316347506,227.389340601399,230.455111470615,3.06577086921649,-228.922226036007,112.161784866091,116.760441169916
1.39348696310722,228.172970046875,229.775495858179,1.60252581130368,-228.974232952527,113.285222117786,115.689010834741
1.39565076273937,228.030575327847,230.554256634553,2.52368130670629,-229.2924159812,112.75344701057,116.53896897063
1.39781456237152,227.85637523488,230.418582194016,2.56220695913558,-229.137478714448,112.647084137872,116.490394576576
1.39997836200368,226.180127331217,227.070084873317,0.889957542100092,-226.625106102267,112.645084894558,113.980021207708
1.40214216163583,225.441602344567,226.970448016903,1.52884567233639,-226.206025180735,111.956378336115,114.24964684462
1.40430596126799,227.978622740195,229.382123418866,1.40350067867072,-228.68037307953,113.287561030762,115.392812048768
1.40646976090014,228.117446983523,228.719506950761,0.602059967238603,-228.418476967142,113.757693508142,114.660783459
1.40863356053229,225.763463194911,228.077920507274,2.31445731236343,-226.920691851092,111.724502941274,115.196188909819
1.41079736016445,225.671599270303,229.750516595195,4.07891732489176,-227.711057932749,110.796340972706,116.914716960043
1.4129611597966,225.529658740998,229.7181873547,4.18852861370257,-227.623923047849,110.670565063648,116.953357984201
1.41512495942876,227.025337457878,226.418343396652,-0.606994061225691,-226.721840427265,113.816165759552,112.905674667713
1.41728875906091,226.247704369445,227.873767581516,1.62606321207153,-227.06073597548,112.310820578687,114.749915396794
1.41945255869307,229.533965802682,230.188144152273,0.654178349590438,-229.861054977478,114.439893726546,115.421161250932
1.42161635832522,227.272214835716,229.421249267946,2.14903443222985,-228.346732051831,112.561590201743,115.785141850088
1.42378015795737,226.52970354885,228.730501826641,2.20079827779037,-227.630102687746,112.16445263553,115.465650052216
1.42594395758953,225.687360203547,231.232444210122,5.54508400657551,-228.459902206834,110.071138098486,118.388764108349
1.42810775722168,225.575503617023,228.916504347277,3.34100073025434,-227.24600398215,111.117251443384,116.128752538766
1.43027155685384,227.06430392778,228.8989484904,1.83464456261905,-227.98162620909,112.614829682581,115.366796526509
1.43243535648599,227.835332034483,229.605076088771,1.76974405428882,-228.720204061627,113.032793990097,115.68741007153
1.43459915611814,228.69622075672,231.082773752039,2.38655299531948,-229.88949725438,113.1548338807,116.734663373679
1.4367629557503,227.220170906015,228.626493041456,1.40632213544129,-227.923331973736,112.906924385287,115.016407588449
1.43892675538245,228.894178427882,229.427291597032,0.533113169149658,-229.160735012457,114.180532629366,114.980202383091
1.44109055501461,228.894765512818,231.097317409955,2.20255189713774,-229.996041461386,113.34610680784,116.649934653547
1.44325435464676,228.809139652393,230.411199957179,1.60206030478574,-229.610169804786,113.603539673804,116.006630130982
1.44541815427891,226.313226768561,228.105087169507,1.7918604009455,-227.209156969034,112.260683183808,114.948473785226
1.44758195391107,227.045070190192,229.699157001507,2.65408681131487,-228.372113595849,112.195491689438,116.176621906411
1.44974575354322,228.661187616269,229.627565148574,0.966377532304904,-229.144376382421,113.847405041982,115.296971340439
1.45190955317538,228.755563397901,229.515458875974,0.759895478072821,-229.135511136938,113.997833959914,115.137677177023
1.45407335280753,225.677102846379,228.631363389393,2.95426054301382,-227.154233117886,111.361421151683,115.792811966203
1.45623715243968,227.306888232021,229.411075266612,2.10418703459086,-228.358981749317,112.601350598715,115.757631150601
1.45840095207184,227.262786564867,228.688355903653,1.42556933878561,-227.97557123426,112.918608613041,115.056962621219
1.46056475170399,225.573532707532,228.014342380749,2.4408096732177,-226.793937544141,111.566361517157,115.227576026984
1.46272855133615,226.278775733833,229.703395205553,3.42461947172038,-227.991085469693,111.427078131056,116.564007338637
1.4648923509683,227.847581129792,228.927821309711,1.08024017991914,-228.387701219751,113.383670474936,115.004030744815
1.46705615060045,227.113948644386,228.056864969966,0.942916325579858,-227.585406807176,113.085516159403,114.499890647773
1.46921995023261,228.010121646076,229.516274939622,1.50615329354645,-228.763198292849,113.251984176265,115.511214116584
1.47138374986476,228.880696863248,230.202004726475,1.32130786322685,-229.541350794862,113.779694500011,115.761656294851
1.47354754949692,227.293232688816,226.2097393173,-1.08349337151589,-226.751486003058,114.188363030166,112.563122972892
1.47571134912907,228.014804140119,227.885668424133,-0.129135715985655,-227.950236282126,114.071969928052,113.878266354074
1.47787514876122,227.915835886796,230.412134104048,2.49629821725199,-229.163984995422,112.709768834772,116.45421616065
1.48003894839338,227.854454344648,230.520598675693,2.66614433104544,-229.18752651017,112.594155006801,116.593371503369
1.48220274802553,227.870320720555,227.351442137652,-0.51887858290317,-227.610881429104,114.194599651729,113.416281777374
1.48436654765769,227.952568586103,229.639903922789,1.68733533668592,-228.796236254446,113.132616624709,115.663619629738
1.48653034728984,228.046854132182,228.70386645812,0.65701232593787,-228.375360295151,113.694920903122,114.680439392029
1.488694146922,226.503327132892,226.217130317089,-0.286196815802754,-226.360228724991,113.394761974347,112.965466750643
1.49085794655415,225.677214525072,227.00968029248,1.33246576740831,-226.343447408776,112.172374378832,114.171073029944
1.4930217461863,225.58965715601,229.490319301926,3.90066214591607,-227.539988228968,110.844497505047,116.695490723921
1.49518554581846,225.501702083042,228.035985863782,2.53428378073951,-226.768843973412,111.483709151151,115.285134822261
1.49734934545061,227.850542126239,228.922671098897,1.07212897265842,-228.386606612568,113.38920657679,114.997400035778
1.49951314508277,227.096308463836,230.50981556386,3.41350710002425,-228.803062013848,111.841400681906,116.961661331942
1.50167694471492,228.77534302792,230.417647361777,1.64230433385683,-229.596495194848,113.566519347032,116.029975847817
1.50384074434707,226.479152010072,227.117176102646,0.638024092573573,-226.798164056359,112.920563958749,113.87760009761
1.50600454397923,225.717191651329,230.215268818996,4.4980771676673,-227.966230235162,110.609557241831,117.356672993332
1.50816834361138,227.262442868249,230.219617844047,2.95717497579818,-228.741030356148,112.152633946225,116.588396409923
1.51033214324354,227.163870191725,227.915604973389,0.751734781664396,-227.539737582557,113.20606770503,114.333669877527
1.51249594287569,225.479864356198,228.023224920008,2.54336056381092,-226.751544638103,111.468251896193,115.28329274191
1.51465974250784,227.037606212191,230.479978953023,3.44237274083224,-228.758792582607,111.797616735679,116.961175846928
1.51682354214,227.09271876853,229.683253347776,2.5905345792462,-228.387986058153,112.251092094642,116.136893963511
1.51898734177215,227.996352906786,228.023310489042,0.0269575822556192,-228.009831697914,113.984697662265,114.025134035649
1.52115114140431,227.299777258199,227.930722463405,0.630945205205734,-227.615249860802,113.334416026497,114.280833834305
1.52331494103646,225.738171848449,230.251022633926,4.51285078547647,-227.994597241188,110.612660531486,117.381936709701
1.52547874066861,226.470866878303,227.864067272196,1.39320039389355,-227.167467075249,112.538833242204,114.628633833045
1.52764254030077,227.147376120692,227.123784443707,-0.0235916769852338,-227.135580282199,113.585483898839,113.550096383361
1.52980633993292,228.629106733003,228.793014910433,0.163908177429704,-228.711060821718,114.232599277787,114.478461543931
1.53197013956508,227.804915098338,229.647700679791,1.84278558145269,-228.726307889064,112.981064758443,115.745243130622
1.53413393919723,226.289909864,228.862442858638,2.57253299463784,-227.576176361319,111.858688434681,115.717487926638
1.53629773882938,228.018341726842,231.203009741259,3.18466801441684,-229.61067573405,112.416836856213,117.193838877838
1.53846153846154,228.137954895914,231.134349976414,2.99639508050024,-229.636152436164,112.570779907707,117.065372528457
1.54062533809369,227.364211683356,229.48969356027,2.12548187691391,-228.426952621813,112.619364903221,115.807587718592
1.54278913772585,226.473608512393,226.302125204327,-0.171483308065689,-226.38786685836,113.322545910229,113.065320948131
1.544952937358,225.522385767886,229.517452117742,3.9950663498561,-227.519918942814,110.763659709015,116.756259233799
1.54711673699015,226.195399824596,227.985186598667,1.78978677407099,-227.090293211632,112.202806525263,114.887486686369
1.54928053662231,224.59850855313,227.231378282527,2.63286972939707,-225.914943417828,110.982819411866,114.932124005962
1.55144433625446,225.507691568422,229.619824049647,4.11213248122564,-227.563757809034,110.697779543598,116.865978265436
1.55360813588662,226.471071605054,230.385101240532,3.91402963547807,-228.428086422793,111.278520984788,117.149565438005
1.55577193551877,227.38213683075,227.167299700676,-0.214837130073704,-227.274718265713,113.798486980412,113.476231285301
1.55793573515093,228.165532355236,228.732416277708,0.566883922471476,-228.448974316472,113.799324216382,114.64965010009
1.56009953478308,228.825902053279,231.115976270435,2.29007421715554,-229.970939161857,113.267913918062,116.703025243795
1.56226333441523,227.858773079767,227.159190409926,-0.699582669840822,-227.508981744847,114.279177874804,113.229803870043
1.56442713404739,228.552170907966,227.972459244336,-0.57971166362961,-228.262315076151,114.565941285798,113.696373790353
1.56659093367954,228.587761277691,231.955456099899,3.36769482220723,-230.271608688795,112.610033227742,117.661575461053
1.5687547333117,227.149655353007,229.571315081775,2.42165972876782,-228.360485217391,112.36399781212,115.996487405271
1.57091853294385,228.908574539455,229.568360929936,0.659786390481003,-229.238467734695,114.124394074487,115.114073660208
1.573082332576,230.575297778493,231.954958920678,1.37966114218528,-231.265128349586,114.597818318154,116.667310031432
1.57524613220816,228.92049741362,232.753094086961,3.83259667334053,-230.836795750291,112.54395037014,118.292845380151
1.57740993184031,228.755633248723,231.159170913652,2.40353766492871,-229.957402081187,113.176047791897,116.78135428929
1.57957373147247,230.188759638034,229.556148985961,-0.632610652072515,-229.872454311997,115.410685145053,114.461769166944
1.58173753110462,230.141320186199,231.12845137283,0.987131186630847,-230.634885779514,114.577094499784,116.05779127973
1.58390133073677,228.643701175003,230.324956433029,1.68125525802546,-229.484328804016,113.481222958489,116.003105845527
1.58606513036893,228.815651261434,229.538250558009,0.722599296575538,-229.176950909722,114.046525982429,115.130424927292
1.58822893000108,229.75041664979,231.945724875744,2.19530822595397,-230.848070762767,113.777554211918,117.070516550849
1.59039272963324,228.177987707731,231.178633182317,3.00064547458618,-229.678310445024,112.588671116572,117.089639328451
1.59255652926539,226.472554191788,228.810111863637,2.33755767184965,-227.641333027713,112.067498259969,115.573834767744
1.59472032889754,227.094510174882,231.184637914533,4.09012773965026,-229.139574044708,111.502191217616,117.637382827091
1.5968841285297,229.357968191422,230.357367670615,0.999399479193755,-229.857667931019,114.179284356114,115.678383574905
1.59904792816185,230.158067022347,229.521907880855,-0.636159141491873,-229.839987451601,115.39711308192,114.442874369682
1.60121172779401,230.285406528495,231.087536799126,0.802130270630869,-230.68647166381,114.741638128932,115.944833534878
1.60337552742616,233.632662114127,234.275111895807,0.642449781680739,-233.953887004967,116.495106166223,117.458780838744
1.60553932705831,232.944854872218,234.31514368665,1.37028881443172,-233.629999279434,115.787283028893,117.842716250541
1.60770312669047,231.336970534507,231.985832158054,0.648861623546622,-231.66140134628,115.34405445548,116.3173468908
1.60986692632262,232.002669335041,233.615507662944,1.61283832790286,-232.809088498993,115.194915503569,117.614172995424
1.61203072595478,232.636627021214,235.202061239888,2.56543421867454,-233.919344130551,115.03559640127,118.883747729281
1.61419452558693,231.744044871194,233.558532872053,1.81448800085886,-232.651288871623,114.964778435168,117.686510436456
1.61635832521908,232.558847425047,230.303077398791,-2.25577002625624,-231.430962411919,117.407308725652,114.023653686267
1.61852212485124,231.889668007765,233.427461753346,1.53779374558121,-232.658564880555,115.175937131092,117.482627749464
1.62068592448339,228.869588557501,231.844688128824,2.97509957132371,-230.357138343162,112.947244493088,117.409893850074
1.62284972411555,229.763239162031,231.911632026123,2.14839286409173,-230.837435594077,113.80742314897,117.030012445107
1.6250135237477,231.331849310721,232.79920270719,1.46735339646963,-232.065526008956,114.932247957126,117.13327805183
1.62717732337986,231.19901821179,232.068366166731,0.869347954941162,-231.633692189261,115.164835128424,116.468857060836
1.62934112301201,228.649795457591,230.472547774785,1.82275231719473,-229.561171616188,113.413521570198,116.14765004599
1.63150492264416,226.172681063463,227.218908456912,1.04622739344876,-226.695794760188,112.563226835007,114.13256792518
1.63366872227632,227.005111469738,229.497382996559,2.49227152682079,-228.251247233149,112.256419971459,115.99482726169
1.63583252190847,225.561231771522,228.626646492462,3.06541472093994,-227.093939131992,111.247908525291,115.846030606701
1.63799632154063,225.721206017967,227.036749805503,1.31554378753654,-226.378977911735,112.202831115215,114.17614679652
1.64016012117278,228.178157823764,231.089820992941,2.91166316917631,-229.633989408352,112.633247327294,117.000742081058
1.64232392080493,228.118895230062,229.62185700202,1.50296177195773,-228.870376116041,113.307966729052,115.562409386989
1.64448772043709,227.173221730903,228.127441890029,0.954220159126095,-227.650331810466,113.109500785889,114.540831024578
1.64665152006924,227.03068004086,230.522573770596,3.49189372973629,-228.776626905728,111.769393155562,117.007233750166
1.6488153197014,226.987790312727,231.229147153893,4.24135684116635,-229.10846873331,111.37321673578,117.73525199753
1.65097911933355,226.273502007684,225.526026375085,-0.747475632599333,-225.899764191385,113.510488820142,112.389275371243
1.6531429189657,224.038974613414,225.415935741273,1.37696112785889,-224.727455177344,111.331006742778,113.396448434566
1.65530671859786,225.747530415134,226.201182657341,0.45365224220663,-225.974356536238,112.646939086464,113.327417449774
1.65747051823001,225.760107501251,227.093033701057,1.33292619980679,-226.426570601154,112.213590650722,114.212979950432
1.65963431786217,225.658946454187,227.241022164046,1.58207570985854,-226.449984309117,112.038435372164,114.411548936952
1.66179811749432,226.308149574021,228.94221294515,2.63406337112906,-227.625181259585,111.837043101446,115.788138158139
1.66396191712647,225.422085804474,227.364783675601,1.94269787112739,-226.393434740037,111.739693966673,114.653740773364
1.66612571675863,224.650451028771,227.268527820304,2.61807679153296,-225.959489424538,111.016187118619,114.943302305919
1.66828951639078,226.358510983341,227.91347758082,1.55496659747871,-227.135994282081,112.401772192931,114.734222089149
1.67045331602294,225.696433329907,227.794694987883,2.09826165797617,-226.745564158895,111.799085835965,114.94647832293
1.67261711565509,224.16489646769,225.393951667621,1.22905519993117,-224.779424067655,111.467920633879,113.311503433776
1.67478091528724,224.112921590696,225.492928162362,1.38000657166506,-224.802924876529,111.366457509516,113.436467367013
1.6769447149194,224.78293981461,228.035107420703,3.25216760609374,-226.409023617657,110.765386104258,115.643637513399
1.67910851455155,226.255954384217,228.951458052851,2.69550366863427,-227.603706218534,111.780225357791,115.823480860743
1.68127231418371,224.635354397096,226.580185298038,1.94483090094224,-225.607769847567,111.345261748077,114.26250809949
1.68343611381586,225.503088502166,227.271054661063,1.76796615889603,-226.387071581615,111.867561171635,114.519510409979
1.68559991344801,226.427045766417,227.906764103306,1.47971833688857,-227.166904934861,112.473663714764,114.693241220097
1.68776371308017,224.144577615289,225.402367927073,1.25779031178388,-224.773472771181,111.443393651753,113.330079119428
1.68992751271232,224.152825205743,225.392078676334,1.23925347059119,-224.772451941039,111.456785867576,113.315666073463
1.69209131234448,224.064294882731,228.675614390509,4.61131950777809,-226.36995463662,109.726487687476,116.643466949144
1.69425511197663,224.728730930732,228.832071601098,4.10334067036581,-226.780401265915,110.312695130183,116.467706135732
1.69641891160879,224.639183962323,227.359671804419,2.72048784209602,-225.999427883371,110.959348060113,115.040079823257
1.69858271124094,226.234867631787,228.960469219683,2.72560158789605,-227.597668425735,111.754633021946,115.84303540379
1.70074651087309,226.333806895267,230.449141774076,4.11533487880888,-228.391474334672,111.109236008229,117.282238326442
1.70291031050525,226.463872696668,227.910552719107,1.44668002243938,-227.187212707888,112.508596337114,114.678616370773
1.7050741101374,223.370524194593,224.616467067355,1.24594287276213,-223.993495630974,111.062290660915,112.931204970058
1.70723790976956,224.153629613811,227.785409562144,3.63177994833339,-225.969519587977,110.260924832739,115.708594755239
1.70940170940171,223.257126770234,225.502633799525,2.24550702929091,-224.37988028488,110.505809870472,113.874070414408
1.71156550903386,222.327487508566,224.062959663594,1.73547215502808,-223.19522358608,110.296007676769,112.899215909311
1.71372930866602,223.032496822964,226.556951036884,3.52445421391997,-224.794723929924,109.754021304522,115.040702625402
1.71589310829817,224.629550582254,227.356230700665,2.72668011841097,-225.992890641459,110.951435231921,115.041455409538
1.71805690793033,223.937910661272,225.66391782432,1.72600716304731,-224.800914242796,111.105951749113,113.694962493684
1.72022070756248,225.667777010691,226.311626494498,0.643849483806946,-225.989701752594,112.511963763442,113.477737989152
1.72238450719463,227.355611788599,228.592605800969,1.23699401237033,-227.974108794784,113.059308888114,114.91479990667
1.72454830682679,228.941775915964,226.211731273533,-2.73004464243149,-227.576753594748,115.835910279198,111.740843315551
1.72671210645894,228.043105085965,229.494305716966,1.45120063100103,-228.768705401465,113.295952227482,115.472753173983
1.7288759060911,234.248705645068,234.401375292935,0.152669647866333,-234.325040469001,117.048017998601,117.2770224704
1.73103970572325,239.69342442126,240.840721484654,1.14729706339372,-240.267072952957,119.273063678933,120.994009274024
1.7332035053554,244.440732500604,243.200692036162,-1.24004046444259,-243.820712268383,122.840386482524,120.98032578586
1.73536730498756,253.27345543788,250.240787108752,-3.03266832912726,-251.757121273316,128.153061883503,123.604059389813
1.73753110461971,261.379621025868,257.267386796605,-4.11223422926355,-259.323503911237,132.745927627566,126.577576283671
1.73969490425187,270.261614031994,261.180599217477,-9.08101481451683,-265.721106624735,139.671314423255,126.04979220148
1.74185870388402,277.456490062631,265.196271288374,-12.2602187742573,-271.326380675502,144.858354418444,126.468026257058
1.74402250351617,282.935681445659,268.493045180614,-14.4426362650447,-275.714363313136,148.689158855352,127.025204457785
1.74618630314833,279.596111927208,268.612400640936,-10.9837112862714,-274.104256284072,145.28991160674,128.814344677332
1.74835010278048,268.3346453539,264.687454867304,-3.64719048659572,-266.511050110602,135.990917920248,130.520132190354
1.75051390241264,259.569054163447,259.87030025283,0.30124608938263,-259.719677208139,129.633904037032,130.085773171106
1.75267770204479,250.926233458085,254.192802922732,3.26656946464755,-252.559518190408,123.829831996719,128.72968619369
1.75484150167694,243.917892145907,246.134466225311,2.21657407940441,-245.026179185609,120.850659033251,124.175520152358
1.7570053013091,237.64553180255,241.319340934509,3.67380913195947,-239.48243636853,116.985861335295,122.496575033234
1.75916910094125,232.846943427609,238.972613125275,6.12566969766615,-235.909778276442,113.360636864972,122.549141411471
1.76133290057341,227.963230776349,233.505238394984,5.54200761863464,-230.734234585666,111.210611578857,119.523623006809
1.76349670020556,227.056137098273,232.013885667941,4.95774856966761,-229.535011383107,111.049194264303,118.485817118804
1.76566049983772,226.236018774425,232.064793732675,5.82877495824968,-229.15040625355,110.203621908088,118.946784345462
1.76782429946987,227.902307140246,233.63248044455,5.73017330430432,-230.767393792398,111.086066917971,119.681326874427
1.76998809910202,227.232248916257,228.791559123481,1.55931020722392,-228.011904019869,112.836469354517,115.175434665353
1.77215189873418,227.316682032474,231.094091986229,3.77740995375447,-229.205387009352,111.76963603936,117.435750969992
1.77431569836633,230.479793163271,232.637835580811,2.15804241754032,-231.558814372041,114.160875372865,117.397938999176
1.77647949799849,230.375263823296,232.644318589132,2.26905476583579,-231.509791206214,114.05310452873,117.456686677484
1.77864329763064,231.048799073195,231.107950476985,0.0591514037900254,-231.07837477509,115.494823834703,115.583550940388
1.78080709726279,232.587086697537,234.357453398376,1.77036670083925,-233.472270047956,115.408359998349,118.063910049608
1.78297089689495,231.85027957911,232.824597159816,0.974317580705758,-232.337438369463,115.437980999202,116.899457370261
1.7851346965271,230.391173913328,233.632019596481,3.24084568315322,-232.011596754904,113.575164115087,118.436432639817
1.78729849615926,229.710989787911,234.389844435155,4.67885464724466,-232.050417111533,112.516067570333,119.5343495412
1.78946229579141,229.726843712396,231.937185391964,2.21034167956836,-230.83201455218,113.758251016414,117.073763535766
1.79162609542356,226.449359645684,229.488278090695,3.03891844501084,-227.968818868189,111.705220600337,116.263598267853
1.79378989505572,226.297359849109,228.66752626162,2.37016641251023,-227.482443055365,111.9635967183,115.518846337065
1.79595369468787,227.782510038593,230.280739759224,2.4982297206306,-229.031624898909,112.642140158981,116.389484739927
1.79811749432003,227.003807525807,228.752400141983,1.74859261617559,-227.878103833895,112.627607454816,115.250496379079
1.80028129395218,228.723179171722,228.819368871501,0.0961896997784208,-228.771274021611,114.313494735972,114.45777928564
1.80244509358433,229.682275470725,232.03657164831,2.35429617758501,-230.859423559518,113.66398964657,117.195433912948
1.80460889321649,228.98070789655,232.819683160827,3.8389752642764,-230.900195528688,112.570866316137,118.329329212552
1.80677269284864,229.734070114794,230.380648884023,0.646578769229308,-230.057359499408,114.543745672782,115.513613826626
1.8089364924808,230.374790709786,231.107681339966,0.732890630179241,-230.741236024876,114.820950039804,115.920285985072
1.81110029211295,230.202358268898,231.859085646977,1.65672737807853,-231.030721957937,114.27281544541,116.757906512528
1.8132640917451,228.533909322082,229.479127795147,0.945218473064699,-229.006518558615,113.794345424509,115.212173134106
1.81542789137726,229.397127459372,228.734199248145,-0.662928211227126,-229.065663353758,115.030027835299,114.035635518459
1.81759169100941,229.574075249009,233.567222377301,3.99314712829229,-231.570648813155,112.790464060358,118.780184752797
1.81975549064157,228.952991975729,230.433708171184,1.48071619545559,-229.693350073457,113.736137890137,115.95721218332
1.82191929027372,227.423704263996,228.845449881265,1.42174561726952,-228.13457707263,113.000979323363,115.133597749267
1.82408308990587,228.1231089915,229.601382133325,1.47827314182501,-228.862245562413,113.322417924838,115.539827637575
1.82624688953803,229.516215311919,232.718115537627,3.2019002257087,-231.117165424773,113.157157543105,117.960007881668
1.82841068917018,227.751374506617,227.898212348147,0.146837841529276,-227.824793427382,113.802268332544,114.022525094838
1.83057448880234,227.710038173334,227.884713986091,0.174675812756448,-227.797376079713,113.767681180289,114.029694899424
1.83273828843449,228.630385297525,230.304662910652,1.67427761312723,-229.467524104089,113.478053842199,115.98947026189
1.83490208806665,228.84793598045,230.369183783926,1.52124780347631,-229.608559882188,113.663344088487,115.945215793701
1.8370658876988,228.226666770293,229.631432008616,1.40476523832365,-228.929049389454,113.410950765984,115.51809862347
1.83922968733095,229.831844391985,232.032406455858,2.20056206387312,-230.932125423922,113.815641164056,117.116484259866
1.84139348696311,230.46858917686,231.999586330023,1.53099715316338,-231.234087753441,114.468796011848,116.765291741593
1.84355728659526,228.643464128322,231.139435452957,2.49597132463464,-229.89144979064,113.073746401844,116.817703388796
1.84572108622742,228.479976546399,229.491975864706,1.01199931830649,-228.985976205553,113.733988614046,115.251987591506
1.84788488585957,226.90985830608,231.063643788267,4.15378548218666,-228.986751047173,111.378036411947,117.608714635227
1.85004868549172,227.103749232357,229.508099933949,2.40435070159202,-228.305924583153,112.349699265382,115.95622531777
1.85221248512388,228.938528888698,229.571822779148,0.633293890450204,-229.255175833923,114.152617499124,115.102558334799
1.85437628475603,229.869438765632,232.010703468157,2.14126470252484,-230.940071116895,113.864087031554,117.075984085341
1.85654008438819,229.011239246859,232.817150777865,3.80591153100505,-230.914195012362,112.602663857927,118.311531154435
1.85870388402034,227.200377497854,228.809592780515,1.60921528266164,-228.004985139185,112.795581107596,115.209404031589
1.86086768365249,227.759068841505,231.929983541433,4.17091469992837,-229.844526191469,111.794077070788,118.050449120681
1.86303148328465,230.042371048855,231.884492546387,1.84212149753191,-230.963431797621,114.100124775662,116.86330702196
1.8651952829168,226.963910283244,229.492103503151,2.52819321990657,-228.228006893197,112.217858531669,116.010148361529
1.86735908254896,227.201741584295,229.525233188727,2.32349160443235,-228.363487386511,112.439124989931,115.92436239658
1.86952288218111,229.809947112325,231.961426127049,2.15147901472375,-230.885686619687,113.829234048801,117.056452570886
1.87168668181326,229.874114370247,232.792131137817,2.91801676757049,-231.333122754032,113.478048801338,117.855073952694
1.87385048144542,228.940503929666,230.40823889676,1.46773496709355,-229.674371413213,113.736384481286,115.937986931927
1.87601428107757,227.101597540479,231.172042200734,4.07044466025542,-229.136819870607,111.515576440112,117.621243430495
1.87817808070973,228.491721238992,231.92794711069,3.43622587169858,-230.209834174841,112.527747683647,117.682086491194
1.88034188034188,228.47021660078,230.315169718593,1.84495311781234,-229.392693159687,113.312631741484,116.080061418203
1.88250567997403,228.637053495359,230.317983211229,1.68092971587043,-229.477518353294,113.478061889744,115.99945646355
1.88466947960619,231.266386805722,234.311389208673,3.04500240295133,-232.788888007198,114.110692201385,118.678195805812
1.88683327923834,230.639391285827,231.156499641873,0.517108356046521,-230.89794546385,115.06114146489,115.83680399896
1.8889970788705,231.418169651856,232.758636194886,1.34046654302992,-232.088402923371,115.038851554413,117.049551368958
1.89116087850265,229.646287721176,232.761357959124,3.11507023794874,-231.20382284015,113.265608741613,117.938214098537
1.8933246781348,229.416165473095,232.755651515636,3.33948604254101,-231.085908494365,113.038339715277,118.047568779088
1.89548847776696,228.4907456687,230.364473853971,1.87372818527078,-229.427609761336,113.308508741715,116.119101019621
1.89765227739911,229.330614522327,231.151242291351,1.8206277690243,-230.240928406839,113.754993376651,116.485935030188
1.89981607703127,228.722493849838,231.935104444903,3.21261059506426,-230.328799147371,112.754941627387,117.573857519984
1.90197987666342,228.134205842437,229.53849274943,1.40428690699287,-228.836349295934,113.364959467722,115.471389828211
1.90414367629558,228.232229954739,229.531505418686,1.29927546394708,-228.881867686713,113.466477245396,115.415390441317
1.90630747592773,231.340603681985,231.92200028681,0.581396604825642,-231.631301984397,115.379603538579,116.251698445818
1.90847127555988,230.356647963943,232.73595533181,2.37930736786709,-231.546301647876,113.988670298038,117.557631349838
1.91063507519204,230.96507813214,230.377854160689,-0.587223971450214,-230.671466146414,115.776151051795,114.89531509462
1.91279887482419,230.903018402404,234.367831087144,3.46481268474002,-232.635424744774,113.719102858832,118.916321885942
1.91496267445635,231.795938520079,234.363750479023,2.56781195894325,-233.079844499551,114.614063280568,118.465781218983
1.9171264740885,231.987424610233,231.159187303265,-0.828237306967679,-231.573305956749,116.4078309586,115.165474998149
1.91929027372065,232.146178766962,233.508715644091,1.36253687712826,-232.827447205527,115.391820944917,117.43562626061
1.92145407335281,232.964817028025,235.074450761265,2.10963373323918,-234.019633894645,115.427591647393,118.592042247252
1.92361787298496,232.047705540178,233.485748694654,1.43804315447633,-232.766727117416,115.304831192851,117.461895924565
1.92578167261712,231.067683602098,231.926069055771,0.858385453672838,-231.496876328935,115.104649074213,116.392227254722
1.92794547224927,231.735677096525,234.354444854921,2.61876775839627,-233.045060975723,114.558454669064,118.486606306659
1.93010927188142,233.334957019142,235.180374857656,1.84541783851338,-234.257665938399,115.744769590314,118.512896348084
1.93227307151358,233.46925248879,233.586811636963,0.117559148173001,-233.528032062876,116.675846670308,116.852185392568
1.93443687114573,233.63792813047,234.342163085562,0.704234955091607,-233.990045608016,116.466846587689,117.523199020327
1.93660067077789,234.528212646823,235.879888338042,1.35167569121933,-235.204050492433,116.588268477802,118.615782014631
1.93876447041004,232.90589315233,234.259037592356,1.3531444400262,-233.582465372343,115.776374356152,117.806091016191
1.94092827004219,234.358234998991,233.475242161235,-0.882992837755523,-233.916738580113,117.620613918373,116.29612466174
1.94309206967435,235.00146944387,236.701186109846,1.69971666597635,-235.851327776858,116.650876388947,119.200451387911
1.9452558693065,233.341547231631,235.960567271112,2.61902003948066,-234.651057251372,115.361263596075,119.289793655296
1.94741966893866,234.187962008265,235.19138390267,1.00342189440428,-234.689672955467,116.59227005693,118.097402898537
1.94958346857081,234.326313207109,236.762169113158,2.4358559060486,-235.544241160133,115.94522865053,119.599012509603
1.95174726820296,236.047382981591,239.092999564722,3.04561658313085,-237.570191273156,116.50088319923,121.069308073926
1.95391106783512,235.294898087338,235.861563996097,0.566665908758978,-235.578231041717,117.364116089289,118.214114952428
1.95607486746727,235.224691101305,234.256886718585,-0.967804382720686,-234.740788909945,118.096247742013,116.644541167932
1.95823866709943,235.093700681841,237.468165701538,2.37446501969649,-236.28093319169,116.359617831072,119.921315360617
1.96040246673158,235.78217714176,237.523726361913,1.74154922015327,-236.652951751836,117.020313960803,119.632637791033
1.96256626636373,234.972414623784,235.972643553365,1.00022892958089,-235.472529088575,116.986092847102,118.486436241473
1.96473006599589,236.640366526882,237.558086473235,0.917719946353429,-237.099226500058,117.861323290264,119.237903209794
1.96689386562804,237.551182903594,238.312042471455,0.760859567860876,-237.931612687525,118.395161667867,119.536451019658
1.9690576652602,236.040175501403,237.469452785642,1.42927728423865,-236.754814143523,117.305449108582,119.44936503494
1.97122146489235,237.623185100159,237.449241658398,-0.173943441761224,-237.536213379278,118.89856427096,118.637649108318
1.97338526452451,238.33762368027,239.853007710969,1.51538403069978,-239.095315695619,118.411119824785,120.684195870835
1.97554906415666,236.650787151164,238.308090644272,1.65730349310758,-237.479438897718,117.496741829028,119.98269706869
1.97771286378881,237.3942237767,238.343546003794,0.949322227093376,-237.868884890247,118.222450774803,119.646434115444
1.97987666342097,238.213061665049,239.140246314845,0.927184649796601,-238.676653989947,118.642938507626,120.033715482321
1.98204046305312,237.494886124547,237.51938451787,0.0244983933228866,-237.507135321209,118.735193865612,118.771941455597
1.98420426268528,235.187505726833,236.683615797117,1.49611007028474,-235.935560761975,116.845697828274,119.089862933701
1.98636806231743,236.803666266521,239.045646650845,2.24198038432453,-237.924656458683,117.280842941098,120.643813517585
1.98853186194958,235.179082200904,239.850595822915,4.67151362201091,-237.514839011909,115.253784289446,122.261054722463
1.99069566158174,233.519907300296,237.501735724111,3.9818284238147,-235.510821512204,114.769039438241,120.741782073963
1.99285946121389,234.259240492812,236.745526421927,2.48628592911473,-235.502383457369,115.886477281849,119.615906175521
1.99502326084605,235.840818294011,237.557186714686,1.71636842067562,-236.699002504348,117.062224936667,119.636777567681
1.9971870604782,235.085302252411,236.744576991036,1.65927473862553,-235.914939621723,116.713013756893,119.201925864831
1.99935086011035,233.553937059208,234.3186631987,0.764726139492552,-233.936300128954,116.394605459857,117.541694669096
2.00151465974251,232.800618736671,236.662481245131,3.86186250845944,-234.731549990901,114.469378114106,120.262171876795
2.00367845937466,232.801416431581,235.856975313966,3.05555888238518,-234.329195872774,114.872928774598,119.456267098176
2.00584225900682,232.762444418628,233.50059023922,0.738145820592223,-233.131517328924,116.012149299018,117.119368029906
2.00800605863897,231.914954302264,233.552739024065,1.63778472180113,-232.733846663164,115.138584790231,117.595261872933
2.01016985827112,231.882150973844,235.978107080296,4.09595610645184,-233.93012902707,113.893097433696,120.037031593374
2.01233365790328,231.88978815403,232.007361494993,0.117573340963673,-231.948574824512,115.886107406533,116.062467417979
2.01449745753543,229.549495990542,231.172389510317,1.62289351977543,-230.360942750429,113.963301235383,116.397641515046
2.01666125716759,230.394283744063,231.910711887076,1.51642814301331,-231.15249781557,114.438927800525,116.713570015045
2.01882505679974,228.830073229453,231.872599499098,3.04252626964487,-230.351336364276,112.893773479904,117.457562884372
2.02098885643189,228.017948539606,228.701039500463,0.683090960856759,-228.359494020034,113.667428789375,114.69206523066
2.02315265606405,227.175830288615,229.545969208572,2.37013891995721,-228.360899748594,112.402845684329,115.958054064265
2.0253164556962,227.129145170192,230.40324602007,3.27410084987736,-228.766195595131,111.927522160157,116.838673434973
2.02748025532836,224.731842086558,228.052754617194,3.32091253063578,-226.392298351876,110.705464777961,115.686833573915
2.02964405496051,224.760857956072,227.239694599867,2.47883664379495,-226.00027627797,111.141010656139,114.859265621831
2.03180785459266,226.400825871059,227.181001425529,0.780175554469565,-226.790913648294,112.810325158295,113.980588489999
2.03397165422482,225.642340881411,227.117574922019,1.47523404060777,-226.379957901715,112.083553420402,114.296404481313
2.03613545385697,223.257220194444,225.50135313711,2.24413294266606,-224.379286665777,110.506543625889,113.872743039888
2.03829925348913,224.016973436776,228.705477071931,4.68850363515526,-226.361225254354,109.66423490081,116.696990353543
2.04046305312128,223.179928916818,227.180984297275,4.00105538045693,-225.180456607046,109.589436768181,115.591019838866
2.04262685275344,223.15686971493,225.656801127968,2.49993141303793,-224.406835421449,110.328469150946,114.078366270503
2.04479065238559,223.167212761075,224.890863283427,1.72365052235202,-224.029038022251,110.721781119362,113.30725690289
2.04695445201774,224.789552346766,227.245401170641,2.45584882387573,-226.017476758703,111.166851761445,114.850624997259
2.0491182516499,221.646155766193,223.994590899723,2.34843513353053,-222.820373332958,109.648860316331,113.171513016627
2.05128205128205,220.073975176957,222.33307126359,2.25909608663241,-221.203523220274,108.907439545163,112.296083675111
2.05344585091421,220.859558664293,222.308696280856,1.44913761656292,-221.584127472575,109.705210523865,111.87891694871
2.05560965054636,223.209764042184,224.729584985152,1.5198209429679,-223.969674513668,110.844971549608,113.12470296406
2.05777345017851,221.580493245202,221.628263299265,0.0477700540632782,-221.604378272233,110.766361595569,110.838016676664
2.05993724981067,221.559858008781,223.287081140249,1.72722313146744,-222.423469574515,109.916317438657,112.507152135858
2.06210104944282,224.752663462322,226.484435557198,1.73177209487588,-225.61854950976,111.510445683723,114.108103826037
2.06426484907498,224.001162702988,225.644318690187,1.6431559871989,-224.822740696588,111.179003357895,113.643737338693
2.06642864870713,221.665609030556,222.387886806478,0.722277775921327,-222.026747918517,110.471665627318,111.5550822912
2.06859244833928,223.279214775334,223.919195510119,0.639980734785013,-223.599205142727,111.319617020275,112.279588122452
2.07075624797144,222.466895807048,223.917527389999,1.45063158295113,-223.192211598524,110.508132112049,112.684079486475
2.07292004760359,222.410577751757,224.760516507146,2.34993875538925,-223.585547129451,110.030319498184,113.555227631268
2.07508384723575,221.55377319435,224.030320594164,2.4765473998136,-222.792046894257,109.538612897268,113.253433996989
2.0772476468679,220.731990862496,224.86396593873,4.13197507623309,-222.797978400613,108.300007893132,114.497970507481
2.07941144650005,219.968308615202,220.887871481345,0.919562866142741,-220.428090048274,109.52437287453,110.903717173744
2.08157524613221,219.248885010173,221.644677529925,2.39579251975147,-220.446781270049,108.426546245211,112.020235024838
2.08373904576436,220.909579103464,223.979962976158,3.07038387269324,-222.444771039811,108.919597615386,113.525173424425
2.08590284539652,220.133538652745,223.943702920788,3.81016426804283,-222.038620786767,108.161687192351,113.876933594415
2.08806664502867,220.875240940861,221.554659140662,0.679418199800239,-221.214950040761,110.097911370531,111.117038670231
2.09023044466082,220.782300834187,224.760327509289,3.97802667510194,-222.771314171738,108.402137079542,114.369177092195
2.09239424429298,221.503788076214,224.011668131592,2.50788005537834,-222.757728103903,109.497954010418,113.259774093485
2.09455804392513,221.502644695516,222.462730839879,0.960086144363856,-221.982687767698,110.271279275576,111.711408492122
2.09672184355729,221.580329251345,221.684935680928,0.104606429582901,-221.632632466137,110.737861410881,110.894771055256
2.09888564318944,223.278494528297,224.050708866962,0.772214338665833,-223.66460169763,111.253140094815,112.411461602814
2.10104944282159,222.552546439142,224.002091046176,1.44954460703374,-223.277318742659,110.551500916054,112.725817826605
2.10321324245375,220.149631522978,221.563449764174,1.41381824119566,-220.856540643576,109.367906640891,111.488634002685
2.1053770420859,221.639063043827,223.123886580547,1.48482353671932,-222.381474812187,110.077119753554,112.304355058633
2.10754084171806,221.518626659686,223.142025815063,1.6233991553776,-222.330326237375,109.947613752154,112.38271248522
2.10970464135021,219.865254564064,221.611571594866,1.74631703080186,-220.738413079465,109.059468766631,111.678944312834
2.11186844098237,221.49214993093,223.268268974165,1.77611904323524,-222.380209452548,109.858015443847,112.5221940087
2.11403224061452,222.407938555843,225.685626289696,3.2776877338529,-224.046782422769,109.565125410995,114.481657011774
2.11619604024667,222.537349567845,223.277677552526,0.740327984680704,-222.907513560186,110.898510791582,112.009002768603
2.11835983987883,221.798418457527,224.001846014679,2.20342755715251,-222.900132236103,109.797495450187,113.102636785916
2.12052363951098,222.535843402412,225.516288684995,2.98044528258333,-224.026066043704,109.777699059914,114.248366983789
2.12268743914314,221.603065965313,223.10017173212,1.49710576680667,-222.351618848716,110.052980099253,112.298638749463
2.12485123877529,219.880170808804,221.545630659652,1.66545985084761,-220.712900734228,109.107355478978,111.60554525525
2.12701503840744,222.219048601059,226.394192217703,4.17514361664468,-224.306620409381,109.021952492207,115.284667917174
2.1291788380396,221.499996088399,226.468826173289,4.96883008489013,-223.984411130844,108.265583001755,115.71882812909
2.13134263767175,220.857331847049,224.105380905079,3.24804905803052,-222.481356376064,108.804641394509,113.676714981555
2.13350643730391,221.788089815211,224.062591426193,2.27450161098201,-222.925340620702,109.756794102115,113.168546518588
2.13567023693606,224.203219015435,227.160963199275,2.95774418383934,-225.682091107355,110.622737415798,115.059353691557
2.13783403656821,222.516343995146,224.707878202938,2.1915342077919,-223.612111099042,110.162404893677,113.449706205365
2.13999783620037,222.348230814303,223.102758109551,0.754527295248209,-222.725494461927,110.796851759528,111.9286427024
2.14216163583252,222.217817328072,225.534700789865,3.31688346179226,-223.876259058969,109.45046693314,114.425792125828
2.14432543546468,223.003560273293,225.615814002351,2.61225372905778,-224.309687137822,110.195653272118,114.114033865704
2.14648923509683,222.330397192843,224.089933409509,1.75953621666596,-223.210165301176,110.285430488088,112.924734813087
2.14865303472898,223.301155077742,224.892792585976,1.5916375082341,-224.096973831859,110.854758784754,113.242215047105
2.15081683436114,224.214394591224,225.636382209625,1.42198761840078,-224.925388400425,111.396203486412,113.529184914013
2.15298063399329,222.609412360694,223.968317679362,1.35890531866781,-223.288865020028,110.625253521013,112.663611499015
2.15514443362545,221.673496678488,222.322273602078,0.648776923589935,-221.997885140283,110.512359877449,111.485525262834
2.1573082332576,220.702092260937,223.910732749455,3.20864048851809,-222.306412505196,108.746725886209,113.559686618986
