t,leadI,leadII,leadIII,aVR,aVL,aVF
0,-4.90208317566697,-0.0110141150579194,4.89106906060905,2.45654864536245,-4.89657611813801,2.44002747277557
0.00216286363144804,-3.911762603559,0.0165337141077732,3.92829631766677,1.94761444472561,-3.92002946061288,1.97241501588727
0.00432572726289607,-4.44598173232123,0.0355502964974513,4.48153202881868,2.20521571791189,-4.46375688056995,2.25854116265807
0.00648859089434411,-5.99632673864204,0.0428349475920915,6.03916168623413,2.97674589552497,-6.01774421243809,3.04099831691311
0.00865145452579215,-8.03127342634241,0.0366328816015681,8.06790630794398,3.99732027237042,-8.04958986714319,4.05226959477277
0.0108143181572402,-10.1417302370413,0.0160944036668681,10.1578246407081,5.0628179166872,-10.1497774388747,5.0869595221875
0.0129771817886882,-12.1008468727107,-0.0180919196312213,12.0827549530795,6.05946939617096,-12.0918009128951,6.03233151672412
0.0151400454201363,-13.8831187600491,-0.061853039292,13.8212657207571,6.97248589967053,-13.8521922404031,6.87970634073253
0.0173029090515843,-15.599717738865,-0.104846699483739,15.4948710393812,7.85228221917435,-15.5472943891231,7.69501216994875
0.0194657726830323,-17.3449109674214,-0.132773278194544,17.2121376892269,8.73884212280798,-17.2785243283241,8.53968220551616
0.0216286363144804,-19.043768392671,-0.141375749885245,18.9023926427857,9.59257207127811,-18.9730805177284,9.38050844645025
0.0237914999459284,-20.4041998655557,-0.145515000401264,20.2586848651544,10.2748574329785,-20.3314423653551,10.0565849323766
0.0259543635773764,-21.0399465618181,-0.166090962156679,20.8738555996614,10.6030187619874,-20.9569010807398,10.3538823187524
0.0281172272088245,-20.7324882177584,-0.211315407525064,20.5211728102333,10.4719018126417,-20.6268305139958,10.1549287013541
0.0302800908402725,-19.629316931145,-0.268634080414476,19.3606828507305,9.94897550577974,-19.4949998909378,9.54602438515803
0.0324429544717206,-18.1987345471809,-0.307039178279731,17.8916953689011,9.2528868627303,-18.045214958041,8.7923280953107
0.0346058181031686,-17.0044336512757,-0.296465245354391,16.7079684059213,8.65044944831503,-16.8562010285985,8.20575158028344
0.0367686817346166,-16.4699703406473,-0.234540509666346,16.235429830981,8.35225542515683,-16.3527000858141,8.00044466065731
0.0389315453660647,-16.7439544921745,-0.147677343000142,16.5962771491743,8.44581591758731,-16.6701158206744,8.2242999030871
0.0410944089975127,-17.6981129137785,-0.0666519061042806,17.6314610076742,8.8823824099414,-17.6647869607264,8.78240455078498
0.0432572726289607,-18.9879103678034,-0.00988098122450148,18.9780293865789,9.49889567451397,-18.9829698771912,9.48407420267722
0.0454201362604088,-20.1097846127287,0.0160167947097422,20.1258014074385,10.0468839090095,-20.1177930100836,10.0709091010741
0.0475829998918568,-20.5170568148598,0.011465800904253,20.5285226157641,10.2527955069778,-20.522789715312,10.2699942083342
0.0497458635233049,-19.8390682795719,-0.0184353162116059,19.8206329633603,9.92875179789177,-19.8298506214661,9.90109882357436
0.0519087271547529,-18.0750935795776,-0.0637912263552366,18.0113023532223,9.06944240296641,-18.0431979664,8.97375556343355
0.0540715907862009,-15.5973130759025,-0.10776830259342,15.4895447733091,7.85254068924797,-15.5434289246058,7.69088823535784
0.056234454417649,-12.9797993166546,-0.129154364937146,12.8506449517175,6.55447684079588,-12.915222134186,6.36074529339016
0.058397318049097,-10.8120208364175,-0.116687774478262,10.6953330619392,5.46435430544787,-10.7536769491783,5.28932264373047
0.060560181680545,-9.57532775821653,-0.0791530020530989,9.49617475616343,4.82724038013481,-9.53575125718998,4.70851087705517
0.0627230453119931,-9.55325984917809,-0.0345895659171535,9.51867028326094,4.79392470754762,-9.53596506621951,4.74204035867189
0.0648859089434411,-10.7656987606905,0.00446473189146762,10.7701634925819,5.3806170143995,-10.7679311266362,5.3873141122367
0.0670487725748892,-12.9562221378953,0.0333784211164136,12.9896005590117,6.46142185838943,-12.9729113484535,6.51148949006405
0.0692116362063372,-15.6543714946483,0.0521648108900836,15.7065363055384,7.80110334187911,-15.6804539000933,7.87935055821423
0.0713744998377852,-18.2869124311772,0.0628630364575807,18.3497754676348,9.11202469735982,-18.318343949406,9.20631925204619
0.0735373634692333,-20.26611819584,0.0677190968933078,20.3338372927333,10.0991995494734,-20.2999777442867,10.2007781948133
0.0757002271006813,-21.0450666068785,0.0680912479158743,21.1131578547943,10.4884876794813,-21.0791122308364,10.5906245513551
0.0778630907321293,-20.2185974389618,0.0639413984989108,20.2825388374607,10.0773280202314,-20.2505681382113,10.1732401179798
0.0800259543635774,-17.685201763042,0.0538195565628931,17.7390213196049,8.81569110323956,-17.7121115413235,8.8964204380839
0.0821888179950254,-13.7604124424152,0.0353457355847048,13.7957581779999,6.86253335341525,-13.7780853102076,6.91555195679231
0.0843516816264734,-9.12460359083929,0.00629225053571786,9.130895841375,4.55915567015178,-9.12774971610714,4.56859404595536
0.0865145452579215,-4.60236912232563,-0.033582293409374,4.56878682891625,2.3179757078675,-4.58557797562094,2.26760226775344
0.0886774088893695,-0.895529596827657,-0.0798554155840776,0.81567418124358,0.487692506205867,-0.855601889035619,0.367909382829751
0.0908402725208176,1.58437970904632,-0.120059740450604,-1.70443944949692,-0.732159984297856,1.64440957927162,-0.912249594973763
0.0930031361522656,2.74122105317124,-0.135895505926277,-2.87711655909752,-1.30266277362248,2.80916880613438,-1.5065060325119
0.0951659997837136,2.73569815170387,-0.117727798338521,-2.85342595004239,-1.30898517668268,2.79456205087313,-1.48557687419046
0.0973288634151617,1.88388286201783,-0.0750900950051843,-1.95897295702301,-0.904396383506322,1.92142790952042,-1.0170315260141
0.0994917270466097,0.532773456488542,-0.0263680853268108,-0.559141541815353,-0.253202685580866,0.545957499151947,-0.292754813571082
0.101654590678058,-1.02872822051296,0.0155123036765775,1.04424052418954,0.506607958418191,-1.03648437235125,0.529876413933057
0.103817454309506,-2.58137463839842,0.0451333055304415,2.62650794392886,1.26812066643399,-2.60394129116364,1.33582062472965
0.105980317940954,-3.91253151929541,0.0611130524181784,3.97364457171359,1.92570923343862,-3.9430880455045,2.01737881206589
0.108143181572402,-4.73646784813496,0.0635058231380722,4.79997367127304,2.33648101249845,-4.768220759704,2.43173974720555
0.11030604520385,-4.71320651013698,0.0523581492698889,4.76556465940687,2.33042418043355,-4.73938558477193,2.40896140433838
0.112468908835298,-3.58513876649425,0.0275032763309132,3.61264204282517,1.77881774508167,-3.59889040465971,1.82007265957804
0.114631772466746,-1.30618488487542,-0.0103978128781922,1.29578707199723,0.658291348876807,-1.30098597843632,0.642694629559518
0.116794636098194,1.9232559644089,-0.0576166648093456,-1.98087262921824,-0.932819649799775,1.95206429681357,-1.01924464701379
0.118957499729642,5.696416271126,-0.10411477614265,-5.80053104726865,-2.79615074749167,5.74847365919732,-2.95232291170565
0.12112036336109,9.48564608064734,-0.135523511747106,-9.62116959239445,-4.67506128445012,9.5534078365209,-4.87834655207078
0.123283226992538,12.7596437779802,-0.146830501507957,-12.9064742794881,-6.3064066382361,12.8330590287341,-6.52665239049804
0.125446090623986,15.0994463749069,-0.151185023457689,-15.2506313983646,-7.47413067572461,15.1750388866357,-7.70090821091114
0.127608954255434,16.2692232390404,-0.166678009886848,-16.4359012489273,-8.05127261457679,16.3525622439839,-8.30128962940706
0.129771817886882,16.2245545232237,-0.197767011053455,-16.4223215342772,-8.01339375608512,16.3234380287504,-8.31004427266531
0.13193468151833,15.0905578568759,-0.233579775379858,-15.3241376322558,-7.42848904074804,15.2073477445659,-7.77885870381782
0.134097545149778,13.1550593614853,-0.262793040323329,-13.4178524018086,-6.44613316058099,13.286455881647,-6.84032272106599
0.136260408781226,10.8658222225224,-0.282419004374781,-11.1482412268972,-5.29170160907382,11.0070317247098,-5.71533011563599
0.138423272412674,8.78301856898872,-0.289620526220725,-9.07263909520945,-4.246699021384,8.92782883209908,-4.68112981071509
0.140586136044122,7.48885057808556,-0.280079999507225,-7.76893057759279,-3.60438528928917,7.62889057783917,-4.02450528855
0.14274899967557,7.49409404725671,-0.25327918700263,-7.74737323425934,-3.62040743012704,7.62073364075802,-4.00032621063098
0.144911863307018,9.12831346080168,-0.207695870823389,-9.33600933162507,-4.46030879498914,9.23216139621337,-4.77185260122423
0.147074726938467,12.3966157029307,-0.143323216667954,-12.5399389195987,-6.12664624313138,12.4682773112647,-6.34163106813331
0.149237590569915,16.90106398377,-0.071497972685042,-16.972561956455,-8.41478300554247,16.9368129701125,-8.52202996457003
0.151400454201363,21.9334518873794,-0.00868588155555538,-21.9421377689349,-10.9623830029119,21.9377948281572,-10.9754118252453
0.153563317832811,26.6904255240811,0.0350537229693026,-26.6553718011118,-13.3627396235252,26.6728986625965,-13.3101590390713
0.155726181464259,30.5031519009954,0.0566579815642428,-30.4464939194312,-15.2799049412798,30.4748229102133,-15.1949179689335
0.157889045095707,33.0156553133887,0.0562752860552987,-32.9593800273334,-16.535965299722,32.987517670361,-16.451552370639
0.160051908727155,34.2424850114816,0.0353023273734429,-34.2071826841082,-17.1388936694275,34.2248338477949,-17.0859401783674
0.162214772358603,34.4834512008422,-0.00365122843141459,-34.4871024292736,-17.2398999862054,34.4852768150579,-17.2453768288525
0.164377635990051,34.1789161496195,-0.0549955542447392,-34.2339117038642,-17.0619602976874,34.2064139267418,-17.1444536290545
0.166540499621499,33.7838042409013,-0.106935763390443,-33.8907400042918,-16.8384342387554,33.8372721225965,-16.9988378838411
0.168703363252947,33.6562840560129,-0.143183165860386,-33.7994672218732,-16.7565504450762,33.727875638943,-16.9713251938668
0.170866226884395,33.9719280710048,-0.156262960912475,-34.1281910319172,-16.9078325550461,34.050059551461,-17.1422269964149
0.173029090515843,34.7098746130132,-0.156028750134956,-34.8659033631482,-17.2769229314391,34.7878889880807,-17.5109660566416
0.175191954147291,35.7015218791519,-0.156481482720983,-35.8580033618729,-17.7725201982155,35.7797626205124,-18.0072424222969
0.177354817778739,36.7179481166786,-0.157861089063699,-36.8758092057423,-18.2800435138074,36.7968786612104,-18.516835147403
0.179517681410187,37.5833677214738,-0.14657673931083,-37.7299444607846,-18.7183954910815,37.6566560911292,-18.9382606000477
0.181680545041635,38.2660273007359,-0.112958089604494,-38.3789853903404,-19.0765346055657,38.3225063455382,-19.2459717399725
0.183843408673083,38.8887813548178,-0.0642337273205982,-38.9530150821384,-19.4122738137486,38.9208982184781,-19.5086244047295
0.186006272304531,39.6103961825459,-0.015764132138207,-39.6261603146841,-19.7973160252038,39.618278248615,-19.8209622234111
0.188169135935979,40.4418472556544,0.0225307323360599,-40.4193165233183,-20.2321889939952,40.4305818894863,-20.1983928954911
0.190331999567427,41.1990824256023,0.0480589767371689,-41.1510234488652,-20.6235707011698,41.1750529372338,-20.551482236064
0.192494863198875,41.6566928375305,0.0622382679839854,-41.5944545695465,-20.8594655527572,41.6255737035385,-20.7661081507813
0.194657726830323,41.7165189098833,0.0680976198254302,-41.6484212900579,-20.8923082648544,41.6824700999706,-20.7901618351162
0.196820590461771,41.4080823906004,0.0688155604183761,-41.339266830182,-20.7384489755094,41.3736746103912,-20.6352256348818
0.198983454093219,40.7638968256955,0.0670072226920267,-40.6968896030035,-20.4154520241938,40.7303932143495,-20.3149411901557
0.201146317724667,39.7508845194982,0.0645139253111456,-39.686370594187,-19.9076992224047,39.7186275568426,-19.8109283344379
0.203309181356115,38.3387401945559,0.0624697137843137,-38.2762704807716,-19.2006049541701,38.3075053376637,-19.1069003834936
0.205472044987564,36.6187755167725,0.0614730632335553,-36.5573024535389,-18.340124290003,36.5880389851557,-18.2479146951527
0.207634908619012,34.8493333052549,0.0617500177347644,-34.7875832875201,-17.4555416614948,34.8184582963875,-17.3629166348927
0.20979777225046,33.3598083601758,0.0632443573634498,-33.2965640028124,-16.7115263587696,33.3281861814941,-16.6166598227245
0.211960635881908,32.3353736726773,0.0656087367633338,-32.269764935914,-16.2004912047203,32.3025693042956,-16.1020780995753
0.214123499513356,31.6645610243731,0.0681024542899499,-31.5964585700832,-15.8663317393315,31.6305097972282,-15.7641780578966
0.216286363144804,31.0354895731857,0.0694336906957428,-30.96605588249,-15.5524616319407,31.0007727278378,-15.4483110958971
0.218449226776252,30.1826637115805,0.0676232592887674,-30.1150404522918,-15.1251434854346,30.1488520819361,-15.0237085965015
0.2206120904077,29.0304143237678,0.0600158209292611,-28.9703985028385,-14.5452150723485,29.0004064133032,-14.4551913409546
0.222774954039148,27.6631470450199,0.0436182150413258,-27.6195288299785,-13.8533826300306,27.6413379374992,-13.7879553074686
0.224937817670596,26.239189230488,0.0159863540216693,-26.2232028764664,-13.1275877922548,26.2311960534772,-13.1036082612223
0.227100681302044,24.9197227044912,-0.0231203128243997,-24.9428430173156,-12.4483011958334,24.9312828609034,-12.48298166507
0.229263544933492,23.7913016321343,-0.0691942720224388,-23.8604959041568,-11.8610536800559,23.8258987681455,-11.9648450880896
0.23142640856494,22.8004080867938,-0.109677535979925,-22.9100856227737,-11.3453652754069,22.8552468547838,-11.5098815793768
0.233589272196388,21.7700824706165,-0.126201298447091,-21.8962837690636,-10.8219405860847,21.83318311984,-11.0112425337553
0.235752135827836,20.5081865809775,-0.109065465541929,-20.6172520465194,-10.1995605577178,20.5627193137485,-10.3631587560307
0.237914999459284,18.9030803422068,-0.0676870056511458,-18.970767347858,-9.41769666827783,18.9369238450324,-9.51922717675455
0.240077863090732,16.9046384669623,-0.0202003696913494,-16.9248388366536,-8.44221904863547,16.914738651808,-8.4725196031725
0.24224072672218,14.4588207590037,0.0209504267029042,-14.4378703323008,-7.2398855928533,14.4483455456522,-7.20845995279894
0.244403590353628,11.5408675400691,0.0511399863270887,-11.4897275537421,-5.79600376319812,11.5152975469056,-5.71929378370748
0.246566453985076,8.26727623293391,0.0701041554214424,-8.19717207751247,-4.16869019417768,8.23222415522319,-4.06353396104551
0.248729317616524,4.95118026707462,0.0792171641262394,-4.87196310294838,-2.51519871560043,4.9115716850115,-2.39637296941107
0.250892181247972,2.07009400778003,0.0796922481679343,-1.99040175961209,-1.07489312797398,2.03024788369606,-0.95535475572208
0.25305504487942,0.176338997888308,0.0716895123303306,-0.104649485557978,-0.124014255109319,0.140494241723143,-0.0164799866138236
0.255217908510868,-0.287931707317682,0.0542745219480562,0.342206229265738,0.116828592684813,-0.31506896829171,0.198240375606897
0.257380772142316,0.758038533514764,0.0262155424260061,-0.731822991088758,-0.392127037970385,0.744930762301761,-0.352803724331376
0.259543635773764,2.92431792813136,-0.0123437150049596,-2.93666164313632,-1.4559871065632,2.93048978563384,-1.47450267907064
0.261706499405213,5.50735415878211,-0.0573249162238032,-5.56467907500591,-2.72501462127915,5.53601661689401,-2.81100199561486
0.263869363036661,7.7516713083686,-0.0974375750693332,-7.84910888343793,-3.82711686664963,7.80039009590327,-3.97327322925363
0.266032226668109,9.03687828760673,-0.116442509406386,-9.15332079701311,-4.46021788910017,9.09509954230992,-4.63488165320975
0.268195090299557,8.9906031744236,-0.107537164821183,-9.09814033924478,-4.44153300480121,9.04437175683419,-4.60283875203298
0.270357953931005,7.55997083696923,-0.0834034172244192,-7.64337425419365,-3.7382837098724,7.60167254558144,-3.86338883570903
0.272520817562453,5.03708648127218,-0.0648613585591997,-5.10194783983138,-2.48611256135649,5.06951716055178,-2.58340459919529
0.274683681193901,2.00197384614506,-0.0647285090843712,-2.06670235522943,-0.968622668530346,2.03433810068725,-1.0657154321569
0.276846544825349,-0.851569838886405,-0.0830327746421401,0.768537064244265,0.467301306764273,-0.810053451565335,0.342752144801063
0.279009408456797,-2.93571849240737,-0.107011963059596,2.82870652934778,1.52136522773349,-2.88221251087758,1.36084728314409
0.281172272088245,-3.92456826798036,-0.115897346339548,3.80867092164081,2.02023280715995,-3.86661959481059,1.84638678765063
0.283335135719693,-3.80507044405596,-0.0970436240736665,3.70802681998229,1.95105703406481,-3.75654863201912,1.80549159795431
0.285497999351141,-2.81542050177308,-0.0572529451801638,2.75816755659291,1.43633672347662,-2.78679402918299,1.35045730570637
0.287660862982589,-1.29289197278257,-0.0126915558991705,1.2802004168834,0.65279176434087,-1.28654619483298,0.633754430492115
0.289823726614037,0.461896947334253,0.0255422403855788,-0.436354706948674,-0.243719593859916,0.449125827141464,-0.205406233281548
0.291986590245485,2.20731840473587,0.0537299482367108,-2.15358845649916,-1.13052417648629,2.18045343061752,-1.04992925413123
0.294149453876933,3.73553292941745,0.0722850105486243,-3.66324791886882,-1.90390896998303,3.69939042414313,-1.7954814541601
0.296312317508381,4.88587306927167,0.0831699592826385,-4.80270310998903,-2.48452151427715,4.84428808963035,-2.3597665753532
0.298475181139829,5.55804533244117,0.0880973352473803,-5.46994799719379,-2.82307133384427,5.51399666481748,-2.6909253309732
0.300638044771277,5.69347471024969,0.0874445173828352,-5.60603019286685,-2.89045961381626,5.64975245155827,-2.75929283774201
0.302800908402725,5.2748834886969,0.0797921447902289,-5.19509134390667,-2.67733781674356,5.23498741630179,-2.55764959955822
0.304963772034173,4.36653368894599,0.0620797007426909,-4.3044539882033,-2.21430669484434,4.33549383857465,-2.12118714373031
0.307126635665621,3.13168753755355,0.0304981592865101,-3.10118937826704,-1.58109284842003,3.11643845791029,-1.53534560949026
0.309289499297069,1.79761565669128,-0.0176555106137246,-1.815271167305,-0.889980073038777,1.80644341199814,-0.916463338959363
0.311452362928517,0.61797803503589,-0.0809272398464538,-0.698905274882343,-0.268525397594718,0.658441654959117,-0.389916257364399
0.313615226559965,-0.146027039298531,-0.149396647060892,-0.00336960776236161,0.147711843179712,-0.0713287157680846,-0.076383127411627
0.315778090191413,-0.253406011991899,-0.205192430506584,0.0482135814853148,0.229299221249242,-0.150809796738607,-0.0784894245106347
0.317940953822861,0.452186658431117,-0.234394274929316,-0.686580933360433,-0.1088961917509,0.569383795895775,-0.460487604144875
0.320103817454309,1.95169574919197,-0.234160989692535,-2.1858567388845,-0.858767379749718,2.06877624403824,-1.21000886428852
0.322266681085758,4.01588147092701,-0.204542979416009,-4.22042445034302,-1.9056692457555,4.11815296063502,-2.21248371487952
0.324429544717206,6.29292831444036,-0.148490802001122,-6.44141911644148,-3.07221875621962,6.36717371544092,-3.2949549592213
0.326592408348654,8.46006610029258,-0.0800547030588298,-8.54012080335141,-4.19000569861687,8.50009345182199,-4.31008775320512
0.328755271980102,10.3369108876375,-0.0172526796763241,-10.3541635673138,-5.15982910398058,10.3455372274756,-5.18570812349507
0.33091813561155,11.9034193455921,0.0298626364877669,-11.8735567091043,-5.96664099103991,11.8884880273482,-5.92184703630826
0.333080999242998,13.2321141323914,0.0597894691019909,-13.1723246632894,-6.64595180074668,13.2022193978404,-6.55626759709369
0.335243862874446,14.4144702903081,0.0753844761153673,-14.3390858141927,-7.24492738321173,14.3767780522504,-7.13185066903868
0.337406726505894,15.5077582810584,0.0809724027375534,-15.4267858783208,-7.79436534189797,15.4672720796896,-7.67290673779164
0.339569590137342,16.480159543388,0.0806725699327962,-16.3994869734552,-8.28041605666038,16.4398232584216,-8.15940720176119
0.34173245376879,17.2148412090615,0.0776495052876058,-17.1371917037739,-8.64624535717455,17.1760164564177,-8.52977109924314
0.343895317400238,17.5983983052168,0.0739577734379078,-17.5244405317789,-8.83617803932738,17.5614194184979,-8.72524137917052
0.346058181031686,17.5908552861542,0.070702072640077,-17.5201532135142,-8.83077867939716,17.5555042498342,-8.72472557043704
0.348221044663134,17.2207373380781,0.0683157038516671,-17.1524216342264,-8.64452652096488,17.1865794861523,-8.54205296518738
0.350383908294582,16.5717332142655,0.0668398955128764,-16.5048933187526,-8.31928655488917,16.538313266509,-8.21902671161986
0.35254677192603,15.8046715641694,0.0661475886654922,-15.7385239755039,-7.93540957641747,15.7715977698367,-7.83618819341923
0.354709635557478,15.1603398400393,0.0660943735987955,-15.0942454664405,-7.61321710681904,15.1272926532399,-7.51407554642085
0.356872499188926,14.8884959194731,0.0665990141757151,-14.8218969052974,-7.47754746682443,14.8551964123853,-7.37764894556086
0.359035362820374,15.1366353782249,0.067661841072781,-15.0689735371521,-7.60214860964885,15.1028044576885,-7.50065584803968
0.361198226451822,15.8792113651091,0.0693273018877249,-15.8098840632214,-7.97426933349841,15.8445477141652,-7.87027838066682
0.36336109008327,16.9407359551538,0.0715929061166396,-16.8691430490372,-8.50616443063522,16.9049395020955,-8.39877507146026
0.365523953714718,18.1023121668287,0.0742660297025386,-18.0280461371261,-9.0882890982656,18.0651791519774,-8.97689005371179
0.367686817346166,19.1987264577007,0.0767774781853045,-19.1219489795154,-9.63775196794302,19.1603377186081,-9.52258575066506
0.369849680977614,20.1234475355831,0.0779806499034714,-20.0454668856796,-10.1007140927433,20.0844572106313,-9.98374311788806
0.372012544609062,20.7733486195911,0.0760003233575321,-20.6973482962336,-10.4246744714743,20.7353484579123,-10.310673986438
0.37417540824051,21.0144773888168,0.0682446970897686,-20.9462326917271,-10.5413610429533,20.9803550402719,-10.4389939973186
0.376338271871958,20.7087881810493,0.0517508107818341,-20.6570373702675,-10.3802694959156,20.6829127756584,-10.3026432797428
0.378501135503406,19.7953535724212,0.0240785765376429,-19.7712749958835,-9.9097160744794,19.7833142841523,-9.87359820967294
0.380663999134855,18.3938890522655,-0.0150307572821871,-18.4089198095477,-9.18942914749165,18.4014044309066,-9.21197528341493
0.382826862766303,16.8729789878318,-0.0611098224448602,-16.9340888102767,-8.40593458269347,16.9035338990542,-8.49759931636076
0.384989726397751,15.7940032065041,-0.101664565166901,-15.895667771671,-7.8461693206686,15.8448354890876,-7.99866616841895
0.387152590029199,15.7062658378387,-0.118414076920143,-15.8246799147589,-7.79392588045929,15.7654728762988,-7.9715469958395
0.389315453660647,16.9423296663678,-0.101762795941605,-17.0440924623094,-8.4202834352131,16.9932110643386,-8.57292762912551
0.391478317292095,19.5693362180747,-0.0612264578908464,-19.6305626759655,-9.75405488009192,19.5999494470201,-9.84589456692819
0.393641180923543,23.4462009235993,-0.0149868792870577,-23.4611878028864,-11.7156070221561,23.4536943632429,-11.7380873410867
0.395804044554991,28.2690049170344,0.0245910700229005,-28.2444138470115,-14.1467979935286,28.2567093820229,-14.1099113884943
0.397966908186439,33.5919306487586,0.0531919996675858,-33.538738649091,-16.8225613242131,33.5653346489248,-16.7427733247117
0.400129771817887,38.8558520500703,0.0712126827263194,-38.7846393673439,-19.4635323663983,38.8202457087071,-19.3567133423088
0.402292635449335,43.4577765720912,0.081139447924033,-43.3766371241671,-21.7694580100076,43.4172068481292,-21.6477488381216
0.404455499080783,46.8964968816616,0.0857629553340772,-46.8107339263275,-23.4911299184978,46.8536154039946,-23.3624854854967
0.406618362712231,48.9552310077148,0.0871119319789997,-48.8681190757358,-24.5211714698469,48.9116750417253,-24.3905035718784
0.408781226343679,49.7794876086105,0.0859161744477978,-49.6935714341627,-24.9327018915291,49.7365295213866,-24.8038276298574
0.410944089975127,49.7514055764674,0.0814464952386771,-49.6699590812288,-24.9164260358531,49.7106823288481,-24.794256292995
0.413106953606575,49.2459472772661,0.0716748115568052,-49.1742724657093,-24.6588110444114,49.2101098714877,-24.5512988270762
0.415269817238023,48.4650837162116,0.053811120263045,-48.4112725959485,-24.2594474182373,48.43817815608,-24.1787307378427
0.417432680869471,47.468080205666,0.0253696249750511,-47.4427105806909,-23.7467249153205,47.4553953931784,-23.7086704778579
0.419595544500919,46.3321311476266,-0.0140463432889128,-46.3461774909155,-23.1590424021688,46.339154319271,-23.1801119171022
0.421758408132367,45.2632262842333,-0.060122218378164,-45.3233485026114,-22.6015520329276,45.2932873934224,-22.6917353604948
0.423921271763815,44.5410931826312,-0.100495558628947,-44.6415887412601,-22.2202988120011,44.5913409619457,-22.3710421499445
0.426084135395263,44.3681200635747,-0.116989314818139,-44.4851093783929,-22.1255653743783,44.4266147209838,-22.3010493466055
0.428246999026711,44.7936664090092,-0.100095386542401,-44.8937617955516,-22.3467855112334,44.8437141022804,-22.496928591047
0.430409862658159,45.7567967365326,-0.059419694884399,-45.816216431417,-22.8486885208241,45.7865065839748,-22.9378180631507
0.432572726289607,47.1322552729042,-0.0132547281068095,-47.145510001011,-23.5595002723987,47.1388826369576,-23.5793823645589
0.434735589921055,48.7198662658607,0.0258963761172228,-48.6939698897434,-24.3728813209889,48.7069180778021,-24.3340367568131
0.436898453552504,50.2463057115887,0.0535664204387846,-50.1927392911499,-25.1499360660137,50.2195225013693,-25.0695864353555
0.439061317183952,51.4144423497989,0.0700338021395376,-51.3444085476594,-25.7422380759692,51.3794254487292,-25.6371873727599
0.4412241808154,51.9652692385897,0.0777907761067817,-51.8874784624829,-26.0215300073482,51.9263738505363,-25.9048438431881
0.443387044446848,51.7643679254076,0.0798982841524518,-51.6844696412551,-25.92213310478,51.7244187833313,-25.8022856785513
0.445549908078296,50.8800630886661,0.079099905341169,-50.800963183325,-25.4795814970037,50.8405131359956,-25.3609316389919
0.447712771709744,49.5299275946328,0.0774696942106862,-49.4524579004221,-24.8036986444217,49.4911927475274,-24.6874941031057
0.449875635341192,47.932476227817,0.0763652572102144,-47.8561109706068,-24.0044207425136,47.8942935992119,-23.8898728566983
0.45203849897264,46.2409507035438,0.0764999349234794,-46.1644507686203,-23.1587253192337,46.2027007360821,-23.0439754168484
0.454201362604088,44.5774312021006,0.0780060225295389,-44.499425179571,-22.3277186123151,44.5384281908358,-22.2107095785207
0.456364226235536,43.0659064948356,0.080420204913389,-42.9854862899223,-21.5731633498745,43.0256963923789,-21.4525330425044
0.458527089866984,41.8284188834009,0.0825800345606683,-41.7458388488402,-20.9554994589808,41.7871288661206,-20.8316294071398
0.460689953498432,40.950287358108,0.0824799357236153,-40.8678074223844,-20.5163836469158,40.9090473902462,-20.3926637433304
0.46285281712988,40.4281516594651,0.077201369761674,-40.3509502897035,-20.2526765146134,40.3895509745843,-20.1368744599709
0.465015680761328,40.1018984932546,0.0631041255729001,-40.0387943676817,-20.0825013094137,40.0703464304681,-19.9878451210544
0.467178544392776,39.5862763441228,0.0365330682819451,-39.5497432758408,-19.8114047062024,39.5680098099818,-19.7566051037794
0.469341408024224,38.3233345488936,-0.0046707830721209,-38.3280053319657,-19.1593318829108,38.3256699404297,-19.1663380575189
0.471504271655672,35.816057563858,-0.0586133289605875,-35.8746708928185,-17.8787221174487,35.8453642283382,-17.9666421108896
0.47366713528712,31.8864458742581,-0.115702750848684,-32.0021486251068,-15.8853715617047,31.9442972496825,-16.0589256879777
0.475829998918568,26.7885733161936,-0.159999717469602,-26.9485730336632,-13.314286799362,26.8685731749284,-13.5542863755664
0.477992862550016,21.1347879079957,-0.182043853941565,-21.3168317619373,-10.4763720270271,21.2258098349665,-10.7494378079394
0.480155726181464,15.6675790642838,-0.186764169751398,-15.8543432340352,-7.74040744726621,15.7609611491595,-8.0205537018933
0.482318589812912,10.9830549539075,-0.179788553481604,-11.1628435073891,-5.40163320021296,11.0729492306483,-5.67131603043537
0.48448145344436,7.35993943990843,-0.155289396751258,-7.51522883665969,-3.60232502157859,7.43758413828406,-3.83525911670547
0.486644317075808,4.76960587327824,-0.108345703752765,-4.877951577031,-2.33063008476274,4.82377872515462,-2.49314864039188
0.488807180707256,3.01269803397111,-0.0488469468024873,-3.06154498077359,-1.48192554358431,3.03712150737235,-1.55519596378804
0.490970044338704,1.88564375504689,0.00621204522183176,-1.87943170982505,-0.945927900134359,1.88253773243597,-0.936609832301611
0.493132907970152,1.27135489835746,0.0454118039223813,-1.22594309443508,-0.65838335113992,1.24864899639627,-0.590265645256348
0.4952957716016,1.08182908127992,0.0642772366051358,-1.01755184467478,-0.573053158942528,1.04969046297735,-0.476637304034824
0.497458635233049,1.13506776365625,0.0619817419206146,-1.07308602173564,-0.598524752788433,1.10407689269595,-0.505552139907512
0.499621498864497,1.11832416872596,0.0396830248342389,-1.07864114389172,-0.579003596780101,1.09848265630884,-0.519479059528742
0.501784362495945,0.679245207345275,0.000666709371236675,-0.678578497974038,-0.339955958358256,0.678911852659657,-0.338955894301401
0.503947226127393,-0.417457068005547,-0.04781643050513,0.369640637500417,0.232636749255338,-0.393548852752982,0.160912103497643
0.506110089758841,-2.17604298526157,-0.0914302498723209,2.08461273538925,1.13373661756695,-2.13032786032541,0.996591242758466
0.508272953390289,-4.38067426001146,-0.110888883962869,4.26978537604859,2.24578157198716,-4.32522981803003,2.07944824604286
0.510435817021737,-6.69604988530011,-0.096214393954054,6.59983549134606,3.39613213962708,-6.64794268832309,3.251810548696
0.512598680653185,-8.77460337917216,-0.0569423444344804,8.71766103473768,4.41577286180332,-8.74613220695492,4.3303593451516
0.514761544284633,-10.3658741537574,-0.0114985817509645,10.3543755720065,5.1886863677542,-10.3601248628819,5.17143849512775
0.516924407916081,-11.4360301395039,0.0274104571253828,11.4634405966293,5.70430984118928,-11.4497353680666,5.74542552687735
0.519087271547529,-12.2050282780353,0.0551201630986207,12.260148441134,6.07495405746836,-12.2325883595847,6.15763430211629
0.521250135178977,-13.0169069306384,0.0717492245390873,13.0886561551774,6.47257885304963,-13.0527815429079,6.58020268985827
0.523412998810425,-14.122053743405,0.0796717522277087,14.2017254956327,7.02119099558864,-14.1618896195188,7.1406986239302
0.525575862441873,-15.5581032473714,0.0818623351276087,15.639965582499,7.73812045612188,-15.5990344149352,7.8609139588133
0.527738726073321,-17.2333391427284,0.0809979381107317,17.3143370808391,8.57617060230882,-17.2738381117837,8.69766750947492
0.529901589704769,-19.0903370105747,0.079100006396632,19.1694370169713,9.50561850208902,-19.129887013773,9.62426851168397
0.532064453336217,-21.1264132475103,0.0774945437753966,21.2039077912857,10.5244593518675,-21.165160519398,10.6407011675305
0.534227316967665,-23.2578070086157,0.0769084016233576,23.3347154102391,11.5904493034962,-23.2962612094274,11.7058119059312
0.536390180599113,-25.2465685537014,0.0775751307297173,25.3241436844311,12.5844967114859,-25.2853561190663,12.7008594075804
0.538553044230561,-26.8159995244091,0.0792777596133713,26.8952772840225,13.3683608823979,-26.8556384042158,13.4872775218179
0.540715907862009,-27.8214142541583,0.0813046290467567,27.9027188832051,13.8700548125558,-27.8620665686817,13.9920117561259
0.542878771493457,-28.3090358152743,0.0823407264610086,28.3913765417354,14.1133475444067,-28.3502061785048,14.2368586340982
0.545041635124905,-28.4669543166984,0.0803659427292178,28.5473202594277,14.1932941869846,-28.507137288063,14.3138431010784
0.547204498756353,-28.5181103103897,0.0726862281524722,28.5907965385422,14.2227120411186,-28.554453424466,14.3317413833473
0.549367362387801,-28.5503373316841,0.0562798197459155,28.60661715143,14.2470287559691,-28.578477241557,14.331448485588
0.55153022601925,-28.3530945457072,0.0286830360270225,28.3817775817342,14.1622057548401,-28.3674360637207,14.2052303088806
0.553693089650698,-27.3879394539661,-0.010362681937667,27.3775767720284,13.6991510679519,-27.3827581129972,13.6836070450454
0.555855953282146,-24.8966454332018,-0.0563777546637211,24.8402676785381,12.4765115939328,-24.8684565558699,12.3919449619372
0.558018816913594,-20.0415561084156,-0.0968553163014385,19.9447007921142,10.0692057123585,-19.9931284502649,9.92392273790639
0.560181680545042,-12.0363557327686,-0.113512534431455,11.9228431983371,6.07493413360002,-11.9795994655529,5.90466533195284
0.56234454417649,-0.312902234397598,-0.0967748435244969,0.216127390873101,0.204838538961047,-0.264514812635349,0.0596762736743018
0.564507407807938,15.2939843659107,-0.0562139172711409,-15.3501982831818,-7.61888522431976,15.3220913245462,-7.70320610022647
0.566670271439386,34.4056078207177,-0.0101118224692329,-34.4157196431869,-17.1977479991242,34.4106637319523,-17.2129157328281
0.568833135070834,55.990146914742,0.0290209533294702,-55.9611259614125,-28.0095839340357,55.9756364380773,-27.9660525040415
0.570995998702282,78.3091206093007,0.0566944926258603,-78.2524261166749,-39.1829075509633,78.2807733629878,-39.0978658120245
0.57315886233373,99.0566417089491,0.073148374015863,-98.9834933349332,-49.5648950414825,99.0200675219412,-49.4551724804587
0.575321725965178,115.767458437139,0.0808181916929863,-115.686640245446,-57.9241383144162,115.727049341293,-57.8029110268767
0.577484589596626,126.366254127231,0.08269126848656,-126.283562858744,-63.2244726978587,126.324908492988,-63.1004357951289
0.579647453228074,129.634234191799,0.0814292260421046,-129.552804965757,-64.8578317089207,129.593519578778,-64.7356878698576
0.581810316859522,125.435228717437,0.0790383645906417,-125.356190352846,-62.7571335410138,125.395709535142,-62.6385759941278
0.58397318049097,114.650741729999,0.0768653048330818,-114.573876425166,-57.3638035174162,114.612309077583,-57.2485055601666
0.586136044122418,98.8914890177058,0.0757353549549796,-98.8157536627508,-49.4836121863304,98.8536213402283,-49.3700091538979
0.588298907753866,80.1217013115777,0.0761025278967471,-80.0455987836809,-40.0989019197372,80.0836500476293,-39.9847481278921
0.590461771385314,60.322516457882,0.078126926992013,-60.24438953089,-30.200321692437,60.283452994386,-30.083131301949
0.592624635016762,41.2691401559164,0.0816334466494902,-41.1875067092669,-20.6753868012829,41.2283234325916,-20.5529366313087
0.59478749864821,24.379928949726,0.0859397014629841,-24.2939892482631,-12.2329343255945,24.3369590989945,-12.1040247734
0.596950362279658,10.5644426927544,0.0895795587360734,-10.4748631340183,-5.32701112574522,10.5196529133863,-5.19264178764111
0.599113225911106,0.132496364015537,0.0900011916878381,-0.0424951723276993,-0.111248777851688,0.0874957681716184,0.0237530096800694
0.601276089542554,-7.13678465255282,0.0833915235013639,7.22017617605418,3.52669656452573,-7.1784804143035,3.65178384977777
0.603438953174002,-11.7926255059054,0.0648701993280438,11.8574957052335,5.8638776532887,-11.8250606055695,5.96118295228077
0.60560181680545,-14.4885821584586,0.0293887612947207,14.5179709197533,7.22959669858194,-14.503276539106,7.27367984052402
0.607764680436898,-15.8425977134222,-0.0262747626126749,15.8163229508095,7.93443623801741,-15.8294603321158,7.8950240940984
0.609927544068346,-16.4097123842753,-0.10008666734811,16.3096257169272,8.2548995258117,-16.3596690506012,8.10476952478953
0.612090407699795,-16.6729528967943,-0.179807886459035,16.4931450103353,8.42638039162667,-16.5830489535648,8.15666856193812
0.614253271331243,-16.9625577054262,-0.242698125659791,16.7198595797664,8.602627915543,-16.8412086425963,8.23858072705331
0.616416134962691,-17.378206117765,-0.266696119270703,17.1115099984943,8.82245111851785,-17.2448580581296,8.42240693961179
0.618578998594139,-17.8197264089305,-0.243092317428042,17.5766340915024,9.03140936317926,-17.6981802502165,8.6667708870372
0.620741862225587,-18.0868960450997,-0.180558060928792,17.9063379841709,9.13372705301425,-17.9966170146353,8.86288996162106
0.622904725857035,-17.9660792447287,-0.101080778050938,17.8649984666778,9.03358001138981,-17.9155388557032,8.88195884431341
0.625067589488483,-17.3110098529419,-0.0272613083661527,17.2837485445757,8.66913558065402,-17.2973791987588,8.62824361810479
0.627230453119931,-16.1607397884703,0.0288821592657504,16.1896219477361,8.06592881460229,-16.1751808681032,8.10925205350091
0.629393316751379,-14.8269776285692,0.0656061787120271,14.8925838072813,7.38068572492861,-14.8597807179253,7.47909499299665
0.631556180382827,-13.8054290146998,0.0864330775466681,13.8918620922465,6.85949796857658,-13.8486455534732,6.98914758489658
0.633719044014275,-13.5165553809366,0.0965923815701705,13.6131477625067,6.70998149968319,-13.5648515717216,6.85487007203845
0.635881907645723,-14.0795471111733,0.100807210881944,14.1803543220552,6.98936995014566,-14.1299507166142,7.14058076646858
0.638044771277171,-15.2826373043866,0.102083224692375,15.384720529079,7.59027703984713,-15.3336789167328,7.7434018768857
0.640207634908619,-16.6951815227452,0.101143117493554,16.7963246402388,8.29701920262582,-16.745753081492,8.44873387886615
0.642370498540067,-17.7974695191452,0.0962670579311879,17.8937365770764,8.85060123060703,-17.8456030481108,8.99500181750381
0.644533362171515,-18.1141317244839,0.0834828862412242,18.1976146107251,9.01532441912132,-18.1558731676045,9.14054874848315
0.646696225802963,-17.3562791329687,0.0572512513318065,17.4135303843005,8.64951394081843,-17.3849047586346,8.73539081781614
0.648859089434411,-15.5160537569003,0.0119661120316347,15.5280198689319,7.75204382243434,-15.5220368129161,7.76999299048179
0.651021953065859,-12.8829830416855,-0.0553155597741482,12.8276674819114,6.46914930072983,-12.8553252617984,6.38617596106861
0.653184816697307,-9.98755448501822,-0.140569401182884,9.84698508383534,5.06406194310055,-9.91726978442678,4.85320784132623
0.655347680328755,-7.46042811006964,-0.226917131854722,7.23351097821492,3.84367262096218,-7.34696954414228,3.5032969231801
0.657510543960203,-5.83575168000402,-0.283570301326604,5.55218137867742,3.05966099066531,-5.69396652934072,2.63430553867541
0.659673407591651,-5.38388365484104,-0.282584616246313,5.10129903859473,2.83323413554368,-5.24259134671789,2.40935721117421
0.661836271223099,-6.0317058200925,-0.223836867907739,5.80786895218476,3.12777134400012,-5.91978738613863,2.79201604213851
0.663999134854547,-7.41899112344879,-0.135122331230542,7.28386879221825,3.77705672733967,-7.35142995783352,3.57437323049385
0.666161998485995,-9.09407638678692,-0.0473779626597629,9.04669842412716,4.57072717472334,-9.07038740545704,4.4996602307337
0.668324862117443,-10.7105129062311,0.0218650161921873,10.7323779224233,5.34432394501945,-10.7214454143272,5.37712146930773
0.670487725748891,-12.10032889442,0.0672372309633477,12.1675661253834,6.01654583172835,-12.1339475099017,6.11740167817337
0.67265058938034,-13.2396553748592,0.0895471240706029,13.3292024989298,6.57505412539432,-13.2844289368945,6.70937481150022
0.674813453011788,-14.1639275857854,0.0915976568905149,14.2555252426759,7.03616496444742,-14.2097264142306,7.17356144978319
0.676976316643236,-14.8854873926067,0.075983427514326,14.961470820121,7.40475198254619,-14.9234791063639,7.51872712381768
0.679139180274684,-15.377931203459,0.0447462245768833,15.4226774280358,7.66659248944104,-15.4003043157474,7.73371182630636
0.681302043906132,-15.6440956837671,0.000673474440372298,15.6447691582075,7.82171110466336,-15.6444324209873,7.82272131632392
0.68346490753758,-15.7692533447895,-0.0500250871653655,15.7192282576241,7.90963921597743,-15.7442408012068,7.83460158522938
0.685627771169028,-15.8536324198884,-0.0940785915510836,15.7595538283373,7.97385550571975,-15.8065931241129,7.83273761839312
0.687790634800476,-15.8888506621265,-0.113029478143163,15.7758211839834,8.00094007013484,-15.8323359230549,7.83139585292009
0.689953498431924,-15.7643611976936,-0.0974060808687047,15.6669551168249,7.93088363928114,-15.7156581572592,7.78477451797808
0.692116362063372,-15.4554883731695,-0.0569489785036976,15.3985393946658,7.75621867583659,-15.4270138839176,7.67079520808105
0.69427922569482,-15.1983044340021,-0.0100669919542712,15.1882374420479,7.6041857129782,-15.193270938025,7.58908522504679
0.696442089326268,-15.4438815725823,0.0306583189600889,15.4745398915424,7.70661162681111,-15.4592107320624,7.75259910525125
0.698604952957716,-16.6186959978519,0.060651281134023,16.6793472789859,8.27902235835893,-16.6490216384189,8.36999928005997
0.700767816589164,-18.8921674946997,0.0799075101257441,18.9720750048255,9.40612999228699,-18.9321212497626,9.5259912574756
0.702930680220612,-22.1086126511304,0.0902602521731888,22.1988729033036,11.0091761994786,-22.153742777217,11.1445665777384
0.70509354385206,-25.8836759535853,0.0935136176473951,25.9771895712327,12.895081167969,-25.930432762409,13.0353515944401
0.707256407483508,-29.7711776046823,0.0903887251347249,29.861566329817,14.8403944397738,-29.8163719672497,14.9759775274759
0.709419271114956,-33.3944409048103,0.0801821996872281,33.4746231044975,16.6571293525615,-33.4345320046539,16.7774026520924
0.711582134746404,-36.4780817084035,0.0610920032618677,36.5391737116653,18.2084948525708,-36.5086277100344,18.3001328574636
0.713744998377852,-38.8411017333839,0.0312549517865555,38.8723566851704,19.4049233907987,-38.8567292092772,19.4518058184785
0.7159078620093,-40.4507560415007,-0.00940272393480947,40.4413533175658,20.2300793827177,-40.4460546795332,20.2159752968155
0.718070725640748,-41.5049102206247,-0.0564440834314485,41.4484661371932,20.7806771520281,-41.4766881789089,20.6960110268809
0.720233589272196,-42.4555448410026,-0.0974875296166514,42.358057311386,21.2765161853096,-42.4068010761943,21.1302848908847
0.722396452903644,-43.9368885540033,-0.114361693515537,43.8225268604878,22.0256251237594,-43.8797077072455,21.8540825834861
0.724559316535092,-46.5784195109632,-0.0975360229822646,46.4808834879809,23.3379777669727,-46.529651499472,23.1916737324993
0.72672218016654,-50.7529918405289,-0.0565409934482649,50.6964508470807,25.4047664169886,-50.7247213438048,25.3199549268162
0.728885043797988,-56.4171122837674,-0.00954744872481626,56.4075648350426,28.2133298662461,-56.412338559405,28.1990086931589
0.731047907429436,-63.1556110351415,0.0310644020602299,63.1866754372018,31.5622733165407,-63.1711432361716,31.608869919631
0.733210771060885,-70.3693826608153,0.0608601765356139,70.4302428373509,35.1542612421398,-70.3998127490831,35.2455515069433
0.735373634692333,-77.4562875086924,0.0799174274526705,77.5362049361451,38.6881850406199,-77.4962462224187,38.8080611817989
0.737536498323781,-83.9378158885766,0.0901039147970793,84.0279198033736,41.9238559868897,-83.9828678459751,42.0590118590854
0.739699361955229,-89.5843957848174,0.0932258049151335,89.6776215897326,44.7455849899512,-89.631008687275,44.8854236973239
0.741862225586677,-94.4843252891287,0.089987764818916,94.5743130539476,47.1971687621549,-94.5293191715382,47.3321504093833
0.744025089218125,-98.9308403987845,0.0796633630162515,99.0105037618008,49.4255885178841,-98.9706720802927,49.5450835624085
0.746187952849573,-103.205762011432,0.0604315329846644,103.266193544417,51.5726652392236,-103.235977777924,51.6633125387006
0.748350816481021,-107.485056147116,0.0304249105113687,107.515481057628,53.7273156183025,-107.500268602372,53.7729529840695
0.750513680112469,-111.920309691372,-0.0104075194543036,111.909902171918,55.9653586054134,-111.915105931645,55.9497473262319
0.752676543743917,-116.732923043622,-0.0575661274871696,116.675356916135,58.3952445855546,-116.704139979879,58.3088953943239
0.754839407375365,-122.153582872066,-0.0985556381979356,122.055027233868,61.1260692551318,-122.104305052967,60.9782357978349
0.757002271006813,-128.236022204483,-0.115037287710199,128.120984916773,64.1755297460967,-128.178503560628,64.0029738145314
0.759165134638261,-134.797034182818,-0.097275535227151,134.699758647591,67.4471548590225,-134.748396415204,67.3012415561818
0.761327998269709,-141.635086345579,-0.0546075222702405,141.580478823309,70.8448469339248,-141.607782584444,70.7629356505195
0.763490861901157,-148.797728200304,-0.00512048234086894,148.792607717963,74.4014243413224,-148.795167959134,74.3937436178111
0.765653725532605,-156.581360504291,0.0386206966781112,156.619981200969,78.2713699038063,-156.60067085263,78.3293009488235
0.767816589164053,-165.253357959096,0.0715115872839121,165.32486954638,82.590923185906,-165.289113752738,82.6981905668319
0.769979452795501,-174.725316363243,0.092228714554034,174.817545077797,87.3165438243444,-174.77143072052,87.4548868961755
0.772142316426949,-184.389042784578,0.100309597933045,184.489352382511,92.1443665933222,-184.439197583544,92.2948309902218
0.774305180058397,-193.224303508813,0.0942897631518074,193.318593271964,96.5650068728304,-193.271448390388,96.7064415175581
0.776468043689845,-200.193081997756,0.0710516860190164,200.264133683775,100.061015155869,-200.228607840766,100.167592684897
0.778630907321293,-204.710651555761,0.0265585296035485,204.737210085364,102.342046513079,-204.723930820562,102.381884307484
0.780793770952741,-206.83281498402,-0.0417877125465593,206.791027271473,103.437301348283,-206.811921127746,103.374619779463
0.782956634584189,-207.081772680981,-0.130938667724725,206.950834013256,103.606355674353,-207.016303347119,103.409947672766
0.785119498215637,-206.14933990295,-0.226160728222375,205.923179174727,103.187750315586,-206.036259538839,102.848509223253
0.787282361847086,-204.669788817204,-0.299497609765836,204.370291207438,102.484643213485,-204.520040012321,102.035396798836
0.789445225478534,-203.098378274312,-0.325548362964164,202.772829911348,101.711963318638,-202.93560409283,101.223640774192
0.791608089109982,-201.662205548172,-0.304773935979426,201.357431612193,100.983489742076,-201.509818580183,100.526328838107
0.79377095274143,-200.379012647655,-0.261099584949261,200.117913062706,100.320056116302,-200.24846285518,99.9284067388781
0.795933816372878,-199.156252862687,-0.213916332846695,198.942336529841,99.685084597767,-199.049294696264,99.3642100984969
0.798096680004326,-197.911598579841,-0.163822041697759,197.747776538143,99.0377103107695,-197.829687558992,98.7919772482228
0.800259543635774,-196.642064547668,-0.108266657232966,196.533797890435,98.3751656024505,-196.587931219051,98.212765616601
0.802422407267222,-195.427994192244,-0.057653353833659,195.37034083841,97.7428237730389,-195.399167515327,97.6563437422884
0.80458527089867,-194.389007812226,-0.0283957728076974,194.360612039418,97.2087017925166,-194.374809925822,97.1661081333051
0.806748134530118,-193.6100176632,-0.029471741877962,193.580545921322,96.8197447025389,-193.595281792261,96.775537089722
0.808910998161566,-193.070716842899,-0.0588600997820921,193.011856743117,96.5647884713407,-193.041286793008,96.4764983216676
0.811073861793014,-192.631968572612,-0.103569169117148,192.528399403495,96.3677688708645,-192.580183988053,96.2124151171888
0.813236725424462,-192.104527665615,-0.143439307571665,191.961088358043,96.1239834865934,-192.032808011829,95.9088245252359
0.81539958905591,-191.357406268739,-0.165362212371485,191.192044056367,95.7613842405551,-191.274725162553,95.5133409219979
0.817562452687358,-190.379846424269,-0.171824849385163,190.208021574884,95.2758356368273,-190.293933999577,95.0180983627495
0.819725316318806,-189.265256228143,-0.167387124109705,189.097869104033,94.7163216761264,-189.181562666088,94.4652409899619
0.821888179950254,-188.158887513719,-0.146442674476195,188.012444839243,94.1526650940975,-188.085666176481,93.9330010823832
0.824051043581702,-187.19235946765,-0.105345586283685,187.087013881367,93.6488525269671,-187.139686674509,93.4908341475415
0.82621390721315,-186.424205557647,-0.0559223882250651,186.368283169422,93.2400639729361,-186.396244363535,93.1561803905985
0.828376770844598,-185.829255470772,-0.0171261671129354,185.812129303659,92.9231908189426,-185.820692387216,92.8975015682732
0.830539634476046,-185.337851140727,-0.00132847819892062,185.336522662528,92.6695898094631,-185.337186901628,92.6675970921648
0.832702498107494,-184.890679509344,-0.0114201520651531,184.879259357278,92.4510498307044,-184.884969433311,92.4339196026067
0.834865361738942,-184.466733718868,-0.0420801158456636,184.424653603022,92.2544069173567,-184.445693660945,92.1912867435882
0.83702822537039,-184.053977736375,-0.0791827368360808,183.974794999539,92.0665802366056,-184.014386367957,91.9478061313515
0.839191089001838,-183.617608059448,-0.103553657905913,183.514054401542,91.860580858677,-183.565831230495,91.7052503718181
0.841353952633286,-183.13720204625,-0.105822946948658,183.031379099302,91.6215124965995,-183.084290572776,91.4627780761766
0.843516816264735,-182.656781159601,-0.0961552729198882,182.560625886681,91.3764682162604,-182.608703523141,91.2322353068806
0.845679679896183,-182.26127863914,-0.0920537700913963,182.169224869048,91.1766662046155,-182.215251754094,91.0385855494784
0.847842543527631,-182.010960926072,-0.101117856263758,181.909843069809,91.0560393911681,-181.960401997941,90.9043626067725
0.850005407159079,-181.909685013664,-0.115272242931883,181.794412770732,91.0124786282979,-181.852048892198,90.8395702639001
0.852168270790527,-181.920490286255,-0.116124235692749,181.804366050562,91.0183072609737,-181.862428168408,90.8441209074346
0.854331134421975,-181.99878223143,-0.0918606366232302,181.906921594807,91.0453214340266,-181.952851913118,90.9075304790917
0.856493998053423,-182.110329704888,-0.0492689703472341,182.061060734541,91.0797993376178,-182.085695219715,91.0058958820969
0.858656861684871,-182.214291167903,-0.00416356230111997,182.210127605602,91.1092273651022,-182.212209386753,91.1029820216505
0.860819725316319,-182.243862286638,0.0327543648152762,182.276616651454,91.1055539609115,-182.260239469046,91.1546855081344
0.862982588947767,-182.140640621794,0.0581193410731263,182.198759962867,91.0412606403606,-182.169700292331,91.1284396519703
0.865145452579215,-181.91257653867,0.0727367104408581,181.985313249111,90.9199199141146,-181.94894489389,91.0290249797759
0.867308316210663,-181.637671410728,0.0792176710516303,181.71688908178,90.7792268698383,-181.677280246254,90.8980533764157
0.869471179842111,-181.412473848696,0.0804841410399258,181.492957989736,90.6659948538283,-181.452715919216,90.7867210653882
0.871634043473559,-181.292588591209,0.0789960817700379,181.371584672979,90.6067962547194,-181.332086632094,90.7252903773744
0.873796907105007,-181.265517240754,0.0764818471054339,181.341999087859,90.5945176968241,-181.303758164306,90.7092404674822
0.875959770736455,-181.269476124006,0.0739637542713359,181.343439878277,90.5977561848672,-181.306458001141,90.7087018162742
0.878122634367903,-181.224053787881,0.071919852306288,181.295973640187,90.5760669677874,-181.260013714034,90.6839467462468
0.880285497999351,-181.048033355996,0.0704789452733154,181.118512301269,90.4887772053612,-181.083272828632,90.5944956232712
0.882448361630799,-180.676315047448,0.0695935035779672,180.745908551026,90.303360771935,-180.711111799237,90.4077510273019
0.884611225262247,-180.088002015267,0.0691682567265064,180.157170271993,90.0094168792702,-180.12258614363,90.1131692643599
0.886774088893695,-179.327121797291,0.0691410111556204,179.396262808447,89.6289903930679,-179.361692302869,89.7327019098013
0.888936952525143,-178.482495685888,0.0695194798611422,178.552015165749,89.2064881030133,-178.517255425818,89.310767322805
0.891099816156591,-177.641030280485,0.0703775607370802,177.711407841222,88.7853263598739,-177.676219060854,88.8908927009796
0.893262679788039,-176.860369344823,0.0718105869067501,176.93217993173,88.394279378958,-176.896274638276,88.5019952593181
0.895425543419487,-176.177399723182,0.0738455266617136,176.251245249844,88.0517770982603,-176.214322486513,88.1625453882529
0.897588407050935,-175.624085787489,0.076302885849754,175.700388673338,87.7738914508194,-175.662237230413,87.888345779594
0.899751270682383,-175.223554237089,0.0786162194159009,175.302170456505,87.5724690088366,-175.262862346797,87.6903933379605
0.901914134313831,-174.986509675351,0.0796365374910881,175.066146212842,87.4534365689301,-175.026327944097,87.5728913751667
0.90407699794528,-174.917468007174,0.0774850626099681,174.994953069783,87.4199914722818,-174.956210538479,87.5362190661967
0.906239861576728,-175.006696313412,0.0695679440850566,175.076264257497,87.4685641846636,-175.041480285455,87.5729161007912
0.908402725208176,-175.213623605965,0.0529232207562939,175.266546826721,87.5803501926043,-175.240085216343,87.6597350237387
0.910565588839624,-175.460680119163,0.0251153549227677,175.485795474086,87.7177823821201,-175.473237796624,87.7554554145042
0.912728452471072,-175.641633133964,-0.0141069611647217,175.627526172799,87.8278700475641,-175.634579653381,87.806709605817
0.91489131610252,-175.673737437426,-0.0602682133060086,175.61346922412,87.8670028253662,-175.643603330773,87.7766005054072
0.917054179733968,-175.577462457314,-0.100869770590137,175.476592686724,87.8391661139522,-175.527027572019,87.687861458067
0.919217043365416,-175.472719817652,-0.117636549486416,175.355083268166,87.7951781835694,-175.413901542909,87.6187233593397
0.921379906996864,-175.484263675616,-0.100998613728873,175.383265061887,87.7926311446725,-175.433764368752,87.6411332240792
0.923542770628312,-175.676229343959,-0.0605279880434239,175.615701355915,87.8683786660011,-175.645965349937,87.777586683936
0.92570563425976,-176.036852372887,-0.0145027761626328,176.022349596724,88.0256775745249,-176.029600984806,88.0039234102809
0.927868497891208,-176.485691010041,0.0245737551032263,176.510264765145,88.2305586274691,-176.497977887593,88.2674192601239
0.930031361522656,-176.915363052876,0.0522197214626358,176.967582774338,88.4315716657065,-176.941472913607,88.5099012479005
0.932194225154104,-177.232771858173,0.0686792039893654,177.301451062162,88.5820463270918,-177.267111460168,88.6850651330759
0.934357088785552,-177.38434956863,0.0763820591606171,177.46073162779,88.6539837547345,-177.42254059821,88.7685568434755
0.936519952417,-177.383647485354,0.0782905528795996,177.461938038234,88.6526784662373,-177.422792761794,88.7701142955567
0.938682816048448,-177.304656428842,0.0770115553271851,177.381667984169,88.6138224367574,-177.343162206506,88.7293397697482
0.940845679679896,-177.228646245728,0.0744581610725504,177.303104406801,88.5770940423278,-177.265875326264,88.6887812839367
0.943008543311344,-177.209271377178,0.0718437066770056,177.281115083855,88.5687138352505,-177.245193230517,88.676479395266
0.945171406942792,-177.28478437725,0.0698342400850274,177.354618617335,88.6074750685826,-177.319701497293,88.7122264287101
0.94733427057424,-177.486212771224,0.0687396574782448,177.554952428702,88.708736556873,-177.520582599963,88.8118460430904
0.949497134205688,-177.820448675066,0.0686712468505861,177.889119921916,88.8758887141075,-177.854784298491,88.9788955843834
0.951659997837136,-178.260581511692,0.0696278621688294,178.330209373861,89.0954768247616,-178.295395442776,89.1999186180148
0.953822861468584,-178.75480746596,0.0714953700034641,178.826302835964,89.3416560479783,-178.790555150962,89.4488991029835
0.955985725100032,-179.244447047172,0.0739595070116635,179.318406554184,89.5852437700802,-179.281426800678,89.6961830305977
0.95814858873148,-179.677629308823,0.0763478251899327,179.753977134013,89.8006407418163,-179.715803221418,89.9151624796012
0.960311452362928,-180.017468649088,0.0774389307969564,180.094907579884,89.9700148591453,-180.056188114486,90.0861732553407
0.962474315994376,-180.254651789824,0.0753118389633644,180.329963628787,90.0896699754302,-180.292307709306,90.2026377338753
0.964637179625825,-180.404273759321,0.06735585286838,180.47162961219,90.1684589532265,-180.437951685756,90.269492732529
0.966800043257273,-180.482271174181,0.0506153970115221,180.532886571192,90.2158278885847,-180.507578872687,90.2917509841019
0.968962906888721,-180.507016138111,0.0226867910844878,180.529702929195,90.2421646735132,-180.518359533653,90.2761948601399
0.971125770520169,-180.524519517813,-0.0166180518209487,180.507901465992,90.2705687848168,-180.516210491902,90.2456417070854
0.973288634151617,-180.60283725934,-0.0627227493365564,180.540114510003,90.3327800043382,-180.571475884672,90.2386958803334
0.975451497783065,-180.79751284563,-0.102989620005091,180.694523225625,90.4502512328176,-180.746018035628,90.29576680281
0.977614361414513,-181.13514855075,-0.118980784161759,181.016167766588,90.6270646674558,-181.075658158669,90.4485934912131
0.979777225045961,-181.616726158898,-0.100980967687158,181.515745191211,90.8588535632926,-181.566235675054,90.7073821117618
0.981940088677409,-182.21529231785,-0.0585146244293986,182.15677769342,91.1369034711395,-182.186035005635,91.0491315344954
0.984102952308857,-182.879434841058,-0.0100378465959287,182.869396994462,91.4447363438271,-182.87441591776,91.4296795739332
0.986265815940305,-183.550481499507,0.031370679778444,183.581852179286,91.7595554098645,-183.566166839397,91.8066114295322
0.988428679571753,-184.174303951817,0.0600668955991358,184.234370847416,92.0571185281089,-184.204337399616,92.1472188715076
0.990591543203201,-184.712354656292,0.0744030671361783,184.786757723428,92.3189757945779,-184.74955618986,92.4305803952822
0.992754406834649,-185.156197013015,0.0742056947171555,185.230402707732,92.5409956591487,-185.193299860373,92.6523042012245
0.994917270466097,-185.514022230251,0.0594725019009414,185.573494732152,92.7272748641749,-185.543758481201,92.8164836170263
0.997080134097545,-185.776424243678,0.0303832247054357,185.806807468384,92.8730205094863,-185.791615856031,92.9185953465445
0.999242997728993,-185.92533774845,-0.0113762447172612,185.913961503732,92.9683569965835,-185.919649626091,92.9512926295076
1.00140586136044,-185.980762561589,-0.060072926801421,185.920689634787,93.020417744195,-185.950726098188,92.9303083539929
1.00356872499189,-186.015816207014,-0.102476522836845,185.913339684177,93.0591463649252,-185.964577945595,92.90543158067
1.00573158862334,-186.125999063862,-0.119920438978746,186.006078624883,93.1229597514202,-186.066038844372,92.9430790929521
1.00789445225479,-186.376314481445,-0.102643950275782,186.273670531169,93.2394792158604,-186.324992506307,93.0855132904467
1.01005731588623,-186.766255789545,-0.0601798990487417,186.706075890497,93.413217844297,-186.736165840021,93.3229479957239
1.01222017951768,-187.248679442251,-0.0109803760617025,187.237699066189,93.6298299091563,-187.24318925422,93.6133593450638
1.01438304314913,-187.773017724436,0.0318921118605029,187.804909836296,93.8705628062877,-187.788963780366,93.9184009740785
1.01654590678058,-188.314681042847,0.0627548573711154,188.377435900218,94.1259630927378,-188.346058471532,94.2200953787945
1.01870877041203,-188.876405182604,0.0797354364760247,188.95614061908,94.3983348730638,-188.916272900842,94.5179380277778
1.02087163404347,-189.458009513552,0.0820656611810101,189.540075174734,94.6879719261857,-189.499042344143,94.8110704179573
1.02303449767492,-190.035969561468,0.0685734839201757,190.104543045388,94.9836980387739,-190.070256303428,95.0865582646541
1.02519736130637,-190.582500139939,0.0375341774762933,190.620034317415,95.2724829812314,-190.601267228677,95.3287842474459
1.02736022493782,-191.090997429742,-0.0120034073517105,191.07899402239,95.5515004185468,-191.084995726066,95.5334953075193
1.02952308856927,-191.56900218942,-0.0773386790799393,191.49166351034,95.8231704342501,-191.53033284988,95.7071624156302
1.03168595220071,-192.011086671429,-0.147776878142072,191.863309793287,96.0794317747855,-191.937198232358,95.8577664575724
1.03384881583216,-192.392441191075,-0.205020681631364,192.187420509443,96.2987309363531,-192.289930850259,95.991199913906
1.03601167946361,-192.684039436202,-0.234935803803433,192.449103632399,96.4594876200027,-192.5665715343,96.1070839142976
1.03817454309506,-192.86796363001,-0.234577379190111,192.63338625082,96.5512705046002,-192.750674940415,96.199404435815
1.04033740672651,-192.954602173817,-0.203960887192778,192.750641286624,96.5792815305049,-192.852621730221,96.2733401997157
1.04250027035795,-192.996617578579,-0.146101334903236,192.850516243676,96.5713594567411,-192.923566911127,96.3522074543862
1.0446631339894,-193.069441972892,-0.075316914331895,192.99412505856,96.5723794436117,-193.031783515726,96.4594040721139
1.04682599762085,-193.220368445315,-0.0102625087254586,193.21010593659,96.6153154770202,-193.215237190952,96.599921713932
1.0489888612523,-193.445026330959,0.0378110951667285,193.482837426126,96.7036076178962,-193.463931878542,96.7603242606463
1.05115172488375,-193.716798357657,0.0654931579495386,193.782291515606,96.8256525998537,-193.749544936632,96.923892336778
1.05331458851519,-194.022278118234,0.0730320420918384,194.095310160326,96.974623038071,-194.05879413928,97.0841711012087
1.05547745214664,-194.363216684825,0.0617905925205405,194.425007277345,97.1507130461521,-194.394111981085,97.2433989349329
1.05764031577809,-194.737436275038,0.033469318304847,194.770905593343,97.3519834783665,-194.75417093419,97.4021874558238
1.05980317940954,-195.133838627792,-0.00897975283113939,195.12485887496,97.5714091903114,-195.129348751376,97.5579395610647
1.06196604304099,-195.547693767434,-0.0589588292213792,195.488734938213,97.8033262983279,-195.518214352824,97.7148880544958
1.06412890667243,-195.982154522871,-0.10276368462658,195.879390838244,98.0424591037486,-195.930772680557,97.8883135768087
1.06629177030388,-196.42495312509,-0.121556546355512,196.303396578734,98.2732548357227,-196.364174851912,98.0909200161894
1.06845463393533,-196.835535037858,-0.105590944875513,196.729944092982,98.4705629913667,-196.78273956542,98.3121765740534
1.07061749756678,-197.167279533122,-0.0644756203134253,197.102803912808,98.6158775767177,-197.135041722965,98.5191641462475
1.07278036119823,-197.404394773392,-0.01667613209185,197.3877186413,98.710535452742,-197.396056707346,98.6855212546042
1.07494322482967,-197.581360596779,0.024917726353161,197.606278323132,98.778221435213,-197.593819459956,98.8155980247428
1.07710608846112,-197.779486497262,0.0550993102495098,197.834585807511,98.862193593506,-197.807036152386,98.9448425588803
1.07926895209257,-198.091957813267,0.0728633567759533,198.164821170043,99.0095472282453,-198.128389491655,99.1188422634093
1.08143181572402,-198.557763255543,0.0787095798128508,198.636472835356,99.239526837865,-198.597118045449,99.3575912075842
1.08359467935547,-199.122592021387,0.0729865154864802,199.195578536873,99.5248027529502,-199.15908527913,99.6342825261799
1.08575754298691,-199.676714852121,0.0553303861538989,199.732045238275,99.8106922329837,-199.704380045198,99.8936878122145
1.08792040661836,-200.132673675012,0.0252012098736314,200.157874884885,100.053736232569,-200.145274279948,100.091538047379
1.09008327024981,-200.462728797107,-0.0164831660632702,200.446245631044,100.239605981585,-200.454487214075,100.21488123249
1.09224613388126,-200.684691662823,-0.0646648652816199,200.620026797542,100.374678264052,-200.652359230182,100.27768096613
1.09440899751271,-200.850727024704,-0.106661679175507,200.744065345529,100.47869435194,-200.797396185116,100.318701833177
1.09657186114415,-201.055242657098,-0.124241768843738,200.931000888255,100.589742212971,-200.993121772677,100.403379559705
1.0987347247756,-201.422495359575,-0.107976489435431,201.31451887014,100.765235924505,-201.368507114858,100.603271190352
1.10089758840705,-202.05467852737,-0.0675954733865004,201.987083053983,101.061137000378,-202.020880790676,100.959743790298
1.1030604520385,-202.983512049923,-0.0215081389740434,202.962003910949,101.502510094449,-202.972757980436,101.470247885988
1.10522331566995,-204.164464128628,0.0176924938851729,204.182156622514,102.073385817372,-204.173310375571,102.099924558199
1.1073861793014,-205.488302594346,0.0454753162974866,205.533777910643,102.721413639024,-205.511040252495,102.78962661347
1.10954904293284,-206.75643569117,0.0620666194881399,206.818502310658,103.347184535841,-206.787469000914,103.440284465073
1.11171190656429,-207.603036578697,0.0698977861402991,207.672934364837,103.766569396278,-207.637985471767,103.871416075489
1.11387477019574,-207.403824592244,0.0719391357056821,207.47576372795,103.665942728269,-207.439794160097,103.773851431828
1.11603763382719,-205.238800269997,0.0707992960934544,205.30959956609,102.584000486952,-205.274199918044,102.690199431092
1.11820049745864,-199.985133733609,0.0683740090886366,200.053507742698,99.9583798622602,-200.019320738153,100.060940875893
1.12036336109008,-190.618399938453,0.0658279577773138,190.68422789623,95.2762859903376,-190.651313917341,95.3750279270036
1.12252622472153,-176.703810561106,0.0637379897195997,176.767548550826,88.3200362856931,-176.735679555966,88.4156432702726
1.12468908835298,-158.811049857281,0.0622829446183669,158.8733328019,79.3743834563315,-158.842191329591,79.4678078732591
1.12685195198443,-138.497400748174,0.0614160325106416,138.558816780684,69.2179923578315,-138.528108764429,69.3101164065975
1.12901481561588,-117.808274622448,0.0609930290889877,117.869267651537,58.8736407966794,-117.838771136992,58.9651303403128
1.13117767924732,-98.5817510144589,0.0608527883687022,98.6426038028276,49.2604491130451,-98.6121774086432,49.3517282955981
1.13334054287877,-81.9078458077747,0.0608583381642506,81.968704145939,40.9234937348052,-81.9382749768568,41.0147812420516
1.13550340651022,-67.9775829303976,0.0609107527433937,68.038493683141,33.9583360888271,-68.0080383067693,34.0497022179422
1.13766627014167,-56.3284109007459,0.0609474430870127,56.3893583438329,28.1337317288294,-56.3588846222894,28.22515289346
1.13982913377312,-46.2602594197924,0.0609339823071345,46.3211934020996,23.0996627187426,-46.290726410946,23.1910636922033
1.14199199740456,-37.1831638717858,0.060855664516507,37.2440195363023,18.5611541036347,-37.2135917040441,18.6524376004094
1.14415486103601,-28.7912666065899,0.0607124456257924,28.8519790522157,14.3652770804821,-28.8216228294028,14.4563457489208
1.14631772466746,-21.0267576224051,0.0605189128734794,21.0872765352785,10.4831193547658,-21.0570170788418,10.573897724076
1.14848058829891,-13.8865595696193,0.0603092894523523,13.9468688590716,6.91312514008347,-13.9167142143455,7.003589074262
1.15064345193036,-7.27078441346157,0.0601458425459428,7.33093025600751,3.60531928545781,-7.30085733473454,3.69553804927673
1.1528063155618,-1.00757967943855,0.0601270678653552,1.0677067473039,0.473726305786597,-1.03764321337123,0.56391690758463
1.15496917919325,5.05182864837479,0.0603894821167516,-4.99143916625804,-2.55610906524577,5.02163390731642,-2.46552484207065
1.1571320428247,11.0116088029172,0.06109394102075,-10.9505148618964,-5.53635137196897,10.9810618324068,-5.44471046043784
1.15929490645615,16.9710642796208,0.0623848734119298,-16.9086794062089,-8.51672457651637,16.9398718429148,-8.42314726639847
1.1614577700876,23.0682356323719,0.0643102445410171,-23.0039253878308,-11.5662729384564,23.0360805101013,-11.4698075716449
1.16362063371904,29.5384359356731,0.066693936659779,-29.4717419990133,-14.8025649361664,29.5050889673432,-14.7025240311768
1.16578349735049,36.7772911578872,0.0689639057149637,-36.7083272521723,-18.4231275318011,36.7428092050298,-18.3196816732287
1.16794636098194,45.286314349632,0.0699625681485649,-45.2163517814834,-22.6781384588903,45.2513330655577,-22.5731946066674
1.17010922461339,55.41706394518,0.0678030221297143,-55.3492609230502,-27.7424334836548,55.3831624341151,-27.6407289504603
1.17227208824484,67.0941927310564,0.0598852822599424,-67.0343074487965,-33.5770390066582,67.0642500899264,-33.4872110832683
1.17443495187628,79.8207309837235,0.0432434669361073,-79.7774875167874,-39.9319872253298,79.7991092502554,-39.8671220249256
1.17659781550773,93.011977264563,0.0154398063299665,-92.9965374582331,-46.5137085354465,93.004257361398,-46.4905488259515
1.17876067913918,106.421353452697,-0.0237784387776645,-106.445131891475,-53.1987875069597,106.433242672086,-53.2344551651262
1.18092354277063,120.418315024246,-0.0699373774258708,-120.488252401672,-60.1741888234099,120.453283712959,-60.2790948895487
1.18308640640208,136.032926805835,-0.110541100572944,-136.143467906408,-67.961192852631,136.088197356121,-68.1270045034904
1.18524927003352,154.759191190722,-0.127318963855544,-154.886510154578,-77.3159361134333,154.82285067265,-77.5069145592166
1.18741213366497,178.052257343079,-0.110707232673263,-178.162964575753,-88.9707750552031,178.107610959416,-89.136835904213
1.18957499729642,206.544693157919,-0.0702849606313831,-206.61497811855,-103.237204098644,206.579835638235,-103.342631539591
1.19173786092787,239.340464636055,-0.0243356835598553,-239.364800319615,-119.658064476248,239.352632477835,-119.694568001587
1.19390072455932,273.883779504892,0.0146379025645688,-273.869141602328,-136.949208703728,273.87646055361,-136.927251849881
1.19606358819076,306.589095833601,0.0421671034320202,-306.546928730169,-153.315631468516,306.568012281885,-153.252380813368
1.19822645182221,333.988933296356,0.058530182658241,-333.930403113698,-167.023731739507,333.959668205027,-166.93593646552
1.20038931545366,353.894301133126,0.0662205933684595,-353.828080539758,-176.980260863247,353.861190836442,-176.880929973195
1.20255217908511,365.965697222176,0.0682984572213844,-365.897398764954,-183.016997839698,365.931547993565,-182.914550153866
1.20471504271656,371.404402349189,0.0674979396206287,-371.336904409568,-185.735950144405,371.370653379378,-185.634703234974
1.206877906348,372.126609097597,0.0658657612806031,-372.060743336317,-186.096237429439,372.093676216957,-185.997438787518
1.20904076997945,370.020905970711,0.064703619376426,-369.956202351334,-185.042804795044,369.988554161023,-184.945749365979
1.2112036336109,366.557746494523,0.0646315219803732,-366.493114972543,-183.311189008252,366.525430733533,-183.214241725281
1.21336649724235,362.699201218399,0.065649598518563,-362.633551619881,-181.382425408459,362.66637641914,-181.283951010681
1.2155293608738,358.980485438043,0.0671381522645483,-358.913347285779,-179.523811795154,358.946916361911,-179.423104566757
1.21769222450524,355.659294499265,0.0677959402119425,-355.591498559053,-177.863545219738,355.625396529159,-177.761851309421
1.21985508813669,352.846696444549,0.0655768810984916,-352.781119563451,-176.456136662824,352.813908004,-176.357771341176
1.22201795176814,350.554045166174,0.0577475855229039,-350.496297580651,-175.305896375848,350.525171373412,-175.219274997564
1.22418081539959,348.688472448453,0.0412486497679391,-348.647223798685,-174.36486054911,348.667848123569,-174.302987574459
1.22634367903104,347.09291993679,0.013586881809212,-347.079333054981,-173.5532534093,347.086126495886,-173.532873086586
1.22850654266249,345.63675308741,-0.0255168212935053,-345.662269908703,-172.805618133058,345.649511498056,-172.843893364998
1.23066940629393,344.269066809951,-0.0715965775560045,-344.340663387507,-172.098735116197,344.304865098729,-172.206129982531
1.23283226992538,342.980779863261,-0.112155447950091,-343.092935311211,-171.434312207655,343.036857587236,-171.60254537958
1.23499513355683,341.733659699011,-0.128919353174293,-341.862579052186,-170.802370172919,341.798119375599,-170.99574920268
1.23715799718828,340.452436229973,-0.112322363140034,-340.564758593113,-170.170056933416,340.508597411543,-170.338540478126
1.23932086081973,339.072591508334,-0.0719433225410639,-339.144534830875,-169.500324092896,339.108563169605,-169.608239076708
1.24148372445117,337.562454599902,-0.026065549588907,-337.588520149491,-168.768194525157,337.575487374696,-168.80729284954
1.24364658808262,335.912767711305,0.0128130838162121,-335.899954627489,-167.962790397561,335.906361169397,-167.943570771836
1.24580945171407,334.13707012433,0.0402402157755674,-334.096829908554,-167.088655170053,334.116950016442,-167.028294846389
1.24797231534552,332.272345835032,0.0565302990613696,-332.21581553597,-166.164438067046,332.244080685501,-166.079642618454
1.25013517897697,330.367287663816,0.0642406338885227,-330.303047029927,-165.215764148852,330.335167346872,-165.119403198019
1.25229804260841,328.472590700486,0.0665263310717932,-328.406064369414,-164.269558515779,328.43932753495,-164.169769019171
1.25446090623986,326.629430392168,0.0662408259193486,-326.563189566249,-163.347835609044,326.596309979209,-163.248474370165
1.25662376987131,324.85789728995,0.0655489437006518,-324.792348346249,-162.461723116825,324.825122818099,-162.363399701274
1.25878663350276,323.159408908568,0.0658159637925994,-323.093592944775,-161.61261243618,323.126500926671,-161.513888490491
1.26094949713421,321.531125927821,0.0675821565594805,-321.463543771262,-160.79935404219,321.497334849541,-160.697980807351
1.26311236076565,319.968617201019,0.0704999400689317,-319.89811726095,-160.019558570544,319.933367230985,-159.913808660441
1.2652752243971,318.445496010413,0.0731882368613217,-318.372307773552,-159.259342123637,318.408901891982,-159.149559768345
1.26743808802855,316.911492970764,0.0730445206160873,-316.838448450148,-158.49226874569,316.874970710456,-158.382701964766
1.26960095166,315.334247002786,0.0661517701457463,-315.268095232641,-157.700199386466,315.301171117714,-157.600971731247
1.27176381529145,313.72997446101,0.047523090838623,-313.682451370171,-156.888748775924,313.70621291559,-156.817464139666
1.27392667892289,312.144286092764,0.0120260824147565,-312.132260010349,-156.078156087589,312.138273051557,-156.060116963967
1.27608954255434,310.611285669675,-0.0436146541649368,-310.65490032384,-155.283835507755,310.633092996758,-155.349257489003
1.27825240618579,309.123410430122,-0.117390512980853,-309.240800943103,-154.50300995857,309.182105686612,-154.679095728042
1.28041526981724,307.633492774198,-0.197066490947203,-307.830559265145,-153.718213141625,307.732026019672,-154.013812878046
1.28257813344869,306.083921262858,-0.259894989233855,-306.343816252092,-152.912013136812,306.213868757475,-153.301855620663
1.28474099708013,304.436989194189,-0.283807157078967,-304.720796351268,-152.076591018555,304.578892772729,-152.502301754174
1.28690386071158,302.692777134072,-0.260098079511651,-302.952875213584,-151.21633952728,302.822826173828,-151.606486646548
1.28906672434303,300.879857117686,-0.19746979943961,-301.077326917126,-150.341193659123,300.978592017406,-150.637398358283
1.29122958797448,299.030755551295,-0.117980447068269,-299.148735998363,-149.456387552113,299.089745774829,-149.633358222716
1.29339245160593,297.180885188929,-0.0443519400490436,-297.225237128978,-148.56826662444,297.203061158953,-148.634794534513
1.29555531523737,295.376671542576,0.0112263292258264,-295.36544521335,-147.693948935901,295.371058377963,-147.677109442062
1.29771817886882,293.660711431617,0.0468114805114714,-293.613899951106,-146.853761456064,293.637305691361,-146.783544235297
1.29988104250027,292.059081480161,0.065755989194727,-291.993325490967,-146.062418734678,292.026203485564,-145.963784750886
1.30204390613172,290.584754424247,0.0732575114045375,-290.511496912842,-145.329005967826,290.548125668544,-145.219119700719
1.30420676976317,289.231785886994,0.0743131802675675,-289.157472706727,-144.653049533631,289.19462929686,-144.54157976323
1.30636963339461,287.965133391431,0.0727286866245311,-287.892404704806,-144.018931039028,287.928769048119,-143.909838009091
1.30853249702606,286.73571445291,0.0707868495265382,-286.664927603384,-143.403250651218,286.700321028147,-143.297070376929
1.31069536065751,285.511608384142,0.069248999103634,-285.442359385038,-142.790428691623,285.47698388459,-142.686555192967
1.31285822428896,284.282472348125,0.0674810930942322,-284.21499125503,-142.174976720609,284.248731801578,-142.073755080968
1.31502108792041,283.034125480773,0.0636275623815364,-282.970497918391,-141.548876521577,283.002311699582,-141.453435178005
1.31718395155185,281.735609579253,0.0548801274797493,-281.680729451774,-140.895244853367,281.708169515514,-140.812924662147
1.3193468151833,280.357871844257,0.0379943738567742,-280.3198774704,-140.197933109057,280.338874657328,-140.140941548272
1.32150967881475,278.89731457019,0.0102786742273002,-278.887035895962,-139.453796622209,278.892175233076,-139.438378610868
1.3236725424462,277.382677523283,-0.0287088219073169,-277.411386345191,-138.676984350688,277.397031934237,-138.720047583549
1.32583540607765,275.87085511193,-0.0746126584581592,-275.945467770388,-137.898121226736,275.908161441159,-138.010040214423
1.32799826970909,274.417906401792,-0.114996023639158,-274.532902425431,-137.151455189076,274.475404413611,-137.323949224535
1.33016113334054,273.027520879729,-0.131605162828146,-273.159126042557,-136.44795785845,273.093323461143,-136.645365602693
1.33232399697199,271.643226101919,-0.114867523079304,-271.758093624999,-135.76417928942,271.700659863459,-135.936480574039
1.33448686060344,270.207231674774,-0.0743409621977082,-270.281572636971,-135.066445356288,270.244402155873,-135.177956799585
1.33664972423489,268.713532447211,-0.028285600725872,-268.741818047937,-134.342623423243,268.727675247574,-134.385051824331
1.33881258786634,267.200429270109,0.010813198809635,-267.189616071299,-133.605621234459,267.195022670704,-133.589401436245
1.34097545149778,265.711915208151,0.038489918345826,-265.673425289805,-132.875202563248,265.692670248978,-132.817467685729
1.34313831512923,264.28367005623,0.0550029009031811,-264.228667155327,-132.169336478567,264.256168605779,-132.086832127212
1.34530117876068,262.950504399338,0.0627930302789664,-262.887711369059,-131.506648714809,262.919107884199,-131.41245916939
1.34746404239213,261.731727997595,0.0648274394606084,-261.666900558134,-130.898277718528,261.699314277865,-130.801036559337
1.34962690602358,260.603536691856,0.0637061569001351,-260.539830534956,-130.333621424378,260.571683613406,-130.238062189028
1.35178976965502,259.503846026723,0.0613154475068648,-259.442530579216,-129.782580737115,259.473188302969,-129.690607565854
1.35395263328647,258.365759586418,0.058811945215023,-258.306947641203,-129.212285765816,258.33635361381,-129.124067847994
1.35611549691792,257.143478072986,0.0567666744687164,-257.086711398518,-128.600122373727,257.115094735752,-128.514972362024
1.35827836054937,255.823797629647,0.0553548541448081,-255.768442775502,-127.939576241896,255.796120202574,-127.856543960679
1.36044122418082,254.43236416418,0.0545279616770697,-254.377836202503,-127.243446062929,254.405100183342,-127.161654120413
1.36260408781226,253.024130326372,0.0541416726506633,-252.969988653721,-126.539135999511,252.997059490046,-126.457923490535
1.36476695144371,251.650568013425,0.0540363491703454,-251.596531664255,-125.852302181298,251.62354983884,-125.771247657542
1.36692981507516,250.334751554883,0.0540783527970783,-250.280673202086,-125.19441495384,250.307712378485,-125.113297424645
1.36909267870661,249.079577895307,0.0541742255847534,-249.025403669722,-124.566876060446,249.052490782514,-124.485614722069
1.37125554233806,247.883767246641,0.0542690569614767,-247.829498189679,-123.969018151801,247.85663271816,-123.887614566359
1.3734184059695,246.741654843484,0.054337650921665,-246.687317192562,-123.397996247203,246.714486018023,-123.31648977082
1.37558126960095,245.62690361488,0.0543740318192742,-245.57252958306,-122.840638823349,245.59971659897,-122.759077775621
1.3777441332324,244.48439787938,0.054382220261749,-244.430015659118,-122.269390049821,244.457206769249,-122.187816719428
1.37990699686385,243.267344683144,0.0543693824430707,-243.212975300701,-121.660857032794,243.240159991922,-121.579302959129
1.3820698604953,241.982533212388,0.0543414017138351,-241.928191810674,-121.018437307051,241.955362511531,-120.93692520448
1.38423272412674,240.677003990359,0.0543004878780931,-240.622703502481,-120.365652239119,240.64985374642,-120.284201507302
1.38639558775819,239.394763247634,0.0542444331738829,-239.340518814461,-119.724503840404,239.367641031048,-119.643137190643
1.38855845138964,238.17014933162,0.0541673588684175,-238.115981972752,-119.112158345244,238.143065652186,-119.030907306942
1.39072131502109,237.042865083035,0.0540621086146786,-236.98880297442,-118.548463595825,237.015834028727,-118.467370432903
1.39288417865254,236.039433971916,0.0539246794508445,-235.985509292465,-118.046679325683,236.01247163219,-117.965792306507
1.39504704228398,235.135653510727,0.0537610743198369,-235.081892436408,-117.594707292524,235.108772973568,-117.514065681044
1.39720990591543,234.262485131403,0.0535965260109447,-234.208888605392,-117.158040828707,234.235686868398,-117.077646039691
1.39937276954688,233.362918246338,0.0534859871278969,-233.30943225921,-116.708202116733,233.336175252774,-116.627973136041
1.40153563317833,232.428694568359,0.0535229519089741,-232.37517161645,-116.241108760134,232.401933092404,-116.16082433227
1.40369849680978,231.46865954942,0.0538410688646521,-231.414818480555,-115.761250309142,231.441739014987,-115.680488705845
1.40586136044122,230.462613255976,0.0545999281203048,-230.408013327856,-115.258606592048,230.435313291916,-115.176706699868
1.40802422407267,229.376609802835,0.0559437071370705,-229.320666095698,-114.716276754986,229.348637949266,-114.63236119428
1.41018708770412,228.21786197322,0.0579206385557378,-228.159941334664,-114.137891305888,228.188901653942,-114.051010348054
1.41234995133557,227.043679620603,0.0603550408307176,-226.983324579773,-113.552017330717,227.013502100188,-113.461484769471
1.41451281496702,225.9118645011,0.0626752669904182,-225.84918923411,-112.987269884045,225.880526867605,-112.89325698356
1.41667567859846,224.832925548705,0.0637239980507736,-224.769201550654,-112.448324773378,224.80106354968,-112.352738776302
1.41883854222991,223.767255719742,0.0616144545653482,-223.705641265176,-111.914435087154,223.736448492459,-111.822013405306
1.42100140586136,222.672172688124,0.0537466815170935,-222.618426006607,-111.362959684821,222.645299347365,-111.282339662545
1.42316426949281,221.554068642678,0.0371548312303189,-221.516913811447,-110.795611736954,221.535491227063,-110.739879490109
1.42532713312426,220.458128137032,0.00940130339282319,-220.448726833639,-110.233764720212,220.453427485335,-110.219662765123
1.4274899967557,219.412721472786,-0.0297661789748727,-219.442487651761,-109.691477646906,219.427604562273,-109.736126915368
1.42965286038715,218.413062617759,-0.0758728129942844,-218.488935430753,-109.168594902382,218.450999024256,-109.282404121874
1.4318157240186,217.442535780867,-0.116421223187248,-217.558957004054,-108.66305727884,217.500746392461,-108.837689113621
1.43397858765005,216.479631059673,-0.133138781254066,-216.612769840927,-108.17324613921,216.5462004503,-108.372954311091
1.4361414512815,215.502960761722,-0.116459561715715,-215.619420323438,-107.693250600003,215.56119054258,-107.867939942577
1.43830431491294,214.507390109643,-0.0759609667159842,-214.583351076359,-107.215714571463,214.545370593001,-107.329656021537
1.44046717854439,213.509496194896,-0.0299267569262756,-213.539422951822,-106.739784718985,213.524459573359,-106.784674854374
1.44263004217584,212.531112970603,0.00913627330705609,-212.521976697296,-106.270124621955,212.526544833949,-106.256420211994
1.44479290580729,211.583204506857,0.0367489413468208,-211.546455565511,-105.809976724102,211.564830036184,-105.754853312082
1.44695576943874,210.683188351876,0.0531701223994452,-210.630018229477,-105.368179237138,210.656603290676,-105.288424053539
1.44911863307018,209.869524263086,0.0608635846194297,-209.808660678467,-104.965193923853,209.839092470777,-104.873898546924
1.45128149670163,209.159893367848,0.0628510361130969,-209.097042331735,-104.61137220198,209.128467849791,-104.517095647811
1.45344436033308,208.503198491688,0.0618266420296382,-208.441371849659,-104.282512566859,208.472285170674,-104.189772603815
1.45560722396453,207.80064078263,0.0598113190804916,-207.740829463549,-103.930226050855,207.770735123089,-103.840509072234
1.45777008759598,206.982182748604,0.0581222691533396,-206.924060479451,-103.520152508879,206.953121614027,-103.432969105149
1.45993295122743,206.063117845237,0.0574754645712472,-206.005642380665,-103.060296654904,206.034380112951,-102.974083458047
1.46209581485887,205.121118746956,0.058094863753259,-205.063023883203,-102.589606805355,205.09207131508,-102.502464509725
1.46425867849032,204.222205774214,0.0597565084860555,-204.162449265727,-102.14098114135,204.192327519971,-102.051346378621
1.46642154212177,203.384068713887,0.061744426662397,-203.322324287224,-101.722906570275,203.353196500555,-101.630289930281
1.46858440575322,202.595703600535,0.0627414166402165,-202.532962183895,-101.329222508588,202.564332892215,-101.235110383627
1.47074726938467,201.845047853609,0.0607265620208389,-201.784321291588,-100.952887207815,201.814684572598,-100.861797364783
1.47291013301611,201.131184126399,0.0530056980943396,-201.078178428305,-100.592094912247,201.104681277352,-100.512586365105
1.47507299664756,200.455781960452,0.0365571173984145,-200.419224843053,-100.246169538925,200.437503401752,-100.191333862827
1.47723586027901,199.811445256646,0.00891705270869274,-199.802528203938,-99.9101811546775,199.806986730292,-99.8968055756145
1.47939872391046,199.1902744749,-0.0301733699151182,-199.220447844816,-99.5800505524927,199.205361159858,-99.6253106073653
1.48156158754191,198.578661590325,-0.0762349662739716,-198.654896556599,-99.2512133120257,198.616779073462,-99.3655657614366
1.48372445117335,197.933661727997,-0.11676094037821,-198.050422668375,-98.9084503938095,197.992042198186,-99.0835918043768
1.4858873148048,197.200503074908,-0.133467530320143,-197.333970605228,-98.533517772294,197.267236840068,-98.7337190677742
1.48805017843625,196.362707065955,-0.11677733398031,-196.479484399935,-98.1229648659871,196.421095732945,-98.2981308669576
1.4902130420677,195.464190111673,-0.0762562793731224,-195.540446391046,-97.6939669161501,195.50231825136,-97.8083513352098
1.49237590569915,194.586440019887,-0.0301770013847696,-194.616617021272,-97.2781315092511,194.601528520579,-97.3233970113283
1.49453876933059,193.795213798008,0.00896311239301581,-193.786250685615,-96.9020884552008,193.790732241812,-96.8886437866112
1.49670163296204,193.098072394048,0.0366892407481303,-193.0613831533,-96.567380817398,193.079727773674,-96.5123469562758
1.49886449659349,192.460534119853,0.0532536373716052,-192.407280482481,-96.2568938786122,192.433907301167,-96.1770134225548
1.50102736022494,191.856420425783,0.0610938791792111,-191.795326546604,-95.958757152481,191.825873486193,-95.8671163337122
1.50319022385639,191.284213441523,0.0631758006287504,-191.221037640894,-95.673694621076,191.252625541209,-95.5789309201328
1.50535308748783,190.739439118005,0.0620993709626865,-190.677339747042,-95.4007692444838,190.708389432523,-95.3076201880397
1.50751595111928,190.184709371742,0.0597514357278123,-190.124957936014,-95.1222304037348,190.154833653878,-95.0326032501431
1.50967881475073,189.565156969885,0.0572894607362856,-189.507867509149,-94.8112232153108,189.536512239517,-94.7252890242063
1.51184167838218,188.866043330041,0.055285346049606,-188.810757983991,-94.4606643380453,188.838400657016,-94.3777363189709
1.51400454201363,188.128708240607,0.0539151398863084,-188.074793100721,-94.0913116902468,188.101750670664,-94.0104389804173
1.51616740564507,187.396789728346,0.0531310554970352,-187.343658672849,-93.7249603919213,187.370224200597,-93.6452638086757
1.51833026927652,186.683230229003,0.0527893331830193,-186.63044089582,-93.3680097810932,186.656835562412,-93.2888257813187
1.52049313290797,185.995913589945,0.0527305580266117,-185.943183031918,-93.0243220739857,185.969548310932,-92.9452262369458
1.52265599653942,185.362305947727,0.0528206676195026,-185.309485280108,-92.7075633076734,185.335895613917,-92.6283323062441
1.52481886017087,184.822441002807,0.0529646910981998,-184.769476311709,-92.4377028469528,184.795958657258,-92.3582558103055
1.52698172380231,184.393858658255,0.0531046022391047,-184.340754056016,-92.2234816302471,184.367306357136,-92.1438247268885
1.52914458743376,184.041105737764,0.0532100696526814,-183.987895668112,-92.0471579037085,184.014500702938,-91.9673427992295
1.53130745106521,183.695559151749,0.0532679511095255,-183.64229120064,-91.8744135514295,183.668925176195,-91.7945116247652
1.53347031469666,183.299152184739,0.0532739317061293,-183.245878253033,-91.6762130582225,183.272515218886,-91.5963021606633
1.53563317832811,182.824402079018,0.0532280095725211,-182.771174069446,-91.4388150442955,182.797788074232,-91.3589730299367
1.53779604195955,182.269124543862,0.0531344955162418,-182.215990048346,-91.161129519689,182.242557296104,-91.0814277764147
1.539958905591,181.645724243991,0.053006526644648,-181.592717717346,-90.8493653853178,181.619220980669,-90.7698555953509
1.54212176922245,180.982973762173,0.0528744276849628,-180.930099334488,-90.5179240949291,180.956536548331,-90.4386124534017
1.5442846328539,180.321972376658,0.0527962164978142,-180.26917616016,-90.1873842965781,180.295574268409,-90.1081899718314
1.54644749648535,179.68683712019,0.052866854393293,-179.633970265797,-89.8698519872916,179.660403692993,-89.7905517057017
1.54861036011679,179.073667548552,0.0532203946478928,-179.020447153904,-89.5634439716,179.047057351228,-89.4836133796281
1.55077322374824,178.479009182962,0.0540162466557416,-178.424992936306,-89.2665127148089,178.452001059634,-89.1854883448253
1.55293608737969,177.909551560698,0.0553981733008917,-177.854153387397,-88.9824748669993,177.881852474047,-88.899377607048
1.55509895101114,177.361406699783,0.0574139801355416,-177.303992719647,-88.7094103399592,177.332699709715,-88.6232893697559
1.55726181464259,176.820813616513,0.0598876610699658,-176.760925955443,-88.4403506387914,176.790869785978,-88.3505191471865
1.55942467827403,176.275198791875,0.0622473875255367,-176.21295140435,-88.1687230897004,176.244075098112,-88.0753520084121
1.56158754190548,175.706727047385,0.0633357943712529,-175.643391253013,-87.885031420878,175.675059150199,-87.7900277293211
1.56375040553693,175.104011322733,0.0612661527965032,-175.042745169936,-87.5826387377645,175.073378246334,-87.4907395085697
1.56591326916838,174.48720466303,0.0534385915418274,-174.433766071488,-87.2703216272861,174.460485367259,-87.1901637399733
1.56807613279983,173.889096398921,0.036887290077827,-173.852209108843,-86.9629918444996,173.870652753882,-86.9076609093828
1.57023899643127,173.31996411978,0.00917450029496758,-173.310789619485,-86.6645693100376,173.315376869633,-86.6508075595952
1.57240186006272,172.783590269609,-0.0299525200958836,-172.813542789705,-86.3768188747566,172.798566529657,-86.4217476549004
1.57456472369417,172.302708709942,-0.0760198960728371,-172.378728606015,-86.1133444069346,172.340718657978,-86.2273742510438
1.57672758732562,171.900788726963,-0.116531739212335,-172.017320466176,-85.8921284938755,171.95905459657,-86.066926102694
1.57889045095707,171.584698895118,-0.133217425671198,-171.717916320789,-85.7257407347234,171.651307607954,-85.9255668732302
1.58105331458852,171.34422658111,-0.116513238955918,-171.460739820066,-85.6138566710773,171.402483200588,-85.7886265295111
1.58321617821996,171.145095740778,-0.0759982474196548,-171.221093988197,-85.534548746679,171.183094864487,-85.6485461178085
1.58537904185141,170.933900501532,-0.0299559977484083,-170.963856499281,-85.451972251892,170.948878500407,-85.4969062485146
1.58754190548286,170.663464304644,0.00911080791335667,-170.654353496731,-85.3362875562786,170.658908900687,-85.3226213444086
1.58970476911431,170.319194005442,0.0367334751438116,-170.282460530298,-85.1779637402927,170.30082726787,-85.122863527577
1.59186763274576,169.926370464976,0.0531902752873948,-169.873180189689,-84.9897803701318,169.899775327332,-84.9099949572007
1.5940304963772,169.533570668515,0.0609746785116897,-169.472595990004,-84.7972726735135,169.503083329259,-84.7058106557459
1.59619336000865,169.18798589974,0.0631468325687253,-169.124839067172,-84.6255663661546,169.156412483456,-84.5308461173015
1.5983562236401,168.911079423999,0.06244093384177,-168.848638490157,-84.4867601789203,168.879858957078,-84.3930987781577
1.60051908727155,168.683132793901,0.0609037280910951,-168.62222906581,-84.3720182609962,168.652680929856,-84.2806626688595
1.602681950903,168.45841421061,0.0598369113335684,-168.398577299276,-84.2591255609718,168.428495754943,-84.1693701939715
1.60484481453444,168.200464430774,0.0598604328778814,-168.140603997897,-84.1301624318262,168.170534214336,-84.0403717825093
1.60700767816589,167.894011910656,0.0609742646309942,-167.833037646025,-83.9774930876433,167.86352477834,-83.8860316906968
1.60917054179734,167.530424192131,0.0625584099143508,-167.467865782217,-83.7964913010228,167.499144987174,-83.7026536861513
1.61133340542879,167.1030995462,0.0633111535058258,-167.039788392694,-83.5832053498528,167.071443969447,-83.488238619594
1.61349626906024,166.619549657039,0.0611857821935648,-166.558363874845,-83.3403677196163,166.588956765942,-83.2485890463259
1.61565913269168,166.107281935756,0.0534482114278411,-166.053833724328,-83.0803650735919,166.080557830042,-83.0001927564501
1.61782199632313,165.601058136966,0.0370385107966226,-165.56401962617,-82.8190483238815,165.582538881568,-82.7634905576866
1.61998485995458,165.12116898312,0.00946354549285483,-165.111705437627,-82.5653162643063,165.116437210373,-82.551120946067
1.62214772358603,164.669315373912,-0.0295545248201236,-164.698869898732,-82.3198804245459,164.684092636322,-82.3642122117761
1.62431058721748,164.246181894056,-0.0755465661467082,-164.321728460203,-82.0853176639547,164.283955177129,-82.1986375131747
1.62647345084892,163.86103278433,-0.116009614608515,-163.977042398938,-81.8725115848607,163.919037591634,-82.0465260067734
1.62863631448037,163.52699327379,-0.13266035473798,-163.659653628528,-81.6971664595261,163.593323451159,-81.896156991633
1.63079917811182,163.258521374486,-0.115920891555841,-163.374442266042,-81.5713002414651,163.316481820264,-81.7451815787988
1.63296204174327,163.058644461971,-0.0753575927275876,-163.134002054699,-81.4916434346218,163.096323258335,-81.6046798237132
1.63512490537472,162.895411875118,-0.0292456944197597,-162.924657569538,-81.4330830903491,162.910034722328,-81.4769516319788
1.63728776900616,162.714223375847,0.0099121806146017,-162.704311195232,-81.3620677782307,162.70926728554,-81.3471995073088
1.63945063263761,162.482504170404,0.0376338920274322,-162.444870278377,-81.2600690312159,162.463687224391,-81.2036181931747
1.64161349626906,162.206409259334,0.0541643058339395,-162.1522449535,-81.130286782584,162.179327106417,-81.0490403238331
1.64377635990051,161.910130340168,0.0619375681926191,-161.848192771975,-80.9860339541801,161.879161556071,-80.8931276018912
1.64593922353196,161.612628613901,0.0639265042163586,-161.548702109685,-80.8382775590587,161.580665361793,-80.7423878027342
1.6481020871634,161.323750815443,0.0627573195183476,-161.260993495925,-80.6932540674807,161.292372155684,-80.5991180882031
1.65026495079485,161.052542136886,0.060372354176912,-160.992169782709,-80.5564572455313,161.022355959797,-80.4658987142659
1.6524278144263,160.803593679291,0.0580220301190219,-160.745571649172,-80.4308078547051,160.774582664232,-80.3437748095266
1.65459067805775,160.56650601633,0.0564095060845976,-160.510096510245,-80.3114577612071,160.538301263287,-80.2268435020802
1.6567535416892,160.327130182438,0.0558653492745338,-160.271264833164,-80.1914977658565,160.299197507801,-80.1076997419447
1.65891640532064,160.089469494175,0.0564775779493613,-160.032991916226,-80.0729735360621,160.0612307052,-79.9882571691381
1.66107926895209,159.87406453101,0.0581390800700321,-159.81592545094,-79.96610180554,159.844994990975,-79.8788931854349
1.66324213258354,159.698278701414,0.060501516267568,-159.637777185146,-79.8793901088406,159.66802794328,-79.7886378344392
1.66540499621499,159.566248201565,0.0628482577586691,-159.503399943806,-79.8145482296616,159.534824072685,-79.7202758430236
1.66756785984644,159.473207286336,0.0639257921391008,-159.409281494197,-79.7685665392374,159.441244390266,-79.6726778510288
1.66973072347788,159.406477268631,0.0618091012784951,-159.344668167353,-79.7341431849548,159.375572717992,-79.641429533037
1.67189358710933,159.337799277696,0.0539233754445438,-159.283875902252,-79.6958613265705,159.310837589974,-79.6149762634036
1.67405645074078,159.23138227657,0.0373961431272283,-159.193986133443,-79.6343892098486,159.212684205006,-79.5782949951578
1.67621931437223,159.064059317221,0.00995309058264837,-159.054106226638,-79.5370062039019,159.05908277193,-79.5220765680279
1.67838217800368,158.825451664766,-0.0284349600648112,-158.853886624831,-79.3985083523505,158.839669144798,-79.4411607924477
1.68054504163512,158.517304271159,-0.0730464360798861,-158.590350707239,-79.2221289175395,158.553827489199,-79.3316985716594
1.68270790526657,158.16435180818,-0.111193846089001,-158.275545654269,-79.0265789810455,158.219948731225,-79.193369750179
1.68487076889802,157.807446694146,-0.124613227500893,-157.932059921647,-78.8414167333226,157.869753307897,-79.028336574574
1.68703363252947,157.488484924283,-0.104158747963455,-157.592643672247,-78.6921630881598,157.540564298265,-78.848401210105
1.68919649616092,157.24138295348,-0.0605088271134717,-157.301891780594,-78.5904370631834,157.271637367037,-78.6812003038536
1.69135935979237,157.080140265652,-0.0140009190429497,-157.094141184695,-78.5330696733046,157.087140725174,-78.554071051869
1.69352222342381,156.987304281894,0.0196945807618186,-156.967609701132,-78.5034994313279,156.977456991513,-78.4739575601852
1.69568508705526,156.907944550783,0.0319789093159551,-156.875965641467,-78.4699617300494,156.891955096125,-78.4219933660754
1.69784795068671,156.768153678944,0.018779395033073,-156.749374283911,-78.3934665369884,156.758763981427,-78.3652974444388
1.70001081431816,156.516264714139,-0.0203193195268078,-156.536584033666,-78.2479726973062,156.526424373903,-78.2784516765964
1.70217367794961,156.134124622952,-0.0808436029171655,-156.214968225869,-78.0266405100175,156.174546424411,-78.1479059143933
1.70433654158105,155.622443145507,-0.150135454718519,-155.772578600226,-77.7361538453943,155.697510872866,-77.9613570274721
1.7064994052125,155.00826686051,-0.208289855663361,-155.216556716173,-77.3999885024231,155.112411788341,-77.7124232859182
1.70866226884395,154.351298579629,-0.240110639242993,-154.591409218872,-77.0555939701931,154.471353899251,-77.4157599290576
1.7108251324754,153.729141731651,-0.242106632145039,-153.971248363796,-76.7435175497532,153.850195047724,-77.1066774979708
1.71298799610685,153.236742900951,-0.214110406213017,-153.450853307164,-76.5113162473692,153.343798104058,-76.8324818566887
1.71515085973829,152.992989990344,-0.159102351046773,-153.15209234139,-76.4169438196484,153.072541165867,-76.6555973462186
1.71731372336974,153.122652848028,-0.091265976696249,-153.213918824724,-76.5156934356658,153.168285836376,-76.6525924007102
1.71947658700119,153.732368410123,-0.0287580164852773,-153.761126426609,-76.8518051968191,153.746747418366,-76.894942221547
1.72163945063264,154.893507824617,0.0182825892371742,-154.87522523538,-77.4558952069272,154.884366529999,-77.4284713230714
1.72380231426409,156.594794954602,0.0483471546408904,-156.546447799961,-78.3215710546215,156.570621377282,-78.2490503226602
1.72596517789553,158.643969173681,0.0643671013632798,-158.579602072318,-79.3541681375221,158.611785622999,-79.2576174854772
1.72812804152698,160.536847815026,0.0708016792601102,-160.466046135766,-80.3038247471432,160.501446975396,-80.197622228253
1.73029090515843,161.319229480121,0.0719128322930929,-161.247316647828,-80.6955711562071,161.283273063975,-80.5877019077674
1.73245376878988,159.484554688118,0.0709253871285326,-159.413629300989,-79.7777400376232,159.449091994554,-79.6713519569304
1.73461663242133,152.972009802974,0.0697351035981842,-152.902274699376,-76.520872453286,152.937142251175,-76.4162697978887
1.73677949605277,139.385383055806,0.0688884426207882,-139.316494613185,-69.7271357492131,139.350938834495,-69.623803085282
1.73894235968422,116.61855896392,0.0676625475944427,-116.550896416326,-58.3431107557574,116.584727690123,-58.2416169343657
1.74110522331567,83.8974142914926,0.0641908054686829,-83.8332234860239,-41.9808025484807,83.8653188887583,-41.8845163402776
1.74326808694712,42.7240216378414,0.0556922451802128,-42.6683293926611,-21.3898569415108,42.6961755152513,-21.3063185737405
1.74543095057857,-3.12256907803749,0.0389609542002595,3.16153003223775,1.54180406191861,-3.14204955513762,1.600245493219
1.74759381421001,-48.7682834638258,0.0113392573473373,48.7796227211731,24.3784721032392,-48.7739530924995,24.3954809892602
1.74975667784146,-89.8232453520004,-0.0275921770397872,89.7956531749606,44.9254187645201,-89.8094492634805,44.8840304989604
1.75191954147291,-123.443702334979,-0.0734675077529346,123.370234827226,61.7585849213661,-123.406968581103,61.6483836597367
1.75408240510436,-148.671834870457,-0.113848199056878,148.5579866714,74.3928415347568,-148.614910770928,74.2220692361715
1.75624526873581,-166.314727829524,-0.130480945093078,166.184246884431,83.2226043873084,-166.249487356977,83.0268829696688
1.75840813236725,-178.519685403152,-0.113786860612775,178.40589854254,89.3167361318826,-178.462791972846,89.1460558409634
1.7605709959987,-188.066344977691,-0.0732997728755616,187.993045204816,94.0698223752834,-188.029695091253,93.95987271597
1.76273385963015,-197.558481656675,-0.027226431739228,197.531255224936,98.7928540442072,-197.544868440806,98.7520143965984
1.7648967232616,-208.834602655746,0.0120399825986479,208.846642638344,104.411281336573,-208.840622647045,104.429341310471
1.76705958689305,-222.754215751374,0.0401668102097378,222.794382561584,111.357024470582,-222.774299156479,111.417274685897
1.76922245052449,-239.313302957698,0.0575716723649342,239.370874630063,119.627865642667,-239.342088793881,119.714223151214
1.77138531415594,-257.969561216324,0.0668395332949987,258.036400749619,128.951360841515,-258.002980982972,129.051620141457
1.77354817778739,-278.004471647323,0.070985435882711,278.075457083205,138.96674310572,-278.039964365264,139.073221259544
1.77571104141884,-298.773315874669,0.0724325959531436,298.845748470622,149.350441639358,-298.809532172646,149.459090533288
1.77787390505029,-319.802438196724,0.072493031393586,319.874931228118,159.864972582665,-319.838684712421,159.973712129756
1.78003676868173,-340.741093092767,0.0711613919101817,340.812254484677,170.334965850428,-340.776673788722,170.441707938294
1.78219963231318,-361.191194981308,0.0671149326236185,361.258309913932,180.562040024342,-361.22475244762,180.662712423278
1.78436249594463,-380.502753931854,0.057920120387563,380.560674052241,190.222416905733,-380.531713992048,190.309297086315
1.78652535957608,-397.686065039033,0.0405538801935938,397.726618919226,198.82275557942,-397.706341979129,198.88358639971
1.78868822320753,-411.584843128137,0.0124296419212842,411.597272770058,205.786206743108,-411.591057949098,205.80485120599
1.79085108683897,-421.316033705733,-0.0268585081451672,421.289175197588,210.671446106939,-421.30260445166,210.631158344721
1.79301395047042,-426.713663378487,-0.0729435268730955,426.640719851614,213.39330345268,-426.67719161505,213.28388816237
1.79517681410187,-428.414993588942,-0.113364972104052,428.301628616838,214.264179280523,-428.35831110289,214.094131822367
1.79733967773332,-427.519235879459,-0.129808660326475,427.389427219133,213.824522269893,-427.454331549296,213.629809279403
1.79950254136477,-425.122794147774,-0.112595346695819,425.010198801078,212.617694747235,-425.066496474426,212.448801727191
1.80166540499621,-422.05159136319,-0.0711418399546053,421.980449523236,211.061366601572,-422.016020443213,210.954653841641
1.80382826862766,-418.814895619114,-0.0235751312247297,418.79132048789,209.41923537517,-418.803108053502,209.383872678332
1.80599113225911,-415.66268051218,0.01766168724122,415.680342199422,207.82250941247,-415.671511355801,207.849001943331
1.80815399589056,-412.685271646392,0.0479237987051637,412.733195445097,206.318673923843,-412.709233545744,206.390559621901
1.81031685952201,-409.875270474752,0.066894262343323,409.942164737095,204.904188106204,-409.908717605924,205.004529499719
1.81247972315346,-407.122712818267,0.0758514689626265,407.19856428723,203.523430674652,-407.160638552748,203.637207878096
1.8146425867849,-404.252530438153,0.0758688137767802,404.32839925193,202.088330812188,-404.290464845042,202.202134032853
1.81680545041635,-401.14051743363,0.0669391363409327,401.207456569971,200.536789148644,-401.1739870018,200.637197853156
1.8189683140478,-397.785881313464,0.0479791511779376,397.833860464642,198.868951081143,-397.809870889053,198.94091980791
1.82113117767925,-394.273346217381,0.0177142529918679,394.291060470373,197.127815982195,-394.282203343877,197.154387361682
1.8232940413107,-390.69545158056,-0.0235111862112085,390.671940394349,195.359481383386,-390.683695987455,195.324214604069
1.82545690494214,-387.1230654921,-0.0709915272784224,387.052073964821,193.597028509689,-387.087569728461,193.490541218772
1.82761976857359,-383.645918018236,-0.112183033019963,383.533734985216,191.879050525628,-383.589826501726,191.710775976098
1.82978263220504,-380.423044030952,-0.128821059445518,380.294222971507,190.275932545199,-380.35863350123,190.082700956031
1.83194549583649,-377.663638499685,-0.11133519752468,377.552303302161,188.887486848605,-377.607970900923,188.720484052318
1.83410835946794,-375.547755041446,-0.0692857178014308,375.478469323645,187.808520379624,-375.513112182545,187.704591802922
1.83627122309938,-374.163622484508,-0.0209934744572459,374.14262901005,187.092307979482,-374.153125747279,187.060817767797
1.83843408673083,-373.488799442612,0.0208119817647923,373.509611424377,186.733993730424,-373.499205433494,186.765211703071
1.84059695036228,-373.396894887495,0.0510583859767716,373.447953273472,186.672918250759,-373.422424080484,186.749505829724
1.84275981399373,-373.691496191214,0.0688347962697708,373.760330987484,186.811330697472,-373.725913589349,186.914582891877
1.84492267762518,-374.159701563897,0.0746968115050342,374.234398375402,187.042502376196,-374.19704996965,187.154547593454
1.84708554125662,-374.603021424645,0.0690191660981471,374.672040590743,187.267001129273,-374.637531007694,187.370529878421
1.84924840488807,-374.840421617547,0.0514448469013517,374.891866464449,187.394488385323,-374.866144040998,187.471655655675
1.85141126851952,-374.718480096984,0.0214299504809558,374.739910047465,187.348525073252,-374.729195072225,187.380669998973
1.85357413215097,-374.12747185297,-0.0201161875552618,374.107355665415,187.073794020263,-374.117413759192,187.04361973893
1.85573699578242,-373.025011204435,-0.0681453615956657,372.956865842839,186.546578283015,-372.990938523637,186.444360240622
1.85789985941386,-371.470130759546,-0.109984859524751,371.360145900021,185.790057809535,-371.415138329783,185.625080520248
1.86006272304531,-369.61270545079,-0.127412129484532,369.485293321306,184.870058790137,-369.548999386048,184.678940595911
1.86222558667676,-367.616418742144,-0.111008004906944,367.505410737237,183.863713373525,-367.56091473969,183.697201366165
1.86438845030821,-365.585933418057,-0.0705117546662681,365.51542166339,182.828222586361,-365.550677540723,182.722454954362
1.86655131393966,-363.573105825136,-0.0243412639911628,363.548764561145,181.798723544564,-363.56093519314,181.762211648577
1.8687141775711,-361.635266239266,0.0149065687365501,361.650172808003,180.810179835265,-361.642719523634,180.83253968837
1.87087704120255,-359.851974979217,0.042707418591663,359.894682397809,179.904633780313,-359.873328688513,179.9686949082
1.873039904834,-358.282640236719,0.0593137368286663,358.341953973547,179.111663249945,-358.312297105133,179.200633855188
1.87520276846545,-356.917210720736,0.0672126489109701,356.984423369647,178.424999035913,-356.950817045192,178.525818009279
1.8773656320969,-355.663033132445,0.0694684971186038,355.732501629563,177.796782317663,-355.697767381004,177.900985063341
1.87952849572834,-354.386656532267,0.0688237937105598,354.455480325978,177.158916369278,-354.421068429123,177.262152059844
1.88169135935979,-352.988049901161,0.067333828676311,353.055383729837,176.460358036242,-353.021716815499,176.561358779257
1.88385422299124,-351.452317736767,0.0663071807125599,351.518624917479,175.693005278027,-351.485471327123,175.792466049096
1.88601708662269,-349.833694749622,0.0663684695326577,349.900063219154,174.883663140045,-349.866878984388,174.983215844344
1.88817995025414,-348.191216145007,0.0675203199968117,348.258736465004,174.061847912505,-348.224976305005,174.1631283925
1.89034281388558,-346.554669734663,0.0691438740899337,346.623813608753,173.242762930287,-346.589241671708,173.346478741422
1.89250567751703,-344.940272148649,0.0699375803938678,345.010209729043,172.435167284128,-344.975240938846,172.540073654718
1.89466854114848,-343.355515144528,0.0678543540453196,343.423369498573,171.643830395241,-343.389442321551,171.745611926309
1.89683140477993,-341.780034407138,0.0601595013499046,341.840193908487,170.859937452894,-341.810114157812,170.950176704919
1.89899426841138,-340.168492832923,0.0437924177139786,340.212285250637,170.062350207604,-340.19038904178,170.128038834175
1.90115713204282,-338.488539475409,0.0162593212364833,338.504798796645,169.236140077086,-338.496669136027,169.260529058941
1.90331999567427,-336.755853014348,-0.0227181806691717,336.733134833679,168.389285597509,-336.744493924014,168.355208326505
1.90548285930572,-335.027271904321,-0.0686713130548472,334.958600591266,167.547971608688,-334.992936247793,167.444964639106
1.90764572293717,-333.362378864585,-0.109097104452971,333.253281760132,166.735737984519,-333.307830312358,166.572092327839
1.90980858656862,-331.790513885881,-0.125711594337543,331.664802291543,165.958112740109,-331.727658088712,165.769545348603
1.91197145020006,-330.30254328165,-0.10893525395334,330.193608027696,165.205739267801,-330.248075654673,165.042336386871
1.91413431383151,-328.876589938059,-0.0683314767444246,328.808258461314,164.472460707402,-328.842424199687,164.369963492285
1.91629717746296,-327.502864453338,-0.022171002054697,327.480693451283,163.762517727696,-327.49177895231,163.729261224614
1.91846004109441,-326.156884550306,0.0170492974539124,326.17393384776,163.069917626426,-326.165409199033,163.095491572607
1.92062290472586,-324.78049035894,0.0448531706670376,324.825343529607,162.367818594136,-324.802916944273,162.435098350137
1.92278576835731,-323.325240409241,0.061489096722754,323.386729505964,161.631875656259,-323.355984957603,161.724109301343
1.92494863198875,-321.781210707914,0.0693884521940957,321.850599160108,160.85591112786,-321.815904934011,160.959993806151
1.9271114956202,-320.165421083451,0.0715090315535254,320.236930115004,160.046956025949,-320.201175599227,160.154219573279
1.92927435925165,-318.517008908575,0.070442707064884,318.587451615639,159.223283100755,-318.552230262107,159.328947161352
1.9314372228831,-316.875135585113,0.0680717738240919,316.943207358937,158.403531905644,-316.909171472025,158.505639566381
1.93360008651455,-315.243087959997,0.0655586374007963,315.308646597398,157.588764661298,-315.275867278698,157.6871026174
1.93576295014599,-313.59976324326,0.0634979660913421,313.663261209351,156.768132638584,-313.631512226306,156.863379587721
1.93792581377744,-311.929096788096,0.0621161824084703,311.991212970505,155.933490302844,-311.9601548793,156.026664576457
1.94008867740889,-310.222059808065,0.0614520299959055,310.283511838061,155.080303889035,-310.252785823063,155.172481934028
1.94225154104034,-308.481016592981,0.0614866503458479,308.542503243327,154.209764971318,-308.511759918154,154.301994946836
1.94441440467179,-306.727000479551,0.0622117614553926,306.789212241007,153.332394359048,-306.758106360279,153.425712001231
1.94657726830323,-304.99787443042,0.0636335274521778,305.061507957872,152.467120451484,-305.029691194146,152.562570742662
1.94874013193468,-303.346950101054,0.0657126391352504,303.412662740189,151.640618730959,-303.379806420622,151.739187689662
1.95090299556613,-301.815942495035,0.0682436722299165,301.884186167265,150.873849411403,-301.85006433115,150.976214919748
1.95306585919758,-300.390419511534,0.0706846107458926,300.46110412228,150.159867450394,-300.425761816907,150.265894366513
1.95522872282903,-299.004914956427,0.0719655761502768,299.076880532577,149.466474690138,-299.040897744502,149.574423054364
1.95739158646047,-297.59871040871,0.0703377303719088,297.669048139081,148.764186339169,-297.633879273896,148.869692934727
1.95955445009192,-296.150912146136,0.0633689830354194,296.214281129171,148.04377158155,-296.182596637653,148.138825056103
1.96171731372337,-294.675473946293,0.048246105069506,294.723720051363,147.313613920612,-294.699596998828,147.385983078216
1.96388017735482,-293.212506322568,0.0225865481169019,293.235092870685,146.594959887225,-293.223799596626,146.628839709401
1.96604304098627,-291.820816240867,-0.0140328720598852,291.806783368807,145.917424556463,-291.813799804837,145.896375248374
1.96820590461771,-290.562785039759,-0.0577059244428261,290.505079115317,145.310245482101,-290.533932077538,145.223686595437
1.97036876824916,-289.488520507124,-0.0970905181516525,289.391429988972,144.792805512638,-289.439975248048,144.64716973541
1.97253163188061,-288.603180246818,-0.115799160169564,288.487381086649,144.359489703494,-288.545280666733,144.18579096324
1.97469449551206,-287.803500862713,-0.106864208776264,287.696636653937,143.955182535745,-287.750068758325,143.79488622258
1.97685735914351,-286.821042003376,-0.0828272068557661,286.73821479652,143.451934605116,-286.779628399948,143.327693794832
1.97902022277495,-285.207747644692,-0.0644083261881648,285.143339318504,142.63607798544,-285.175543481598,142.539465496158
1.9811830864064,-282.360710594139,-0.0643672044915233,282.296343389648,141.212538899315,-282.328526991893,141.115988092578
1.98334595003785,-277.602706595943,-0.0827124996617737,277.519994096282,138.842709547803,-277.561350346112,138.71864079831
1.9855088136693,-270.357174476566,-0.106698455694801,270.250476020871,135.23193646613,-270.303825248718,135.071888782588
1.98767167730075,-260.383409994461,-0.115607899745595,260.267802094716,130.249508947103,-260.325606044589,130.076097097485
1.98983454093219,-247.928205549858,-0.0968825627986351,247.83132298706,124.012544056328,-247.879764268459,123.86722021213
1.99199740456364,-233.658763104583,-0.0574436624232362,233.60131944216,116.858103383503,-233.630041273371,116.771937889868
1.99416026819509,-218.398282879782,-0.0135935944606088,218.384689285321,109.205938237121,-218.391486082551,109.18554784543
1.99632313182654,-202.841332647741,0.0234525234026451,202.864785171144,101.408940062169,-202.853058909442,101.444118847273
1.99848599545799,-187.435870797843,0.049946792203984,187.485817590047,93.6929620028196,-187.460844193945,93.7678821911256
2.00064885908943,-172.478192206458,0.06646691708787,172.544659123546,86.2058626446853,-172.511425665002,86.3055630203171
2.00281172272088,-158.288894692494,0.0754740363791024,158.364368728873,79.1067103280574,-158.326631710684,79.2199213826261
2.00497458635233,-145.289982948131,0.0796652566240957,145.369648204755,72.6051588457536,-145.329815576443,72.7246567306897
2.00713744998378,-133.937852695681,0.0809964220705122,134.018849117751,66.9284281368052,-133.978350906716,67.049922769911
2.00930031361523,-124.591550058429,0.0801885574209872,124.67173861585,62.2556807505038,-124.631644337139,62.3759635866353
2.01146317724667,-117.390798019758,0.0765696700874912,117.467367689846,58.6571141748353,-117.429082854802,58.7719686799665
2.01362604087812,-112.175356485724,0.0681957971971519,112.243552282921,56.0535803442633,-112.209454384322,56.155874040059
2.01578890450957,-108.443558712347,0.0523051938961927,108.495863906243,54.1956267592253,-108.469711309295,54.2740845500696
2.01795176814102,-105.367135174491,0.0262552777881108,105.393390452279,52.6704399483513,-105.380262813385,52.7098228650334
2.02011463177247,-101.941270703183,-0.010862780757266,101.930407922426,50.9760667419703,-101.935839312805,50.9597725708344
2.02227749540391,-97.2964478422,-0.0557888285936737,97.2406590136063,48.6761183353968,-97.2685534279032,48.5924350925063
2.02444035903536,-91.0456174563965,-0.0979025327359346,90.9477149236606,45.5717599945662,-90.9966661900285,45.4249061954623
2.02660322266681,-83.4404318430521,-0.121455778278822,83.3189760647733,41.7809438106655,-83.3797039539127,41.5987601432472
2.02876608629826,-75.1802868102898,-0.119750364972323,75.0605364453175,37.650018587631,-75.1204116278036,37.4703930401726
2.03092894992971,-67.0164182567737,-0.104769445233304,66.9116488115404,33.5605938510035,-66.9640335341571,33.4034396831536
2.03309181356115,-59.4697289307933,-0.0952219152828615,59.3745070155104,29.7824754230381,-59.4221179731518,29.6396425501138
2.0352546771926,-52.7475289664975,-0.0996997714962055,52.6478291950013,26.4236143689969,-52.6976790807494,26.2740647117525
2.03741754082405,-46.7314323889601,-0.111331613627127,46.620100775333,23.4213820012936,-46.6757665821466,23.2543845808529
2.0395804044555,-41.0125643560272,-0.113473249438117,40.899091106589,20.5630188027326,-40.9558277313081,20.3928089285755
2.04174326808695,-35.0510041091686,-0.096716838009072,34.9542872711595,17.5738604735888,-35.0026456901641,17.4287852165752
2.0439061317184,-28.4074111399943,-0.0706371850828695,28.3367739549115,14.2390241625386,-28.3720925474529,14.1330683849143
2.04606899534984,-20.8942545448602,-0.0533532096503369,20.8409013352099,10.4738038772553,-20.8675779400351,10.3937740627798
2.04823185898129,-12.6320018629556,-0.0557321514513485,12.5762697115042,6.34386700720346,-12.6041357872299,6.26026878002644
2.05039472261274,-4.04670758989505,-0.0766100578845391,3.97009753201051,2.06165882388979,-4.00840256095278,1.94674373706299
2.05255758624419,4.27010019895067,-0.102638605304632,-4.3727388042553,-2.08373079682302,4.32141950160299,-2.23768870477997
2.05472044987564,11.8126763403388,-0.11287358308676,-11.9255499234256,-5.84990137862604,11.8691131318822,-6.01921175325618
2.05688331350708,18.3288780993835,-0.0947326145190479,-18.4236107139025,-9.11707274243221,18.376244406643,-9.25917166421078
2.05904617713853,23.820990028565,-0.0551961917114985,-23.8761862202765,-11.8828969184268,23.8485881244208,-11.965691205994
2.06120904076998,28.4423029311467,-0.0106523075823621,-28.4529552387291,-14.2158253117822,28.4476290849379,-14.2318037731557
2.06337190440143,32.3751523770197,0.0275685174620903,-32.3475838595576,-16.2013604472409,32.3613681182887,-16.1600076710478
2.06553476803288,35.7805543589463,0.0555171603624412,-35.7250371985839,-17.9180357596544,35.7527957787651,-17.8347600191107
2.06769763166432,38.817254496129,0.0733896397016476,-38.7438648564273,-19.4453220679153,38.7805596762781,-19.3352376083628
2.06986049529577,41.6404070887403,0.0829757442614711,-41.5574313444788,-20.8616914165009,41.5989192166096,-20.7372278001087
2.07202335892722,44.3768798331777,0.0859291983132503,-44.2909506348644,-22.2314045157455,44.333915234021,-22.1025107182756
2.07418622255867,47.1157477177275,0.0828010495980654,-47.0329466681294,-23.5992743836628,47.0743471929284,-23.4750728092657
2.07634908619012,49.8745474434066,0.0727441420594105,-49.8018033013472,-24.973645792733,49.8381753723769,-24.8645295796439
2.07851194982156,52.5238429373539,0.0538563627160502,-52.4699865746379,-26.288849650035,52.4969147559959,-26.2080651059609
2.08067481345301,54.7584128006067,0.0242190626251424,-54.7341937379816,-27.3913159316159,54.7463032692942,-27.3549873376782
2.08283767708446,56.1798026221738,-0.0162589275478204,-56.1960615497217,-28.081771847313,56.1879320859478,-28.1061602386347
2.08500054071591,56.4561610552162,-0.063128547444547,-56.5192896026607,-28.1965162538858,56.4877253289384,-28.2912090750526
2.08716340434736,55.5290928898179,-0.103975001404182,-55.6330678912221,-27.7125589442069,55.58108039052,-27.8685214463131
2.0893262679788,53.7885217925873,-0.120581574352978,-53.9091033669403,-26.8339701091172,53.8488125797638,-27.0148424706466
2.09148913161025,52.0339278873236,-0.103372125581185,-52.1373000129047,-25.9652778808712,52.0856139501142,-26.120336069243
2.0936519952417,51.1660253939741,-0.0618495892239406,-51.227874983198,-25.5520879023751,51.1969501885861,-25.644862286211
2.09581485887315,51.7879714902105,-0.0142030356761127,-51.8021745258866,-25.8868842272672,51.7950730080485,-25.9081887807813
