t,leadI,leadII,leadIII,aVR,aVL,aVF
0,387,342,-45,-364.5,216,148.5
0.00281293952180028,367,338,-29,-352.5,198,154.5
0.00562587904360056,344,337,-7,-340.5,175.5,165
0.00843881856540084,336,334,-2,-335,169,166
0.0112517580872011,337,331,-6,-334,171.5,162.5
0.0140646976090014,337,326,-11,-331.5,174,157.5
0.0168776371308017,334,321,-13,-327.5,173.5,154
0.019690576652602,325,317,-8,-321,166.5,154.5
0.0225035161744023,310,316,6,-313,152,161
0.0253164556962025,303,310,7,-306.5,148,158.5
0.0281293952180028,303,304,1,-303.5,151,152.5
0.0309423347398031,306,303,-3,-304.5,154.5,150
0.0337552742616034,310,304,-6,-307,158,149
0.0365682137834037,310,301,-9,-305.5,159.5,146
0.0393811533052039,300,303,3,-301.5,148.5,153
0.0421940928270042,290,303,13,-296.5,138.5,158
0.0450070323488045,291,298,7,-294.5,142,152.5
0.0478199718706048,298,295,-3,-296.5,150.5,146
0.0506329113924051,301,293,-8,-297,154.5,142.5
0.0534458509142053,302,294,-8,-298,155,143
0.0562587904360056,294,295,1,-294.5,146.5,148
0.0590717299578059,285,293,8,-289,138.5,150.5
0.0618846694796062,281,293,12,-287,134.5,152.5
0.0646976090014065,285,290,5,-287.5,140,147.5
0.0675105485232067,290,291,1,-290.5,144.5,146
0.070323488045007,294,289,-5,-291.5,149.5,142
0.0731364275668073,293,291,-2,-292,147.5,144.5
0.0759493670886076,284,292,8,-288,138,150
0.0787623066104079,277,290,13,-283.5,132,151.5
0.0815752461322082,282,289,7,-285.5,137.5,148
0.0843881856540084,290,292,2,-291,144,147
0.0872011251758087,295,293,-2,-294,148.5,145.5
0.090014064697609,293,292,-1,-292.5,147,145.5
0.0928270042194093,288,290,2,-289,143,146
0.0956399437412096,279,290,11,-284.5,134,150.5
0.0984528832630098,280,293,13,-286.5,133.5,153
0.10126582278481,285,289,4,-287,140.5,146.5
0.10407876230661,294,294,0,-294,147,147
0.106891701828411,297,294,-3,-295.5,150,145.5
0.109704641350211,294,295,1,-294.5,146.5,148
0.112517580872011,286,294,8,-290,139,151
0.115330520393812,280,294,14,-287,133,154
0.118143459915612,286,294,8,-290,139,151
0.120956399437412,293,294,1,-293.5,146,147.5
0.123769338959212,297,294,-3,-295.5,150,145.5
0.126582278481013,298,296,-2,-297,150,147
0.129395218002813,290,296,6,-293,142,151
0.132208157524613,283,294,11,-288.5,136,152.5
0.135021097046413,283,294,11,-288.5,136,152.5
0.137834036568214,291,294,3,-292.5,144,148.5
0.140646976090014,297,296,-1,-296.5,149,147.5
0.143459915611814,298,295,-3,-296.5,150.5,146
0.146272855133615,296,297,1,-296.5,147.5,149
0.149085794655415,287,295,8,-291,139.5,151.5
0.151898734177215,282,295,13,-288.5,134.5,154
0.154711673699015,291,296,5,-293.5,143,150.5
0.157524613220816,297,298,1,-297.5,148,149.5
0.160337552742616,302,300,-2,-301,152,149
0.163150492264416,303,302,-1,-302.5,152,150.5
0.165963431786217,293,302,9,-297.5,142,155.5
0.168776371308017,287,300,13,-293.5,137,156.5
0.171589310829817,291,301,10,-296,140.5,155.5
0.174402250351617,297,300,3,-298.5,147,151.5
0.177215189873418,300,297,-3,-298.5,151.5,147
0.180028129395218,301,297,-4,-299,152.5,146.5
0.182841068917018,294,298,4,-296,145,151
0.185654008438819,284,295,11,-289.5,136.5,153
0.188466947960619,284,297,13,-290.5,135.5,155
0.191279887482419,292,298,6,-295,143,152
0.194092827004219,298,299,1,-298.5,148.5,150
0.19690576652602,303,296,-7,-299.5,155,144.5
0.19971870604782,299,301,2,-300,148.5,151.5
0.20253164556962,289,298,9,-293.5,140,153.5
0.205344585091421,286,301,15,-293.5,135.5,158
0.208157524613221,294,302,8,-298,143,155
0.210970464135021,301,301,0,-301,150.5,150.5
0.213783403656821,305,303,-2,-304,153.5,150.5
0.216596343178622,306,304,-2,-305,154,151
0.219409282700422,299,306,7,-302.5,146,156.5
0.222222222222222,293,303,10,-298,141.5,156.5
0.225035161744022,293,304,11,-298.5,141,157.5
0.227848101265823,302,306,4,-304,149,155
0.230661040787623,309,304,-5,-306.5,157,149.5
0.233473980309423,312,309,-3,-310.5,157.5,153
0.236286919831224,307,307,0,-307,153.5,153.5
0.239099859353024,296,309,13,-302.5,141.5,161
0.241912798874824,295,305,10,-300,142.5,157.5
0.244725738396624,301,305,4,-303,148.5,154.5
0.247538677918425,308,310,2,-309,153,156
0.250351617440225,315,313,-2,-314,158.5,155.5
0.253164556962025,316,314,-2,-315,159,156
0.255977496483826,310,320,10,-315,150,165
0.258790436005626,305,320,15,-312.5,145,167.5
0.261603375527426,310,318,8,-314,151,163
0.264416315049226,318,318,0,-318,159,159
0.267229254571027,322,316,-6,-319,164,155
0.270042194092827,322,318,-4,-320,163,157
0.272855133614627,316,318,2,-317,157,160
0.275668073136428,306,318,12,-312,147,165
0.278481012658228,305,315,10,-310,147.5,162.5
0.281293952180028,310,314,4,-312,153,159
0.284106891701828,314,311,-3,-312.5,158.5,154
0.286919831223629,316,308,-8,-312,162,150
0.289732770745429,309,308,-1,-308.5,155,153.5
0.292545710267229,298,306,8,-302,145,157
0.29535864978903,293,304,11,-298.5,141,157.5
0.29817158931083,297,304,7,-300.5,145,155.5
0.30098452883263,301,303,2,-302,149.5,152.5
0.30379746835443,305,299,-6,-302,155.5,146.5
0.306610407876231,302,297,-5,-299.5,153.5,146
0.309423347398031,295,297,2,-296,146.5,149.5
0.312236286919831,286,298,12,-292,137,155
0.315049226441632,285,294,9,-289.5,138,151.5
0.317862165963432,292,295,3,-293.5,144.5,149
0.320675105485232,296,293,-3,-294.5,149.5,145
0.323488045007032,299,292,-7,-295.5,153,142.5
0.326300984528833,294,296,2,-295,146,149
0.329113924050633,285,292,7,-288.5,139,149.5
0.331926863572433,281,295,14,-288,133.5,154.5
0.334739803094233,288,292,4,-290,142,148
0.337552742616034,295,294,-1,-294.5,148,146.5
0.340365682137834,299,293,-6,-296,152.5,143.5
0.343178621659634,297,297,0,-297,148.5,148.5
0.345991561181435,289,297,8,-293,140.5,152.5
0.348804500703235,280,295,15,-287.5,132.5,155
0.351617440225035,281,292,11,-286.5,135,151.5
0.354430379746835,288,288,0,-288,144,144
0.357243319268636,291,285,-6,-288,148.5,139.5
0.360056258790436,291,287,-4,-289,147.5,141.5
0.362869198312236,285,284,-1,-284.5,143,141.5
0.365682137834037,277,285,8,-281,134.5,146.5
0.368495077355837,276,289,13,-282.5,131.5,151
0.371308016877637,284,286,2,-285,141,144
0.374120956399437,290,289,-1,-289.5,145.5,144
0.376933895921238,298,294,-4,-296,151,145
0.379746835443038,306,313,7,-309.5,149.5,160
0.382559774964838,316,335,19,-325.5,148.5,177
0.385372714486639,336,368,32,-352,152,200
0.388185654008439,369,402,33,-385.5,168,217.5
0.390998593530239,406,437,31,-421.5,187.5,234
0.393811533052039,437,464,27,-450.5,205,245.5
0.39662447257384,455,471,16,-463,219.5,243.5
0.39943741209564,447,464,17,-455.5,215,240.5
0.40225035161744,421,436,15,-428.5,203,225.5
0.405063291139241,397,398,1,-397.5,198,199.5
0.407876230661041,375,362,-13,-368.5,194,174.5
0.410689170182841,351,325,-26,-338,188.5,149.5
0.413502109704641,327,299,-28,-313,177.5,135.5
0.416315049226442,307,284,-23,-295.5,165,130.5
0.419127988748242,287,282,-5,-284.5,146,138.5
0.421940928270042,282,283,1,-282.5,140.5,142
0.424753867791842,290,290,0,-290,145,145
0.427566807313643,301,295,-6,-298,153.5,144.5
0.430379746835443,307,302,-5,-304.5,156,148.5
0.433192686357243,306,305,-1,-305.5,153.5,152
0.436005625879044,296,304,8,-300,144,156
0.438818565400844,288,302,14,-295,137,158
0.441631504922644,289,300,11,-294.5,139,155.5
0.444444444444444,296,298,2,-297,147,150
0.447257383966245,303,301,-2,-302,152.5,149.5
0.450070323488045,303,299,-4,-301,153.5,147.5
0.452883263009845,299,302,3,-300.5,148,152.5
0.455696202531646,288,302,14,-295,137,158
0.458509142053446,286,298,12,-292,137,155
0.461322081575246,294,296,2,-295,146,149
0.464135021097046,299,295,-4,-297,151.5,145.5
0.466947960618847,302,297,-5,-299.5,153.5,146
0.469760900140647,300,299,-1,-299.5,150.5,149
0.472573839662447,293,298,5,-295.5,144,151.5
0.475386779184248,286,299,13,-292.5,136.5,156
0.478199718706048,291,299,8,-295,141.5,153.5
0.481012658227848,300,304,4,-302,148,154
0.483825597749648,307,305,-2,-306,154.5,151.5
0.486638537271449,306,303,-3,-304.5,154.5,150
0.489451476793249,301,307,6,-304,147.5,156.5
0.492264416315049,291,304,13,-297.5,139,158.5
0.49507735583685,294,304,10,-299,142,157
0.49789029535865,303,307,4,-305,149.5,155.5
0.50070323488045,307,303,-4,-305,155.5,149.5
0.50351617440225,310,304,-6,-307,158,149
0.506329113924051,304,306,2,-305,151,154
0.509142053445851,297,309,12,-303,142.5,160.5
0.511954992967651,296,311,15,-303.5,140.5,163
0.514767932489452,303,311,8,-307,147.5,159.5
0.517580872011252,310,310,0,-310,155,155
0.520393811533052,315,312,-3,-313.5,159,154.5
0.523206751054852,313,313,0,-313,156.5,156.5
0.526019690576653,306,314,8,-310,149,161
0.528832630098453,302,316,14,-309,144,165
0.531645569620253,305,315,10,-310,147.5,162.5
0.534458509142053,314,317,3,-315.5,155.5,160
0.537271448663854,319,318,-1,-318.5,160,158.5
0.540084388185654,319,319,0,-319,159.5,159.5
0.542897327707454,314,315,1,-314.5,156.5,158
0.545710267229255,306,317,11,-311.5,147.5,164
0.548523206751055,306,318,12,-312,147,165
0.551336146272855,315,320,5,-317.5,155,162.5
0.554149085794655,322,323,1,-322.5,160.5,162
0.556962025316456,326,323,-3,-324.5,164.5,160
0.559774964838256,327,327,0,-327,163.5,163.5
0.562587904360056,319,329,10,-324,154.5,169.5
0.565400843881857,313,328,15,-320.5,149,171.5
0.568213783403657,319,325,6,-322,156.5,165.5
0.571026722925457,327,328,1,-327.5,163,164.5
0.573839662447257,331,329,-2,-330,166.5,163.5
0.576652601969058,333,328,-5,-330.5,169,161.5
0.579465541490858,327,329,2,-328,162.5,165.5
0.582278481012658,320,336,16,-328,152,176
0.585091420534459,322,337,15,-329.5,153.5,176
0.587904360056259,333,338,5,-335.5,164,171.5
0.590717299578059,341,342,1,-341.5,170,171.5
0.593530239099859,343,341,-2,-342,172.5,169.5
0.59634317862166,340,343,3,-341.5,168.5,173
0.59915611814346,331,344,13,-337.5,159,178.5
0.60196905766526,330,343,13,-336.5,158.5,178
0.60478199718706,335,340,5,-337.5,165,172.5
0.607594936708861,343,341,-2,-342,172.5,169.5
0.610407876230661,346,344,-2,-345,174,171
0.613220815752461,345,344,-1,-344.5,173,171.5
0.616033755274262,338,346,8,-342,165,177
0.618846694796062,333,347,14,-340,159.5,180.5
0.621659634317862,338,350,12,-344,163,181
0.624472573839662,348,352,4,-350,172,178
0.627285513361463,354,352,-2,-353,178,175
0.630098452883263,354,351,-3,-352.5,178.5,174
0.632911392405063,348,350,2,-349,173,176
0.635724331926864,339,349,10,-344,164.5,179.5
0.638537271448664,337,350,13,-343.5,162,181.5
0.641350210970464,342,347,5,-344.5,168.5,176
0.644163150492264,346,345,-1,-345.5,173.5,172
0.646976090014065,345,340,-5,-342.5,175,167.5
0.649789029535865,341,338,-3,-339.5,172,167.5
0.652601969057665,329,337,8,-333,160.5,172.5
0.655414908579465,324,335,11,-329.5,156.5,173
0.658227848101266,326,331,5,-328.5,160.5,168
0.661040787623066,330,328,-2,-329,166,163
0.663853727144866,332,325,-7,-328.5,169.5,159
0.666666666666667,328,319,-9,-323.5,168.5,155
0.669479606188467,316,316,0,-316,158,158
0.672292545710267,302,311,9,-306.5,146.5,160
0.675105485232067,300,309,9,-304.5,145.5,159
0.677918424753868,305,303,-2,-304,153.5,150.5
0.680731364275668,308,302,-6,-305,157,148
0.683544303797468,308,302,-6,-305,157,148
0.686357243319269,304,302,-2,-303,153,150
0.689170182841069,292,300,8,-296,142,154
0.691983122362869,287,297,10,-292,138.5,153.5
0.694796061884669,291,295,4,-293,143.5,149.5
0.69760900140647,295,294,-1,-294.5,148,146.5
0.70042194092827,300,295,-5,-297.5,152.5,145
0.70323488045007,300,298,-2,-299,151,148
0.706047819971871,293,298,5,-295.5,144,151.5
0.708860759493671,285,297,12,-291,136.5,154.5
0.711673699015471,288,297,9,-292.5,139.5,153
0.714486638537271,294,296,2,-295,146,149
0.717299578059072,298,296,-2,-297,150,147
0.720112517580872,300,295,-5,-297.5,152.5,145
0.722925457102672,293,297,4,-295,144.5,150.5
0.725738396624473,286,298,12,-292,137,155
0.728551336146273,285,296,11,-290.5,137,153.5
0.731364275668073,290,296,6,-293,142,151
0.734177215189873,296,296,0,-296,148,148
0.736990154711674,299,297,-2,-298,150.5,147.5
0.739803094233474,298,296,-2,-297,150,147
0.742616033755274,289,297,8,-293,140.5,152.5
0.745428973277075,284,297,13,-290.5,135.5,155
0.748241912798875,286,295,9,-290.5,138.5,152
0.751054852320675,294,296,2,-295,146,149
0.753867791842475,300,298,-2,-299,151,148
0.756680731364276,302,299,-3,-300.5,152.5,148
0.759493670886076,296,300,4,-298,146,152
0.762306610407876,285,299,14,-292,135.5,156.5
0.765119549929676,287,299,12,-293,137.5,155.5
0.767932489451477,294,298,4,-296,145,151
0.770745428973277,302,299,-3,-300.5,152.5,148
0.773558368495077,305,303,-2,-304,153.5,150.5
0.776371308016878,302,302,0,-302,151,151
0.779184247538678,291,301,10,-296,140.5,155.5
0.781997187060478,289,301,12,-295,138.5,156.5
0.784810126582278,295,302,7,-298.5,144,154.5
0.787623066104079,302,302,0,-302,151,151
0.790436005625879,306,304,-2,-305,154,151
0.793248945147679,304,302,-2,-303,153,150
0.79606188466948,296,302,6,-299,145,154
0.79887482419128,288,300,12,-294,138,156
0.80168776371308,291,300,9,-295.5,141,154.5
0.80450070323488,298,301,3,-299.5,147.5,152
0.807313642756681,307,305,-2,-306,154.5,151.5
0.810126582278481,309,306,-3,-307.5,156,151.5
0.812939521800281,305,306,1,-305.5,152,153.5
0.815752461322082,293,305,12,-299,140.5,158.5
0.818565400843882,291,303,12,-297,139.5,157.5
0.821378340365682,299,304,5,-301.5,147,154.5
0.824191279887482,306,305,-1,-305.5,153.5,152
0.827004219409283,308,306,-2,-307,155,152
0.829817158931083,308,306,-2,-307,155,152
0.832630098452883,298,306,8,-302,145,157
0.835443037974684,292,306,14,-299,139,160
0.838255977496484,296,304,8,-300,144,156
0.841068917018284,303,305,2,-304,150.5,153.5
0.843881856540084,309,306,-3,-307.5,156,151.5
0.846694796061885,311,308,-3,-309.5,157,152.5
0.849507735583685,303,307,4,-305,149.5,155.5
0.852320675105485,295,307,12,-301,141.5,159.5
0.855133614627286,297,305,8,-301,144.5,156.5
0.857946554149086,304,310,6,-307,149,158
0.860759493670886,311,311,0,-311,155.5,155.5
0.863572433192686,315,316,1,-315.5,157,158.5
0.866385372714487,314,316,2,-315,156,159
0.869198312236287,306,314,8,-310,149,161
0.872011251758087,300,313,13,-306.5,143.5,163
0.874824191279888,306,312,6,-309,150,159
0.877637130801688,314,313,-1,-313.5,157.5,156
0.880450070323488,321,318,-3,-319.5,162,157.5
0.883263009845288,322,321,-1,-321.5,161.5,160
0.886075949367089,315,324,9,-319.5,153,166.5
0.888888888888889,310,325,15,-317.5,147.5,170
0.891701828410689,315,327,12,-321,151.5,169.5
0.894514767932489,324,329,5,-326.5,159.5,167
0.89732770745429,331,329,-2,-330,166.5,163.5
0.90014064697609,331,328,-3,-329.5,167,162.5
0.90295358649789,325,327,2,-326,161.5,164.5
0.905766526019691,314,327,13,-320.5,150.5,170
0.908579465541491,312,324,12,-318,150,168
0.911392405063291,318,323,5,-320.5,156.5,164
0.914205344585091,323,323,0,-323,161.5,161.5
0.917018284106892,324,321,-3,-322.5,163.5,159
0.919831223628692,323,320,-3,-321.5,163,158.5
0.922644163150492,314,319,5,-316.5,154.5,162
0.925457102672293,305,316,11,-310.5,147,163.5
0.928270042194093,308,314,6,-311,151,160
0.931082981715893,314,312,-2,-313,158,155
0.933895921237693,316,310,-6,-313,161,152
0.936708860759494,315,307,-8,-311,161.5,149.5
0.939521800281294,306,308,2,-307,152,155
0.942334739803094,297,306,9,-301.5,144,157.5
0.945147679324895,296,303,7,-299.5,144.5,155
0.947960618846695,301,307,6,-304,147.5,156.5
0.950773558368495,308,307,-1,-307.5,154.5,153
0.953586497890295,310,304,-6,-307,158,149
0.956399437412096,305,303,-2,-304,153.5,150.5
0.959212376933896,295,304,9,-299.5,143,156.5
0.962025316455696,293,306,13,-299.5,140,159.5
0.964838255977497,295,302,7,-298.5,144,154.5
0.967651195499297,302,302,0,-302,151,151
0.970464135021097,306,302,-4,-304,155,149
0.973277074542897,306,304,-2,-305,154,151
0.976090014064698,299,305,6,-302,146.5,155.5
0.978902953586498,294,308,14,-301,140,161
0.981715893108298,297,307,10,-302,143.5,158.5
0.984528832630098,301,303,2,-302,149.5,152.5
0.987341772151899,305,302,-3,-303.5,154,149.5
0.990154711673699,306,299,-7,-302.5,156.5,146
0.992967651195499,299,299,0,-299,149.5,149.5
0.9957805907173,288,298,10,-293,139,154
0.9985935302391,283,294,11,-288.5,136,152.5
1.0014064697609,289,293,4,-291,142.5,148.5
1.0042194092827,297,296,-1,-296.5,149,147.5
1.0070323488045,299,294,-5,-296.5,152,144.5
1.0098452883263,299,299,0,-299,149.5,149.5
1.0126582278481,302,317,15,-309.5,143.5,166
1.0154711673699,315,340,25,-327.5,145,182.5
1.0182841068917,344,373,29,-358.5,157.5,201
1.0210970464135,380,402,22,-391,179,212
1.0239099859353,414,439,25,-426.5,194.5,232
1.0267229254571,443,470,27,-456.5,208,248.5
1.0295358649789,456,486,30,-471,213,258
1.0323488045007,452,483,31,-467.5,210.5,257
1.0351617440225,444,462,18,-453,213,240
1.0379746835443,429,426,-3,-427.5,216,211.5
1.0407876230661,406,391,-15,-398.5,210.5,188
1.0436005625879,379,356,-23,-367.5,201,166.5
1.0464135021097,353,327,-26,-340,189.5,150.5
1.0492264416315,323,308,-15,-315.5,169,146.5
1.05203938115331,307,300,-7,-303.5,157,146.5
1.05485232067511,307,300,-7,-303.5,157,146.5
1.05766526019691,313,302,-11,-307.5,162,145.5
1.06047819971871,317,309,-8,-313,162.5,150.5
1.06329113924051,319,310,-9,-314.5,164,150.5
1.06610407876231,310,314,4,-312,153,159
1.06891701828411,302,315,13,-308.5,144.5,164
1.07172995780591,304,314,10,-309,147,162
1.07454289732771,308,308,0,-308,154,154
1.07735583684951,309,305,-4,-307,156.5,150.5
1.08016877637131,310,305,-5,-307.5,157.5,150
1.08298171589311,307,304,-3,-305.5,155,150.5
1.08579465541491,296,308,12,-302,142,160
1.08860759493671,295,308,13,-301.5,141,160.5
1.09142053445851,303,309,6,-306,148.5,157.5
1.09423347398031,308,308,0,-308,154,154
1.09704641350211,311,308,-3,-309.5,157,152.5
1.09985935302391,311,310,-1,-310.5,156,154.5
1.10267229254571,302,312,10,-307,146,161
1.10548523206751,296,313,17,-304.5,139.5,165
1.10829817158931,302,311,9,-306.5,146.5,160
1.11111111111111,309,312,3,-310.5,153,157.5
1.11392405063291,312,310,-2,-311,157,154
1.11673699015471,311,310,-1,-310.5,156,154.5
1.11954992967651,308,310,2,-309,153,156
1.12236286919831,301,314,13,-307.5,144,163.5
1.12517580872011,302,311,9,-306.5,146.5,160
1.12798874824191,309,314,5,-311.5,152,159.5
1.13080168776371,314,314,0,-314,157,157
1.13361462728551,319,315,-4,-317,161.5,155.5
1.13642756680731,317,319,2,-318,157.5,160.5
1.13924050632911,308,320,12,-314,148,166
1.14205344585091,304,322,18,-313,143,170
1.14486638537271,314,319,5,-316.5,154.5,162
1.14767932489451,320,322,2,-321,159,162
1.15049226441632,325,320,-5,-322.5,165,157.5
1.15330520393812,325,320,-5,-322.5,165,157.5
1.15611814345992,315,322,7,-318.5,154,164.5
1.15893108298172,307,322,15,-314.5,146,168.5
1.16174402250352,311,322,11,-316.5,150,166.5
1.16455696202532,318,323,5,-320.5,156.5,164
1.16736990154712,325,323,-2,-324,163.5,160.5
1.17018284106892,328,327,-1,-327.5,164.5,163
1.17299578059072,325,331,6,-328,159.5,168.5
1.17580872011252,317,330,13,-323.5,152,171.5
1.17862165963432,316,331,15,-323.5,150.5,173
1.18143459915612,324,331,7,-327.5,158.5,169
1.18424753867792,332,332,0,-332,166,166
1.18706047819972,334,331,-3,-332.5,168.5,164
1.18987341772152,334,331,-3,-332.5,168.5,164
1.19268635724332,325,334,9,-329.5,158,171.5
1.19549929676512,319,335,16,-327,151.5,175.5
1.19831223628692,323,331,8,-327,157.5,169.5
1.20112517580872,335,338,3,-336.5,166,170.5
1.20393811533052,340,340,0,-340,170,170
1.20675105485232,341,343,2,-342,169.5,172.5
1.20956399437412,338,341,3,-339.5,167.5,172
1.21237693389592,328,341,13,-334.5,157.5,177
1.21518987341772,331,342,11,-336.5,160,176.5
1.21800281293952,339,344,5,-341.5,167,174.5
1.22081575246132,345,343,-2,-344,173.5,170.5
1.22362869198312,347,343,-4,-345,175.5,169.5
1.22644163150492,345,346,1,-345.5,172,173.5
1.22925457102672,336,348,12,-342,162,180
1.23206751054852,332,350,18,-341,157,184
1.23488045007032,343,349,6,-346,168.5,177.5
1.23769338959212,350,352,2,-351,174,177
1.24050632911392,354,356,2,-355,176,179
1.24331926863572,357,355,-2,-356,179.5,176.5
1.24613220815752,349,356,7,-352.5,171,181.5
1.24894514767932,341,355,14,-348,163.5,184.5
1.25175808720113,342,357,15,-349.5,163.5,186
1.25457102672293,353,357,4,-355,174.5,180.5
1.25738396624473,358,357,-1,-357.5,179.5,178
1.26019690576653,363,359,-4,-361,183.5,177.5
1.26300984528833,358,361,3,-359.5,177.5,182
1.26582278481013,349,359,10,-354,169.5,184.5
1.26863572433193,347,361,14,-354,166.5,187.5
1.27144866385373,350,355,5,-352.5,172.5,180
1.27426160337553,355,355,0,-355,177.5,177.5
1.27707454289733,357,351,-6,-354,181.5,172.5
1.27988748241913,354,352,-2,-353,178,175
1.28270042194093,345,352,7,-348.5,169,179.5
1.28551336146273,338,350,12,-344,163,181
1.28832630098453,340,347,7,-343.5,166.5,177
1.29113924050633,343,342,-1,-342.5,172,170.5
1.29395218002813,344,339,-5,-341.5,174.5,167
1.29676511954993,340,336,-4,-338,172,166
1.29957805907173,330,330,0,-330,165,165
1.30239099859353,320,329,9,-324.5,155.5,169
1.30520393811533,316,325,9,-320.5,153.5,167
1.30801687763713,321,323,2,-322,159.5,162.5
1.31082981715893,326,317,-9,-321.5,167.5,154
1.31364275668073,324,315,-9,-319.5,166.5,153
1.31645569620253,318,314,-4,-316,161,155
1.31926863572433,307,310,3,-308.5,152,156.5
1.32208157524613,300,311,11,-305.5,144.5,161
1.32489451476793,305,309,4,-307,150.5,156.5
1.32770745428973,312,309,-3,-310.5,157.5,153
1.33052039381153,314,309,-5,-311.5,159.5,152
1.33333333333333,311,306,-5,-308.5,158,150.5
1.33614627285513,301,304,3,-302.5,149,153.5
1.33895921237693,294,303,9,-298.5,142.5,156
1.34177215189873,294,305,11,-299.5,141.5,158
1.34458509142053,304,305,1,-304.5,151.5,153
1.34739803094233,307,304,-3,-305.5,155,150.5
1.35021097046413,309,305,-4,-307,156.5,150.5
1.35302390998594,305,306,1,-305.5,152,153.5
1.35583684950774,294,303,9,-298.5,142.5,156
1.35864978902954,289,299,10,-294,139.5,154.5
1.36146272855134,296,303,7,-299.5,144.5,155
1.36427566807314,303,304,1,-303.5,151,152.5
1.36708860759494,308,303,-5,-305.5,156.5,149
1.36990154711674,306,304,-2,-305,154,151
1.37271448663854,300,306,6,-303,147,156
1.37552742616034,293,308,15,-300.5,139,161.5
1.37834036568214,298,309,11,-303.5,143.5,160
1.38115330520394,305,308,3,-306.5,151,155.5
1.38396624472574,311,309,-2,-310,156.5,153.5
1.38677918424754,311,309,-2,-310,156.5,153.5
1.38959212376934,306,309,3,-307.5,151.5,156
1.39240506329114,295,307,12,-301,141.5,159.5
1.39521800281294,295,307,12,-301,141.5,159.5
1.39803094233474,305,308,3,-306.5,151,155.5
1.40084388185654,311,311,0,-311,155.5,155.5
1.40365682137834,312,308,-4,-310,158,152
1.40646976090014,309,307,-2,-308,155.5,152.5
1.40928270042194,302,307,5,-304.5,148.5,156
1.41209563994374,295,310,15,-302.5,140,162.5
1.41490857946554,301,308,7,-304.5,147,157.5
1.41772151898734,306,305,-1,-305.5,153.5,152
1.42053445850914,310,306,-4,-308,157,151
1.42334739803094,311,309,-2,-310,156.5,153.5
1.42616033755274,305,313,8,-309,148.5,160.5
1.42897327707454,300,314,14,-307,143,164
1.43178621659634,302,312,10,-307,146,161
1.43459915611814,308,311,3,-309.5,152.5,157
1.43741209563994,313,309,-4,-311,158.5,152.5
1.44022503516174,313,310,-3,-311.5,158,153.5
1.44303797468354,307,308,1,-307.5,153,154.5
1.44585091420534,298,310,12,-304,143,161
1.44866385372714,299,311,12,-305,143.5,161.5
1.45147679324895,306,313,7,-309.5,149.5,160
1.45428973277075,312,315,3,-313.5,154.5,159
1.45710267229255,315,313,-2,-314,158.5,155.5
1.45991561181435,314,311,-3,-312.5,158.5,154
1.46272855133615,304,313,9,-308.5,147.5,161
1.46554149085795,298,311,13,-304.5,142.5,162
1.46835443037975,302,311,9,-306.5,146.5,160
1.47116736990155,310,313,3,-311.5,153.5,158
1.47398030942335,313,314,1,-313.5,156,157.5
1.47679324894515,319,314,-5,-316.5,162,154.5
1.47960618846695,315,321,6,-318,154.5,163.5
1.48241912798875,309,324,15,-316.5,147,169.5
1.48523206751055,310,323,13,-316.5,148.5,168
1.48804500703235,316,322,6,-319,155,164
1.49085794655415,322,319,-3,-320.5,162.5,158
1.49367088607595,323,319,-4,-321,163.5,157.5
1.49648382559775,321,321,0,-321,160.5,160.5
1.49929676511955,313,322,9,-317.5,152,165.5
1.50210970464135,309,324,15,-316.5,147,169.5
1.50492264416315,316,325,9,-320.5,153.5,167
1.50773558368495,325,325,0,-325,162.5,162.5
1.51054852320675,331,328,-3,-329.5,167,162.5
1.51336146272855,332,332,0,-332,166,166
1.51617440225035,325,333,8,-329,158.5,170.5
1.51898734177215,315,330,15,-322.5,150,172.5
1.52180028129395,318,329,11,-323.5,153.5,170
1.52461322081575,327,328,1,-327.5,163,164.5
1.52742616033755,330,328,-2,-329,166,163
1.53023909985935,331,327,-4,-329,167.5,161.5
1.53305203938115,326,327,1,-326.5,162.5,164
1.53586497890295,317,327,10,-322,153.5,168.5
1.53867791842475,315,329,14,-322,150.5,171.5
1.54149085794655,319,325,6,-322,156.5,165.5
1.54430379746835,322,320,-2,-321,162,159
1.54711673699015,322,317,-5,-319.5,163.5,156
1.54992967651196,319,316,-3,-317.5,161,156.5
1.55274261603376,309,315,6,-312,151.5,160.5
1.55555555555556,302,314,12,-308,145,163
1.55836849507736,304,313,9,-308.5,147.5,161
1.56118143459916,310,311,1,-310.5,154.5,156
1.56399437412096,316,313,-3,-314.5,159.5,155
1.56680731364276,317,310,-7,-313.5,162,151.5
1.56962025316456,307,311,4,-309,151.5,157.5
1.57243319268636,297,307,10,-302,143.5,158.5
1.57524613220816,297,306,9,-301.5,144,157.5
1.57805907172996,304,303,-1,-303.5,152.5,151
1.58087201125176,307,305,-2,-306,154.5,151.5
1.58368495077356,310,307,-3,-308.5,156.5,152
1.58649789029536,306,301,-5,-303.5,155.5,148
1.58931082981716,296,305,9,-300.5,143.5,157
1.59212376933896,290,304,14,-297,138,159
1.59493670886076,298,306,8,-302,145,157
1.59774964838256,307,309,2,-308,152.5,155.5
1.60056258790436,311,308,-3,-309.5,157,152.5
1.60337552742616,311,307,-4,-309,157.5,151.5
1.60618846694796,302,307,5,-304.5,148.5,156
1.60900140646976,293,307,14,-300,139.5,160.5
1.61181434599156,293,304,11,-298.5,141,157.5
1.61462728551336,298,301,3,-299.5,147.5,152
1.61744022503516,301,297,-4,-299,152.5,146.5
1.62025316455696,301,293,-8,-297,154.5,142.5
1.62306610407876,297,297,0,-297,148.5,148.5
1.62587904360056,288,298,10,-293,139,154
1.62869198312236,288,300,12,-294,138,156
1.63150492264416,298,305,7,-301.5,145.5,156
1.63431786216596,314,317,3,-315.5,155.5,160
1.63713080168776,335,347,12,-341,161.5,179.5
1.63994374120956,360,377,17,-368.5,171.5,197
1.64275668073136,380,412,32,-396,174,222
1.64556962025316,404,447,43,-425.5,180.5,245
1.64838255977496,437,476,39,-456.5,199,257.5
1.65119549929677,463,491,28,-477,217.5,259.5
1.65400843881857,472,485,13,-478.5,229.5,249
1.65682137834037,462,462,0,-462,231,231
1.65963431786217,432,430,-2,-431,217,214
1.66244725738397,395,394,-1,-394.5,198,196.5
1.66526019690577,366,354,-12,-360,189,171
1.66807313642757,344,322,-22,-333,183,150
1.67088607594937,328,302,-26,-315,177,138
1.67369901547117,319,298,-21,-308.5,170,138.5
1.67651195499297,317,302,-15,-309.5,166,143.5
1.67932489451477,309,310,1,-309.5,154,155.5
1.68213783403657,305,317,12,-311,146.5,164.5
1.68495077355837,311,319,8,-315,151.5,163.5
1.68776371308017,319,316,-3,-317.5,161,156.5
1.69057665260197,321,317,-4,-319,162.5,156.5
1.69338959212377,318,314,-4,-316,161,155
1.69620253164557,307,312,5,-309.5,151,158.5
1.69901547116737,296,308,12,-302,142,160
1.70182841068917,299,306,7,-302.5,146,156.5
1.70464135021097,305,305,0,-305,152.5,152.5
1.70745428973277,309,307,-2,-308,155.5,152.5
1.71026722925457,311,307,-4,-309,157.5,151.5
1.71308016877637,310,308,-2,-309,156,153
1.71589310829817,299,309,10,-304,144.5,159.5
1.71870604781997,296,308,12,-302,142,160
1.72151898734177,301,307,6,-304,147.5,156.5
1.72433192686357,308,308,0,-308,154,154
1.72714486638537,312,310,-2,-311,157,154
1.72995780590717,312,313,1,-312.5,155.5,157
1.73277074542897,303,312,9,-307.5,147,160.5
1.73558368495077,297,312,15,-304.5,141,163.5
1.73839662447257,301,313,12,-307,144.5,162.5
1.74120956399437,309,312,3,-310.5,153,157.5
1.74402250351617,315,314,-1,-314.5,158,156.5
1.74683544303797,318,316,-2,-317,160,157
1.74964838255978,311,316,5,-313.5,153,160.5
1.75246132208158,304,318,14,-311,145,166
1.75527426160338,303,317,14,-310,144.5,165.5
1.75808720112518,313,320,7,-316.5,153,163.5
1.76090014064698,321,321,0,-321,160.5,160.5
1.76371308016878,323,319,-4,-321,163.5,157.5
1.76652601969058,321,319,-2,-320,161.5,158.5
1.76933895921238,313,322,9,-317.5,152,165.5
1.77215189873418,306,322,16,-314,145,169
1.77496483825598,314,322,8,-318,153,165
1.77777777777778,321,323,2,-322,159.5,162.5
1.78059071729958,325,322,-3,-323.5,164,159.5
1.78340365682138,325,326,1,-325.5,162,163.5
1.78621659634318,319,326,7,-322.5,156,166.5
1.78902953586498,311,326,15,-318.5,148,170.5
1.79184247538678,312,327,15,-319.5,148.5,171
1.79465541490858,322,326,4,-324,159,165
1.79746835443038,328,327,-1,-327.5,164.5,163
1.80028129395218,330,329,-1,-329.5,165.5,164
1.80309423347398,327,329,2,-328,162.5,165.5
1.80590717299578,319,329,10,-324,154.5,169.5
1.80872011251758,315,330,15,-322.5,150,172.5
1.81153305203938,323,330,7,-326.5,158,168.5
1.81434599156118,331,330,-1,-330.5,166,164.5
1.81715893108298,335,329,-6,-332,170.5,161.5
1.81997187060478,333,331,-2,-332,167.5,164.5
1.82278481012658,325,332,7,-328.5,159,169.5
1.82559774964838,322,338,16,-330,153,177
1.82841068917018,327,342,15,-334.5,156,178.5
1.83122362869198,339,342,3,-340.5,168,172.5
1.83403656821378,346,344,-2,-345,174,171
1.83684950773558,348,346,-2,-347,175,172
1.83966244725738,344,349,5,-346.5,169.5,177
1.84247538677918,336,349,13,-342.5,161.5,181
1.84528832630098,337,351,14,-344,161.5,182.5
1.84810126582278,342,348,6,-345,168,177
1.85091420534459,349,349,0,-349,174.5,174.5
1.85372714486639,352,350,-2,-351,177,174
1.85654008438819,351,351,0,-351,175.5,175.5
1.85935302390999,344,353,9,-348.5,167.5,181
1.86216596343179,339,354,15,-346.5,162,184.5
1.86497890295359,344,354,10,-349,167,182
1.86779184247539,353,357,4,-355,174.5,180.5
1.87060478199719,359,358,-1,-358.5,180,178.5
1.87341772151899,362,358,-4,-360,183,177
1.87623066104079,355,360,5,-357.5,175,182.5
1.87904360056259,347,359,12,-353,167.5,185.5
1.88185654008439,346,357,11,-351.5,167.5,184
1.88466947960619,352,357,5,-354.5,173.5,181
1.88748241912799,359,357,-2,-358,180.5,177.5
1.89029535864979,360,357,-3,-358.5,181.5,177
1.89310829817159,357,357,0,-357,178.5,178.5
1.89592123769339,348,358,10,-353,169,184
1.89873417721519,342,354,12,-348,165,183
1.90154711673699,346,353,7,-349.5,169.5,180
1.90436005625879,351,349,-2,-350,176.5,173.5
1.90717299578059,353,348,-5,-350.5,179,171.5
1.90998593530239,349,344,-5,-346.5,177,169.5
1.91279887482419,338,342,4,-340,167,173
1.91561181434599,327,338,11,-332.5,158,174.5
1.91842475386779,326,335,9,-330.5,158.5,172
1.92123769338959,331,329,-2,-330,166.5,163.5
1.92405063291139,331,325,-6,-328,168.5,159.5
1.92686357243319,331,323,-8,-327,169.5,157.5
1.92967651195499,322,320,-2,-321,162,159
1.93248945147679,308,318,10,-313,149,164
1.93530239099859,304,311,7,-307.5,148.5,159
1.93811533052039,309,310,1,-309.5,154,155.5
1.94092827004219,313,307,-6,-310,159.5,150.5
1.94374120956399,315,312,-3,-313.5,159,154.5
1.94655414908579,314,312,-2,-313,158,155
1.94936708860759,303,309,6,-306,148.5,157.5
1.9521800281294,297,310,13,-303.5,142,161.5
1.9549929676512,300,307,7,-303.5,146.5,157
1.957805907173,304,303,-1,-303.5,152.5,151
1.9606188466948,308,303,-5,-305.5,156.5,149
1.9634317862166,309,304,-5,-306.5,157,149.5
1.9662447257384,301,306,5,-303.5,148,155.5
1.9690576652602,293,306,13,-299.5,140,159.5
1.971870604782,296,306,10,-301,143,158
1.9746835443038,303,306,3,-304.5,150,154.5
1.9774964838256,310,306,-4,-308,157,151
1.9803094233474,309,304,-5,-306.5,157,149.5
1.9831223628692,306,307,1,-306.5,152.5,154
1.985935302391,297,308,11,-302.5,143,159.5
1.9887482419128,294,308,14,-301,140,161
1.9915611814346,299,308,9,-303.5,145,158.5
1.9943741209564,308,307,-1,-307.5,154.5,153
1.9971870604782,310,308,-2,-309,156,153
2,309,307,-2,-308,155.5,152.5
2.0028129395218,299,306,7,-302.5,146,156.5
2.0056258790436,291,304,13,-297.5,139,158.5
2.0084388185654,294,304,10,-299,142,157
2.0112517580872,304,306,2,-305,151,154
2.014064697609,310,310,0,-310,155,155
2.0168776371308,314,312,-2,-313,158,155
2.0196905766526,308,314,6,-311,151,160
2.0225035161744,299,310,11,-304.5,144,160.5
2.0253164556962,297,309,12,-303,142.5,160.5
2.028129395218,302,307,5,-304.5,148.5,156
2.0309423347398,308,307,-1,-307.5,154.5,153
2.0337552742616,313,310,-3,-311.5,158,153.5
2.0365682137834,312,310,-2,-311,157,154
2.0393811533052,302,309,7,-305.5,147.5,158
2.042194092827,297,313,16,-305,140.5,164.5
2.0450070323488,302,310,8,-306,147,159
2.0478199718706,310,312,2,-311,154,157
2.0506329113924,314,312,-2,-313,158,155
2.05344585091421,316,312,-4,-314,160,154
2.05625879043601,308,313,5,-310.5,151.5,159
2.05907172995781,298,313,15,-305.5,141.5,164
2.06188466947961,299,310,11,-304.5,144,160.5
2.06469760900141,305,309,4,-307,150.5,156.5
2.06751054852321,314,314,0,-314,157,157
2.07032348804501,318,316,-2,-317,160,157
2.07313642756681,313,314,1,-313.5,156,157.5
2.07594936708861,305,314,9,-309.5,148,161.5
2.07876230661041,298,310,12,-304,143,161
2.08157524613221,305,311,6,-308,149.5,158.5
2.08438818565401,313,313,0,-313,156.5,156.5
2.08720112517581,318,316,-2,-317,160,157
2.09001406469761,319,317,-2,-318,160.5,157.5
2.09282700421941,310,317,7,-313.5,151.5,162
2.09563994374121,304,317,13,-310.5,145.5,165
2.09845288326301,306,316,10,-311,148,163
2.10126582278481,315,320,5,-317.5,155,162.5
2.10407876230661,321,319,-2,-320,161.5,158.5
2.10689170182841,324,322,-2,-323,163,160
2.10970464135021,321,324,3,-322.5,159,163.5
2.11251758087201,311,324,13,-317.5,149,168.5
2.11533052039381,309,323,14,-316,147.5,168.5
2.11814345991561,316,321,5,-318.5,155.5,163
2.12095639943741,322,320,-2,-321,162,159
2.12376933895921,326,324,-2,-325,164,161
2.12658227848101,327,327,0,-327,163.5,163.5
2.12939521800281,320,331,11,-325.5,154.5,171
2.13220815752461,316,333,17,-324.5,149.5,175
2.13502109704641,321,333,12,-327,154.5,172.5
2.13783403656821,327,328,1,-327.5,163,164.5
2.14064697609001,332,327,-5,-329.5,168.5,161
2.14345991561181,332,330,-2,-331,167,164
2.14627285513361,326,331,5,-328.5,160.5,168
2.14908579465541,319,334,15,-326.5,152,174.5
2.15189873417722,321,333,12,-327,154.5,172.5
2.15471167369902,326,328,2,-327,162,165
2.15752461322082,327,326,-1,-326.5,164,162.5
2.16033755274262,329,325,-4,-327,166.5,160.5
2.16315049226442,323,322,-1,-322.5,162,160.5
2.16596343178622,313,322,9,-317.5,152,165.5
2.16877637130802,307,318,11,-312.5,148,164.5
2.17158931082982,312,316,4,-314,154,160
2.17440225035162,317,314,-3,-315.5,160,155.5
2.17721518987342,315,311,-4,-313,159.5,153.5
2.18002812939522,314,312,-2,-313,158,155
2.18284106891702,307,313,6,-310,150.5,159.5
2.18565400843882,300,313,13,-306.5,143.5,163
2.18846694796062,301,311,10,-306,145.5,160.5
2.19127988748242,310,312,2,-311,154,157
2.19409282700422,312,309,-3,-310.5,157.5,153
2.19690576652602,314,309,-5,-311.5,159.5,152
2.19971870604782,309,309,0,-309,154.5,154.5
2.20253164556962,297,308,11,-302.5,143,159.5
2.20534458509142,294,307,13,-300.5,140.5,160
2.20815752461322,301,302,1,-301.5,150,151.5
2.21097046413502,309,305,-4,-307,156.5,150.5
2.21378340365682,311,307,-4,-309,157.5,151.5
2.21659634317862,309,310,1,-309.5,154,155.5
2.21940928270042,300,308,8,-304,146,158
2.22222222222222,295,307,12,-301,141.5,159.5
2.22503516174402,299,307,8,-303,145.5,157.5
2.22784810126582,305,305,0,-305,152.5,152.5
2.23066104078762,307,303,-4,-305,155.5,149.5
2.23347398030942,307,303,-4,-305,155.5,149.5
2.23628691983122,298,299,1,-298.5,148.5,150
2.23909985935302,289,300,11,-294.5,139,155.5
2.24191279887482,289,299,10,-294,139.5,154.5
2.24472573839662,293,297,4,-295,144.5,150.5
2.24753867791842,299,295,-4,-297,151.5,145.5
2.25035161744022,302,298,-4,-300,153,147
2.25316455696203,302,305,3,-303.5,149.5,154
2.25597749648383,304,321,17,-312.5,143.5,169
2.25879043600563,322,348,26,-335,148,187
2.26160337552743,352,379,27,-365.5,162.5,203
2.26441631504923,389,414,25,-401.5,182,219.5
2.26722925457103,421,446,25,-433.5,198,235.5
2.27004219409283,447,474,27,-460.5,210,250.5
2.27285513361463,456,489,33,-472.5,211.5,261
2.27566807313643,452,480,28,-466,212,254
2.27848101265823,444,458,14,-451,215,236
2.28129395218003,427,421,-6,-424,216.5,207.5
2.28410689170183,404,387,-17,-395.5,210.5,185
2.28691983122363,376,349,-27,-362.5,201.5,161
2.28973277074543,343,322,-21,-332.5,182,150.5
2.29254571026723,319,307,-12,-313,165.5,147.5
2.29535864978903,306,301,-5,-303.5,155.5,148
2.29817158931083,309,302,-7,-305.5,158,147.5
2.30098452883263,316,307,-9,-311.5,162.5,149
2.30379746835443,320,312,-8,-316,164,152
2.30661040787623,319,319,0,-319,159.5,159.5
2.30942334739803,311,320,9,-315.5,151,164.5
2.31223628691983,305,321,16,-313,144.5,168.5
2.31504922644163,307,315,8,-311,149.5,161.5
2.31786216596343,315,315,0,-315,157.5,157.5
2.32067510548523,317,311,-6,-314,161.5,152.5
2.32348804500703,315,312,-3,-313.5,159,154.5
2.32630098452883,308,312,4,-310,152,158
2.32911392405063,301,310,9,-305.5,146,159.5
2.33192686357243,302,312,10,-307,146,161
2.33473980309423,310,313,3,-311.5,153.5,158
2.33755274261603,317,316,-1,-316.5,159,157.5
2.34036568213783,321,318,-3,-319.5,162,157.5
2.34317862165963,314,314,0,-314,157,157
2.34599156118143,305,314,9,-309.5,148,161.5
2.34880450070323,302,316,14,-309,144,165
2.35161744022504,311,315,4,-313,153.5,159.5
2.35443037974684,317,316,-1,-316.5,159,157.5
2.35724331926864,322,319,-3,-320.5,162.5,158
2.36005625879044,321,317,-4,-319,162.5,156.5
2.36286919831224,315,324,9,-319.5,153,166.5
2.36568213783404,309,324,15,-316.5,147,169.5
2.36849507735584,313,324,11,-318.5,151,167.5
2.37130801687764,320,324,4,-322,158,164
2.37412095639944,325,325,0,-325,162.5,162.5
2.37693389592124,328,326,-2,-327,165,162
2.37974683544304,324,327,3,-325.5,160.5,165
2.38255977496484,316,328,12,-322,152,170
2.38537271448664,315,325,10,-320,152.5,167.5
2.38818565400844,322,326,4,-324,159,165
2.39099859353024,329,328,-1,-328.5,165,163.5
2.39381153305204,333,330,-3,-331.5,168,163.5
2.39662447257384,331,332,1,-331.5,165,166.5
2.39943741209564,324,332,8,-328,158,170
2.40225035161744,319,334,15,-326.5,152,174.5
2.40506329113924,324,333,9,-328.5,157.5,171
2.40787623066104,332,335,3,-333.5,164.5,169
2.41068917018284,338,332,-6,-335,172,163
2.41350210970464,338,336,-2,-337,170,167
2.41631504922644,331,337,6,-334,162.5,171.5
2.41912798874824,325,338,13,-331.5,156,175.5
2.42194092827004,327,338,11,-332.5,158,174.5
2.42475386779184,335,337,2,-336,166.5,169.5
2.42756680731364,341,337,-4,-339,172.5,166.5
2.43037974683544,346,342,-4,-344,175,169
2.43319268635724,344,345,1,-344.5,171.5,173
2.43600562587904,335,346,11,-340.5,162,178.5
2.43881856540084,331,347,16,-339,157.5,181.5
2.44163150492264,340,349,9,-344.5,165.5,179
2.44444444444444,348,350,2,-349,173,176
2.44725738396624,354,351,-3,-352.5,178.5,174
2.45007032348804,355,354,-1,-354.5,178,176.5
2.45288326300985,351,356,5,-353.5,173,180.5
2.45569620253165,343,359,16,-351,163.5,187.5
2.45850914205345,347,356,9,-351.5,169,182.5
2.46132208157525,356,360,4,-358,176,182
2.46413502109705,361,362,1,-361.5,180,181.5
2.46694796061885,365,364,-1,-364.5,183,181.5
2.46976090014065,365,368,3,-366.5,181,185.5
2.47257383966245,358,372,14,-365,172,193
2.47538677918425,359,374,15,-366.5,172,194.5
2.47819971870605,369,376,7,-372.5,181,191.5
2.48101265822785,376,377,1,-376.5,187.5,189
2.48382559774965,378,376,-2,-377,190,187
2.48663853727145,377,376,-1,-376.5,189,187.5
2.48945147679325,368,378,10,-373,179,194
2.49226441631505,362,377,15,-369.5,173.5,196
2.49507735583685,368,378,10,-373,179,194
2.49789029535865,378,378,0,-378,189,189
2.50070323488045,384,381,-3,-382.5,193.5,189
2.50351617440225,384,382,-2,-383,193,190
2.50632911392405,376,379,3,-377.5,186.5,191
2.50914205344585,366,381,15,-373.5,175.5,198
2.51195499296765,368,379,11,-373.5,178.5,195
2.51476793248945,375,379,4,-377,185.5,191.5
2.51758087201125,380,378,-2,-379,191,188
2.52039381153305,379,375,-4,-377,191.5,185.5
2.52320675105485,374,371,-3,-372.5,188.5,184
2.52601969057665,362,369,7,-365.5,177.5,188
2.52883263009845,356,367,11,-361.5,172.5,189
2.53164556962025,360,368,8,-364,176,188
2.53445850914205,367,364,-3,-365.5,185,180.5
2.53727144866385,368,363,-5,-365.5,186.5,179
2.54008438818565,367,362,-5,-364.5,186,178.5
2.54289732770745,357,363,6,-360,175.5,184.5
2.54571026722925,347,361,14,-354,166.5,187.5
2.54852320675105,348,358,10,-353,169,184
2.55133614627286,353,352,-1,-352.5,177,175.5
2.55414908579466,355,350,-5,-352.5,180,172.5
2.55696202531646,353,346,-7,-349.5,180,169.5
2.55977496483826,343,341,-2,-342,172.5,169.5
2.56258790436006,333,341,8,-337,162.5,174.5
2.56540084388186,330,340,10,-335,160,175
2.56821378340366,335,339,4,-337,165.5,171.5
2.57102672292546,342,341,-1,-341.5,171.5,170
2.57383966244726,345,341,-4,-343,174.5,168.5
2.57665260196906,343,339,-4,-341,173.5,167.5
2.57946554149086,334,340,6,-337,164,173
2.58227848101266,326,339,13,-332.5,156.5,176
2.58509142053446,327,335,8,-331,159.5,171.5
2.58790436005626,335,335,0,-335,167.5,167.5
2.59071729957806,337,332,-5,-334.5,171,163.5
2.59353023909986,336,334,-2,-335,169,166
2.59634317862166,333,336,3,-334.5,165,169.5
2.59915611814346,324,338,14,-331,155,176
2.60196905766526,327,341,14,-334,156.5,177.5
2.60478199718706,336,342,6,-339,165,174
2.60759493670886,344,345,1,-344.5,171.5,173
2.61040787623066,346,344,-2,-345,174,171
2.61322081575246,342,343,1,-342.5,170.5,172
2.61603375527426,333,343,10,-338,161.5,176.5
2.61884669479606,329,343,14,-336,157.5,178.5
2.62165963431786,338,344,6,-341,166,175
2.62447257383966,343,345,2,-344,170.5,173.5
2.62728551336146,348,345,-3,-346.5,175.5,171
2.63009845288326,349,346,-3,-347.5,176,171.5
2.63291139240506,343,350,7,-346.5,168,178.5
2.63572433192686,334,348,14,-341,160,181
2.63853727144866,336,348,12,-342,162,180
2.64135021097046,345,352,7,-348.5,169,179.5
2.64416315049226,352,349,-3,-350.5,177.5,173
2.64697609001406,352,347,-5,-349.5,178.5,171
2.64978902953587,345,349,4,-347,170.5,176.5
2.65260196905767,336,346,10,-341,163,178
2.65541490857947,336,349,13,-342.5,161.5,181
2.65822784810127,345,349,4,-347,170.5,176.5
2.66104078762307,352,352,0,-352,176,176
2.66385372714487,355,354,-1,-354.5,178,176.5
2.66666666666667,355,352,-3,-353.5,179,174.5
2.66947960618847,346,355,9,-350.5,168.5,182
2.67229254571027,342,359,17,-350.5,162.5,188
2.67510548523207,348,359,11,-353.5,168.5,185
2.67791842475387,355,356,1,-355.5,177,178.5
2.68073136427567,361,358,-3,-359.5,182,177.5
2.68354430379747,359,359,0,-359,179.5,179.5
2.68635724331927,355,358,3,-356.5,176,180.5
2.68917018284107,345,356,11,-350.5,167,183.5
2.69198312236287,345,355,10,-350,167.5,182.5
2.69479606188467,352,358,6,-355,173,182
2.69760900140647,358,359,1,-358.5,178.5,180
2.70042194092827,361,362,1,-361.5,180,181.5
2.70323488045007,362,362,0,-362,181,181
2.70604781997187,353,362,9,-357.5,172,185.5
2.70886075949367,347,362,15,-354.5,166,188.5
2.71167369901547,355,361,6,-358,174.5,183.5
2.71448663853727,363,362,-1,-362.5,182,180.5
2.71729957805907,367,366,-1,-366.5,184,182.5
2.72011251758087,367,365,-2,-366,184.5,181.5
2.72292545710267,360,366,6,-363,177,186
2.72573839662447,353,369,16,-361,168.5,192.5
2.72855133614627,359,370,11,-364.5,174,190.5
2.73136427566807,368,372,4,-370,182,188
2.73417721518987,375,373,-2,-374,188.5,185.5
2.73699015471167,376,376,0,-376,188,188
2.73980309423347,373,375,2,-374,185.5,188.5
2.74261603375527,364,377,13,-370.5,175.5,195
2.74542897327707,365,380,15,-372.5,175,197.5
2.74824191279887,373,382,9,-377.5,182,195.5
2.75105485232068,381,384,3,-382.5,189,193.5
2.75386779184248,386,384,-2,-385,194,191
2.75668073136428,384,385,1,-384.5,191.5,193
2.75949367088608,374,384,10,-379,182,197
2.76230661040788,368,382,14,-375,177,198
2.76511954992968,373,383,10,-378,181.5,196.5
2.76793248945148,380,381,1,-380.5,189.5,191
2.77074542897328,383,379,-4,-381,193.5,187.5
2.77355836849508,385,380,-5,-382.5,195,187.5
2.77637130801688,378,382,4,-380,187,193
2.77918424753868,368,381,13,-374.5,177.5,197
2.78199718706048,368,379,11,-373.5,178.5,195
2.78481012658228,372,377,5,-374.5,183.5,191
2.78762306610408,376,374,-2,-375,189,186
2.79043600562588,378,373,-5,-375.5,191.5,184
2.79324894514768,374,370,-4,-372,189,183
2.79606188466948,363,368,5,-365.5,179,186.5
2.79887482419128,358,368,10,-363,174,189
2.80168776371308,362,369,7,-365.5,177.5,188
2.80450070323488,367,366,-1,-366.5,184,182.5
2.80731364275668,370,365,-5,-367.5,187.5,180
2.81012658227848,370,365,-5,-367.5,187.5,180
2.81293952180028,357,360,3,-358.5,177,181.5
2.81575246132208,348,360,12,-354,168,186
2.81856540084388,352,363,11,-357.5,170.5,187
2.82137834036568,362,364,2,-363,180,183
2.82419127988748,370,369,-1,-369.5,185.5,184
2.82700421940928,371,368,-3,-369.5,187,182.5
2.82981715893108,366,365,-1,-365.5,183.5,182
2.83263009845288,353,365,12,-359,170.5,188.5
2.83544303797468,353,363,10,-358,171.5,186.5
2.83825597749648,357,361,4,-359,176.5,182.5
2.84106891701828,363,364,1,-363.5,181,182.5
2.84388185654008,367,363,-4,-365,185.5,179.5
2.84669479606188,365,366,1,-365.5,182,183.5
2.84950773558369,357,366,9,-361.5,174,187.5
2.85232067510549,349,361,12,-355,168.5,186.5
2.85513361462729,352,358,6,-355,173,182
2.85794655414909,358,356,-2,-357,180,177
2.86075949367089,360,357,-3,-358.5,181.5,177
2.86357243319269,361,359,-2,-360,181.5,178.5
2.86638537271449,354,358,4,-356,175,181
2.86919831223629,345,359,14,-352,165.5,186.5
2.87201125175809,351,365,14,-358,168.5,189.5
2.87482419127989,368,383,15,-375.5,176.5,199
2.87763713080169,398,410,12,-404,193,211
2.88045007032349,427,442,15,-434.5,206,228.5
2.88326300984529,454,478,24,-466,215,251
2.88607594936709,474,510,36,-492,219,273
2.88888888888889,496,535,39,-515.5,228.5,287
2.89170182841069,516,543,27,-529.5,244.5,285
2.89451476793249,520,535,15,-527.5,252.5,275
2.89732770745429,508,506,-2,-507,255,252
2.90014064697609,484,471,-13,-477.5,248.5,229
2.90295358649789,446,436,-10,-441,228,213
2.90576652601969,411,400,-11,-405.5,211,194.5
2.90857946554149,389,373,-16,-381,202.5,178.5
2.91139240506329,378,361,-17,-369.5,197.5,172
2.91420534458509,376,356,-20,-366,198,168
2.91701828410689,377,360,-17,-368.5,197,171.5
2.91983122362869,373,367,-6,-370,189.5,180.5
2.92264416315049,368,377,9,-372.5,179.5,193
2.92545710267229,370,387,17,-378.5,176.5,202
2.92827004219409,380,385,5,-382.5,187.5,195
2.93108298171589,384,387,3,-385.5,190.5,195
2.93389592123769,385,385,0,-385,192.5,192.5
2.93670886075949,383,382,-1,-382.5,192,190.5
2.93952180028129,372,379,7,-375.5,182.5,193
2.94233473980309,366,380,14,-373,176,197
2.94514767932489,369,380,11,-374.5,179,195.5
2.94796061884669,377,380,3,-378.5,187,191.5
2.95077355836849,383,381,-2,-382,192.5,189.5
2.9535864978903,382,378,-4,-380,193,187
2.9563994374121,378,382,4,-380,187,193
2.9592123769339,368,383,15,-375.5,176.5,199
2.9620253164557,369,382,13,-375.5,178,197.5
2.9648382559775,377,384,7,-380.5,185,195.5
2.9676511954993,385,383,-2,-384,193.5,190.5
2.9704641350211,386,384,-2,-385,194,191
2.9732770745429,384,385,1,-384.5,191.5,193
2.9760900140647,376,387,11,-381.5,182.5,199
2.9789029535865,374,388,14,-381,180,201
2.9817158931083,381,388,7,-384.5,187,197.5
2.9845288326301,389,394,5,-391.5,192,199.5
2.9873417721519,394,394,0,-394,197,197
2.9901547116737,394,393,-1,-393.5,197.5,196
2.9929676511955,386,391,5,-388.5,190.5,198
2.9957805907173,378,390,12,-384,183,201
2.9985935302391,381,395,14,-388,183.5,204.5
3.0014064697609,390,393,3,-391.5,193.5,198
3.0042194092827,396,397,1,-396.5,197.5,199
3.0070323488045,399,397,-2,-398,200.5,197.5
3.0098452883263,394,401,7,-397.5,193.5,204
3.0126582278481,386,401,15,-393.5,185.5,208
3.0154711673699,385,398,13,-391.5,186,205.5
3.0182841068917,390,400,10,-395,190,205
3.0210970464135,397,399,2,-398,197.5,200.5
3.0239099859353,402,401,-1,-401.5,201.5,200
3.0267229254571,403,402,-1,-402.5,202,200.5
3.0295358649789,394,404,10,-399,192,207
3.0323488045007,390,406,16,-398,187,211
3.0351617440225,395,407,12,-401,191.5,209.5
3.0379746835443,403,408,5,-405.5,199,206.5
3.0407876230661,409,410,1,-409.5,204,205.5
3.0436005625879,412,410,-2,-411,207,204
3.0464135021097,405,411,6,-408,199.5,208.5
3.04922644163151,398,414,16,-406,191,215
3.05203938115331,399,413,14,-406,192.5,213.5
3.05485232067511,407,413,6,-410,200.5,209.5
3.05766526019691,412,414,2,-413,205,208
3.06047819971871,416,416,0,-416,208,208
3.06329113924051,414,416,2,-415,206,209
3.06610407876231,406,418,12,-412,197,215
3.06891701828411,402,420,18,-411,192,219
3.07172995780591,409,419,10,-414,199.5,214.5
3.07454289732771,420,424,4,-422,208,214
3.07735583684951,425,426,1,-425.5,212,213.5
3.08016877637131,426,425,-1,-425.5,213.5,212
3.08298171589311,421,425,4,-423,208.5,214.5
3.08579465541491,414,429,15,-421.5,199.5,222
3.08860759493671,417,430,13,-423.5,202,221.5
3.09142053445851,426,432,6,-429,210,219
3.09423347398031,433,436,3,-434.5,215,219.5
3.09704641350211,438,437,-1,-437.5,219.5,218
3.09985935302391,433,437,4,-435,214.5,220.5
3.10267229254571,421,432,11,-426.5,205,221.5
3.10548523206751,419,432,13,-425.5,203,222.5
3.10829817158931,425,432,7,-428.5,209,219.5
3.11111111111111,436,437,1,-436.5,217.5,219
3.11392405063291,440,438,-2,-439,221,218
3.11673699015471,438,439,1,-438.5,218.5,220
3.11954992967651,429,440,11,-434.5,209,225.5
3.12236286919831,421,437,16,-429,202.5,226.5
3.12517580872011,424,434,10,-429,207,222
3.12798874824191,430,433,3,-431.5,213.5,218
3.13080168776371,434,431,-3,-432.5,218.5,214
3.13361462728551,434,430,-4,-432,219,213
3.13642756680731,426,430,4,-428,211,217
3.13924050632911,416,430,14,-423,201,222
3.14205344585091,415,428,13,-421.5,201,220.5
3.14486638537271,420,425,5,-422.5,207.5,215
3.14767932489451,424,422,-2,-423,213,210
3.15049226441631,421,414,-7,-417.5,214,203.5
3.15330520393812,414,412,-2,-413,208,205
3.15611814345992,401,405,4,-403,198.5,204.5
3.15893108298172,391,402,11,-396.5,190,206.5
3.16174402250352,395,402,7,-398.5,194,204.5
3.16455696202532,401,403,2,-402,199.5,202.5
3.16736990154712,404,400,-4,-402,204,198
3.17018284106892,401,395,-6,-398,203.5,194.5
3.17299578059072,390,394,4,-392,193,199
3.17580872011252,378,390,12,-384,183,201
3.17862165963432,375,387,12,-381,181.5,199.5
3.18143459915612,382,384,2,-383,190,193
3.18424753867792,385,383,-2,-384,193.5,190.5
3.18706047819972,385,379,-6,-382,195.5,186.5
3.18987341772152,378,380,2,-379,188,191
3.19268635724332,369,378,9,-373.5,180,193.5
3.19549929676512,364,376,12,-370,176,194
3.19831223628692,369,374,5,-371.5,182,189.5
3.20112517580872,376,374,-2,-375,189,186
3.20393811533052,378,375,-3,-376.5,190.5,186
3.20675105485232,376,373,-3,-374.5,189.5,185
3.20956399437412,368,375,7,-371.5,180.5,191
3.21237693389592,360,374,14,-367,173,194
3.21518987341772,364,374,10,-369,177,192
3.21800281293952,372,374,2,-373,185,188
3.22081575246132,378,374,-4,-376,191,185
3.22362869198312,379,376,-3,-377.5,191,186.5
3.22644163150492,371,376,5,-373.5,183,190.5
3.22925457102672,361,377,16,-369,172.5,196.5
3.23206751054852,360,374,14,-367,173,194
3.23488045007032,368,374,6,-371,181,190
3.23769338959212,375,371,-4,-373,189.5,183.5
3.24050632911392,376,372,-4,-374,190,184
3.24331926863572,372,372,0,-372,186,186
3.24613220815752,363,372,9,-367.5,177,190.5
3.24894514767932,360,373,13,-366.5,173.5,193
3.25175808720113,364,373,9,-368.5,177.5,191
3.25457102672293,370,369,-1,-369.5,185.5,184
3.25738396624473,373,369,-4,-371,188.5,182.5
3.26019690576653,371,370,-1,-370.5,186,184.5
3.26300984528833,365,370,5,-367.5,180,187.5
3.26582278481013,358,372,14,-365,172,193
3.26863572433193,360,371,11,-365.5,174.5,191
3.27144866385373,367,372,5,-369.5,181,188.5
3.27426160337553,371,372,1,-371.5,185,186.5
3.27707454289733,373,368,-5,-370.5,189,181.5
3.27988748241913,369,370,1,-369.5,184,185.5
3.28270042194093,359,370,11,-364.5,174,190.5
3.28551336146273,356,370,14,-363,171,192
3.28832630098453,361,370,9,-365.5,176,189.5
3.29113924050633,368,367,-1,-367.5,184.5,183
3.29395218002813,372,369,-3,-370.5,187.5,183
3.29676511954993,371,368,-3,-369.5,187,182.5
3.29957805907173,361,368,7,-364.5,177,187.5
3.30239099859353,353,368,15,-360.5,169,191.5
3.30520393811533,358,367,9,-362.5,174.5,188
3.30801687763713,365,367,2,-366,181.5,184.5
3.31082981715893,370,369,-1,-369.5,185.5,184
3.31364275668073,373,369,-4,-371,188.5,182.5
3.31645569620253,366,371,5,-368.5,180.5,188
3.31926863572433,358,369,11,-363.5,173.5,190
3.32208157524613,357,368,11,-362.5,173,189.5
3.32489451476793,367,369,2,-368,182.5,185.5
3.32770745428973,373,376,3,-374.5,185,189.5
3.33052039381153,379,377,-2,-378,190.5,187.5
3.33333333333333,377,378,1,-377.5,188,189.5
3.33614627285513,367,375,8,-371,179.5,191.5
3.33895921237693,359,376,17,-367.5,171,196.5
3.34177215189873,365,373,8,-369,178.5,190.5
3.34458509142053,371,371,0,-371,185.5,185.5
3.34739803094233,374,372,-2,-373,188,185
3.35021097046413,375,371,-4,-373,189.5,183.5
3.35302390998594,369,376,7,-372.5,181,191.5
3.35583684950774,362,377,15,-369.5,173.5,196
3.35864978902954,366,378,12,-372,177,195
3.36146272855134,375,379,4,-377,185.5,191.5
3.36427566807314,380,379,-1,-379.5,190.5,189
3.36708860759494,383,381,-2,-382,192.5,189.5
3.36990154711674,377,380,3,-378.5,187,191.5
3.37271448663854,365,379,14,-372,175.5,196.5
3.37552742616034,363,376,13,-369.5,175,194.5
3.37834036568214,367,374,7,-370.5,180,190.5
3.38115330520394,373,371,-2,-372,187.5,184.5
3.38396624472574,374,369,-5,-371.5,189.5,182
3.38677918424754,373,372,-1,-372.5,187,185.5
3.38959212376934,364,371,7,-367.5,178.5,189
3.39240506329114,356,369,13,-362.5,171.5,191
3.39521800281294,359,368,9,-363.5,175,188.5
3.39803094233474,366,366,0,-366,183,183
3.40084388185654,367,362,-5,-364.5,186,178.5
3.40365682137834,365,357,-8,-361,186.5,174.5
3.40646976090014,354,354,0,-354,177,177
3.40928270042194,339,349,10,-344,164.5,179.5
3.41209563994374,339,349,10,-344,164.5,179.5
3.41490857946554,344,349,5,-346.5,169.5,177
3.41772151898734,352,350,-2,-351,177,174
3.42053445850914,354,352,-2,-353,178,175
3.42334739803094,352,352,0,-352,176,176
3.42616033755274,343,350,7,-346.5,168,178.5
3.42897327707454,335,349,14,-342,160.5,181.5
3.43178621659634,341,350,9,-345.5,166,179.5
3.43459915611814,347,346,-1,-346.5,174,172.5
3.43741209563994,350,348,-2,-349,176,173
3.44022503516174,350,347,-3,-348.5,176.5,172
3.44303797468354,342,344,2,-343,170,173
3.44585091420534,333,345,12,-339,160.5,178.5
3.44866385372714,333,344,11,-338.5,161,177.5
3.45147679324895,341,342,1,-341.5,170,171.5
3.45428973277075,347,343,-4,-345,175.5,169.5
3.45710267229255,347,344,-3,-345.5,175,170.5
3.45991561181435,342,341,-1,-341.5,171.5,170
3.46272855133615,327,336,9,-331.5,159,172.5
3.46554149085795,321,333,12,-327,154.5,172.5
3.46835443037975,326,327,1,-326.5,162.5,164
3.47116736990155,329,329,0,-329,164.5,164.5
3.47398030942335,333,327,-6,-330,169.5,160.5
3.47679324894515,333,328,-5,-330.5,169,161.5
3.47960618846695,326,332,6,-329,160,169
3.48241912798875,324,340,16,-332,154,178
3.48523206751055,341,358,17,-349.5,162,187.5
3.48804500703235,367,383,16,-375,175.5,199.5
3.49085794655415,398,419,21,-408.5,188.5,220
3.49367088607595,432,451,19,-441.5,206.5,235
3.49648382559775,457,489,32,-473,212.5,260.5
3.49929676511955,472,512,40,-492,216,276
3.50210970464135,485,521,36,-503,224.5,278.5
3.50492264416315,491,508,17,-499.5,237,262.5
3.50773558368495,479,480,1,-479.5,239,240.5
3.51054852320675,454,440,-14,-447,234,213
3.51336146272855,422,402,-20,-412,221,191
3.51617440225035,382,367,-15,-374.5,198.5,176
3.51898734177215,353,344,-9,-348.5,181,167.5
3.52180028129395,343,329,-14,-336,178.5,157.5
3.52461322081575,344,328,-16,-336,180,156
3.52742616033755,346,333,-13,-339.5,179.5,160
3.53023909985935,346,336,-10,-341,178,163
3.53305203938115,339,340,1,-339.5,169,170.5
3.53586497890295,330,342,12,-336,159,177
3.53867791842475,332,340,8,-336,162,174
3.54149085794655,337,336,-1,-336.5,169,167.5
3.54430379746835,340,337,-3,-338.5,171.5,167
3.54711673699015,340,334,-6,-337,173,164
3.54992967651196,334,334,0,-334,167,167
3.55274261603376,324,331,7,-327.5,158.5,169
3.55555555555556,319,330,11,-324.5,154,170.5
3.55836849507736,324,330,6,-327,159,168
3.56118143459916,330,330,0,-330,165,165
3.56399437412096,332,328,-4,-330,168,162
3.56680731364276,331,327,-4,-329,167.5,161.5
3.56962025316456,322,330,8,-326,157,169
3.57243319268636,318,332,14,-325,152,173
3.57524613220816,321,330,9,-325.5,156,169.5
3.57805907172996,329,331,2,-330,163.5,166.5
3.58087201125176,334,332,-2,-333,168,165
3.58368495077356,335,333,-2,-334,168.5,165.5
3.58649789029536,327,330,3,-328.5,162,166.5
3.58931082981716,317,332,15,-324.5,151,173.5
3.59212376933896,318,331,13,-324.5,152.5,172
3.59493670886076,328,335,7,-331.5,160.5,171
3.59774964838256,335,333,-2,-334,168.5,165.5
3.60056258790436,336,333,-3,-334.5,169.5,165
3.60337552742616,336,334,-2,-335,169,166
3.60618846694796,324,332,8,-328,158,170
3.60900140646976,318,329,11,-323.5,153.5,170
3.61181434599156,321,330,9,-325.5,156,169.5
3.61462728551336,327,330,3,-328.5,162,166.5
3.61744022503516,334,331,-3,-332.5,168.5,164
3.62025316455696,336,334,-2,-335,169,166
3.62306610407876,329,336,7,-332.5,161,171.5
3.62587904360056,321,336,15,-328.5,153,175.5
3.62869198312236,323,338,15,-330.5,154,176.5
3.63150492264416,332,338,6,-335,163,172
3.63431786216596,337,336,-1,-336.5,169,167.5
3.63713080168776,340,339,-1,-339.5,170.5,169
3.63994374120956,338,337,-1,-337.5,169.5,168
3.64275668073136,328,340,12,-334,158,176
3.64556962025316,325,341,16,-333,154.5,178.5
3.64838255977496,333,338,5,-335.5,164,171.5
3.65119549929677,339,341,2,-340,168.5,171.5
3.65400843881857,344,341,-3,-342.5,173.5,169
3.65682137834037,343,343,0,-343,171.5,171.5
3.65963431786217,334,340,6,-337,164,173
3.66244725738397,325,338,13,-331.5,156,175.5
3.66526019690577,327,339,12,-333,157.5,175.5
3.66807313642757,336,339,3,-337.5,166.5,171
3.67088607594937,344,340,-4,-342,174,168
3.67369901547117,345,343,-2,-344,173.5,170.5
3.67651195499297,340,343,3,-341.5,168.5,173
3.67932489451477,334,346,12,-340,161,179
3.68213783403657,334,348,14,-341,160,181
3.68495077355837,342,350,8,-346,167,179
3.68776371308017,351,350,-1,-350.5,176,174.5
3.69057665260197,352,350,-2,-351,177,174
3.69338959212377,349,348,-1,-348.5,175,173.5
3.69620253164557,340,351,11,-345.5,164.5,181
3.69901547116737,336,352,16,-344,160,184
3.70182841068917,342,351,9,-346.5,166.5,180
3.70464135021097,349,352,3,-350.5,173,177.5
3.70745428973277,354,352,-2,-353,178,175
3.71026722925457,355,352,-3,-353.5,179,174.5
3.71308016877637,350,355,5,-352.5,172.5,180
3.71589310829817,344,360,16,-352,164,188
3.71870604781997,348,361,13,-354.5,167.5,187
3.72151898734177,355,360,5,-357.5,175,182.5
3.72433192686357,361,361,0,-361,180.5,180.5
3.72714486638537,361,357,-4,-359,182.5,176.5
3.72995780590717,356,357,1,-356.5,177.5,179
3.73277074542897,347,357,10,-352,168.5,183.5
3.73558368495077,344,357,13,-350.5,165.5,185
3.73839662447257,349,357,8,-353,170.5,182.5
3.74120956399437,355,352,-3,-353.5,179,174.5
3.74402250351617,356,351,-5,-353.5,180.5,173
3.74683544303797,353,350,-3,-351.5,178,173.5
3.74964838255978,341,348,7,-344.5,167,177.5
3.75246132208158,333,344,11,-338.5,161,177.5
3.75527426160338,331,338,7,-334.5,162,172.5
3.75808720112518,336,334,-2,-335,169,166
3.76090014064698,338,333,-5,-335.5,171.5,164
3.76371308016878,337,331,-6,-334,171.5,162.5
3.76652601969058,330,327,-3,-328.5,166.5,162
3.76933895921238,317,326,9,-321.5,154,167.5
3.77215189873418,309,319,10,-314,149.5,164.5
3.77496483825598,313,316,3,-314.5,155,159.5
3.77777777777778,316,312,-4,-314,160,154
3.78059071729958,317,309,-8,-313,162.5,150.5
3.78340365682138,313,306,-7,-309.5,160,149.5
3.78621659634318,302,307,5,-304.5,148.5,156
3.78902953586498,296,307,11,-301.5,142.5,159
3.79184247538678,297,305,8,-301,144.5,156.5
3.79465541490858,302,299,-3,-300.5,152.5,148
3.79746835443038,303,298,-5,-300.5,154,146.5
3.80028129395218,303,298,-5,-300.5,154,146.5
3.80309423347398,296,301,5,-298.5,145.5,153
3.80590717299578,289,301,12,-295,138.5,156.5
3.80872011251758,291,303,12,-297,139.5,157.5
3.81153305203938,297,298,1,-297.5,148,149.5
3.81434599156118,301,297,-4,-299,152.5,146.5
3.81715893108298,300,293,-7,-296.5,153.5,143
3.81997187060478,294,292,-2,-293,148,145
3.82278481012658,285,291,6,-288,139.5,148.5
3.82559774964838,281,291,10,-286,135.5,150.5
3.82841068917018,289,295,6,-292,141.5,150.5
3.83122362869198,295,294,-1,-294.5,148,146.5
3.83403656821378,298,293,-5,-295.5,151.5,144
3.83684950773558,297,293,-4,-295,150.5,144.5
3.83966244725738,286,292,6,-289,140,149
3.84247538677918,279,289,10,-284,134.5,149.5
3.84528832630098,281,288,7,-284.5,137,147.5
3.84810126582278,288,289,1,-288.5,143.5,145
3.85091420534459,293,292,-1,-292.5,147,145.5
3.85372714486639,295,294,-1,-294.5,148,146.5
3.85654008438819,292,293,1,-292.5,145.5,147
3.85935302390999,279,290,11,-284.5,134,150.5
3.86216596343179,277,286,9,-281.5,134,147.5
3.86497890295359,284,287,3,-285.5,140.5,145
3.86779184247539,292,289,-3,-290.5,147.5,143
3.87060478199719,294,292,-2,-293,148,145
3.87341772151899,295,291,-4,-293,149.5,143.5
3.87623066104079,286,295,9,-290.5,138.5,152
3.87904360056259,279,291,12,-285,133.5,151.5
3.88185654008439,283,289,6,-286,138.5,147.5
3.88466947960619,290,290,0,-290,145,145
3.88748241912799,294,290,-4,-292,149,143
3.89029535864979,292,292,0,-292,146,146
3.89310829817159,287,291,4,-289,141.5,147.5
3.89592123769339,278,291,13,-284.5,132.5,152
3.89873417721519,279,289,10,-284,134.5,149.5
3.90154711673699,287,293,6,-290,140.5,149.5
3.90436005625879,292,289,-3,-290.5,147.5,143
3.90717299578059,296,290,-6,-293,151,142
3.90998593530239,291,287,-4,-289,147.5,141.5
3.91279887482419,281,288,7,-284.5,137,147.5
3.91561181434599,279,287,8,-283,135.5,147.5
3.91842475386779,285,287,2,-286,141.5,144.5
3.92123769338959,294,290,-4,-292,149,143
3.92405063291139,299,292,-7,-295.5,153,142.5
3.92686357243319,301,294,-7,-297.5,154,143.5
3.92967651195499,293,300,7,-296.5,143,153.5
3.93248945147679,288,302,14,-295,137,158
3.93530239099859,289,302,13,-295.5,138,157.5
3.93811533052039,299,301,2,-300,148.5,151.5
3.94092827004219,303,301,-2,-302,152.5,149.5
3.94374120956399,306,303,-3,-304.5,154.5,150
3.94655414908579,302,306,4,-304,149,155
3.9493670886076,295,307,12,-301,141.5,159.5
3.9521800281294,296,308,12,-302,142,160
3.9549929676512,302,308,6,-305,148,157
3.957805907173,309,308,-1,-308.5,155,153.5
3.9606188466948,311,307,-4,-309,157.5,151.5
3.9634317862166,313,313,0,-313,156.5,156.5
3.9662447257384,306,315,9,-310.5,148.5,162
3.9690576652602,304,320,16,-312,144,168
3.971870604782,310,319,9,-314.5,150.5,164
3.9746835443038,319,322,3,-320.5,158,162.5
3.9774964838256,323,324,1,-323.5,161,162.5
3.9803094233474,324,322,-2,-323,163,160
3.9831223628692,317,322,5,-319.5,156,163.5
3.985935302391,309,323,14,-316,147.5,168.5
3.9887482419128,311,322,11,-316.5,150,166.5
3.9915611814346,320,327,7,-323.5,156.5,167
3.9943741209564,327,324,-3,-325.5,165,160.5
3.9971870604782,328,322,-6,-325,167,158
4,322,323,1,-322.5,160.5,162
4.0028129395218,312,320,8,-316,152,164
4.0056258790436,306,320,14,-313,146,167
4.0084388185654,312,318,6,-315,153,162
4.0112517580872,319,317,-2,-318,160.5,157.5
4.014064697609,320,316,-4,-318,162,156
4.0168776371308,317,312,-5,-314.5,161,153.5
4.0196905766526,306,312,6,-309,150,159
4.0225035161744,296,309,13,-302.5,141.5,161
4.0253164556962,298,308,10,-303,144,159
4.028129395218,306,309,3,-307.5,151.5,156
4.0309423347398,310,310,0,-310,155,155
4.0337552742616,311,310,-1,-310.5,156,154.5
4.0365682137834,308,310,2,-309,153,156
4.0393811533052,296,307,11,-301.5,142.5,159
4.042194092827,294,306,12,-300,141,159
4.0450070323488,301,306,5,-303.5,148,155.5
4.0478199718706,307,306,-1,-306.5,154,152.5
4.05063291139241,309,308,-1,-308.5,155,153.5
4.05344585091421,308,306,-2,-307,155,152
4.05625879043601,296,306,10,-301,143,158
4.05907172995781,292,305,13,-298.5,139.5,159
4.06188466947961,295,303,8,-299,143.5,155.5
4.06469760900141,306,308,2,-307,152,155
4.06751054852321,310,306,-4,-308,157,151
4.07032348804501,312,310,-2,-311,157,154
4.07313642756681,304,309,5,-306.5,149.5,157
4.07594936708861,295,307,12,-301,141.5,159.5
4.07876230661041,290,302,12,-296,139,157
4.08157524613221,297,299,2,-298,147.5,150.5
4.08438818565401,299,297,-2,-298,150.5,147.5
4.08720112517581,302,296,-6,-299,154,145
4.09001406469761,299,298,-1,-298.5,150,148.5
4.09282700421941,290,302,12,-296,139,157
4.09563994374121,294,312,18,-303,138,165
4.09845288326301,314,329,15,-321.5,149.5,172
4.10126582278481,340,358,18,-349,161,188
4.10407876230661,370,389,19,-379.5,175.5,204
4.10689170182841,402,426,24,-414,189,225
4.10970464135021,425,459,34,-442,195.5,246.5
4.11251758087201,443,486,43,-464.5,200,264.5
4.11533052039381,459,488,29,-473.5,215,258.5
4.11814345991561,463,476,13,-469.5,225,244.5
4.12095639943741,451,448,-3,-449.5,227,222.5
4.12376933895921,424,411,-13,-417.5,218.5,199
4.12658227848101,391,375,-16,-383,203.5,179.5
4.12939521800281,352,343,-9,-347.5,180.5,167
4.13220815752461,327,318,-9,-322.5,168,154.5
4.13502109704641,319,304,-15,-311.5,167,144.5
4.13783403656821,319,302,-17,-310.5,168,142.5
4.14064697609001,323,309,-14,-316,168.5,147.5
4.14345991561181,321,315,-6,-318,163.5,154.5
4.14627285513361,314,317,3,-315.5,155.5,160
4.14908579465541,308,320,12,-314,148,166
4.15189873417722,310,318,8,-314,151,163
4.15471167369902,313,314,1,-313.5,156,157.5
4.15752461322082,318,315,-3,-316.5,160.5,156
4.16033755274262,318,313,-5,-315.5,161.5,154
4.16315049226442,310,310,0,-310,155,155
4.16596343178622,299,310,11,-304.5,144,160.5
4.16877637130802,301,312,11,-306.5,145,161.5
4.17158931082982,306,311,5,-308.5,150.5,158
4.17440225035162,313,309,-4,-311,158.5,152.5
4.17721518987342,315,313,-2,-314,158.5,155.5
4.18002812939522,310,312,2,-311,154,157
4.18284106891702,301,308,7,-304.5,147,157.5
4.18565400843882,295,307,12,-301,141.5,159.5
4.18846694796062,299,306,7,-302.5,146,156.5
4.19127988748242,308,307,-1,-307.5,154.5,153
4.19409282700422,313,313,0,-313,156.5,156.5
4.19690576652602,316,316,0,-316,158,158
4.19971870604782,310,320,10,-315,150,165
4.20253164556962,305,319,14,-312,145.5,166.5
4.20534458509142,308,320,12,-314,148,166
4.20815752461322,315,320,5,-317.5,155,162.5
4.21097046413502,320,318,-2,-319,161,158
4.21378340365682,321,321,0,-321,160.5,160.5
4.21659634317862,319,322,3,-320.5,158,162.5
4.21940928270042,310,322,12,-316,149,167
4.22222222222222,308,320,12,-314,148,166
4.22503516174402,314,318,4,-316,155,161
4.22784810126582,320,319,-1,-319.5,160.5,159
4.23066104078762,324,319,-5,-321.5,164.5,157
4.23347398030942,322,320,-2,-321,162,159
4.23628691983122,312,317,5,-314.5,153.5,161
4.23909985935302,306,318,12,-312,147,165
4.24191279887482,311,320,9,-315.5,151,164.5
4.24472573839662,320,322,2,-321,159,162
4.24753867791842,327,324,-3,-325.5,165,160.5
4.25035161744023,329,325,-4,-327,166.5,160.5
4.25316455696202,323,327,4,-325,159.5,165.5
4.25597749648383,316,329,13,-322.5,151.5,171
4.25879043600563,316,328,12,-322,152,170
4.26160337552743,322,326,4,-324,159,165
4.26441631504923,329,324,-5,-326.5,167,159.5
4.26722925457103,332,327,-5,-329.5,168.5,161
4.27004219409283,329,329,0,-329,164.5,164.5
4.27285513361463,322,331,9,-326.5,156.5,170
4.27566807313643,321,336,15,-328.5,153,175.5
4.27848101265823,328,337,9,-332.5,159.5,173
4.28129395218003,337,339,2,-338,167.5,170.5
4.28410689170183,343,342,-1,-342.5,172,170.5
4.28691983122363,342,343,1,-342.5,170.5,172
4.28973277074543,333,342,9,-337.5,162,175.5
4.29254571026723,326,341,15,-333.5,155.5,178
4.29535864978903,330,340,10,-335,160,175
4.29817158931083,337,341,4,-339,166.5,172.5
4.30098452883263,345,342,-3,-343.5,174,169.5
4.30379746835443,350,345,-5,-347.5,177.5,170
4.30661040787623,348,352,4,-350,172,178
4.30942334739803,340,356,16,-348,162,186
4.31223628691983,338,353,15,-345.5,161.5,184
4.31504922644163,345,353,8,-349,168.5,180.5
4.31786216596343,350,350,0,-350,175,175
4.32067510548523,355,355,0,-355,177.5,177.5
4.32348804500703,355,357,2,-356,176.5,179.5
4.32630098452883,346,355,9,-350.5,168.5,182
4.32911392405063,339,354,15,-346.5,162,184.5
4.33192686357243,345,357,12,-351,166.5,184.5
4.33473980309423,356,359,3,-357.5,176.5,181
4.33755274261603,361,361,0,-361,180.5,180.5
4.34036568213783,364,361,-3,-362.5,183.5,179
4.34317862165963,356,361,5,-358.5,175.5,183
4.34599156118143,347,361,14,-354,166.5,187.5
4.34880450070323,346,359,13,-352.5,166.5,186
4.35161744022504,354,356,2,-355,176,179
4.35443037974684,359,354,-5,-356.5,182,174.5
4.35724331926864,358,355,-3,-356.5,180.5,176
4.36005625879044,354,352,-2,-353,178,175
4.36286919831224,341,353,12,-347,164.5,182.5
4.36568213783404,336,348,12,-342,162,180
4.36849507735584,339,345,6,-342,166.5,175.5
4.37130801687764,342,343,1,-342.5,170.5,172
4.37412095639944,344,339,-5,-341.5,174.5,167
4.37693389592124,341,336,-5,-338.5,173,165.5
4.37974683544304,330,333,3,-331.5,163.5,168
4.38255977496484,318,329,11,-323.5,153.5,170
4.38537271448664,315,322,7,-318.5,154,164.5
4.38818565400844,321,319,-2,-320,161.5,158.5
4.39099859353024,322,315,-7,-318.5,164.5,154
4.39381153305204,323,316,-7,-319.5,165,154.5
4.39662447257384,315,315,0,-315,157.5,157.5
4.39943741209564,306,316,10,-311,148,163
4.40225035161744,300,314,14,-307,143,164
4.40506329113924,308,309,1,-308.5,153.5,155
4.40787623066104,312,308,-4,-310,158,152
4.41068917018284,313,302,-11,-307.5,162,145.5
4.41350210970464,306,304,-2,-305,154,151
4.41631504922644,298,300,2,-299,148,151
4.41912798874824,293,304,11,-298.5,141,157.5
4.42194092827004,296,306,10,-301,143,158
4.42475386779184,305,305,0,-305,152.5,152.5
4.42756680731364,310,307,-3,-308.5,156.5,152
4.43037974683544,313,308,-5,-310.5,159,151.5
4.43319268635724,305,309,4,-307,150.5,156.5
4.43600562587904,294,307,13,-300.5,140.5,160
4.43881856540084,294,304,10,-299,142,157
4.44163150492264,299,302,3,-300.5,148,152.5
4.44444444444444,303,299,-4,-301,153.5,147.5
4.44725738396625,306,302,-4,-304,155,149
4.45007032348805,304,305,1,-304.5,151.5,153
4.45288326300984,294,303,9,-298.5,142.5,156
4.45569620253165,291,303,12,-297,139.5,157.5
4.45850914205345,296,305,9,-300.5,143.5,157
4.46132208157525,305,305,0,-305,152.5,152.5
4.46413502109705,309,305,-4,-307,156.5,150.5
4.46694796061885,311,308,-3,-309.5,157,152.5
4.46976090014065,303,307,4,-305,149.5,155.5
4.47257383966245,296,307,11,-301.5,142.5,159
4.47538677918425,298,307,9,-302.5,144.5,158
4.47819971870605,306,308,2,-307,152,155
4.48101265822785,312,308,-4,-310,158,152
4.48382559774965,311,304,-7,-307.5,159,148.5
4.48663853727145,308,307,-1,-307.5,154.5,153
4.48945147679325,299,307,8,-303,145.5,157.5
4.49226441631505,300,312,12,-306,144,162
4.49507735583685,308,312,4,-310,152,158
4.49789029535865,313,310,-3,-311.5,158,153.5
4.50070323488045,316,311,-5,-313.5,160.5,153
4.50351617440225,316,316,0,-316,158,158
4.50632911392405,309,316,7,-312.5,151,161.5
4.50914205344585,305,317,12,-311,146.5,164.5
4.51195499296765,307,314,7,-310.5,150,160.5
4.51476793248945,313,313,0,-313,156.5,156.5
4.51758087201125,319,314,-5,-316.5,162,154.5
4.52039381153305,321,319,-2,-320,161.5,158.5
4.52320675105485,314,318,4,-316,155,161
4.52601969057665,307,317,10,-312,148.5,163.5
4.52883263009845,308,319,11,-313.5,148.5,165
4.53164556962025,314,319,5,-316.5,154.5,162
4.53445850914205,322,322,0,-322,161,161
4.53727144866385,325,321,-4,-323,164.5,158.5
4.54008438818565,322,324,2,-323,160,163
4.54289732770745,313,324,11,-318.5,151,167.5
4.54571026722925,310,325,15,-317.5,147.5,170
4.54852320675105,316,324,8,-320,154,166
4.55133614627286,324,324,0,-324,162,162
4.55414908579466,328,326,-2,-327,165,162
4.55696202531646,330,326,-4,-328,167,161
4.55977496483826,324,331,7,-327.5,158.5,169
4.56258790436006,315,330,15,-322.5,150,172.5
4.56540084388186,319,330,11,-324.5,154,170.5
4.56821378340366,327,332,5,-329.5,161,168.5
4.57102672292546,331,331,0,-331,165.5,165.5
4.57383966244726,335,335,0,-335,167.5,167.5
4.57665260196906,332,337,5,-334.5,163.5,171
4.57946554149086,323,338,15,-330.5,154,176.5
4.58227848101266,323,336,13,-329.5,155,174.5
4.58509142053446,330,339,9,-334.5,160.5,174
4.58790436005626,338,339,1,-338.5,168.5,170
4.59071729957806,341,340,-1,-340.5,171,169.5
4.59353023909986,342,344,2,-343,170,173
4.59634317862166,334,345,11,-339.5,161.5,178
4.59915611814346,330,348,18,-339,156,183
4.60196905766526,336,347,11,-341.5,162.5,179
4.60478199718706,345,350,5,-347.5,170,177.5
4.60759493670886,350,347,-3,-348.5,176.5,172
4.61040787623066,347,345,-2,-346,174.5,171.5
4.61322081575246,342,345,3,-343.5,169.5,174
4.61603375527426,333,347,14,-340,159.5,180.5
4.61884669479606,332,345,13,-338.5,159.5,179
4.62165963431786,339,345,6,-342,166.5,175.5
4.62447257383966,344,341,-3,-342.5,173.5,169
4.62728551336146,346,346,0,-346,173,173
4.63009845288326,344,342,-2,-343,173,170
4.63291139240506,332,342,10,-337,161,176
4.63572433192686,327,337,10,-332,158.5,173.5
4.63853727144866,330,335,5,-332.5,162.5,170
4.64135021097046,333,332,-1,-332.5,167,165.5
4.64416315049226,338,333,-5,-335.5,171.5,164
4.64697609001407,333,331,-2,-332,167.5,164.5
4.64978902953586,325,327,2,-326,161.5,164.5
4.65260196905766,316,329,13,-322.5,151.5,171
4.65541490857947,320,330,10,-325,155,170
4.65822784810127,326,328,2,-327,162,165
4.66104078762307,331,327,-4,-329,167.5,161.5
4.66385372714487,332,327,-5,-329.5,168.5,161
4.66666666666667,326,328,2,-327,162,165
4.66947960618847,316,328,12,-322,152,170
4.67229254571027,315,329,14,-322,150.5,171.5
4.67510548523207,321,323,2,-322,159.5,162.5
4.67791842475387,327,325,-2,-326,164.5,161.5
4.68073136427567,329,328,-1,-328.5,165,163.5
4.68354430379747,327,325,-2,-326,164.5,161.5
4.68635724331927,317,326,9,-321.5,154,167.5
4.68917018284107,310,324,14,-317,148,169
4.69198312236287,317,327,10,-322,153.5,168.5
4.69479606188467,326,325,-1,-325.5,163.5,162
4.69760900140647,330,328,-2,-329,166,163
4.70042194092827,330,326,-4,-328,167,161
4.70323488045007,321,321,0,-321,160.5,160.5
4.70604781997187,309,319,10,-314,149.5,164.5
4.70886075949367,307,319,12,-313,147.5,165.5
4.71167369901547,314,318,4,-316,155,161
4.71448663853727,320,318,-2,-319,161,158
4.71729957805907,323,317,-6,-320,164.5,155.5
4.72011251758087,322,324,2,-323,160,163
4.72292545710267,321,335,14,-328,153.5,174.5
4.72573839662447,335,362,27,-348.5,154,194.5
4.72855133614627,366,392,26,-379,170,209
4.73136427566807,402,429,27,-415.5,187.5,228
4.73417721518987,437,462,25,-449.5,206,243.5
4.73699015471167,465,489,24,-477,220.5,256.5
4.73980309423347,474,506,32,-490,221,269
4.74261603375527,472,501,29,-486.5,221.5,265
4.74542897327707,461,478,17,-469.5,222,247.5
4.74824191279887,446,444,-2,-445,224,221
4.75105485232068,423,408,-15,-415.5,219,196.5
4.75386779184248,398,374,-24,-386,211,175
4.75668073136428,368,347,-21,-357.5,194.5,163
4.75949367088608,338,327,-11,-332.5,174.5,158
4.76230661040788,326,322,-4,-324,165,159
4.76511954992968,329,321,-8,-325,168.5,156.5
4.76793248945148,338,327,-11,-332.5,174.5,158
4.77074542897328,342,333,-9,-337.5,175.5,162
4.77355836849508,343,338,-5,-340.5,174,166.5
4.77637130801688,332,336,4,-334,164,170
4.77918424753868,322,334,12,-328,155,173
4.78199718706048,323,330,7,-326.5,158,168.5
4.78481012658228,329,329,0,-329,164.5,164.5
4.78762306610408,330,325,-5,-327.5,167.5,160
4.79043600562588,331,327,-4,-329,167.5,161.5
4.79324894514768,324,327,3,-325.5,160.5,165
4.79606188466948,317,330,13,-323.5,152,171.5
4.79887482419128,318,329,11,-323.5,153.5,170
4.80168776371308,327,328,1,-327.5,163,164.5
4.80450070323488,332,330,-2,-331,167,164
4.80731364275668,334,331,-3,-332.5,168.5,164
4.81012658227848,330,330,0,-330,165,165
4.81293952180028,320,329,9,-324.5,155.5,169
4.81575246132208,315,331,16,-323,149.5,173.5
4.81856540084388,324,332,8,-328,158,170
4.82137834036568,332,332,0,-332,166,166
4.82419127988748,336,334,-2,-335,169,166
4.82700421940928,336,334,-2,-335,169,166
4.82981715893108,327,332,5,-329.5,161,168.5
4.83263009845288,318,333,15,-325.5,151.5,174
4.83544303797468,320,331,11,-325.5,154.5,171
4.83825597749648,329,334,5,-331.5,162,169.5
4.84106891701828,336,337,1,-336.5,167.5,169
4.84388185654008,340,338,-2,-339,171,168
4.84669479606188,337,340,3,-338.5,167,171.5
4.84950773558368,327,337,10,-332,158.5,173.5
4.85232067510549,324,336,12,-330,156,174
4.85513361462729,332,339,7,-335.5,162.5,173
4.85794655414909,339,337,-2,-338,170.5,167.5
4.86075949367089,342,340,-2,-341,172,169
4.86357243319269,343,340,-3,-341.5,173,168.5
4.86638537271449,332,339,7,-335.5,162.5,173
4.86919831223629,326,340,14,-333,156,177
4.87201125175809,330,341,11,-335.5,159.5,176
4.87482419127989,338,339,1,-338.5,168.5,170
4.87763713080169,341,337,-4,-339,172.5,166.5
4.88045007032349,342,341,-1,-341.5,171.5,170
4.88326300984529,339,343,4,-341,167.5,173.5
4.88607594936709,334,349,15,-341.5,159.5,182
4.88888888888889,335,349,14,-342,160.5,181.5
4.89170182841069,342,348,6,-345,168,177
4.89451476793249,348,346,-2,-347,175,172
4.89732770745429,350,349,-1,-349.5,175.5,174
4.90014064697609,347,348,1,-347.5,173,174.5
4.90295358649789,342,352,10,-347,166,181
4.90576652601969,338,357,19,-347.5,159.5,188
4.90857946554149,347,357,10,-352,168.5,183.5
4.91139240506329,357,358,1,-357.5,178,179.5
4.91420534458509,361,358,-3,-359.5,182,177.5
4.91701828410689,359,357,-2,-358,180.5,177.5
4.91983122362869,352,358,6,-355,173,182
4.92264416315049,346,360,14,-353,166,187
4.92545710267229,348,361,13,-354.5,167.5,187
4.92827004219409,356,362,6,-359,175,184
4.93108298171589,365,362,-3,-363.5,184,179.5
4.93389592123769,368,366,-2,-367,185,182
4.93670886075949,365,369,4,-367,180.5,186.5
4.93952180028129,356,367,11,-361.5,172.5,189
4.94233473980309,355,369,14,-362,170.5,191.5
4.94514767932489,363,372,9,-367.5,177,190.5
4.94796061884669,370,370,0,-370,185,185
4.9507735583685,374,371,-3,-372.5,188.5,184
4.9535864978903,373,371,-2,-372,187.5,184.5
4.9563994374121,364,371,7,-367.5,178.5,189
4.9592123769339,355,370,15,-362.5,170,192.5
4.9620253164557,360,368,8,-364,176,188
4.9648382559775,370,371,1,-370.5,184.5,186
4.9676511954993,375,375,0,-375,187.5,187.5
4.9704641350211,377,375,-2,-376,189.5,186.5
4.9732770745429,371,374,3,-372.5,184,188.5
4.9760900140647,360,372,12,-366,174,192
4.9789029535865,357,371,14,-364,171.5,192.5
4.9817158931083,364,369,5,-366.5,179.5,187
4.9845288326301,370,367,-3,-368.5,186.5,182
4.9873417721519,370,364,-6,-367,188,179
4.9901547116737,365,364,-1,-364.5,183,181.5
4.9929676511955,354,359,5,-356.5,174.5,182
4.9957805907173,344,356,12,-350,166,184
4.9985935302391,346,351,5,-348.5,170.5,178
5.0014064697609,352,347,-5,-349.5,178.5,171
5.0042194092827,352,348,-4,-350,178,172
5.0070323488045,348,345,-3,-346.5,175.5,171
5.0098452883263,340,343,3,-341.5,168.5,173
5.0126582278481,328,339,11,-333.5,158.5,175
5.0154711673699,326,334,8,-330,159,171
5.0182841068917,331,328,-3,-329.5,167,162.5
5.0210970464135,333,329,-4,-331,168.5,162.5
5.0239099859353,334,327,-7,-330.5,170.5,160
5.0267229254571,326,324,-2,-325,164,161
5.0295358649789,313,321,8,-317,152.5,164.5
5.0323488045007,306,318,12,-312,147,165
5.0351617440225,312,316,4,-314,154,160
5.0379746835443,316,314,-2,-315,159,156
5.0407876230661,321,316,-5,-318.5,163,155.5
5.0436005625879,320,317,-3,-318.5,161.5,157
5.0464135021097,311,320,9,-315.5,151,164.5
5.0492264416315,305,319,14,-312,145.5,166.5
5.05203938115331,306,313,7,-309.5,149.5,160
5.05485232067511,311,311,0,-311,155.5,155.5
5.05766526019691,316,311,-5,-313.5,160.5,153
5.06047819971871,315,310,-5,-312.5,160,152.5
5.06329113924051,309,313,4,-311,152.5,158.5
5.06610407876231,302,315,13,-308.5,144.5,164
5.06891701828411,302,316,14,-309,144,165
5.07172995780591,312,316,4,-314,154,160
5.07454289732771,317,316,-1,-316.5,159,157.5
5.07735583684951,319,315,-4,-317,161.5,155.5
5.08016877637131,316,313,-3,-314.5,159.5,155
5.08298171589311,304,311,7,-307.5,148.5,159
5.08579465541491,297,311,14,-304,141.5,162.5
5.08860759493671,302,310,8,-306,147,159
5.09142053445851,310,311,1,-310.5,154.5,156
5.09423347398031,317,316,-1,-316.5,159,157.5
5.09704641350211,320,319,-1,-319.5,160.5,159
5.09985935302391,312,317,5,-314.5,153.5,161
5.10267229254571,304,319,15,-311.5,144.5,167
5.10548523206751,303,315,12,-309,145.5,163.5
5.10829817158931,312,314,2,-313,155,158
5.11111111111111,317,314,-3,-315.5,160,155.5
5.11392405063291,319,315,-4,-317,161.5,155.5
5.11673699015471,314,315,1,-314.5,156.5,158
5.11954992967651,306,316,10,-311,148,163
5.12236286919831,304,318,14,-311,145,166
5.12517580872011,309,316,7,-312.5,151,161.5
5.12798874824191,317,316,-1,-316.5,159,157.5
5.13080168776371,318,318,0,-318,159,159
5.13361462728551,319,318,-1,-318.5,160,158.5
5.13642756680731,309,314,5,-311.5,152,159.5
5.13924050632911,301,313,12,-307,144.5,162.5
5.14205344585091,303,313,10,-308,146.5,161.5
5.14486638537271,311,311,0,-311,155.5,155.5
5.14767932489451,316,313,-3,-314.5,159.5,155
5.15049226441632,318,316,-2,-317,160,157
5.15330520393812,314,318,4,-316,155,161
5.15611814345992,307,321,14,-314,146.5,167.5
5.15893108298172,307,318,11,-312.5,148,164.5
5.16174402250352,315,316,1,-315.5,157,158.5
5.16455696202532,318,316,-2,-317,160,157
5.16736990154712,318,314,-4,-316,161,155
5.17018284106892,315,314,-1,-314.5,158,156.5
5.17299578059072,306,315,9,-310.5,148.5,162
5.17580872011252,302,317,15,-309.5,143.5,166
5.17862165963432,308,318,10,-313,149,164
5.18143459915612,315,316,1,-315.5,157,158.5
5.18424753867792,319,317,-2,-318,160.5,157.5
5.18706047819972,318,315,-3,-316.5,160.5,156
5.18987341772152,312,315,3,-313.5,154.5,159
5.19268635724332,304,317,13,-310.5,145.5,165
5.19549929676512,303,315,12,-309,145.5,163.5
5.19831223628692,310,311,1,-310.5,154.5,156
5.20112517580872,317,311,-6,-314,161.5,152.5
5.20393811533052,318,311,-7,-314.5,162.5,152
5.20675105485232,313,316,3,-314.5,155,159.5
5.20956399437412,306,316,10,-311,148,163
5.21237693389592,305,316,11,-310.5,147,163.5
5.21518987341772,312,318,6,-315,153,162
5.21800281293952,317,317,0,-317,158.5,158.5
5.22081575246132,322,318,-4,-320,163,157
5.22362869198312,321,320,-1,-320.5,161,159.5
5.22644163150492,314,321,7,-317.5,153.5,164
5.22925457102672,309,323,14,-316,147.5,168.5
5.23206751054852,313,321,8,-317,152.5,164.5
5.23488045007032,319,321,2,-320,158.5,161.5
5.23769338959212,326,325,-1,-325.5,163.5,162
5.24050632911392,329,323,-6,-326,167.5,158.5
5.24331926863572,322,326,4,-324,159,165
5.24613220815752,313,327,14,-320,149.5,170.5
5.24894514767932,315,328,13,-321.5,151,170.5
5.25175808720113,322,329,7,-325.5,157.5,168
5.25457102672293,332,331,-1,-331.5,166.5,165
5.25738396624473,334,331,-3,-332.5,168.5,164
5.26019690576653,332,332,0,-332,166,166
5.26300984528833,321,330,9,-325.5,156,169.5
5.26582278481013,317,330,13,-323.5,152,171.5
5.26863572433193,323,328,5,-325.5,159,166.5
5.27144866385373,328,329,1,-328.5,163.5,165
5.27426160337553,332,327,-5,-329.5,168.5,161
5.27707454289733,333,328,-5,-330.5,169,161.5
5.27988748241913,325,327,2,-326,161.5,164.5
5.28270042194093,316,325,9,-320.5,153.5,167
5.28551336146273,317,325,8,-321,154.5,166.5
5.28832630098453,322,324,2,-323,160,163
5.29113924050633,325,320,-5,-322.5,165,157.5
5.29395218002813,324,319,-5,-321.5,164.5,157
5.29676511954993,317,316,-1,-316.5,159,157.5
5.29957805907173,305,313,8,-309,148.5,160.5
5.30239099859353,301,310,9,-305.5,146,159.5
5.30520393811533,303,306,3,-304.5,150,154.5
5.30801687763713,308,306,-2,-307,155,152
5.31082981715893,309,305,-4,-307,156.5,150.5
5.31364275668073,311,308,-3,-309.5,157,152.5
5.31645569620253,303,310,7,-306.5,148,158.5
5.31926863572433,295,311,16,-303,139.5,163.5
5.32208157524613,297,309,12,-303,142.5,160.5
5.32489451476793,305,306,1,-305.5,152,153.5
5.32770745428973,308,307,-1,-307.5,154.5,153
5.33052039381153,310,306,-4,-308,157,151
5.33333333333333,304,307,3,-305.5,150.5,155
5.33614627285513,294,303,9,-298.5,142.5,156
5.33895921237693,291,300,9,-295.5,141,154.5
5.34177215189873,299,299,0,-299,149.5,149.5
5.34458509142053,303,302,-1,-302.5,152,150.5
5.34739803094234,306,302,-4,-304,155,149
5.35021097046414,303,304,1,-303.5,151,152.5
5.35302390998593,294,304,10,-299,142,157
5.35583684950774,288,301,13,-294.5,137.5,157
5.35864978902954,291,298,7,-294.5,142,152.5
5.36146272855134,298,297,-1,-297.5,149.5,148
5.36427566807314,302,298,-4,-300,153,147
5.36708860759494,304,301,-3,-302.5,153.5,149
5.36990154711674,296,300,4,-298,146,152
5.37271448663854,286,299,13,-292.5,136.5,156
5.37552742616034,290,300,10,-295,140,155
5.37834036568214,304,309,5,-306.5,149.5,157
5.38115330520394,326,334,8,-330,159,171
5.38396624472574,351,364,13,-357.5,169,188.5
5.38677918424754,378,402,24,-390,177,213
5.38959212376934,398,433,35,-415.5,181.5,234
5.39240506329114,423,463,40,-443,191.5,251.5
5.39521800281294,446,477,31,-461.5,207.5,254
5.39803094233474,458,474,16,-466,221,245
5.40084388185654,453,453,0,-453,226.5,226.5
5.40365682137834,429,421,-8,-425,218.5,206.5
5.40646976090014,394,386,-8,-390,201,189
5.40928270042194,358,352,-6,-355,182,173
5.41209563994374,333,319,-14,-326,173.5,152.5
5.41490857946554,320,299,-21,-309.5,170.5,139
5.41772151898734,313,291,-22,-302,167.5,134.5
5.42053445850914,311,294,-17,-302.5,164,138.5
5.42334739803094,308,302,-6,-305,157,148
5.42616033755274,302,308,6,-305,148,157
5.42897327707454,302,311,9,-306.5,146.5,160
5.43178621659634,311,311,0,-311,155.5,155.5
5.43459915611814,316,314,-2,-315,159,156
5.43741209563994,317,315,-2,-316,159.5,156.5
5.44022503516174,314,315,1,-314.5,156.5,158
5.44303797468354,305,314,9,-309.5,148,161.5
5.44585091420534,299,311,12,-305,143.5,161.5
5.44866385372714,302,309,7,-305.5,147.5,158
5.45147679324895,309,308,-1,-308.5,155,153.5
5.45428973277075,313,310,-3,-311.5,158,153.5
5.45710267229255,314,313,-1,-313.5,157.5,156
5.45991561181435,310,317,7,-313.5,151.5,162
5.46272855133615,303,318,15,-310.5,144,166.5
5.46554149085795,304,313,9,-308.5,147.5,161
5.46835443037975,310,310,0,-310,155,155
5.47116736990155,311,307,-4,-309,157.5,151.5
5.47398030942335,314,310,-4,-312,159,153
5.47679324894515,312,316,4,-314,154,160
5.47960618846695,304,319,15,-311.5,144.5,167
5.48241912798875,303,319,16,-311,143.5,167.5
5.48523206751055,313,321,8,-317,152.5,164.5
5.48804500703235,320,319,-1,-319.5,160.5,159
5.49085794655415,324,322,-2,-323,163,160
5.49367088607595,323,322,-1,-322.5,162,160.5
5.49648382559775,315,325,10,-320,152.5,167.5
5.49929676511955,310,321,11,-315.5,149.5,166
5.50210970464135,313,323,10,-318,151.5,166.5
5.50492264416315,321,321,0,-321,160.5,160.5
5.50773558368495,325,322,-3,-323.5,164,159.5
5.51054852320675,327,323,-4,-325,165.5,159.5
5.51336146272855,321,324,3,-322.5,159,163.5
5.51617440225035,312,325,13,-318.5,149.5,169
5.51898734177215,312,325,13,-318.5,149.5,169
5.52180028129395,318,322,4,-320,157,163
5.52461322081575,328,328,0,-328,164,164
5.52742616033755,332,330,-2,-331,167,164
5.53023909985935,330,332,2,-331,164,167
5.53305203938115,323,334,11,-328.5,156,172.5
5.53586497890295,318,333,15,-325.5,151.5,174
5.53867791842475,324,333,9,-328.5,157.5,171
5.54149085794655,333,335,2,-334,165.5,168.5
5.54430379746835,337,334,-3,-335.5,170,165.5
5.54711673699016,340,338,-2,-339,171,168
5.54992967651195,333,339,6,-336,163.5,172.5
5.55274261603375,324,337,13,-330.5,155.5,175
5.55555555555556,326,340,14,-333,156,177
5.55836849507736,336,340,4,-338,166,172
5.56118143459916,343,340,-3,-341.5,173,168.5
5.56399437412096,344,344,0,-344,172,172
5.56680731364276,342,344,2,-343,170,173
5.56962025316456,333,345,12,-339,160.5,178.5
5.57243319268636,333,348,15,-340.5,159,181.5
5.57524613220816,339,346,7,-342.5,166,176.5
5.57805907172996,346,350,4,-348,171,177
5.58087201125176,352,350,-2,-351,177,174
5.58368495077356,352,352,0,-352,176,176
5.58649789029536,346,354,8,-350,169,181
5.58931082981716,340,354,14,-347,163,184
5.59212376933896,342,353,11,-347.5,165.5,182
5.59493670886076,352,356,4,-354,174,180
5.59774964838256,358,360,2,-359,178,181
5.60056258790436,364,363,-1,-363.5,182.5,181
5.60337552742616,361,369,8,-365,176.5,188.5
5.60618846694796,355,371,16,-363,169.5,193.5
5.60900140646976,355,370,15,-362.5,170,192.5
5.61181434599156,363,368,5,-365.5,179,186.5
5.61462728551336,369,367,-2,-368,185.5,182.5
5.61744022503516,371,365,-6,-368,188.5,179.5
5.62025316455696,368,367,-1,-367.5,184.5,183
5.62306610407876,360,370,10,-365,175,190
5.62587904360056,354,370,16,-362,169,193
5.62869198312236,363,370,7,-366.5,178,188.5
5.63150492264416,369,369,0,-369,184.5,184.5
5.63431786216596,372,369,-3,-370.5,187.5,183
5.63713080168776,371,365,-6,-368,188.5,179.5
5.63994374120956,361,365,4,-363,178.5,184.5
5.64275668073136,353,362,9,-357.5,172,185.5
5.64556962025316,352,363,11,-357.5,170.5,187
5.64838255977496,357,361,4,-359,176.5,182.5
5.65119549929677,360,356,-4,-358,182,176
5.65400843881857,359,355,-4,-357,181.5,175.5
5.65682137834037,353,353,0,-353,176.5,176.5
5.65963431786217,341,348,7,-344.5,167,177.5
5.66244725738397,333,344,11,-338.5,161,177.5
5.66526019690577,334,339,5,-336.5,164.5,172
5.66807313642757,337,333,-4,-335,170.5,164.5
5.67088607594937,340,336,-4,-338,172,166
5.67369901547117,340,336,-4,-338,172,166
5.67651195499297,327,332,5,-329.5,161,168.5
5.67932489451477,319,330,11,-324.5,154,170.5
5.68213783403657,318,324,6,-321,156,165
5.68495077355837,323,323,0,-323,161.5,161.5
5.68776371308017,328,322,-6,-325,167,158
5.69057665260197,326,321,-5,-323.5,165.5,158
5.69338959212377,317,322,5,-319.5,156,163.5
5.69620253164557,309,320,11,-314.5,149,165.5
5.69901547116737,306,319,13,-312.5,146.5,166
5.70182841068917,311,316,5,-313.5,153,160.5
5.70464135021097,317,314,-3,-315.5,160,155.5
5.70745428973277,320,314,-6,-317,163,154
5.71026722925457,317,315,-2,-316,159.5,156.5
5.71308016877637,309,318,9,-313.5,150,163.5
5.71589310829817,301,318,17,-309.5,142,167.5
5.71870604781997,306,313,7,-309.5,149.5,160
5.72151898734177,311,310,-1,-310.5,156,154.5
5.72433192686357,317,312,-5,-314.5,161,153.5
5.72714486638537,319,313,-6,-316,162.5,153.5
5.72995780590717,309,314,5,-311.5,152,159.5
5.73277074542897,301,313,12,-307,144.5,162.5
5.73558368495077,303,316,13,-309.5,145,164.5
5.73839662447257,312,313,1,-312.5,155.5,157
5.74120956399437,319,316,-3,-317.5,161,156.5
5.74402250351617,321,316,-5,-318.5,163,155.5
5.74683544303798,319,318,-1,-318.5,160,158.5
5.74964838255977,306,317,11,-311.5,147.5,164
5.75246132208158,303,317,14,-310,144.5,165.5
5.75527426160338,310,317,7,-313.5,151.5,162
5.75808720112518,318,319,1,-318.5,158.5,160
5.76090014064698,321,319,-2,-320,161.5,158.5
5.76371308016878,322,318,-4,-320,163,157
5.76652601969058,314,318,4,-316,155,161
5.76933895921238,304,319,15,-311.5,144.5,167
5.77215189873418,308,318,10,-313,149,164
5.77496483825598,314,317,3,-315.5,155.5,160
5.77777777777778,320,319,-1,-319.5,160.5,159
5.78059071729958,324,320,-4,-322,164,158
5.78340365682138,317,321,4,-319,156.5,162.5
5.78621659634318,309,323,14,-316,147.5,168.5
5.78902953586498,308,321,13,-314.5,147.5,167
5.79184247538678,315,317,2,-316,156.5,159.5
5.79465541490858,320,318,-2,-319,161,158
5.79746835443038,321,316,-5,-318.5,163,155.5
5.80028129395218,320,317,-3,-318.5,161.5,157
5.80309423347398,309,321,12,-315,148.5,166.5
5.80590717299578,306,317,11,-311.5,147.5,164
5.80872011251758,309,317,8,-313,150.5,162.5
5.81153305203938,316,316,0,-316,158,158
5.81434599156118,319,314,-5,-316.5,162,154.5
5.81715893108298,318,316,-2,-317,160,157
5.81997187060478,312,318,6,-315,153,162
5.82278481012658,305,318,13,-311.5,146,165.5
5.82559774964838,307,320,13,-313.5,147,166.5
5.82841068917018,315,319,4,-317,155.5,161.5
5.83122362869198,321,320,-1,-320.5,161,159.5
5.83403656821378,321,318,-3,-319.5,162,157.5
5.83684950773558,316,317,1,-316.5,157.5,159
5.83966244725738,308,318,10,-313,149,164
5.84247538677918,306,319,13,-312.5,146.5,166
5.84528832630098,313,320,7,-316.5,153,163.5
5.84810126582278,321,321,0,-321,160.5,160.5
5.85091420534459,322,319,-3,-320.5,162.5,158
5.85372714486639,320,321,1,-320.5,159.5,161
5.85654008438819,313,319,6,-316,153.5,162.5
5.85935302390999,307,320,13,-313.5,147,166.5
5.86216596343179,310,320,10,-315,150,165
5.86497890295359,318,321,3,-319.5,157.5,162
5.86779184247539,321,319,-2,-320,161.5,158.5
5.87060478199719,322,319,-3,-320.5,162.5,158
5.87341772151899,317,321,4,-319,156.5,162.5
5.87623066104079,307,322,15,-314.5,146,168.5
5.87904360056259,307,319,12,-313,147.5,165.5
5.88185654008439,317,322,5,-319.5,156,163.5
5.88466947960619,322,323,1,-322.5,160.5,162
5.88748241912799,325,323,-2,-324,163.5,160.5
5.89029535864979,326,328,2,-327,162,165
5.89310829817159,319,328,9,-323.5,155,168.5
5.89592123769339,315,329,14,-322,150.5,171.5
5.89873417721519,320,331,11,-325.5,154.5,171
5.90154711673699,327,329,2,-328,162.5,165.5
5.90436005625879,331,328,-3,-329.5,167,162.5
5.90717299578059,328,325,-3,-326.5,165.5,161
5.90998593530239,321,325,4,-323,158.5,164.5
5.91279887482419,314,328,14,-321,150,171
5.91561181434599,317,329,12,-323,152.5,170.5
5.91842475386779,328,333,5,-330.5,161.5,169
5.92123769338959,336,335,-1,-335.5,168.5,167
5.92405063291139,338,337,-1,-337.5,169.5,168
5.92686357243319,335,340,5,-337.5,165,172.5
5.92967651195499,327,340,13,-333.5,157,176.5
5.93248945147679,326,337,11,-331.5,157.5,174
5.93530239099859,330,336,6,-333,162,171
5.93811533052039,336,334,-2,-335,169,166
5.94092827004219,338,335,-3,-336.5,170.5,166
5.94374120956399,336,335,-1,-335.5,168.5,167
5.94655414908579,327,332,5,-329.5,161,168.5
5.94936708860759,321,334,13,-327.5,154,173.5
5.9521800281294,322,332,10,-327,156,171
5.9549929676512,328,328,0,-328,164,164
5.957805907173,332,328,-4,-330,168,162
5.9606188466948,330,324,-6,-327,168,159
5.9634317862166,324,324,0,-324,162,162
5.9662447257384,313,323,10,-318,151.5,166.5
5.9690576652602,312,322,10,-317,151,166
5.971870604782,316,320,4,-318,156,162
5.9746835443038,322,319,-3,-320.5,162.5,158
5.9774964838256,321,314,-7,-317.5,164,153.5
5.9803094233474,319,315,-4,-317,161.5,155.5
5.9831223628692,308,315,7,-311.5,150.5,161
5.985935302391,301,313,12,-307,144.5,162.5
5.9887482419128,306,314,8,-310,149,161
5.9915611814346,313,315,2,-314,155.5,158.5
5.9943741209564,317,313,-4,-315,160.5,154.5
5.9971870604782,317,315,-2,-316,159.5,156.5
6,310,315,5,-312.5,152.5,160
6.0028129395218,302,314,12,-308,145,163
6.0056258790436,303,315,12,-309,145.5,163.5
6.0084388185654,308,312,4,-310,152,158
6.0112517580872,313,311,-2,-312,157.5,154.5
6.014064697609,315,309,-6,-312,160.5,151.5
6.0168776371308,310,309,-1,-309.5,155.5,154
6.0196905766526,302,312,10,-307,146,161
6.0225035161744,297,313,16,-305,140.5,164.5
6.0253164556962,304,310,6,-307,149,158
6.028129395218,311,308,-3,-309.5,157,152.5
6.0309423347398,312,308,-4,-310,158,152
6.0337552742616,311,307,-4,-309,157.5,151.5
6.0365682137834,301,307,6,-304,147.5,156.5
6.0393811533052,293,304,11,-298.5,141,157.5
6.042194092827,296,304,8,-300,144,156
6.0450070323488,304,308,4,-306,150,156
6.0478199718706,318,320,2,-319,158,161
6.05063291139241,335,343,8,-339,163.5,175.5
6.05344585091421,355,372,17,-363.5,169,194.5
6.05625879043601,370,402,32,-386,169,217
6.05907172995781,397,434,37,-415.5,180,235.5
6.06188466947961,430,462,32,-446,199,247
6.06469760900141,455,476,21,-465.5,217,248.5
6.06751054852321,462,475,13,-468.5,224.5,244
6.07032348804501,453,457,4,-455,224.5,230.5
6.07313642756681,426,430,4,-428,211,217
6.07594936708861,394,392,-2,-393,198,195
6.07876230661041,366,356,-10,-361,188,173
6.08157524613221,348,325,-23,-336.5,185.5,151
6.08438818565401,331,306,-25,-318.5,178,140.5
6.08720112517581,320,298,-22,-309,171,138
6.09001406469761,310,299,-11,-304.5,160.5,144
6.09282700421941,299,303,4,-301,147.5,153.5
6.09563994374121,303,309,6,-306,148.5,157.5
6.09845288326301,314,316,2,-315,156,159
6.10126582278481,320,317,-3,-318.5,161.5,157
6.10407876230661,322,319,-3,-320.5,162.5,158
6.10689170182841,319,316,-3,-317.5,161,156.5
6.10970464135021,310,317,7,-313.5,151.5,162
6.11251758087201,304,320,16,-312,144,168
6.11533052039381,312,319,7,-315.5,152.5,163
6.11814345991561,317,315,-2,-316,159.5,156.5
6.12095639943741,320,316,-4,-318,162,156
6.12376933895921,318,315,-3,-316.5,160.5,156
6.12658227848101,310,316,6,-313,152,161
6.12939521800281,305,318,13,-311.5,146,165.5
6.13220815752461,308,319,11,-313.5,148.5,165
6.13502109704641,315,313,-2,-314,158.5,155.5
6.13783403656821,317,316,-1,-316.5,159,157.5
6.14064697609001,318,314,-4,-316,161,155
6.14345991561181,313,315,2,-314,155.5,158.5
6.14627285513361,306,318,12,-312,147,165
6.14908579465541,304,316,12,-310,146,164
6.15189873417722,310,315,5,-312.5,152.5,160
6.15471167369902,318,317,-1,-317.5,159.5,158
6.15752461322082,321,319,-2,-320,161.5,158.5
6.16033755274262,320,318,-2,-319,161,158
6.16315049226442,311,320,9,-315.5,151,164.5
6.16596343178622,307,322,15,-314.5,146,168.5
6.16877637130802,316,324,8,-320,154,166
6.17158931082982,324,321,-3,-322.5,163.5,159
6.17440225035162,327,322,-5,-324.5,166,158.5
6.17721518987342,326,323,-3,-324.5,164.5,160
6.18002812939522,320,325,5,-322.5,157.5,165
6.18284106891702,312,328,16,-320,148,172
6.18565400843882,316,327,11,-321.5,152.5,169
6.18846694796062,324,329,5,-326.5,159.5,167
6.19127988748242,331,330,-1,-330.5,166,164.5
6.19409282700422,331,330,-1,-330.5,166,164.5
6.19690576652602,330,332,2,-331,164,167
6.19971870604782,320,334,14,-327,153,174
6.20253164556962,319,331,12,-325,153.5,171.5
6.20534458509142,325,333,8,-329,158.5,170.5
6.20815752461322,333,333,0,-333,166.5,166.5
6.21097046413502,337,333,-4,-335,170.5,164.5
6.21378340365682,337,335,-2,-336,169.5,166.5
6.21659634317862,328,336,8,-332,160,172
6.21940928270042,322,336,14,-329,154,175
6.22222222222222,324,336,12,-330,156,174
6.22503516174402,331,334,3,-332.5,164,168.5
6.22784810126582,338,335,-3,-336.5,170.5,166
6.23066104078762,342,341,-1,-341.5,171.5,170
6.23347398030942,341,343,2,-342,169.5,172.5
6.23628691983122,332,347,15,-339.5,158.5,181
6.23909985935302,331,344,13,-337.5,159,178.5
6.24191279887482,337,343,6,-340,165.5,174.5
6.24472573839662,345,345,0,-345,172.5,172.5
6.24753867791842,348,348,0,-348,174,174
6.25035161744023,349,349,0,-349,174.5,174.5
6.25316455696202,341,351,10,-346,165.5,180.5
6.25597749648383,337,354,17,-345.5,160,185.5
6.25879043600563,342,354,12,-348,165,183
6.26160337552743,352,354,2,-353,175,178
6.26441631504923,358,356,-2,-357,180,177
6.26722925457103,358,357,-1,-357.5,179.5,178
6.27004219409283,351,359,8,-355,171.5,183.5
6.27285513361463,344,361,17,-352.5,163.5,189
6.27566807313643,347,359,12,-353,167.5,185.5
6.27848101265823,356,360,4,-358,176,182
6.28129395218003,362,363,1,-362.5,180.5,182
6.28410689170183,364,360,-4,-362,184,178
6.28691983122363,361,363,2,-362,179.5,182.5
6.28973277074543,351,364,13,-357.5,169,188.5
6.29254571026723,350,361,11,-355.5,169.5,186
6.29535864978903,354,362,8,-358,173,185
6.29817158931083,363,363,0,-363,181.5,181.5
6.30098452883263,365,363,-2,-364,183.5,180.5
6.30379746835443,364,361,-3,-362.5,183.5,179
6.30661040787623,352,357,5,-354.5,173.5,181
6.30942334739803,343,356,13,-349.5,165,184.5
6.31223628691983,344,353,9,-348.5,167.5,181
6.31504922644163,350,351,1,-350.5,174.5,176
6.31786216596343,353,349,-4,-351,178.5,172.5
6.32067510548523,353,343,-10,-348,181.5,166.5
6.32348804500703,343,343,0,-343,171.5,171.5
6.32630098452883,332,343,11,-337.5,160.5,177
6.32911392405063,328,338,10,-333,159,174
6.33192686357243,333,334,1,-333.5,166,167.5
6.33473980309423,334,331,-3,-332.5,168.5,164
6.33755274261603,333,327,-6,-330,169.5,160.5
6.34036568213783,327,324,-3,-325.5,165,160.5
6.34317862165963,317,325,8,-321,154.5,166.5
6.34599156118143,308,319,11,-313.5,148.5,165
6.34880450070323,311,320,9,-315.5,151,164.5
6.35161744022504,317,315,-2,-316,159.5,156.5
6.35443037974684,317,309,-8,-313,162.5,150.5
6.35724331926864,317,310,-7,-313.5,162,151.5
6.36005625879044,307,308,1,-307.5,153,154.5
6.36286919831224,296,307,11,-301.5,142.5,159
6.36568213783404,295,304,9,-299.5,143,156.5
6.36849507735584,301,304,3,-302.5,149,153.5
6.37130801687764,306,301,-5,-303.5,155.5,148
6.37412095639944,305,304,-1,-304.5,153,151.5
6.37693389592124,303,304,1,-303.5,151,152.5
6.37974683544304,291,299,8,-295,141.5,153.5
6.38255977496484,288,302,14,-295,137,158
6.38537271448664,292,299,7,-295.5,142.5,153
6.38818565400844,301,303,2,-302,149.5,152.5
6.39099859353024,303,301,-2,-302,152.5,149.5
6.39381153305204,303,302,-1,-302.5,152,150.5
6.39662447257384,294,300,6,-297,144,153
6.39943741209564,287,298,11,-292.5,138,154.5
6.40225035161744,290,300,10,-295,140,155
6.40506329113924,296,298,2,-297,147,150
6.40787623066104,300,298,-2,-299,151,148
6.41068917018284,304,298,-6,-301,155,146
6.41350210970464,298,299,1,-298.5,148.5,150
6.41631504922644,290,299,9,-294.5,140.5,154
6.41912798874824,289,302,13,-295.5,138,157.5
6.42194092827004,296,304,8,-300,144,156
6.42475386779184,301,301,0,-301,150.5,150.5
6.42756680731364,303,300,-3,-301.5,153,148.5
6.43037974683544,301,300,-1,-300.5,151,149.5
6.43319268635724,293,305,12,-299,140.5,158.5
6.43600562587904,289,300,11,-294.5,139,155.5
6.43881856540084,294,302,8,-298,143,155
6.44163150492264,300,300,0,-300,150,150
6.44444444444444,303,300,-3,-301.5,153,148.5
6.44725738396625,306,301,-5,-303.5,155.5,148
6.45007032348805,299,305,6,-302,146.5,155.5
6.45288326300984,293,305,12,-299,140.5,158.5
6.45569620253165,293,306,13,-299.5,140,159.5
6.45850914205345,299,305,6,-302,146.5,155.5
6.46132208157525,304,303,-1,-303.5,152.5,151
6.46413502109705,308,304,-4,-306,156,150
6.46694796061885,303,303,0,-303,151.5,151.5
6.46976090014065,292,302,10,-297,141,156
6.47257383966245,288,303,15,-295.5,136.5,159
6.47538677918425,294,299,5,-296.5,144.5,152
6.47819971870605,300,300,0,-300,150,150
6.48101265822785,304,299,-5,-301.5,154.5,147
6.48382559774965,304,301,-3,-302.5,153.5,149
6.48663853727145,297,302,5,-299.5,146,153.5
6.48945147679325,288,301,13,-294.5,137.5,157
6.49226441631505,289,300,11,-294.5,139,155.5
6.49507735583685,298,300,2,-299,148,151
6.49789029535865,304,302,-2,-303,153,150
6.50070323488045,306,303,-3,-304.5,154.5,150
6.50351617440225,299,303,4,-301,147.5,153.5
6.50632911392405,290,301,11,-295.5,139.5,156
6.50914205344585,288,301,13,-294.5,137.5,157
6.51195499296765,295,300,5,-297.5,145,152.5
6.51476793248945,302,301,-1,-301.5,151.5,150
6.51758087201125,304,300,-4,-302,154,148
6.52039381153305,304,302,-2,-303,153,150
6.52320675105485,295,300,5,-297.5,145,152.5
6.52601969057665,289,302,13,-295.5,138,157.5
6.52883263009845,292,299,7,-295.5,142.5,153
6.53164556962025,299,298,-1,-298.5,150,148.5
6.53445850914205,304,302,-2,-303,153,150
6.53727144866385,305,302,-3,-303.5,154,149.5
6.54008438818565,300,303,3,-301.5,148.5,153
6.54289732770745,290,305,15,-297.5,137.5,160
6.54571026722925,291,303,12,-297,139.5,157.5
6.54852320675105,299,304,5,-301.5,147,154.5
6.55133614627286,303,302,-1,-302.5,152,150.5
6.55414908579466,307,304,-3,-305.5,155,150.5
6.55696202531646,304,306,2,-305,151,154
6.55977496483826,297,307,10,-302,143.5,158.5
6.56258790436006,294,309,15,-301.5,139.5,162
6.56540084388186,301,309,8,-305,146.5,158.5
6.56821378340366,308,308,0,-308,154,154
6.57102672292546,311,306,-5,-308.5,158,150.5
6.57383966244726,309,305,-4,-307,156.5,150.5
6.57665260196906,303,307,4,-305,149.5,155.5
6.57946554149086,298,313,15,-305.5,141.5,164
6.58227848101266,303,316,13,-309.5,145,164.5
6.58509142053446,311,315,4,-313,153.5,159.5
6.58790436005626,319,318,-1,-318.5,160,158.5
6.59071729957806,323,321,-2,-322,162.5,159.5
6.59353023909986,319,322,3,-320.5,158,162.5
6.59634317862166,308,320,12,-314,148,166
6.59915611814346,304,316,12,-310,146,164
6.60196905766526,310,314,4,-312,153,159
6.60478199718706,316,313,-3,-314.5,159.5,155
6.60759493670886,317,311,-6,-314,161.5,152.5
6.61040787623066,314,311,-3,-312.5,158.5,154
6.61322081575246,303,310,7,-306.5,148,158.5
6.61603375527426,299,312,13,-305.5,143,162.5
6.61884669479606,302,310,8,-306,147,159
6.62165963431786,308,309,1,-308.5,153.5,155
6.62447257383966,312,304,-8,-308,160,148
6.62728551336146,309,303,-6,-306,157.5,148.5
6.63009845288326,299,299,0,-299,149.5,149.5
6.63291139240506,287,297,10,-292,138.5,153.5
6.63572433192686,286,297,11,-291.5,137.5,154
6.63853727144866,293,296,3,-294.5,145,149.5
6.64135021097046,297,297,0,-297,148.5,148.5
6.64416315049226,301,297,-4,-299,152.5,146.5
6.64697609001407,295,291,-4,-293,149.5,143.5
6.64978902953586,284,293,9,-288.5,137.5,151
6.65260196905766,278,292,14,-285,132,153
6.65541490857947,284,290,6,-287,139,148
6.65822784810127,291,290,-1,-290.5,146,144.5
6.66104078762307,295,291,-4,-293,149.5,143.5
6.66385372714487,294,291,-3,-292.5,148.5,144
6.66666666666667,287,292,5,-289.5,141,148.5
6.66947960618847,280,292,12,-286,134,152
6.67229254571027,282,291,9,-286.5,136.5,150
6.67510548523207,289,293,4,-291,142.5,148.5
6.67791842475387,295,293,-2,-294,148.5,145.5
6.68073136427567,296,291,-5,-293.5,150.5,143
6.68354430379747,292,292,0,-292,146,146
6.68635724331927,282,292,10,-287,136,151
6.68917018284107,278,290,12,-284,133,151
6.69198312236287,282,286,4,-284,139,145
6.69479606188467,284,280,-4,-282,144,138
6.69760900140647,285,279,-6,-282,145.5,136.5
6.70042194092827,285,281,-4,-283,144.5,138.5
6.70323488045007,276,282,6,-279,135,144
6.70604781997187,271,284,13,-277.5,129,148.5
6.70886075949367,278,289,11,-283.5,133.5,150
6.71167369901547,295,295,0,-295,147.5,147.5
6.71448663853727,313,320,7,-316.5,153,163.5
6.71729957805907,338,351,13,-344.5,162.5,182
6.72011251758087,361,386,25,-373.5,168,205.5
6.72292545710267,384,423,39,-403.5,172.5,231
6.72573839662447,413,453,40,-433,186.5,246.5
6.72855133614627,440,468,28,-454,206,248
6.73136427566807,448,463,15,-455.5,216.5,239
6.73417721518987,439,440,1,-439.5,219,220.5
6.73699015471167,413,406,-7,-409.5,210,199.5
6.73980309423347,378,372,-6,-375,192,183
6.74261603375527,346,338,-8,-342,177,165
6.74542897327707,326,308,-18,-317,172,145
6.74824191279887,312,288,-24,-300,168,132
6.75105485232068,302,279,-23,-290.5,162.5,128
6.75386779184248,297,279,-18,-288,157.5,130.5
6.75668073136428,290,285,-5,-287.5,147.5,140
6.75949367088608,284,291,7,-287.5,138.5,149
6.76230661040788,289,299,10,-294,139.5,154.5
6.76511954992968,298,303,5,-300.5,146.5,154
6.76793248945148,305,303,-2,-304,153.5,150.5
6.77074542897328,305,300,-5,-302.5,155,147.5
6.77355836849508,301,297,-4,-299,152.5,146.5
6.77637130801688,290,299,9,-294.5,140.5,154
6.77918424753868,286,297,11,-291.5,137.5,154
6.78199718706048,294,297,3,-295.5,145.5,150
6.78481012658228,302,297,-5,-299.5,153.5,146
6.78762306610408,304,300,-4,-302,154,148
6.79043600562588,303,299,-4,-301,153.5,147.5
6.79324894514768,295,301,6,-298,144.5,153.5
6.79606188466948,290,303,13,-296.5,138.5,158
6.79887482419128,294,304,10,-299,142,157
6.80168776371308,301,301,0,-301,150.5,150.5
6.80450070323488,305,302,-3,-303.5,154,149.5
6.80731364275668,308,304,-4,-306,156,150
6.81012658227848,301,303,2,-302,149.5,152.5
6.81293952180028,294,305,11,-299.5,141.5,158
6.81575246132208,295,303,8,-299,143.5,155.5
6.81856540084388,303,304,1,-303.5,151,152.5
6.82137834036568,310,307,-3,-308.5,156.5,152
6.82419127988748,313,313,0,-313,156.5,156.5
6.82700421940928,312,312,0,-312,156,156
6.82981715893108,302,312,10,-307,146,161
6.83263009845288,298,314,16,-306,141,165
6.83544303797468,305,314,9,-309.5,148,161.5
6.83825597749648,314,317,3,-315.5,155.5,160
6.84106891701828,319,318,-1,-318.5,160,158.5
6.84388185654008,320,319,-1,-319.5,160.5,159
6.84669479606188,313,318,5,-315.5,154,161.5
6.84950773558368,306,321,15,-313.5,145.5,168
6.85232067510549,310,319,9,-314.5,150.5,164
6.85513361462729,319,323,4,-321,157.5,163.5
6.85794655414909,325,324,-1,-324.5,163,161.5
6.86075949367089,327,325,-2,-326,164.5,161.5
6.86357243319269,323,325,2,-324,160.5,163.5
6.86638537271449,315,328,13,-321.5,151,170.5
6.86919831223629,314,327,13,-320.5,150.5,170
6.87201125175809,323,327,4,-325,159.5,165.5
6.87482419127989,330,331,1,-330.5,164.5,166
6.87763713080169,332,330,-2,-331,167,164
6.88045007032349,331,332,1,-331.5,165,166.5
6.88326300984529,326,336,10,-331,158,173
6.88607594936709,321,335,14,-328,153.5,174.5
6.88888888888889,327,334,7,-330.5,160,170.5
6.89170182841069,334,338,4,-336,165,171
6.89451476793249,340,340,0,-340,170,170
6.89732770745429,345,342,-3,-343.5,174,169.5
6.90014064697609,339,346,7,-342.5,166,176.5
6.90295358649789,330,348,18,-339,156,183
6.90576652601969,332,347,15,-339.5,158.5,181
6.90857946554149,341,349,8,-345,166.5,178.5
6.91139240506329,349,349,0,-349,174.5,174.5
6.91420534458509,353,352,-1,-352.5,177,175.5
6.91701828410689,353,353,0,-353,176.5,176.5
6.91983122362869,345,355,10,-350,167.5,182.5
6.92264416315049,342,358,16,-350,163,187
6.92545710267229,347,357,10,-352,168.5,183.5
6.92827004219409,357,359,2,-358,177.5,180.5
6.93108298171589,360,360,0,-360,180,180
6.93389592123769,360,357,-3,-358.5,181.5,177
6.93670886075949,352,356,4,-354,174,180
6.93952180028129,344,357,13,-350.5,165.5,185
6.94233473980309,349,363,14,-356,167.5,188.5
6.94514767932489,361,364,3,-362.5,179,183.5
6.94796061884669,366,369,3,-367.5,181.5,186
6.9507735583685,370,370,0,-370,185,185
6.9535864978903,365,368,3,-366.5,181,185.5
6.9563994374121,355,367,12,-361,171.5,189.5
6.9592123769339,351,368,17,-359.5,167,192.5
6.9620253164557,355,366,11,-360.5,172,188.5
6.9648382559775,365,366,1,-365.5,182,183.5
6.9676511954993,366,366,0,-366,183,183
6.9704641350211,367,362,-5,-364.5,186,178.5
6.9732770745429,357,362,5,-359.5,176,183.5
6.9760900140647,347,361,14,-354,166.5,187.5
6.9789029535865,351,359,8,-355,171.5,183.5
6.9817158931083,356,354,-2,-355,179,176
6.9845288326301,357,353,-4,-355,180.5,174.5
6.9873417721519,356,351,-5,-353.5,180.5,173
6.9901547116737,346,348,2,-347,172,175
6.9929676511955,333,344,11,-338.5,161,177.5
6.9957805907173,328,337,9,-332.5,159.5,173
6.9985935302391,333,331,-2,-332,167.5,164.5
7.0014064697609,334,331,-3,-332.5,168.5,164
7.0042194092827,333,326,-7,-329.5,170,159.5
7.0070323488045,329,323,-6,-326,167.5,158.5
7.0098452883263,316,325,9,-320.5,153.5,167
7.0126582278481,313,324,11,-318.5,151,167.5
7.0154711673699,314,320,6,-317,154,163
7.0182841068917,320,318,-2,-319,161,158
7.0210970464135,321,316,-5,-318.5,163,155.5
7.0239099859353,318,313,-5,-315.5,161.5,154
7.0267229254571,308,311,3,-309.5,152.5,157
7.0295358649789,298,309,11,-303.5,143.5,160
7.0323488045007,297,307,10,-302,143.5,158.5
7.0351617440225,305,309,4,-307,150.5,156.5
7.0379746835443,311,311,0,-311,155.5,155.5
7.0407876230661,314,310,-4,-312,159,153
7.0436005625879,308,310,2,-309,153,156
7.0464135021097,298,309,11,-303.5,143.5,160
7.0492264416315,293,310,17,-301.5,138,163.5
7.05203938115331,301,308,7,-304.5,147,157.5
7.05485232067511,306,306,0,-306,153,153
7.05766526019691,308,306,-2,-307,155,152
7.06047819971871,307,305,-2,-306,154.5,151.5
7.06329113924051,298,306,8,-302,145,157
7.06610407876231,292,305,13,-298.5,139.5,159
7.06891701828411,296,304,8,-300,144,156
7.07172995780591,302,302,0,-302,151,151
7.07454289732771,305,302,-3,-303.5,154,149.5
7.07735583684951,308,306,-2,-307,155,152
7.08016877637131,304,308,4,-306,150,156
7.08298171589311,294,307,13,-300.5,140.5,160
7.08579465541491,293,307,14,-300,139.5,160.5
7.08860759493671,302,306,4,-304,149,155
7.09142053445851,308,308,0,-308,154,154
7.09423347398031,312,308,-4,-310,158,152
7.09704641350211,308,307,-1,-307.5,154.5,153
7.09985935302391,300,310,10,-305,145,160
7.10267229254571,296,310,14,-303,141,162
7.10548523206751,301,309,8,-305,146.5,158.5
7.10829817158931,308,309,1,-308.5,153.5,155
7.11111111111111,311,309,-2,-310,156.5,153.5
7.11392405063291,310,308,-2,-309,156,153
7.11673699015471,303,307,4,-305,149.5,155.5
7.11954992967651,296,310,14,-303,141,162
7.12236286919831,299,310,11,-304.5,144,160.5
7.12517580872011,307,311,4,-309,151.5,157.5
7.12798874824191,312,309,-3,-310.5,157.5,153
7.13080168776371,314,310,-4,-312,159,153
7.13361462728551,307,305,-2,-306,154.5,151.5
7.13642756680731,298,308,10,-303,144,159
7.13924050632911,296,311,15,-303.5,140.5,163
7.14205344585091,304,310,6,-307,149,158
7.14486638537271,311,312,1,-311.5,155,156.5
7.14767932489451,315,312,-3,-313.5,159,154.5
7.15049226441632,312,310,-2,-311,157,154
7.15330520393812,303,310,7,-306.5,148,158.5
7.15611814345992,298,311,13,-304.5,142.5,162
7.15893108298172,301,310,9,-305.5,146,159.5
7.16174402250352,307,311,4,-309,151.5,157.5
7.16455696202532,312,312,0,-312,156,156
7.16736990154712,314,311,-3,-312.5,158.5,154
7.17018284106892,307,312,5,-309.5,151,158.5
7.17299578059072,298,309,11,-303.5,143.5,160
7.17580872011252,297,308,11,-302.5,143,159.5
7.17862165963432,303,307,4,-305,149.5,155.5
7.18143459915612,311,307,-4,-309,157.5,151.5
7.18424753867792,312,307,-5,-309.5,158.5,151
7.18706047819972,310,310,0,-310,155,155
7.18987341772152,300,310,10,-305,145,160
7.19268635724332,297,310,13,-303.5,142,161.5
7.19549929676512,303,308,5,-305.5,149,156.5
7.19831223628692,309,308,-1,-308.5,155,153.5
7.20112517580872,314,311,-3,-312.5,158.5,154
7.20393811533052,315,314,-1,-314.5,158,156.5
7.20675105485232,309,318,9,-313.5,150,163.5
7.20956399437412,303,319,16,-311,143.5,167.5
7.21237693389592,305,317,12,-311,146.5,164.5
7.21518987341772,312,317,5,-314.5,153.5,161
7.21800281293952,317,315,-2,-316,159.5,156.5
7.22081575246132,319,316,-3,-317.5,161,156.5
7.22362869198312,315,318,3,-316.5,156,160.5
7.22644163150492,306,317,11,-311.5,147.5,164
7.22925457102672,304,316,12,-310,146,164
7.23206751054852,312,320,8,-316,152,164
7.23488045007032,322,322,0,-322,161,161
7.23769338959212,326,324,-2,-325,164,161
7.24050632911392,325,325,0,-325,162.5,162.5
7.24331926863572,316,324,8,-320,154,166
7.24613220815752,309,324,15,-316.5,147,169.5
7.24894514767932,314,324,10,-319,152,167
7.25175808720113,320,323,3,-321.5,158.5,163
7.25457102672293,324,322,-2,-323,163,160
7.25738396624473,326,321,-5,-323.5,165.5,158
7.26019690576653,320,323,3,-321.5,158.5,163
7.26300984528833,312,324,12,-318,150,168
7.26582278481013,310,322,12,-316,149,167
7.26863572433193,315,319,4,-317,155.5,161.5
7.27144866385373,318,315,-3,-316.5,160.5,156
7.27426160337553,319,313,-6,-316,162.5,153.5
7.27707454289733,314,312,-2,-313,158,155
7.27988748241913,301,308,7,-304.5,147,157.5
7.28270042194093,294,305,11,-299.5,141.5,158
7.28551336146273,296,304,8,-300,144,156
7.28832630098453,302,300,-2,-301,152,149
7.29113924050633,302,298,-4,-300,153,147
7.29395218002813,304,298,-6,-301,155,146
7.29676511954993,298,302,4,-300,147,153
7.29957805907173,291,305,14,-298,138.5,159.5
7.30239099859353,292,301,9,-296.5,141.5,155
7.30520393811533,298,298,0,-298,149,149
7.30801687763713,303,299,-4,-301,153.5,147.5
7.31082981715893,304,297,-7,-300.5,155.5,145
7.31364275668073,297,295,-2,-296,149.5,146.5
7.31645569620253,287,295,8,-291,139.5,151.5
7.31926863572433,286,297,11,-291.5,137.5,154
7.32208157524613,291,297,6,-294,142.5,151.5
7.32489451476793,297,297,0,-297,148.5,148.5
7.32770745428973,301,297,-4,-299,152.5,146.5
7.33052039381153,299,296,-3,-297.5,151,146.5
7.33333333333333,292,300,8,-296,142,154
7.33614627285513,285,298,13,-291.5,136,155.5
7.33895921237693,289,297,8,-293,140.5,152.5
7.34177215189873,294,294,0,-294,147,147
7.34458509142053,295,289,-6,-292,150.5,141.5
7.34739803094234,293,291,-2,-292,147.5,144.5
7.35021097046414,287,288,1,-287.5,143,144.5
7.35302390998593,277,290,13,-283.5,132,151.5
7.35583684950774,275,287,12,-281,131.5,149.5
7.35864978902954,285,289,4,-287,140.5,146.5
7.36146272855134,295,295,0,-295,147.5,147.5
7.36427566807314,311,313,2,-312,154.5,157.5
7.36708860759494,330,342,12,-336,159,177
7.36990154711674,348,376,28,-362,160,202
7.37271448663854,372,409,37,-390.5,167.5,223
7.37552742616034,407,441,34,-424,186.5,237.5
7.37834036568214,439,467,28,-453,205.5,247.5
7.38115330520394,457,476,19,-466.5,219,247.5
7.38396624472574,455,465,10,-460,222.5,237.5
7.38677918424754,432,438,6,-435,213,222
7.38959212376934,399,400,1,-399.5,199,200.5
7.39240506329114,372,365,-7,-368.5,189.5,179
7.39521800281294,349,330,-19,-339.5,184,155.5
7.39803094233474,329,303,-26,-316,177.5,138.5
7.40084388185654,314,288,-26,-301,170,131
7.40365682137834,299,285,-14,-292,156.5,135.5
7.40646976090014,288,285,-3,-286.5,145.5,141
7.40928270042194,286,290,4,-288,141,147
7.41209563994374,294,295,1,-294.5,146.5,148
7.41490857946554,303,301,-2,-302,152.5,149.5
7.41772151898734,307,304,-3,-305.5,155,150.5
7.42053445850914,305,304,-1,-304.5,153,151.5
7.42334739803094,295,303,8,-299,143.5,155.5
7.42616033755274,287,300,13,-293.5,137,156.5
7.42897327707454,289,297,8,-293,140.5,152.5
7.43178621659634,296,295,-1,-295.5,148.5,147
7.43459915611814,301,296,-5,-298.5,153,145.5
7.43741209563994,302,299,-3,-300.5,152.5,148
7.44022503516174,295,299,4,-297,145.5,151.5
7.44303797468354,288,297,9,-292.5,139.5,153
7.44585091420534,286,297,11,-291.5,137.5,154
7.44866385372714,291,295,4,-293,143.5,149.5
7.45147679324895,297,295,-2,-296,149.5,146.5
7.45428973277075,300,297,-3,-298.5,151.5,147
7.45710267229255,301,301,0,-301,150.5,150.5
7.45991561181435,293,301,8,-297,142.5,154.5
7.46272855133615,288,302,14,-295,137,158
7.46554149085795,292,300,8,-296,142,154
7.46835443037975,299,300,1,-299.5,149,150.5
7.47116736990155,304,301,-3,-302.5,153.5,149
7.47398030942335,307,305,-2,-306,154.5,151.5
7.47679324894515,301,303,2,-302,149.5,152.5
7.47960618846695,293,306,13,-299.5,140,159.5
7.48241912798875,294,306,12,-300,141,159
7.48523206751055,300,305,5,-302.5,147.5,155
7.48804500703235,304,301,-3,-302.5,153.5,149
7.49085794655415,307,304,-3,-305.5,155,150.5
7.49367088607595,303,305,2,-304,150.5,153.5
7.49648382559775,298,307,9,-302.5,144.5,158
7.49929676511955,298,312,14,-305,142,163
7.50210970464135,304,310,6,-307,149,158
7.50492264416315,311,312,1,-311.5,155,156.5
7.50773558368495,312,309,-3,-310.5,157.5,153
7.51054852320675,312,310,-2,-311,157,154
7.51336146272855,305,313,8,-309,148.5,160.5
7.51617440225035,300,316,16,-308,142,166
7.51898734177215,303,314,11,-308.5,146,162.5
7.52180028129395,312,317,5,-314.5,153.5,161
7.52461322081575,316,317,1,-316.5,157.5,159
7.52742616033755,320,318,-2,-319,161,158
7.53023909985935,315,321,6,-318,154.5,163.5
7.53305203938115,308,322,14,-315,147,168
7.53586497890295,308,321,13,-314.5,147.5,167
7.53867791842475,316,320,4,-318,156,162
7.54149085794655,322,320,-2,-321,162,159
7.54430379746835,325,320,-5,-322.5,165,157.5
7.54711673699016,322,321,-1,-321.5,161.5,160
7.54992967651195,315,323,8,-319,153.5,165.5
7.55274261603375,313,327,14,-320,149.5,170.5
7.55555555555556,319,328,9,-323.5,155,168.5
7.55836849507736,328,329,1,-328.5,163.5,165
7.56118143459916,332,330,-2,-331,167,164
7.56399437412096,334,332,-2,-333,168,165
7.56680731364276,328,335,7,-331.5,160.5,171
7.56962025316456,323,336,13,-329.5,155,174.5
7.57243319268636,325,338,13,-331.5,156,175.5
7.57524613220816,333,337,4,-335,164.5,170.5
7.57805907172996,339,339,0,-339,169.5,169.5
7.58087201125176,341,339,-2,-340,171.5,168.5
7.58368495077356,341,341,0,-341,170.5,170.5
7.58649789029536,334,345,11,-339.5,161.5,178
7.58931082981716,333,345,12,-339,160.5,178.5
7.59212376933896,340,349,9,-344.5,165.5,179
7.59493670886076,348,349,1,-348.5,173.5,175
7.59774964838256,351,349,-2,-350,176.5,173.5
7.60056258790436,349,349,0,-349,174.5,174.5
7.60337552742616,343,351,8,-347,167.5,179.5
7.60618846694796,336,352,16,-344,160,184
7.60900140646976,340,350,10,-345,165,180
7.61181434599156,346,350,4,-348,171,177
7.61462728551336,353,346,-7,-349.5,180,169.5
7.61744022503516,352,349,-3,-350.5,177.5,173
7.62025316455696,344,346,2,-345,171,174
7.62306610407876,335,345,10,-340,162.5,177.5
7.62587904360056,335,344,9,-339.5,163,176.5
7.62869198312236,339,341,2,-340,168.5,171.5
7.63150492264416,343,340,-3,-341.5,173,168.5
7.63431786216596,342,338,-4,-340,173,167
7.63713080168776,338,336,-2,-337,170,167
7.63994374120956,326,332,6,-329,160,169
7.64275668073136,319,329,10,-324,154.5,169.5
7.64556962025316,321,326,5,-323.5,158,165.5
7.64838255977496,325,322,-3,-323.5,164,159.5
7.65119549929677,326,320,-6,-323,166,157
7.65400843881857,323,319,-4,-321,163.5,157.5
7.65682137834037,312,313,1,-312.5,155.5,157
7.65963431786217,300,311,11,-305.5,144.5,161
7.66244725738397,298,305,7,-301.5,145.5,156
7.66526019690577,302,301,-1,-301.5,151.5,150
7.66807313642757,305,299,-6,-302,155.5,146.5
7.67088607594937,306,299,-7,-302.5,156.5,146
7.67369901547117,302,301,-1,-301.5,151.5,150
7.67651195499297,293,302,9,-297.5,142,155.5
7.67932489451477,290,301,11,-295.5,139.5,156
7.68213783403657,296,298,2,-297,147,150
7.68495077355837,299,295,-4,-297,151.5,145.5
7.68776371308017,303,297,-6,-300,154.5,145.5
7.69057665260197,300,298,-2,-299,151,148
7.69338959212377,292,298,6,-295,143,152
7.69620253164557,286,295,9,-290.5,138.5,152
7.69901547116737,286,294,8,-290,139,151
7.70182841068917,293,291,-2,-292,147.5,144.5
7.70464135021097,298,296,-2,-297,150,147
7.70745428973277,300,295,-5,-297.5,152.5,145
7.71026722925457,296,297,1,-296.5,147.5,149
7.71308016877637,285,295,10,-290,137.5,152.5
7.71589310829817,285,295,10,-290,137.5,152.5
7.71870604781997,290,296,6,-293,142,151
7.72151898734177,298,294,-4,-296,151,145
7.72433192686357,299,297,-2,-298,150.5,147.5
7.72714486638537,299,299,0,-299,149.5,149.5
7.72995780590717,291,299,8,-295,141.5,153.5
7.73277074542897,287,298,11,-292.5,138,154.5
7.73558368495077,290,297,7,-293.5,141.5,152
