t,leadI,leadII,leadIII,aVR,aVL,aVF
0,48.0845319556078,-1515.21009295558,-1563.29462491119,733.562780499988,805.6895784334,-1539.25235893339
0.00214018191546281,-120.589533722704,-1370.63232237417,-1250.04278865147,745.610928048439,564.726627464383,-1310.33755551282
0.00428036383092563,-205.918283898915,-1258.90398903847,-1052.98570513956,732.411136468695,423.533710620322,-1155.94484708902
0.00642054574638844,-184.006200323497,-1161.33345749639,-977.327257172894,672.669828909944,396.660528424698,-1069.33035733464
0.00856072766185126,-175.909230564003,-1086.05409720928,-910.144866645274,630.98166388664,367.117818040636,-998.099481927276
0.0107009095773141,-174.171326171619,-1027.91122673948,-853.739900567864,601.041276455551,339.784287198122,-940.825563653674
0.0128410914927769,-174.625591757106,-980.195002187021,-805.569410429915,577.410296972064,315.471909336405,-892.882206308468
0.0149812734082397,-175.776468906669,-942.83414160592,-767.057672699251,559.305305256295,295.640601896291,-854.945907152586
0.0171214553237025,-175.927071147926,-908.69536003841,-732.768288890484,542.311215593168,278.420608871279,-820.731824464447
0.0192616372391653,-173.859057810608,-872.991662679347,-699.132604868739,523.425360244978,262.636773529065,-786.062133774043
0.0214018191546281,-171.445390192655,-840.002434304382,-668.557044111727,505.723912248519,248.555826959536,-754.279739208054
0.023542001070091,-168.737061607367,-806.905851626095,-638.168790018728,487.821456616731,234.71586420568,-722.537320822411
0.0256821829855538,-163.733877348461,-772.869650959474,-609.135773611013,468.301764153967,222.700948131276,-691.002712285244
0.0278223649010166,-158.141550430366,-737.91468704467,-579.773136614304,448.028118737518,210.815793091969,-658.843911829487
0.0299625468164794,-152.036400159837,-706.063446852417,-554.02704669258,429.049923506127,200.995323266371,-630.045246772498
0.0321027287319422,-146.800236753861,-674.791370188788,-527.991133434927,410.795803471324,190.595448340533,-601.391251811858
0.034242910647405,-140.985069697706,-642.646409064604,-501.661339366898,391.815739381155,180.338134834596,-572.153874215751
0.0363830925628678,-135.971105054009,-612.972666228644,-477.001561174635,374.471885641327,170.515228060313,-544.98711370164
0.0385232744783307,-130.990096074124,-584.091218508804,-453.10112243468,357.540657291464,161.055513180278,-518.596170471742
0.0406634563937935,-124.735838113021,-553.923183047553,-429.187344934532,339.329510580287,152.225753410756,-491.555263991043
0.0428036383092563,-119.321819425588,-527.160441643297,-407.838622217709,323.241130534443,144.258401396061,-467.499531930503
0.0449438202247191,-114.631728673124,-504.623032336788,-389.991303663664,309.627380504956,137.67978749527,-447.307168000226
0.0470840021401819,-108.628179110384,-481.211725442043,-372.583546331659,294.919952276213,131.977683610638,-426.897635886851
0.0492241840556447,-103.422359815094,-457.683183117252,-354.260823302158,280.552771466173,125.419231743532,-405.972003209705
0.0513643659711075,-98.9068590628923,-439.210329025555,-340.303469962663,269.058594044224,120.698305449885,-389.756899494109
0.0535045478865704,-93.0543951475864,-421.24847476192,-328.194079614334,257.151434954753,117.569842233374,-374.721277188127
0.0556447298020332,-87.9758992099412,-401.148954785646,-313.173055575704,244.562426997793,112.598578182882,-357.161005180675
0.057784911717496,-82.9238673274221,-381.771513056728,-298.847645729306,232.347690192075,107.961889200942,-340.309579393017
0.0599250936329588,-79.1833554426021,-364.95272125051,-285.769365807908,222.068038346556,103.293005182653,-325.361043529209
0.0620652755484216,-75.9365038773976,-348.420588121735,-272.484084244337,212.178545999566,98.2737901834697,-310.452336183036
0.0642054574638844,-71.1851797465527,-331.492395173219,-260.307215426666,201.338787459886,94.5610178400567,-295.899805299942
0.0663456393793472,-66.4162843040493,-315.508410016916,-249.092125712867,190.962347160483,91.3379207044087,-282.300267864891
0.0684858212948101,-62.9204012884736,-303.56463258286,-240.644231294387,183.242516935667,88.8619150029567,-272.104431938624
0.0706260032102729,-59.8854146530256,-288.686464740101,-228.801050087076,174.285939696563,84.4578177170249,-258.743757413588
0.0727661851257357,-56.6063829961688,-274.481335537933,-217.874952541764,165.543859267051,80.6342847727975,-246.178144039848
0.0749063670411985,-53.7595656507662,-262.792717843022,-209.033152192256,158.276141746894,77.6367932707448,-235.912935017639
0.0770465489566613,-51.2879657675859,-251.356491865019,-200.068526097433,151.322228816302,74.3902801649235,-225.712508981226
0.0791867308721241,-47.8539345299614,-239.495243758747,-191.641309228786,143.674589144354,71.8936873494121,-215.568276493766
0.0813269127875869,-46.8047194647589,-229.197193823321,-182.392474358562,138.00095664404,67.7938774469015,-205.794834090941
0.0834670947030498,-44.6056250851581,-221.544438958652,-176.938813873494,133.075032021905,66.1665943941679,-199.241626416073
0.0856072766185126,-42.0522633817674,-211.679832526879,-169.627569145112,126.866047954323,63.7876528816723,-190.653700835996
0.0877474585339754,-39.8353869422616,-203.115196519942,-163.279809577681,121.475291731102,61.7222113177095,-183.197503048811
0.0898876404494382,-37.9106495939244,-197.611403416354,-159.70075382243,117.761026505139,60.8950521142526,-178.656078619392
0.092027822364901,-36.2395509325535,-190.900697747257,-154.661146814704,113.570124339906,59.2107979410752,-172.780922280981
0.0941680042803638,-35.4327283669365,-183.142122067241,-147.709393700305,109.287425217089,56.1383326666842,-165.425757883773
0.0963081861958267,-34.7322261897679,-177.050007705805,-142.317781516037,105.891116947786,53.7927776631345,-159.683894610921
0.0984483681112895,-32.8359108446187,-171.760688572438,-138.924777727819,102.298299708528,53.0444334416002,-155.342733150128
0.100588550026752,-30.5454230729879,-163.304008810848,-132.75858573786,96.924715941918,51.1065813324362,-148.031297274354
0.102728731942215,-29.8448858877683,-158.537952735756,-128.693066847987,94.191419311762,49.4240904801095,-143.615509791871
0.104868913857678,-29.8807220997279,-155.688064519917,-125.807342420189,92.7843933098224,47.9633101602306,-140.747703470053
0.107009095773141,-29.2677762557119,-151.92560085655,-122.657824600838,90.596688556131,46.6950241725632,-137.291712728694
0.109149277688604,-26.8034226100937,-146.082697145447,-119.279274535353,86.4430598777705,46.2379259626299,-132.6809858404
0.111289459604066,-25.307868020658,-143.585978401075,-118.278110380417,84.4469232108666,46.4851211798796,-130.932044390746
0.113429641519529,-24.0093896855291,-140.774204705884,-116.764815020354,82.3917971957063,46.3777126674127,-128.769509863119
0.115569823434992,-22.8820178675617,-137.044833021521,-114.162815153959,79.9634254445413,45.6403986431988,-125.60382408774
0.117710005350455,-21.259145848629,-131.874720284786,-110.615574436157,76.5669330667075,44.678214293764,-121.245147360471
0.119850187265918,-20.4941862123796,-130.606192540873,-110.112006328494,75.5501893766265,44.8089100580571,-120.359099434684
0.12199036918138,-20.4740878736572,-125.640469913165,-105.166382039508,73.0572788934112,42.3461470829255,-115.403425976337
0.124130551096843,-19.8125789183522,-121.329103023865,-101.516524105513,70.5708409711085,40.8519725935802,-111.422813564689
0.126270733012306,-19.2382399820465,-119.518041536387,-100.27980155434,69.3781407592167,40.5207807861469,-109.898921545364
0.128410914927769,-19.3836433039519,-116.657513708228,-97.2738704042757,68.0205785060898,38.9451135501619,-106.965692056252
0.130551096843232,-18.8658271560733,-111.597694400202,-92.7318672441288,65.2317607781377,36.9330200440277,-102.164780822165
0.132691278758694,-17.7721869527974,-107.204630184788,-89.4324432319903,62.4884085687926,35.8301281395964,-98.318536708389
0.134831460674157,-16.8226606212017,-105.966695757594,-89.1440351363924,61.3946781893979,36.1606872575953,-97.5553654469932
0.13697164258962,-15.3541986256571,-103.603771491382,-88.2495728657248,59.4789850585195,36.4476871200338,-95.9266721785533
0.139111824505083,-14.7233014389121,-101.552220333365,-86.8289188944534,58.1377608861388,36.0528087277707,-94.1905696139094
0.141252006420546,-15.4636583882863,-103.63536522374,-88.1717068354539,59.5495118060133,36.3540242235838,-95.9035360295971
0.143392188336009,-15.462396197306,-106.088063787037,-90.6256675897314,60.7752299921717,37.5816356962127,-98.3568656883844
0.145532370251471,-14.1731823471254,-103.065087356953,-88.8919050098273,58.6191348520391,37.359361331351,-95.97849618339
0.147672552166934,-13.6979129611496,-100.440462047631,-86.742549086481,57.0691875043901,36.5223180626657,-93.5915055670558
0.149812734082397,-13.9293309368045,-100.737931308621,-86.8086003718161,57.3336311227126,36.4396347175058,-93.7732658402184
0.15195291599786,-14.1302539313221,-98.4199657584593,-84.2897118271373,56.2751098448907,35.0797289479076,-91.3548387927983
0.154093097913323,-13.0165824272935,-95.763389901081,-82.7468074737875,54.3899861641872,34.865112523247,-89.2550986874342
0.156233279828785,-13.9818413600935,-96.0331188716868,-82.0512775115934,55.0074801158901,34.03471807575,-89.0421981916401
0.158373461744248,-14.1758448211124,-96.2673044503109,-82.0914596291986,55.2215746357117,33.9578074040431,-89.1793820397547
0.160513643659711,-13.7002245911501,-94.5384533849856,-80.8382287938355,54.1193389880678,33.5690021013427,-87.6883410894106
0.162653825575174,-13.2872789644996,-92.3933617632863,-79.1060827987867,52.8403203638929,32.9094019171436,-85.7497222810365
0.164794007490637,-14.2168670037394,-93.1071744014804,-78.890307397741,53.6620207026099,32.3367201970008,-85.9987408996107
0.1669341894061,-13.0917821102151,-91.1506888082961,-78.0589066980811,52.1212354592556,32.483562293933,-84.6047977531886
0.169074371321562,-12.7590136684808,-89.452018065133,-76.6930043966522,51.1055158668069,31.9669953640857,-83.0725112308926
0.171214553237025,-12.4700956114224,-89.26530673176,-76.7952111203376,50.8677011715912,32.1625577544576,-83.0302589260488
0.173354735152488,-12.2192495778803,-89.1031991851745,-76.8839496072943,50.6612243815274,32.332350014707,-82.9935743962344
0.175494917067951,-11.357399659851,-86.3862173251554,-75.0288176653044,48.8718084925032,31.8357090027267,-80.7075174952299
0.177635098983414,-11.8972375315829,-85.3153822811724,-73.4181447495895,48.6063099063776,30.7604536090033,-79.3667635153809
0.179775280898876,-12.3659385545164,-86.9618919054359,-74.5959533509195,49.6639152299762,31.1150073982016,-80.7789226281777
0.181915462814339,-12.1288177618504,-85.8151976494855,-73.6863798876351,48.972007705668,30.7787810628924,-79.7507887685603
0.184055644729802,-11.278884448421,-83.5314904454776,-72.2526059970566,47.4051874469493,30.4868607743178,-77.8920482212671
0.186195826645265,-11.1850096331399,-82.8368355196857,-71.6518258865458,47.0109225764129,30.2334081267029,-77.2443307031158
0.188336008560728,-10.4594461345283,-82.2337183777388,-71.7742722432105,46.3465822561336,30.6574130543411,-77.0039953104747
0.19047619047619,-10.473552367768,-81.7100766767939,-71.2365243090259,46.091814522281,30.3814859706289,-76.4733004929099
0.192616372391653,-9.84174077237509,-82.5435555573112,-72.7018147849361,46.1926481648431,31.4300370062805,-77.6226851711236
0.194756554307116,-10.5813037888191,-83.911262188337,-73.3299583995179,47.2462829885781,31.3743273053494,-78.6206102939274
0.196896736222579,-9.93529330715988,-83.8106220301234,-73.8753287229635,46.8729576686416,31.9700177079018,-78.8429753765434
0.199036918138042,-10.0184695007898,-81.7910667135907,-71.7725972128009,45.9047681071903,30.8770638560055,-76.7818319631958
0.201177100053505,-10.7347441829228,-82.6138731750238,-71.879128992101,46.6743086789733,30.5721924045891,-77.2465010835624
0.203317281968967,-11.3566321493106,-83.3282547520852,-71.9716226027747,47.3424434506979,30.307495226732,-77.6499386774299
0.20545746388443,-10.6084531848149,-82.6603811018504,-72.0519279170354,46.6344171433327,30.7217373661103,-77.3561545094429
0.207597645799893,-10.6029240931573,-82.7245751343259,-72.1216510411686,46.6637496137416,30.7593634740057,-77.4231130877473
0.209737827715356,-9.95406460738315,-83.4243690195051,-73.4703044121219,46.6892168134441,31.7581199023694,-78.4473367158135
0.211878009630819,-9.39070823566503,-83.3878889499714,-73.9971807143063,46.3892985928182,32.3032362393207,-78.6925348321389
0.214018191546281,-8.25752886333627,-82.7121570349897,-74.4546281716534,45.484842949163,33.0985496541586,-78.5833926033216
0.216158373461744,-8.56179157530146,-82.1254693341477,-73.5636777588463,45.3436304547246,32.5009430917724,-77.844573546497
0.218298555377207,-8.18190124279362,-81.6160920934285,-73.4341908506349,44.8989966681111,32.6261448039207,-77.5251414720317
0.22043873729267,-7.20801176981781,-80.5297787807859,-73.3217670109681,43.8688952753019,33.0568776205751,-76.925772895877
0.222578919208133,-6.36245606480132,-79.5866138278538,-73.2241577630524,42.9745349463275,33.4308508491256,-76.4053857954531
0.224719101123595,-6.27238200087546,-76.8355569738783,-70.5631749730028,41.5539694873769,32.1453964860637,-73.6993659734406
0.226859283039058,-6.19417739887498,-75.0910781626717,-68.8969007637968,40.6426277807734,31.3513616824609,-71.9939894632343
0.228999464954521,-5.48221917952822,-73.5764771201232,-68.094257940595,39.5293481498257,31.3060193805334,-70.8353675303591
0.231139646869984,-6.1521968507981,-74.1936387870766,-68.0414419362785,40.1729178189373,30.9446225427402,-71.1175403616775
0.233279828785447,-6.08982958310523,-72.7972973415162,-66.707467758411,39.4435634623107,30.3088190876529,-69.7523825499636
0.23542001070091,-6.03568072898232,-70.2968400737275,-64.2611593447452,38.1662604013549,29.1127393078814,-67.2789997092364
0.237560192616372,-5.98866731134691,-70.0580561958225,-64.0693888844756,38.0233617535847,29.0403607865644,-67.0637225401491
0.239700374531835,-6.59190804907788,-69.2066789493519,-62.614770900274,37.8992934992149,28.0114314255981,-65.910724924813
0.241840556447298,-5.82753908458016,-66.5353145255781,-60.7077754409979,36.1814268050791,27.4401181782089,-63.621544983288
0.243980738362761,-4.51983544710527,-64.8600267169167,-60.3401912698114,34.689931082011,27.9101779113531,-62.600108993364
0.246120920278224,-4.67257173625337,-64.6936170437711,-60.0210453075177,34.6830943900122,27.6742367856322,-62.3573311756444
0.248261102193686,-6.09329925649754,-65.8372538913685,-59.743954634871,35.965276573933,26.8253276891867,-62.7906042631197
0.250401284109149,-6.03869318800649,-63.60989366473,-57.5712004767235,34.8242934263683,25.7662536443585,-60.5905470707268
0.252541466024612,-6.635341792415,-63.6082196104501,-56.9728778180351,35.1217807014326,25.1687680128101,-60.2905487142426
0.254681647940075,-6.50930835669316,-64.8948841282468,-58.3855757715537,35.70209624247,25.9381337074303,-61.6402299499002
0.256821829855538,-5.75582392278147,-64.7238811382399,-58.9680572154584,35.2398525305107,26.6061166463385,-61.8459691768492
0.258962011771001,-5.1016294998882,-61.9991760274759,-56.8975465275877,33.5504027636821,25.8979585138498,-59.4483612775318
0.261102193686463,-5.82175917401862,-62.8538124214435,-57.0320532474249,34.3377857977311,25.6051470367032,-59.9429328344342
0.263242375601926,-6.44699414288234,-65.5280065202842,-59.0810123774019,35.9875003315833,26.3170091172598,-62.3045094488431
0.265382557517389,-6.34578011862505,-66.5616921378522,-60.2159120192271,36.4537361282386,26.935065950301,-63.3888020785397
0.267522739432852,-6.25790351864812,-66.1710464078086,-59.9131428891605,36.2144749632284,26.8276196852562,-63.0420946484846
0.269662921348315,-6.82566579818358,-67.7640547730204,-60.9383889748368,37.294860285602,27.0563615883266,-64.3512218739286
0.271803103263777,-7.31861150493562,-66.5709093582059,-59.2522978532703,36.9447604315708,25.9668431741673,-62.9116036057381
0.27394328517924,-7.10254056580773,-64.2468720721519,-57.1443315063441,35.6747063189798,25.0208954702682,-60.695601789248
0.276083467094703,-4.98276529820916,-62.8731425521417,-57.8903772539325,33.9279539251754,26.4538059778617,-60.3817599030371
0.278223649010166,-4.43044026491057,-62.9685534843518,-58.5381132194412,33.6994968746312,27.0538364772653,-60.7533333518965
0.280363830925629,-3.30683858224141,-62.4073327044218,-59.1004941221804,32.8570856433316,27.8968277699695,-60.7539134133011
0.282504012841092,-3.61941688889795,-63.8522434563343,-60.2328265674364,33.7358301726161,28.3067048392692,-62.0425350118853
0.284644194756554,-3.89080535524029,-65.1067518614681,-61.2159465062278,34.4987786083542,28.6625705754938,-63.161349183848
0.286784376672017,-4.77049073782687,-64.2637711262311,-59.4932803884043,34.517130932029,27.3613948252887,-61.8785257573177
0.28892455858748,-3.6020790847282,-65.4640506912729,-61.8619716065447,34.5330648880005,29.1299462609082,-63.6630111489088
0.291064740502943,-4.51981121823652,-67.1502230414662,-62.6304118232297,35.8350171298514,29.0553003024966,-64.890317432348
0.293204922418406,-5.3166096873625,-67.970141938697,-62.6535322513345,36.6433758130297,28.668461281986,-65.3118370950157
0.295345104333868,-4.72029248702551,-67.3938984843331,-62.6736059973076,36.0570954856793,28.9766567551411,-65.0337522408204
0.297485286249331,-5.49067264345495,-68.8257661667551,-63.3350935233002,37.158219405105,28.9222104399226,-66.0804298450276
0.299625468164794,-6.15953636400641,-71.3570682204149,-65.1975318564085,38.7583022922107,29.5189977462011,-68.2773000384117
0.301765650080257,-5.4521429486278,-72.2666913161497,-66.8145483675219,38.8594171323887,30.6812027094471,-69.5406198418358
0.30390583199572,-6.12608389924765,-71.1242723499524,-64.9981884507048,38.6251781246,29.4360522757286,-68.0612304003286
0.306046013911182,-7.35527562633695,-73.3526899723165,-65.9974143459795,40.3539827993267,29.3210693598213,-69.675052159148
0.308186195826645,-7.13437329208784,-73.3552820845619,-66.2209087924741,40.2448276883249,29.5432677501931,-69.788095438518
0.310326377742108,-6.94258024558834,-72.06941464813,-65.1268344025417,39.5059974468592,29.0921270784767,-68.5981245253359
0.312466559657571,-6.1320016386769,-71.5970506972968,-65.4650490586199,38.8645261679869,29.6665237099715,-68.5310498779584
0.314606741573034,-6.07229558433335,-72.4750502296221,-66.4027546452888,39.2736729069778,30.1652295304777,-69.4389024374555
0.316746923488497,-6.02045726358433,-70.6611158910533,-64.640658627469,38.3407865773188,29.3101006819423,-67.6508872592611
0.318887105403959,-6.61950889724642,-68.4421527991334,-61.8226439018869,37.5308308481899,27.6015675023203,-65.1323983505101
0.321027287319422,-6.49556183287478,-69.7358873260682,-63.2403254931934,38.1157245794715,28.3723818301593,-66.4881064096308
0.323167469234885,-6.3879478270685,-71.5031996601957,-65.1152518331272,38.9455737436321,29.3636520030293,-68.3092257466614
0.325307651150348,-6.93857358694301,-71.105448388617,-64.166874801674,39.02201098778,28.6141506073655,-67.6361615951455
0.327447833065811,-6.12852295534617,-73.3363465284865,-67.2078235731404,39.7324347419164,30.5396503088971,-70.2720850508134
0.329588014981273,-5.42521631541905,-74.6292102638239,-69.2039939484049,40.0272132896215,31.8893888164929,-71.9166021061144
0.331728196896736,-5.45864652159466,-73.8195306055279,-68.3608840839332,39.6390885635613,31.4511187811693,-71.0902073447305
0.333868378812199,-6.77578945457316,-73.1165460540919,-66.3407565995187,39.9461677543325,29.7824835724728,-69.7286513268053
0.336008560727662,-8.56342556447266,-74.4383738801819,-65.8749483157092,41.5008997223273,28.6557613756183,-70.1566610979456
0.338148742643125,-6.89520193944684,-73.009782597734,-66.1145806582872,39.9524922685904,29.6096893594202,-69.5621816280106
0.340288924558588,-6.73492557089082,-73.0575611471084,-66.3226355762176,39.8962433589996,29.7938550026634,-69.690098361663
0.34242910647405,-7.23982852289203,-75.0312206652143,-67.7913921423222,41.1355245940531,30.2757818097151,-71.4113064037683
0.344569288389513,-7.03413916937244,-75.456684274291,-68.4225451049186,41.2454117218317,30.6942029677731,-71.9396146896048
0.346709470304976,-5.56743644668502,-72.6057877061354,-67.0383512594504,39.0866120764102,30.7354574063827,-69.8220694827929
0.348849652220439,-3.64994870891747,-72.0627434805115,-68.4127947715941,37.8563460947145,32.3814230313383,-70.2377691260528
0.350989834135902,-4.56137284812719,-72.8793765937105,-68.3180037455834,38.7203747209189,31.8783154487281,-70.598690169647
0.353130016051364,-4.70863556832081,-72.3002803377603,-67.5916447694395,38.5044579530405,31.4415046005593,-69.9459625535999
0.355270197966827,-3.54837484732557,-71.1534351960832,-67.6050603487576,37.3509050217044,32.028342750716,-69.3792477724204
0.35741037988229,-3.8291248409577,-72.7339509126584,-68.9048260717007,38.2815378768081,32.5378506153715,-70.8193884921796
0.359550561797753,-4.71693814054841,-73.46213602304,-68.7451978824916,39.0895370817942,32.0141298709716,-71.1036669527658
0.361690743713216,-4.84370132697144,-70.8740699911642,-66.0303686641927,37.8588856590678,30.5933336686107,-68.4522193276785
0.363830925628678,-4.30970137461019,-69.2711039730576,-64.9614025984474,36.7904026738339,30.3258506119186,-67.1162532857525
0.365971107544141,-3.84606898230393,-69.8115449121662,-65.9654759298622,36.8288069472351,31.0597034737792,-67.8885104210142
0.368111289459604,-2.15541352774342,-68.9926515591496,-66.8372380314061,35.5740325434465,32.3409122518314,-67.9149447952778
0.370251471375067,-2.61972025930513,-67.6376084554888,-65.0178881961837,35.128664357397,31.1990839684393,-66.3277483258362
0.37239165329053,-3.0228432179608,-67.7492434114604,-64.7264001934996,35.3860433147106,30.8517784877694,-66.23782180248
0.374531835205993,-4.01690385011511,-69.7783446921053,-65.7614408419902,36.8976242711102,30.8722684959376,-67.7698927670478
0.376672017121455,-3.59185469606151,-69.6078852676824,-66.0160305716209,36.599869981872,31.2120879377797,-67.8119579196517
0.378812199036918,-4.51093414295506,-68.8158290561311,-64.304894913176,36.6633815995431,29.8969803851105,-66.5603619846536
0.380952380952381,-3.37672542226594,-68.7722046183384,-65.3954791960725,36.0744650203022,31.0093768869033,-67.0838419072055
0.383092562867844,-2.39197645323987,-66.8021518059674,-64.4101753527275,34.5970641296036,31.0090994497438,-65.6061635793474
0.385232744783307,-2.18105124372789,-65.7357606436615,-63.5547093999336,33.9584059436947,30.6868290781029,-64.6452350217976
0.387372926698769,-3.28603856611639,-66.0980105847514,-62.811972018635,34.6920245754339,29.7629667262593,-64.4549913016932
0.389513108614232,-2.957298796617,-67.0565842195175,-64.0992854229005,35.0069415080672,30.5709933131417,-65.577934821209
0.391653290529695,-2.67187853561275,-67.2447833355369,-64.5729047999241,34.9583309355748,30.9505131321557,-65.9088440677305
0.393793472445158,-2.42406937788354,-68.6963005874796,-66.2722312095961,35.5601849826816,31.9240809158563,-67.4842658985379
0.395933654360621,-2.85297412750637,-69.3124859373801,-66.4595118098737,36.0827300324432,31.8032688411837,-67.8859988736269
0.398073836276083,-1.93724220712404,-67.2712378411964,-65.3339956340724,34.6042400241602,31.6983767134742,-66.3026167376344
0.400214018191546,-3.07435733579663,-63.5667971668563,-60.4924398310597,33.3205772513265,28.7090412476315,-62.029618498958
0.402354200107009,-2.77351174797493,-64.2148611179219,-61.441349369947,33.4941864329484,29.333918810986,-62.8281052439345
0.404494382022472,-2.51230992767552,-66.0656447605586,-63.553334832883,34.288977344117,30.5205124526038,-64.8094897967208
0.406634563937935,-2.28552783849242,-64.4522474356882,-62.1667195971958,33.3688876370903,29.9405958793517,-63.309483516442
0.408774745853398,-3.37674781310509,-66.9158086096353,-63.5390607965303,35.1462782113702,30.0811564917126,-65.2274347030828
0.41091492776886,-3.68011386800121,-68.4106763313283,-64.7305624633271,36.0453950996648,30.525224297663,-66.5706193973277
0.413055109684323,-4.58756300939678,-68.4204406786244,-63.8328776692276,36.5040018440106,29.6226573299154,-66.126659173926
0.415195291599786,-3.44325656053851,-67.7848593470109,-64.3416027864724,35.6140579537747,30.4491731129669,-66.0632310667416
0.417335473515249,-3.73785846057186,-67.8770903949736,-64.1392319344018,35.8074744277727,30.2006867369149,-66.0081611646877
0.419475655430712,-3.99363935172451,-69.88934470728,-65.8957053555555,36.9414920295023,30.9510330019155,-67.8925250314178
0.421615837346174,-2.92759687735638,-69.0601993275905,-66.1326024502341,35.9938981024734,31.6025027864389,-67.5964008889123
0.423756019261637,-2.64609057098467,-70.2724911015519,-67.6264005305673,36.4592908362683,32.4901549797913,-68.9494458160596
0.4258962011771,-1.75762062136388,-71.325033770984,-69.5674131496202,36.541327196174,33.9048962641281,-70.4462234603021
0.428036383092563,-1.63028731461966,-71.5948192020439,-69.9645318874243,36.6125532583318,34.1671222864023,-70.7796755447341
0.430176565008026,-2.16379227396218,-69.8968768395445,-67.7330845655823,36.0303345567534,32.7846461458101,-68.8149807025634
0.432316746923488,-1.98293591346025,-69.7107979043586,-67.7278619908983,35.8468669089094,32.872463038719,-68.7193299476285
0.434456928838951,-0.537793829327182,-67.6170624603146,-67.0792686309874,34.0774281448209,33.2707374008301,-67.348165545651
0.436597110754414,0.0728564371151124,-65.7992278921913,-65.8720843293064,32.8631857275381,32.9724703832107,-65.8356561107488
0.438737292669877,-0.0410203981495848,-66.1531144703208,-66.1120940721712,33.0970674342352,33.0355368370108,-66.132604271246
0.44087747458534,-0.139891173940066,-65.8163088453746,-65.6764176714345,32.9781000096573,32.7682632487472,-65.7463632584046
0.443017656500803,-0.225733305772141,-62.9476496538142,-62.721916348042,31.5866914797932,31.2480915211349,-62.8347830009281
0.445157838416265,-0.300263636282451,-63.677301439512,-63.3770378032296,31.9887825378972,31.5383870834736,-63.5271696213708
0.447298020331728,-1.00903175931277,-64.9548627359812,-63.9458309766684,32.981947247647,31.4683996086778,-64.4503468563248
0.449438202247191,-1.62440233943719,-65.420015084033,-63.7956127445958,33.5222087117351,31.0856052025793,-64.6078139143144
0.451578384162654,-0.870564813795091,-61.9595183051256,-61.0889534913305,31.4150415594604,30.1091943387677,-61.5242358982281
0.453718566078117,-0.860122814878183,-63.4634395616208,-62.6033167467426,32.1617811882495,30.8715969659322,-63.0333781541817
0.455858747993579,-1.4951157920532,-64.769182393443,-63.2740666013898,33.1321490927481,30.8894754046683,-64.0216244974164
0.457998929909042,-2.04643290697713,-65.9028616572287,-63.8564287502516,33.9746472821029,30.9049979216372,-64.8796452037401
0.460139111824505,-3.16915948918003,-64.3109149893272,-61.1417555001472,33.7400372392536,28.9862980054836,-62.7263352447372
0.462279293739968,-4.14393937241944,-66.1490411840845,-62.005101811665,35.1464902782519,28.9305812196228,-64.0770714978747
0.464419475655431,-4.3462091671286,-68.3890082631946,-64.042799096066,36.3676087151616,29.8482949644687,-66.2159036796303
0.466559657570894,-5.16588395431975,-68.4016279086586,-63.2357439543389,36.7837559314892,29.0349300000096,-65.8186859314987
0.468699839486356,-4.58942855738709,-69.0566435942769,-64.4672150368898,36.823036075832,29.9388932397514,-66.7619293155834
0.470840021401819,-3.4448762769334,-70.9134629103385,-67.4685866334051,37.1791695936359,32.0118551782358,-69.1910247718718
0.472980203317282,-2.4511467652361,-69.9493648984652,-67.4982181332291,36.2002558318507,32.5235356839965,-68.7237915158472
0.475120385232745,-1.58836543206126,-69.1123103899657,-67.5239449579045,35.3503379110135,32.9677897629216,-68.3181276739351
0.477260567148208,-2.1273946252085,-70.3177352563647,-68.1903406311562,36.2225649407866,33.0314730029738,-69.2540379437604
0.47940074906367,-2.59539353276776,-70.0761979268675,-67.4808043940997,36.3357957298176,32.442705430666,-68.7785011604836
0.481540930979133,-2.35766314565867,-68.578371076194,-66.2207079305353,35.4680171109263,31.9315223924383,-67.3995395033647
0.483681112894596,-2.79531854125711,-67.9219785503353,-65.1266600090782,35.3586485457962,31.1656707339106,-66.5243192797068
0.485821294810059,-3.17530212958855,-67.9961407881194,-64.8208386585309,35.585721458854,30.8227682644712,-66.4084897233251
0.487961476725522,-1.57303662072492,-64.196176413026,-62.6231397923011,32.8846065168755,30.5250515857881,-63.4096581026635
0.490101658640984,-0.825967785380019,-62.1850682993354,-61.3591005139554,31.5055180423577,30.2665663642877,-61.7720844066454
0.492241840556447,-1.46546152342358,-63.015208837927,-61.5497473145034,32.2403351806753,30.0421428955399,-62.2824780762152
0.49438202247191,-1.3766273266119,-61.803781086332,-60.4271537597201,31.5902042064719,29.5252632165541,-61.115467423026
0.496522204387373,-1.29949920889525,-59.4638706087148,-58.1643713998195,30.381684908805,28.4324360954621,-58.8141210042672
0.498662386302836,-0.588475620687731,-61.940713501917,-61.3522378812293,31.2645945613024,30.3818811302708,-61.6464756915732
0.500802568218299,-1.25926476257483,-64.7352307258288,-63.475965963254,32.9972477442018,31.1083506003396,-64.1055983445414
0.502942750133761,-0.553543047158147,-63.9412069908841,-63.3876639437259,32.2473750190211,31.4170604482839,-63.664435467305
0.505082932049224,0.0591825640976428,-62.6077563245849,-62.6669388886825,31.2742868802436,31.3630607263901,-62.6373476066337
0.507223113964687,-0.0528924038139086,-62.0940793987232,-62.0411869949093,31.0734859012686,30.9941472955477,-62.0676331968163
0.50936329588015,-0.15019875236453,-60.3599740024323,-60.2097752500678,30.2550863773984,30.0297882488516,-60.28487462625
0.511503477795613,1.05343536593789,-58.2103204363277,-59.2637558022656,28.5784425351949,30.1585955841018,-58.7370381192967
0.513643659711075,0.166284275991718,-59.5642312631317,-59.7305155391235,29.69897349357,29.9483999075576,-59.6473734011276
0.515783841626538,0.0400960368890846,-60.7397312099479,-60.779827246837,30.3498175865294,30.409961641863,-60.7597792283924
0.517924023542001,-0.0694638140385593,-60.4722123012494,-60.4027484872108,30.270838057644,30.1666423365861,-60.4374803942301
0.520064205457464,-0.808645461041332,-59.5958865674037,-58.7872411063624,30.2022660142225,28.9892978226605,-59.191563836883
0.522204387372927,-2.09448082640435,-60.7672151533151,-58.6727343269108,31.4308479898597,28.2891267502532,-59.7199747401129
0.524344569288389,-1.92275794508525,-59.8520155753477,-57.9292576302624,30.8873867602164,28.0032498425886,-58.890636602805
0.526484751203852,-1.77366375523064,-58.4133569483699,-56.6396931931393,30.0935103518003,27.4330147189543,-57.5265250707546
0.528624933119315,-1.64421637304344,-58.4523947721919,-56.8081783991485,30.0483055726177,27.5819810130525,-57.6302865856702
0.530765115034778,-2.17588583811146,-60.4184653692119,-58.2425795311004,31.2971756036617,28.0333468464945,-59.3305224501562
0.532905296950241,-2.63749484184957,-60.193281096016,-57.5557862541664,31.4153879689328,27.4591457061584,-58.8745336750912
0.535045478865704,-2.39421657710097,-59.3537113735682,-56.9594947964672,30.8739639753346,27.2826391096831,-58.1566030850177
0.537185660781166,-3.4711141509203,-58.6247755053061,-55.1536613543858,31.0479448281132,25.8412736017328,-56.889218429846
0.539325842696629,-3.11798614454783,-57.9918947738645,-54.8739086293167,30.5549404592062,25.8779612423844,-56.4329017015906
0.541466024612092,-2.16733240639754,-56.7983525773829,-54.6310201709854,29.4828424918902,26.2318438822939,-55.7146863741841
0.543606206527555,-2.63006853405607,-58.3383247187445,-55.7082561846884,30.4841966264003,26.5390938253162,-57.0232904517165
0.545746388443018,-2.387768867072,-57.7431908875358,-55.3554220204638,30.0654798773039,26.4838265766959,-56.5493064539998
0.54788657035848,-2.17739810999217,-56.5824215135606,-54.4050234035684,29.3799098117764,26.1138126467881,-55.4937224585645
0.550026752273943,-3.2828668221381,-56.2186708944574,-52.9358040723193,29.7507688582978,24.8264686250906,-54.5772374833884
0.552166934189406,-3.59860399474815,-58.479089268884,-54.8804852741358,31.0388466318161,25.6409406396938,-56.6797872715099
0.554307116104869,-1.94055810746632,-57.8654062638565,-55.9248481563902,29.9029821856614,26.9921450244619,-56.8951272101234
0.556447298020332,-1.78911831066962,-57.3325910108205,-55.5434727001509,29.5608546607451,26.8771771947406,-56.4380318554857
0.558587479935794,-2.30169339988066,-59.4462231536415,-57.1445297537609,30.8739582767611,27.4214181769401,-58.2953764537012
0.560727661851257,-1.45860620453405,-60.6372735563984,-59.1786673518643,31.0479398804662,28.8600305736651,-59.9079704541314
0.56286784376672,-0.726616376495839,-61.0273149378012,-60.3006985613053,30.8769656571485,29.7870410924047,-60.6640067495532
0.565008025682183,-1.37920209366841,-60.7218998361328,-59.3426977424644,31.0505509649006,28.981747824398,-60.0322987892986
0.567148207597646,-3.23391164908533,-62.3889076089413,-59.1549959598559,32.8114096290133,27.9605421553853,-60.7719517843986
0.569288389513109,-3.55609986361881,-62.54812834356,-58.9920284799412,33.0521141035894,27.7179643081612,-60.7700784117506
0.571428571428571,-2.5477139228694,-62.6863678504543,-60.1386539275849,32.6170408866619,28.7954700023578,-61.4125108890196
0.573568753344034,-2.31626649102666,-64.0945088942254,-61.7782424031987,33.205387692626,29.730987956086,-62.936375648712
0.575708935259497,-2.75937690879882,-64.6730339127439,-61.9136570039451,33.7162054107714,29.5771400475731,-63.2933454583445
0.57784911717496,-1.85597871219168,-63.2431471425721,-61.3871684303805,32.5495629273819,29.7655948590944,-62.3151577864763
0.579989299090423,-1.0716253330461,-62.0016829419662,-60.9300576089201,31.5366541375061,29.929216137937,-61.4658702754431
0.582129481005885,-1.6787476782423,-60.9238120269138,-59.2450643486715,31.3012798525781,28.7831583352146,-60.0844381877927
0.584269662921348,-0.917748824448072,-59.9879769791141,-59.070228154666,30.4528629017811,29.076239665109,-59.5291025668901
0.586409844836811,-0.257030190360536,-59.175461097611,-58.9184309072504,29.7162456439858,29.330700358445,-59.0469460024307
0.588550026752274,-0.327436390529504,-61.0462500137007,-60.7188136231711,30.6868432021151,30.1956886163208,-60.8825318184359
0.590690208667737,-1.03262383830342,-61.3823987396958,-60.3497749013924,31.2075112889996,29.6585755315445,-60.8660868205441
0.5928303905832,-1.00082659751969,-59.7420746841946,-58.7412480866749,30.3714506408572,28.8702107445776,-59.2416613854348
0.594970572498662,-0.329160434017589,-58.9619624469781,-58.6328020129606,29.6455614404979,29.1518207894715,-58.7973822299694
0.597110754414125,-0.39006170964513,-59.5727670598787,-59.1827053502336,29.9814143847619,29.3963218202942,-59.3777362050561
0.599250936329588,0.201121235203199,-56.8827882832235,-57.0839095184267,28.3408335240101,28.6425153768149,-56.9833489008251
0.601391118245051,0.714401361537863,-56.4794569926065,-57.1938583541444,27.8825278155343,28.9541298578411,-56.8366576733754
0.603531300160514,1.16004427188556,-58.0614514302507,-59.2214957021363,28.4507035791826,30.1907699870109,-58.6414735661935
0.605671482075976,0.902903837221666,-58.7909204040179,-59.6938242412396,28.9440082833981,30.2983640392306,-59.2423723226287
0.607811663991439,0.679647946739417,-57.4920870295752,-58.1717349763146,28.4062195414179,29.425691461527,-57.8319110029449
0.609951845906902,0.485811482629164,-57.6525247075564,-58.1383361901855,28.5833566124636,29.3120738364074,-57.895430448871
0.612092027822365,0.961576702840268,-58.4358797829796,-59.3974564858199,28.7371515400697,30.1795165943301,-58.9166681343998
0.614232209737828,1.37464821389045,-56.5397727105407,-57.9144209244311,27.5825622483251,29.6445345691608,-57.2270968174859
0.61637239165329,1.08922845876914,-52.9613471786421,-54.0505756374112,25.9360593599365,27.5699020480902,-53.5059614080266
0.618512573568753,-0.446698234202701,-53.0747617064631,-52.6280634722604,26.7607299703329,26.0906826190289,-52.8514125893618
0.620652755484216,0.151947958583177,-53.8172900823593,-53.9692380409425,26.8326710618881,27.0605929997628,-53.8932640616509
0.622792937399679,0.0276488800914238,-53.1738542014989,-53.2015030815904,26.5731026607038,26.6145759808409,-53.1876786415447
0.624933119315142,-1.36838872782442,-54.5473837037325,-53.1789949759081,27.9578862157785,25.9053031240418,-53.8631893398203
0.627073301230605,-1.93640523431811,-55.7399170854452,-53.8035118511271,28.8381611598817,25.9335533084045,-54.7717144682861
0.629213483146067,-2.42957166740602,-55.4871870398081,-53.0576153724021,28.9583793536071,25.314021852498,-54.2724012061051
0.63135366506153,-2.21369236851834,-54.6237013744499,-52.4100090059316,28.4186968714841,25.0981583187066,-53.5168551901908
0.633493846976993,-2.02626044956381,-54.5180600611816,-52.4917996116178,28.2721602553727,25.232769581027,-53.5049298363997
0.635634028892456,-1.86352727216336,-55.7144575503143,-53.850930278151,28.7889924112389,25.9937015029938,-54.7826939142327
0.637774210807919,-1.72223817276897,-53.5329054597,-51.810667286931,27.6275718162345,25.044214557081,-52.6717863733155
0.639914392723381,-2.24362635662431,-54.8591211731166,-52.6154948164923,28.5513737648705,25.185934229934,-53.7373079948045
0.642054574638844,-2.69630888951999,-54.0783985537053,-51.3820896641854,28.3873537216127,24.3428903873327,-52.7302441089453
0.644194756554307,-2.44528043488237,-54.044614229969,-51.5993337950866,28.2449473324257,24.5770266801021,-52.8219740125278
0.64633493846977,-2.87139010873675,-53.3712228303148,-50.499832721578,28.1213064695258,23.8142213064206,-51.9355277759464
0.648475120385233,-2.59729041944216,-55.3628031735624,-52.7655127541202,28.9800467965023,25.084111167339,-54.0641579638413
0.650615302300696,-1.71525108386763,-55.8038261005676,-54.0885750167,28.7595385922176,26.1866619664162,-54.9462005586338
0.652755484216158,-0.94944201318819,-55.542674478412,-54.5932324652238,28.2460582458001,26.8218952260178,-55.0679534718179
0.654895666131621,-1.57266500045337,-57.2481129342337,-55.6754479337803,29.4103889673435,27.0513914666635,-56.461780434007
0.657035848047084,-0.825645135172343,-59.3728771307211,-58.5472319955488,30.0992611329467,28.8607934301882,-58.960054563135
0.659176029962547,-0.177063415812492,-59.9295336794545,-59.752470263642,30.0532985476335,29.7877034239147,-59.8410019715482
0.66131621187801,-0.258007195218184,-58.4806601454866,-58.2226529502684,29.3693336703524,28.9823228775251,-58.3516565478775
0.663456393793472,-0.972343638322598,-59.798947100724,-58.8266034624014,30.3856453695233,28.9271299120394,-59.3127752815627
0.665596575708935,-0.948489788869754,-59.6553995182623,-58.7069097293925,30.301944653566,28.8792099702614,-59.1811546238274
0.667736757624398,-1.57183825498866,-57.5985908805305,-56.0267526255418,29.5852145677596,27.2274571852766,-56.8126717530362
0.669876939539861,-2.1130453081152,-57.7449940701282,-55.631948762013,29.9290196891217,26.7594517269489,-56.6884714160706
0.672017121455324,-2.5829350893119,-58.5161640444194,-55.9332289551076,30.5495495668657,26.6751469328978,-57.2246964997635
0.674157303370786,-2.99090539420269,-57.8975955305404,-54.9066901363377,30.4442504623715,25.9578923710675,-56.4021428334391
0.676297485286249,-2.70105664165382,-58.6486565284496,-55.9475998867958,30.6748565850517,26.623271622571,-57.2981282076227
0.678437667201712,-3.09346154173239,-59.9448058495638,-56.8513443078314,31.5191336956481,26.8789413830495,-58.3980750786976
0.680577849117175,-3.43415749455347,-59.1379788207242,-55.7038213261707,31.2860681576388,26.1348319158086,-57.4209000734474
0.682718031032638,-3.0858994319419,-58.4374709950133,-55.3515715630714,30.7616852134776,26.1328360655647,-56.8945212790423
0.684858212948101,-3.42759187776353,-57.829272215917,-54.4016803381535,30.6284320468403,25.487044230195,-56.1154762770352
0.686998394863563,-4.36831697027985,-57.945277495085,-53.5769605248051,31.1567972326824,24.6043217772626,-55.761119009945
0.689138576779026,-3.89696053899156,-57.4019372529824,-53.5049767139909,30.649448895987,24.8040080874997,-55.4534569834866
0.691278758694489,-3.48771685104589,-56.9301953826539,-53.442478531608,30.2089561168499,24.9773808402811,-55.1863369571309
0.693418940609952,-3.77646001991549,-59.096852995619,-55.3203929757035,31.4366565077672,25.771966477894,-57.2086229856612
0.695559122525415,-4.02715421109126,-59.0458234908964,-55.0186692798051,31.5364888509938,25.4957575343569,-57.0322463853507
0.697699304440877,-4.88887229562828,-57.7134003975879,-52.8245281019597,31.3011363466081,23.9678279031657,-55.2689642497738
0.69983948635634,-5.63703793733078,-59.1327925985268,-53.495754661196,32.3849152679288,23.9293583619326,-56.3142736298614
0.701979668271803,-6.93067343626439,-60.3651451461857,-53.4344717099213,33.647909291225,23.2518991368285,-56.8998084280535
0.704119850187266,-5.477604855595,-58.21481015536,-52.737205299765,31.8462075054775,23.629800222085,-55.4760077275625
0.706260032102729,-4.21601361525524,-56.9918934028972,-52.775879787642,30.6039535090762,24.2799330861934,-54.8838865952696
0.708400214018192,-5.05284485213301,-57.2182438303248,-52.1653989781918,31.1355443412289,23.5562770630294,-54.6918214042583
0.710540395933654,-5.1353441100748,-56.7707080631868,-51.635363953112,30.9530260866308,23.2500099215186,-54.2030360081494
0.712680577849117,-3.91885409766281,-56.3821460840268,-52.4632919863639,30.1505000908448,24.2722189443506,-54.4227190351953
0.71482075976458,-3.50672539765336,-57.9769636149563,-54.4702382173029,30.7418445063048,25.4817564098248,-56.2236009161296
0.716960941680043,-3.79296372539134,-60.005683900166,-56.2127201747747,31.8993238127787,26.2098782246917,-58.1092020374704
0.719101123595506,-4.04148314954501,-58.5467757113159,-54.5052925617709,31.2941294304304,25.2319047061129,-56.5260341365434
0.721241305510968,-3.61319507136586,-55.3479374123666,-51.7347423410007,29.4805662418662,24.0607736348174,-53.5413398766836
0.723381487426431,-2.59728543994526,-55.7909192671565,-53.1936338272113,29.1941023535509,25.298174193633,-54.4922765471839
0.725521669341894,-2.35930574777286,-54.2433504616543,-51.8840447138814,28.3013281047136,24.7623694830543,-53.0636975877678
0.727661851257357,-1.50862671588715,-54.1878296878725,-52.6792029719853,27.8482282018798,25.5852881280491,-53.4335163299289
0.72980203317282,-0.770045461536902,-54.1396251345624,-53.3695796730255,27.4548352980497,26.2997671057443,-53.754602403794
0.731942215088282,-2.06096732132982,-57.3180676468158,-55.2571003254859,29.6895174840728,26.5980665020781,-56.2875839861509
0.734082397003745,-1.89366066433912,-56.8573776492873,-54.9637169849481,29.3755191568132,26.5350281603045,-55.9105473171177
0.736222578919208,-1.748400753198,-55.8133358442272,-54.0649350910292,28.7808682987126,26.1582671689156,-54.9391354676282
0.738362760834671,-2.91040036414676,-55.5509310806526,-52.6405307165058,29.2306657223997,24.8650651761795,-54.0957308985792
0.740502942750134,-2.63116011916824,-54.0349865909422,-51.403826471774,28.3330733550552,24.3863331763029,-52.7194065313581
0.742643124665597,-0.456539647441189,-52.0747458938433,-51.6182062464021,26.2656427706422,25.5808332994805,-51.8464760701227
0.744783306581059,-1.78877356934839,-52.9490508222267,-51.1602772528783,27.3689121957875,24.6857518417649,-52.0546640375525
0.746923488496522,-2.94545307389547,-54.3522036703455,-51.40675059645,28.6488283721205,24.2306487612773,-52.8794771333978
0.749063670411985,-2.66159377671025,-52.3501618611179,-49.6885680844076,27.5058778189141,23.5134871538487,-51.0193649727627
0.751203852327448,-3.0591988748536,-53.188173996718,-50.1289751218644,28.1236864357858,23.5348881235054,-51.6585745592912
0.753344034242911,-4.04846875963343,-54.5598165155434,-50.51134775591,29.3041426375884,23.2314394981383,-52.5355821357267
0.755484216158373,-2.3311421819326,-54.4625935956211,-52.1314514136885,28.3968678887768,24.9001546158779,-53.2970225046548
0.757624398073836,-2.12823337620621,-51.8019462253992,-49.673712849193,26.9650898008027,23.7727397364934,-50.7378295372961
0.759764579989299,-1.95206277056674,-52.7121991851772,-50.7601364146104,27.332130977872,24.4040368220218,-51.7361677998938
0.761904761904762,-1.7991069529014,-54.1465630319497,-52.3474560790483,27.9728349924255,25.2741745630734,-53.247009555499
0.764044943820225,-0.378188832393747,-53.4597373830709,-53.0815485506772,26.9189631077323,26.3516798591417,-53.2706429668741
0.766185125735688,-1.72074739133289,-52.2193588319913,-50.4986114406584,26.9700531116621,24.3889320246628,-51.3589851363249
0.76832530765115,-1.59827303488849,-53.7186664545019,-52.1203934196135,27.6584697446952,25.2610601923625,-52.9195299370577
0.770465489566613,-0.84787868447308,-52.4441676625808,-51.5962889781078,26.646023173527,25.3742051468173,-52.0202283203443
0.772605671482076,-0.196367150964862,-51.3376152719355,-51.1412481209707,25.7669912114502,25.4724404850029,-51.2394316964531
0.774745853397539,-0.274767190925235,-50.3768782347531,-50.1021110438279,25.3258227128392,24.9136719264513,-50.2394946392905
0.776886035313002,0.30122287996466,-52.1189777592163,-52.4202006391809,25.9088774396258,26.3607117595728,-52.2695891991986
0.779026217228464,0.157253178004555,-52.343395069805,-52.5006482478096,26.0930709459002,26.3289507129071,-52.4220216588073
0.781166399143927,0.0322550070417486,-52.5382399085043,-52.570494915546,26.2529924507313,26.3013749612939,-52.5543674120251
0.78330658105939,-0.72033058357458,-53.3514681593194,-52.6311375757449,27.035899371447,25.9554034960851,-52.9913028675321
0.785446762974853,-1.37374460777026,-53.4134747021488,-52.0397300943786,27.3936096549595,25.3329927433042,-52.7266023982637
0.787586944890316,-1.29699635879763,-53.4673103657355,-52.1703140069379,27.3821533622666,25.4366588240701,-52.8188121863367
0.789727126805779,-2.51847954402687,-55.4462288250459,-52.9277492810191,28.9823541845364,25.2046348684961,-54.1869890530325
0.791867308721241,-2.29088445692645,-56.5203173683752,-54.2294329114488,29.4056009126508,25.9692742272612,-55.374875139912
0.794007490636704,-2.09328059152734,-56.1647504900134,-54.071469898486,29.1290155407704,25.9890946534793,-55.1181101942497
0.796147672552167,-1.92171587052158,-57.1441562226292,-55.2224403521076,29.5329360465754,26.650362240793,-56.1832982873684
0.79828785446763,-2.4168179867206,-58.6385602723337,-56.2217422856131,30.5276891295271,26.9024621494462,-57.4301512789734
0.800428036383093,-2.20261929733033,-57.3598040733081,-55.1571847759777,29.7812116853192,26.4772827393237,-56.2584944246429
0.802568218298555,-3.30476450091258,-57.537673267581,-54.2329087666684,30.4212188842468,25.4640721328779,-55.8852910171247
0.804708400214018,-4.26167510576601,-59.6242808049596,-55.3626056991936,31.9429779553628,25.5504652967138,-57.4934432520766
0.806848582129481,-2.51625337506141,-59.5037497808374,-56.9874964057759,31.0100015779494,27.2356215153573,-58.2456230933067
0.808988764044944,-1.00083366573071,-58.1109836939281,-57.1101500281974,29.5559086798294,28.0546581812333,-57.6105668610627
0.811128945960407,-1.61728454528199,-57.5458076054982,-55.9285230602162,29.5815460753901,27.1556192574671,-56.7371653328572
0.813269127875869,-2.15250293764675,-58.9872842575873,-56.8347813199405,30.569893597617,27.3411391911469,-57.9110327887639
0.815409309791332,-1.32907523620918,-58.306634127883,-56.9775588916738,29.8178546820461,27.8242418277323,-57.6420965097784
0.817549491706795,-0.614154282713527,-55.7834993457559,-55.1693450630424,28.1988268142347,27.2775953901644,-55.4764222043991
0.819689673622258,-1.92561861978456,-57.4572032326125,-55.5315846128279,29.6914109261985,26.8029829965217,-56.4943939227202
0.821829855537721,-1.77614746604108,-58.2662966916393,-56.4901492255982,30.0212220788402,27.3570008797786,-57.3782229586188
0.823970037453184,-1.00231380694965,-57.0365953282087,-56.034281521259,29.0194545675791,27.5159838571547,-56.5354384247338
0.826110219368646,-2.26262862890963,-55.9689372087114,-53.7063085798018,29.1157829188105,25.7218399754461,-54.8376228942566
0.828250401284109,-2.71280714746916,-56.3300871452208,-53.6172799977517,29.521447146345,25.4522364251413,-54.9736835714863
0.830390583199572,-2.45960464365436,-54.7114697789994,-52.251865135345,28.5855372113269,24.8961302458453,-53.4816674571722
0.832530765115035,-2.23976776527545,-53.306144856382,-51.0663770911066,27.7729563108287,24.4133046629156,-52.1862609737443
0.834670947030498,-2.69295876199639,-53.3741238533797,-50.6811650913833,28.0335413076881,23.9941031646935,-52.0276444723815
0.83681112894596,-2.44237176863356,-53.4331449541593,-50.9907731855257,27.9377583613964,24.2742007084461,-52.2119590698425
0.838951310861423,-1.58074675597463,-54.7725065551995,-53.1917597992249,28.1766266555871,25.8055065216251,-53.9821331772122
0.841091492776886,-1.47672090888448,-55.9353744927482,-54.4586535838637,28.7060477008163,26.4909663374896,-55.197014038306
0.843231674692349,-2.03046199976638,-57.5890651127879,-55.5586031130215,29.8097635562771,26.7640705566275,-56.5738341129047
0.845371856607812,-1.22311617808834,-55.804546593675,-54.5814304155866,28.5138313858816,26.6791571187491,-55.1929885046308
0.847512038523275,-0.522157923189786,-54.8992410416913,-54.3770831185015,27.7106994824406,26.9274625976559,-54.6381620800964
0.849652220438737,-1.20168604443589,-55.4013496223739,-54.199663577938,28.3015178334049,26.4989887667511,-54.800506600156
0.8517924023542,-1.79166970847857,-55.8372931115634,-54.0456234030848,28.814481410021,26.1269768473031,-54.9414582573241
0.853932584269663,-1.65984960136711,-54.2836134173488,-52.6237638159817,27.9717315093579,25.4819571073073,-53.4536886166652
0.856072766185126,-2.83351799330891,-55.5109049884316,-52.6773869951227,29.1722114908703,24.9219345009069,-54.0941459917772
0.858212948100589,-1.92034989467512,-57.2205298519191,-55.300179957244,29.5704398732971,26.6899150312844,-56.2603549045816
0.860353130016051,-1.77157302438412,-56.7726928454998,-55.0011198211157,29.272132934942,26.6147733983658,-55.8869063333078
0.862493311931514,-0.998342159912031,-53.163574386547,-52.165232226635,27.0809582732295,25.5834450333615,-52.664403306591
0.864633493846977,-0.971062369087477,-54.5384585059351,-53.5673961368476,27.7547604375113,26.2981668838801,-54.0529273213914
0.86677367576244,-0.3033183709759,-55.0881090136148,-54.7847906426389,27.6957136922954,27.2407361358315,-54.9364498281269
0.868913857677903,-0.367624970733135,-55.5653296176262,-55.1977046468931,27.9664772941797,27.41503983808,-55.3815171322596
0.871054039593365,-0.423457602467825,-55.3356057428179,-54.9121481403501,27.8795316726429,27.2443452689411,-55.123876941584
0.873194221508828,-1.76005089327779,-57.7123895585066,-55.9523386652288,29.7362202258922,27.0961438859755,-56.8323641118677
0.875334403424291,-1.63239733874311,-56.5556790133022,-54.9232816745591,29.0940381760226,26.645442167908,-55.7394803439306
0.877474585339754,-1.52156526354608,-54.2632754112699,-52.7417101477238,27.892420337408,25.6100724420889,-53.5024927794969
0.879614767255217,-2.71345600064589,-52.9170110633737,-50.2035550627278,27.8152335320098,23.745049531041,-51.5602830630508
0.88175494917068,-2.46016799454841,-51.7481499847692,-49.2879819902208,27.1041589896588,23.4139069978362,-50.518065987495
0.883895131086142,-0.308079919209991,-48.8011379921896,-48.4930580729796,24.5546089556998,24.0924890768848,-48.6470980325846
0.886035313001605,-1.01581805570964,-48.8187028883691,-47.8028848326594,24.9172604720394,23.3935333884749,-48.3107938605143
0.888175494917068,-0.986235387999767,-48.8339531796852,-47.8477177916854,24.9100942838425,23.4307412018428,-48.3408354856853
0.890315676832531,-0.960550960612684,-48.8471938719642,-47.8866429113515,24.9038724162885,23.4630459753694,-48.3669183916579
0.892455858747994,-0.294192097769082,-48.8586897790518,-48.5644976812828,24.5764409384105,24.1351527917568,-48.7115937301673
0.894596040663456,-0.359701307330156,-50.8008477807844,-50.4411464734543,25.5802745440573,25.0407225830621,-50.6209971271194
0.896736222578919,0.22748091163094,-47.3346070456847,-47.5620879573156,23.5535630670269,23.8947844344733,-47.4483475015001
0.898876404494382,1.38134649283849,-46.2573053038372,-47.6386517966757,22.4379794054994,24.5099991447571,-46.9479785502565
0.901016586409845,1.09504407556702,-47.8982003756719,-48.9932444512389,23.4015781500525,25.044144263403,-48.4457224134554
0.903156768325308,-1.0857079544506,-49.3228673710794,-48.2371594166288,25.204287662765,23.5757257310891,-48.7800133938541
0.905296950240771,-0.40285659522896,-49.2716816555048,-48.8688250602759,24.8372691253669,24.2329842325234,-49.0702533578903
0.907437132156233,-1.09810558559275,-51.1594178721042,-50.0613122865115,26.1287617288485,24.4816033504594,-50.6103650793079
0.909577314071696,-1.70173850957626,-53.4424576387818,-51.7407191292055,27.572098074179,25.0194903098146,-52.5915883839936
0.911717495987159,-1.58176903842758,-52.8484151040582,-51.2666460656306,27.2150920712429,24.8424385136015,-52.0575305848444
0.913857677902622,-0.83354949337868,-51.0445342343219,-50.2109847409432,25.9390418638503,24.6887176237823,-50.6277594876326
0.915997859818085,-1.47204415587821,-51.4105357696459,-49.9384916137677,26.4412899627621,24.2332237289447,-50.6745136917068
0.918138041733547,-2.02640152340316,-53.6604846087718,-51.6340830853687,27.8434430660875,24.8038407809827,-52.6472838470702
0.92027822364901,-2.50770874330404,-53.681770673128,-51.174061929824,28.094739708216,24.33317659326,-52.427916301476
0.922418405564473,-2.28153297274728,-54.3443107648926,-52.0627777921454,28.31292186882,24.890622409699,-53.203544278519
0.924558587479936,-3.37327936867139,-57.4957809369408,-54.1225015682694,30.4345301528061,25.374611099799,-55.8091412526051
0.926698769395399,-3.67710247599028,-58.9438498267042,-55.266747350714,31.3104761513473,25.7948224373618,-57.1052985887091
0.928838951310861,-3.29683046750527,-59.5570412205197,-56.2602107530145,31.4269358440125,26.4816901427546,-57.9086259867671
0.930979133226324,-2.96666860093316,-60.0894296441501,-57.1227610432169,31.5280491225416,27.0780462211419,-58.6060953436835
0.933119315141787,-3.32407262617407,-61.1957218532995,-57.8716492271254,32.2598972397368,27.2737883004757,-59.5336855402124
0.93525949705725,-2.99032093861475,-59.5799970453381,-56.5896761067233,31.2851589919764,26.7996775840543,-58.0848365760307
0.937399678972713,-2.70054920239051,-58.8212425028843,-56.1206933004938,30.7608958526374,26.7100720490516,-57.470967901689
0.939539860888176,-1.80490299554532,-59.4505904116656,-57.6456874161203,30.6277467036055,27.9203922102875,-58.5481389138929
0.941680042803638,-0.383221104597192,-58.06482937239,-57.6816082677928,29.2240252384936,28.6491935815978,-57.8732188200914
0.943820224719101,-0.436998564076806,-57.5057352451631,-57.0687366810863,28.9713669046199,28.3158690585047,-57.2872359631247
0.945960406634564,-1.77180750186388,-59.59655139848,-57.8247438966161,30.6841794501719,28.0264681973761,-58.710647647548
0.948100588550027,-2.28666371370958,-59.4796744021663,-57.1930106884567,30.883169057938,27.4531734873736,-58.3363425453115
0.95024077046549,-0.157439072811074,-56.8019628610292,-56.6445237882181,28.4797009669201,28.2435423577035,-56.7232433246236
0.952380952380952,1.04714913487205,-56.4092822974864,-57.4564314323584,27.6810665813072,29.2517902836152,-56.9328568649224
0.954521134296415,1.44894438414838,-56.0683470066077,-57.5172913907561,27.3097013112297,29.4831178874522,-56.7928191986819
0.956661316211878,1.15373429065838,-53.8401613208808,-54.9938956115392,26.3432135151112,28.0738149510988,-54.41702846621
0.958801498127341,1.54148433765033,-51.261534633019,-52.8030189706694,24.8600251476844,27.1722516541598,-52.0322768018442
0.960941680042804,0.590020853714422,-52.8870590305411,-53.4770798842556,26.1485190884134,27.033550368985,-53.1820694573984
0.963081861958267,1.05205393940808,-55.5864987885417,-56.6385527279497,27.2672224245668,28.8453033336789,-56.1125257582457
0.965222043873729,0.809143873440601,-54.0658673830182,-54.8750112564588,26.6283617547888,27.8420775649497,-54.4704393197385
0.967362225789192,0.598243152379145,-54.0337343476424,-54.6319775000216,26.7177455976316,27.6151103262004,-54.332855923832
0.969502407704655,0.415133761802479,-55.9380125876285,-56.353146349431,27.761439412913,28.3841400556167,-56.1455794685298
0.971642589620118,0.900212501130636,-54.3710606379589,-55.2712731390895,26.7354240684141,28.0857428201101,-54.8211668885242
0.973782771535581,1.32137024726368,-53.0105929490726,-54.3319631963363,25.8446113509045,27.8266667218,-53.6712780727045
0.975922953451043,1.0429711678927,-53.7615771288867,-54.8045482967794,26.359302980497,27.9237597323361,-54.2830627128331
0.978063135366506,0.157198992085214,-55.0576597545695,-55.2148587466547,27.4502303812421,27.68602886937,-55.1362592506121
0.980203317281969,0.676266948674709,-54.2507748190534,-54.9270417677281,26.7872539351894,27.8016543582014,-54.5889082933908
0.982343499197432,1.12693500101997,-55.4823936789824,-56.6093286800023,27.1777293389812,28.8681318405112,-56.0458611794923
0.984483681112895,0.874157522936337,-56.5517166178954,-57.4258741408317,27.8387795474795,29.150015831884,-56.9887953793636
0.986623863028357,0.654689662748638,-56.1920121201077,-56.8467017828563,27.7686612286795,28.7506957228025,-56.519356951482
0.98876404494382,1.10820105048468,-55.8797074914364,-56.9879085419211,27.3857532204759,29.0480547962029,-56.4338080166788
0.990904226859283,0.213833241549567,-56.2526156265398,-56.4664488680894,28.0193911924951,28.3401410548195,-56.3595322473146
0.993044408774746,-1.20673871169398,-55.2882660157703,-54.0815273040763,28.2475023637321,26.4373942961912,-54.6848966599233
0.995184590690209,-1.1519975759612,-54.4509930626854,-53.2989954867242,27.8014953193233,26.0734989553815,-53.8749942747048
0.997324772605671,-1.10446992431043,-55.0121692826866,-53.9076993583761,28.0583196034985,26.4016147170329,-54.4599343205313
0.999464954521134,-2.35132317817179,-56.787514778864,-54.4361916006922,29.5694189785179,26.0424342112602,-55.6118531897781
1.0016051364366,-0.213578070691689,-54.4645611419789,-54.2509830712872,27.3390696063353,27.0187025002977,-54.357772106633
1.00374531835206,-0.289710150847714,-52.4477134866125,-52.1580033357647,26.3687118187301,25.9341465924585,-52.3028584111886
1.00588550026752,0.28824902064808,-53.2728708085837,-53.5611198292317,26.4923108939678,26.9246844249399,-53.4169953189077
1.00802568218299,0.145988942107542,-52.7011754883228,-52.8471644304304,26.2775932731076,26.4965766862689,-52.7741699593766
1.01016586409845,0.666534097077927,-50.272638053503,-50.9391721505809,24.8030519782125,25.8028531238294,-50.6059051020419
1.01230604601391,1.11848469077214,-51.3844147852451,-52.5028994760172,25.1329650472365,26.8106920833947,-51.9436571306312
1.01444622792937,0.866820747832507,-52.3496877287515,-53.216508476584,25.7414334904595,27.0416646122083,-52.7830981026678
1.01658640984484,1.29237867451829,-51.8996443684292,-53.1920230429475,25.3036328469555,27.2422008587329,-52.5458337056884
1.0187265917603,1.66185893147672,-49.5767282711501,-51.2385872026268,23.9574346698367,26.4502230670518,-50.4076577368885
1.02086677367576,1.98265112384695,-49.4920901703227,-51.4747412941697,23.7547195232379,26.7286962090083,-50.4834157322462
1.02300695559123,2.26117109547639,-48.7745462230395,-51.0357173185159,23.2566875637816,26.6484442069961,-49.9051317707777
1.02514713750669,3.14704823302919,-46.8634382737781,-50.0104865068073,21.8581950203745,26.5787673699183,-48.4369623902927
1.02728731942215,3.27213039413835,-49.0685194827158,-52.3406498768542,22.8981945442887,27.8063901354963,-50.704584679785
1.02942750133761,1.44855295821785,-50.9830272867122,-52.4315802449301,24.7672371642472,26.940066601574,-51.7073037658212
1.03156768325308,1.15339444467192,-51.3571338673842,-52.5105283120562,25.1018697113562,26.831961378364,-51.9338310897202
1.03370786516854,0.89713028745664,-50.3938247776551,-51.2909550651117,24.7483472450992,26.0940426762842,-50.8423899213834
1.035848047084,-0.613482771035434,-51.489632193198,-50.8761494221625,26.0515574821167,25.1313333255636,-51.1828908076803
1.03798822899946,-1.92503559620114,-49.2207452325064,-47.2957096363052,25.5728904143538,22.6853370200521,-48.2582274344058
1.04012841091493,-0.48752329561752,-47.8948986330305,-47.407375337413,24.191210964324,23.4599260208977,-47.6511369852218
1.04226859283039,0.116502597949515,-48.6759417265891,-48.7924443245386,24.2797195643198,24.4544734612441,-48.7341930255639
1.04440877474585,0.640933300257812,-49.3540632813938,-49.9949965816517,24.356564990568,25.3179649409547,-49.6745299315228
1.04654895666132,1.7403164125851,-46.0784718051514,-47.8187882177365,22.1690776962831,24.7795523151608,-46.9486300114439
1.04868913857678,1.4067109248283,-45.8107556045821,-47.2174665294104,22.2020223398769,24.3120887271194,-46.5141110669963
1.05082932049224,1.76112511023683,-48.154553513055,-49.9156786232918,23.1967142014091,25.8384018667643,-49.0351160681734
1.0529695024077,1.42477756740081,-47.6132627482671,-49.0380403156679,23.0942425904332,25.2314089415344,-48.3256515319675
1.05510968432317,1.13275204335001,-45.2111233247741,-46.3438753681241,22.0391856407121,23.7383137057371,-45.7774993464491
1.05724986623863,0.879208027603425,-45.7017604966919,-46.5809685242953,22.4112762345442,23.7300882759494,-46.1413645104936
1.05939004815409,0.659074639846111,-46.1277442159127,-46.7868188557588,22.7343347880333,23.7229467478025,-46.4572815358358
1.06153023006956,0.467949212322928,-44.5654171951264,-45.0333664074493,22.0487339914017,22.7506578098861,-44.7993918012878
1.06367041198502,2.23418619817811,-43.8530239748082,-46.0872101729863,20.8094188883151,24.1606981855822,-44.9701170738973
1.06581059390048,2.47956026900611,-45.8107419415916,-48.2903022105977,21.6655908362927,25.3849312398019,-47.0505220760947
1.06795077581594,2.04854131476495,-45.5783057015715,-47.6268470163365,21.7648821934033,24.8376941655507,-46.602576358954
1.07009095773141,2.31837864148786,-44.7324396363755,-47.0508182778634,21.2070304974438,24.6845984596756,-45.8916289571194
1.07223113964687,1.26454032335967,-46.5742730715124,-47.838813394872,22.6548663740764,24.5516768591159,-47.2065432331922
1.07437132156233,-0.294487997440753,-49.461517858602,-49.1670298611613,24.8780029280214,24.4362709318603,-49.3142738598817
1.0765115034778,0.928159759483352,-47.4598845869923,-48.3880443464756,23.2658624137545,24.6581020529795,-47.923964466734
1.07865168539326,0.701575783261329,-47.0101334509196,-47.7117092341809,23.1542788338291,24.2066425087211,-47.3609213425502
1.08079186730872,0.504849790141741,-46.6196480318895,-47.1244978220312,23.0573991208739,23.8146738060865,-46.8720729269603
1.08293204922418,0.334047260262195,-47.5687365959845,-47.9027838562467,23.6173446678611,24.1184155582544,-47.7357602261156
1.08507223113965,0.1857521430251,-47.7487005314819,-47.934452674507,23.7814741942284,24.0601024087661,-47.8415766029945
1.08721241305511,-1.23111943837741,-49.1930677894414,-47.961948351064,25.2120936139094,23.3654144563433,-48.5775080702527
1.08935259497057,-1.17316554533727,-51.0911633064807,-49.9179977611434,26.132164425909,24.3724161079031,-50.504580533812
1.09149277688604,0.809328465928039,-50.1629023461278,-50.9722308120558,24.6767869400999,25.8907796389919,-50.5675665790918
1.0936329588015,1.88652139475274,-50.0010214679532,-51.8875428627059,24.0572500366002,26.8870321287293,-50.9442821653295
1.09577314071696,1.5336498231367,-50.5045313437384,-52.0381811668751,24.4854407603009,26.7859154950059,-51.2713562553068
1.09791332263242,2.51539568988373,-49.6535734986497,-52.1689691885334,23.569088904383,27.3421824392086,-50.9112713435916
1.10005350454789,2.07965454209264,-48.2706911843266,-50.3503457264192,23.095518321117,26.2150001342559,-49.3105184553729
1.10219368646335,2.34539193981217,-49.6462734012954,-51.9916653411075,23.6504407307416,27.1685286404599,-50.8189693712015
1.10433386837881,1.28799395864709,-52.1287069768126,-53.4167009354597,25.4203565090828,27.3523474470534,-52.7727039561361
1.10647405029427,1.01399302197867,-50.4196652632262,-51.4336582852049,24.7028361206238,26.2238256535918,-50.9266617742155
1.10861423220974,0.776098413187018,-51.5120675625097,-52.2881659756967,25.3679845746614,26.5321321944419,-51.9001167691032
1.1107544141252,-0.0745067471352465,-51.8164601418713,-51.741953394736,25.9454834445033,25.8337233238004,-51.7792067683037
1.11289459604066,1.11915309738662,-50.7926235763215,-51.9117766737081,24.8367352394674,26.5154648855473,-51.3522001250148
1.11503477795613,1.51146006275199,-47.9715255686276,-49.4829856313795,23.2300327529378,25.4972228470658,-48.7272556000036
1.11717495987159,-0.0801059755400164,-49.3865301756846,-49.3064242001446,24.7333180756123,24.6131591123023,-49.3464771879146
1.11931514178705,-0.173826270132618,-51.2591322895463,-51.0853060194137,25.7164792798395,25.4557398746405,-51.17221915448
1.12145532370251,1.03292135177247,-50.9527962929087,-51.9857176446811,24.9599374705681,26.5093194982268,-51.4692569687949
1.12359550561798,0.792532472377204,-53.2630635084248,-54.055595980802,26.2352655180238,27.4240642265896,-53.6593297446134
1.12573568753344,-0.704297264596435,-55.2688964888588,-54.5645992242624,27.9865968767276,26.930150979833,-54.9167478565606
1.1278758694489,-0.0717060964202281,-54.4341759448934,-54.3624698484731,27.2529410206568,27.1453818760265,-54.3983228966832
1.13001605136437,0.477525706609846,-53.0653912699634,-53.5429169765733,26.2939327816768,27.0102213415916,-53.3041541232684
1.13215623327983,0.310323793322822,-53.8091544301517,-54.1194782234745,26.7494153184144,27.2149010083987,-53.9643163268131
1.13429641519529,0.809213810571028,-55.0989675822339,-55.908181392805,27.1448768858314,28.358697601688,-55.5035744875194
1.13643659711075,1.88642184804449,-53.642580342439,-55.5290021904835,25.8780792471973,28.707712019264,-54.5857912664613
1.13857677902622,2.17762238137461,-53.0221667447487,-55.1997891261233,25.422272181687,28.688705753749,-54.110977935436
1.14071696094168,2.4304501191145,-55.0597437682488,-57.4901938873633,26.3146468245672,29.9603220032389,-56.2749688278061
1.14285714285714,2.64996161601895,-55.5407021874003,-58.1906638034193,26.4453702856907,30.4203127097191,-56.8656829954098
1.14499732477261,0.908370140331351,-53.382046617433,-54.2904167577643,26.2368382385508,27.5993934490478,-53.8362316875987
1.14713750668807,0.684393930660592,-54.0840826874197,-54.7684766180803,26.6998443783796,27.7264352743704,-54.42627965275
1.14927768860353,0.489932067040252,-53.4054903527511,-53.8954224197913,26.4577791428554,27.1926772434158,-53.6504563862712
1.15141787051899,2.25327227389262,-49.5960242263489,-51.8492965002415,23.6713759762281,27.0512843870671,-50.7226603632952
1.15355805243446,2.49613128723211,-50.7969613857386,-53.2930926729707,24.1504150492532,27.8946119801014,-52.0450270293546
1.15569823434992,1.41886970863538,-52.483704676134,-53.9025743847694,25.5324174837493,27.6607220467024,-53.1931395304517
1.15783841626538,1.77168167676663,-53.304119278225,-55.0758009549916,25.7662188007292,28.4237413158791,-54.1899601166083
1.15997859818085,2.07800203521549,-52.7283062074767,-54.8063082426922,25.3251520861306,28.4421551389538,-53.7673072250844
1.16211878009631,1.0558392166878,-55.4486655344051,-56.5045047510929,27.1964131588586,28.7801719838903,-55.976585142749
1.16425896201177,-0.475687626645553,-54.5902560199583,-54.1145683933127,27.5329718233019,26.8194403833336,-54.3524122066355
1.16639914392723,0.126778627929956,-52.5568449888168,-52.6836236167468,26.2150331804434,26.4052011223384,-52.6202343027818
1.1685393258427,0.649855211846335,-51.4354446033623,-52.0852998152087,25.392794695758,26.3675775135275,-51.7603722092855
1.17067950775816,-0.828173304912783,-51.7499341324625,-50.9217608275497,26.2890537186876,25.0467937613185,-51.3358474800061
1.17281968967362,-0.17925843732838,-50.0908050092315,-49.9115465719031,25.1350317232799,24.8661440672874,-50.0011757905673
1.17495987158908,1.67226399275486,-48.6503067448643,-50.3225707376191,23.4890213760547,25.997417365187,-49.4864387412417
1.17710005350455,1.99168506370246,-49.3318063357681,-51.3234913994706,23.6700606360328,26.6575882315865,-50.3276488676194
1.17924023542001,0.980896618243249,-49.2794426928701,-50.2603393111134,24.1492730373134,25.6206179646783,-49.7698910019918
1.18138041733547,1.39142225770418,-46.013684305041,-47.4051065627452,22.3111310236684,24.3982644102247,-46.7093954338931
1.18352059925094,0.459733124638336,-45.7545054428829,-46.2142385675212,22.6473861591223,23.3369858460798,-45.984372005202
1.1856607811664,0.938934806620533,-45.5294797376066,-46.4684145442271,22.295272465493,23.7036746754238,-45.9989471409169
1.18780096308186,2.64310791598054,-44.0459887006435,-46.6890966166241,20.7014403923315,24.6661022663023,-45.3675426586338
1.18994114499732,2.83459654466943,-44.6901608687221,-47.5247574133915,20.9277821620263,25.1796769790305,-46.1074591410568
1.19208132691279,2.35679287380241,-45.2494475915444,-47.6062404653468,21.446327358871,24.9815166695746,-46.4278440284456
1.19422150882825,1.94195152784865,-44.4469166291037,-46.3888681569523,21.2524825506275,24.1654098424005,-45.417892393028
1.19636169074371,1.58177567988907,-43.7501387579242,-45.3319144378132,21.0841815390175,23.4568450588512,-44.5410265978687
1.19850187265918,-0.019056161498648,-44.4332963950454,-44.4142402335468,22.226176278272,22.1975920360241,-44.4237683142961
1.20064205457464,-1.40893923736926,-45.0264312974368,-43.6174920600676,23.217685267403,21.1042764113492,-44.3219616787522
1.2027822364901,0.604623726917646,-41.6770522397569,-42.2816759666745,20.5362142564196,21.4431498467961,-41.9793641032157
1.20492241840556,1.06473252675218,-41.9893307643287,-43.0540632910809,20.4622991187883,22.0593979089165,-42.5216970277048
1.20706260032103,-0.467966227790676,-43.5485769266745,-43.0806106988838,22.0082715772326,21.3063222355466,-43.3145938127792
1.20920278223649,-0.510576443679131,-42.9701772925734,-42.4596008488943,21.7403768681263,20.9745122026076,-42.7148890707338
1.21134296415195,0.0964872662276048,-41.8239369757713,-41.9204242419989,20.8637248547719,21.0084557541133,-41.8721806088851
1.21348314606742,0.623555478241164,-44.6930957912082,-45.3166512694493,22.0347701564835,22.9701033738452,-45.0048735303287
1.21562332798288,-0.851007405092877,-46.540113740642,-45.6891063355491,23.6955605728674,22.4190494652281,-46.1146100380956
1.21776350989834,-0.199083586087001,-46.2115649192534,-46.0124813331664,23.2053242526702,22.9066988735397,-46.1120231262099
1.2199036918138,0.366933317979407,-43.9941334825794,-44.3610668005588,21.8136000823,22.3640000592691,-44.1776001415691
1.22204387372927,-0.429754329275455,-45.9332568189354,-45.5035024896599,23.1815055741054,22.5368740801922,-45.7183796542976
1.22418405564473,0.166659089439447,-45.0406172588032,-45.2072763482426,22.4369790846819,22.686967718841,-45.1239468035229
1.22632423756019,0.68448044672541,-44.2656048025262,-44.9500852492516,21.7905621779004,22.8172828479885,-44.6078450258889
1.22846441947566,1.13406616972815,-46.8130141371366,-47.9470803068648,22.8394739837042,24.5405732382965,-47.3800472220007
1.23060460139112,0.880348985676163,-47.0925629981996,-47.9729119838758,23.1061070062617,24.426630484776,-47.5327374910377
1.23274478330658,1.30412423600647,-46.0471564821327,-47.3512807181392,22.3715161230631,24.3277024770728,-46.6992186001359
1.23488496522204,1.02799774060761,-45.7835668416191,-46.8115645822268,22.3777845505058,23.9197811614172,-46.297565711923
1.23702514713751,0.788257667458117,-48.1309475348884,-48.9192052023466,23.6713449337152,24.8537314349023,-48.5250763686175
1.23916532905297,1.22416820232656,-46.3046494608706,-47.5288176631971,22.540240629272,24.3764929327618,-46.9167335620338
1.24130551096843,2.24669584525536,-45.3630698326357,-47.6097656778911,21.5581869936902,24.9282307615732,-46.4864177552634
1.2434456928839,1.20230348952191,-45.8336843341959,-47.0359878237178,22.315690422337,24.1191456566199,-46.4348360789568
1.24558587479936,1.58365335613418,-47.5304018342723,-49.1140551904065,22.9733742390691,25.3488542732704,-48.3222285123394
1.24772605671482,2.55881003388296,-47.7154173126305,-50.2742273465135,22.5783036393738,26.4165186901982,-48.994822329572
1.24986623863028,2.11734798397361,-47.231993487379,-49.3493414713526,22.5573227517027,25.7333447276631,-48.2906674793658
1.25200642054575,1.73405936118094,-47.4563315671308,-49.1903909283118,22.8611361029749,25.4622251447464,-48.3233612477213
1.25414660246121,1.4012783930491,-45.7189306538998,-47.1202090469489,22.1588261304254,24.260743719999,-46.4195698504244
1.25628678437667,2.40046743467858,-42.9223568486178,-45.3228242832963,20.2609447069696,23.8616458589875,-44.122590565957
1.25842696629213,1.97987089666583,-44.3586539943414,-46.3385248910072,21.1893915488378,24.1591978938365,-45.3485894426743
1.2605671482076,0.970639256792039,-46.2497428338977,-47.2203820906898,22.6395517885529,24.0955106737409,-46.7350624622938
1.26270733012306,0.738457567377801,-45.9594574844967,-46.6979150518745,22.6104999585595,23.7181863096262,-46.3286862681856
1.26484751203852,1.82498947121146,-45.7074243328099,-47.5324138040213,21.9412174307992,24.6787016376164,-46.6199190684156
1.26698769395399,1.48022623613355,-48.0648386647297,-49.5450649008632,23.2923062142981,25.5126455684984,-48.8049517827964
1.26912787586945,1.82495298044708,-47.5353700264222,-49.3603230068693,22.8552085229876,25.5926379936582,-48.4478465166458
1.27126805778491,2.12425354115182,-45.7875538622043,-47.9118074033561,21.8316501605263,25.018030472254,-46.8496806327802
1.27340823970037,2.38411392946188,-45.5581732190277,-47.9422871484896,21.5870296447829,25.1632005389757,-46.7502301837586
1.27554842161584,1.96567236591188,-46.647137062719,-48.6128094286308,22.3407323484035,25.2892408972714,-47.6299732456749
1.2776886035313,2.24642970434888,-46.9485442871474,-49.1949739914962,22.3510572913992,25.7207018479226,-48.0717591393218
1.27982878544676,1.20207241919201,-48.4983517091511,-49.7004241283431,23.6481396449795,25.4512482737676,-49.0993879187471
1.28196896736223,0.939393747742686,-50.4879930686288,-51.4273868163715,24.7742996604431,26.1833902820571,-50.9576899425002
1.28410914927769,1.35538840591699,-52.8595094821151,-54.2148978880321,25.7520605380991,27.7851431469745,-53.5372036850736
1.28624933119315,0.428447614528772,-53.6304026055301,-54.0588502200589,26.6009774955007,27.2436489172938,-53.8446264127945
1.28838951310861,0.911771927986405,-54.9437706843467,-55.8555426123331,27.0159993781801,28.3836572701597,-55.3996566483399
1.29052969502408,0.0432884623229081,-56.0840703822546,-56.1273588445775,28.0203909599659,28.0853236534502,-56.1057146134161
1.29266987693954,-0.0666920687704219,-55.785989718749,-55.7192976499786,27.9263408937597,27.8263027906041,-55.7526436843638
1.294810058855,-0.806238961033517,-57.4593654380273,-56.6531264769938,29.1328021995304,27.9234437579801,-57.0562459575106
1.29695024077047,-1.44833245442514,-59.5562919480473,-58.1079594936222,30.5023122012362,28.3298135195985,-58.8321257208347
1.29909042268593,-0.71769644434999,-58.8006611321966,-58.0829646878466,29.7591787882733,28.6826341217483,-58.4418129100216
1.30123060460139,0.560719380851996,-60.0767801273988,-60.6374995082508,29.7580303732734,30.5991094445514,-60.3571398178248
1.30337078651685,-1.54962229635947,-62.4728571943616,-60.9232348980021,32.0112397453605,29.6868063008213,-61.6980460461819
1.30551096843232,-2.09375684563297,-63.9091334914197,-61.8153766457867,33.0014451685263,29.8608099000769,-62.8622550686032
1.30765115034778,-2.566188353727,-63.2239682807061,-60.6577799269791,32.8950783172166,29.0457957866261,-61.9408741038426
1.30979133226324,-2.97636545080341,-63.9172083261292,-60.9408428753258,33.4467868884663,28.9822387122612,-62.4290256007275
1.31193151417871,-2.68843269157219,-65.1631560200559,-62.4747233284837,33.925794355814,29.8931453184558,-63.8189396742698
1.31407169609417,-2.4384421187352,-66.2449196184783,-63.8064774997431,34.3416808686068,30.684017690504,-65.0256985591107
1.31621187800963,-1.57733493360415,-65.2519574316702,-63.674622498066,33.4146461826372,31.0486437822309,-64.4632899648681
1.31835205992509,-2.11781766482603,-66.9660782584811,-64.8482605936551,34.5419479616536,31.3652214644145,-65.9071694260681
1.32049224184056,-1.94301958402073,-67.8102627366697,-65.867243152649,34.8766411603452,31.9621117843141,-66.8387529446594
1.32263242375602,-1.79125542745864,-66.6110282919916,-64.819772864533,34.2011418597251,31.5142587185372,-65.7154005782623
1.32477260567148,-1.01543092477694,-64.9257633419812,-63.9103324172043,32.9705971333791,31.4474507462137,-64.4180478795927
1.32691278758694,-2.27401724550321,-65.3947502472194,-63.1207330017162,33.8343837463613,30.4233578781065,-64.2577416244678
1.32905296950241,-2.07863604792933,-62.5816417159937,-60.5030056680644,32.3301388819615,29.2121848100675,-61.542323692029
1.33119315141787,-1.90900110387683,-61.4273470415752,-59.5183459376984,31.668174072726,28.8046724169108,-60.4728464896368
1.33333333333333,-1.11766072723309,-59.7810999474709,-58.6634392202379,30.449380337352,28.7728892465024,-59.2222695838544
1.3354735152488,-1.07465779558331,-58.3517861896854,-57.2771283941021,29.7132219926343,28.1012352992594,-57.8144572918937
1.33761369716426,-0.393262565176422,-57.7548784802944,-57.3616159151179,29.0740705227354,28.4841766749708,-57.5582471977061
1.33975387907972,-1.08977580375392,-57.8806869544551,-56.7909111507012,29.4852313791045,27.8505676734736,-57.3357990525781
1.34189406099518,-1.05044739308279,-57.3458580965328,-56.29541070345,29.1981527448078,27.6224816551836,-56.8206343999914
1.34403424291065,0.271816511627023,-54.3052700783292,-54.5770865899562,27.0167267833511,27.4244515507916,-54.4411783341427
1.34617442482611,0.131721818233582,-52.3094129182578,-52.4411347364914,26.0888455500121,26.2864282773625,-52.3752738273746
1.34831460674157,-0.633970958589545,-52.5087357369254,-51.8747647783359,26.5713533477575,25.6203969098732,-52.1917502576306
1.35045478865704,1.27747097243394,-50.7496159353511,-52.0270869077851,24.7360724814586,26.6522789401095,-51.3883514215681
1.3525949705725,2.9370336583785,-49.8663621983946,-52.8033958567731,23.4646642700081,27.8702147575758,-51.3348790275839
1.35473515248796,1.15761341680521,-51.0316757151249,-52.1892891319301,24.9370311491598,26.6734512743676,-51.6104824235275
1.35687533440342,-0.387324667684896,-53.3315486366801,-52.9442239689952,26.8594366521825,26.2784496506552,-53.1378863028377
1.35901551631889,0.847556592144639,-52.7521210767922,-53.5996776689369,25.9522822423238,27.2236171305408,-53.1758993728646
1.36115569823435,1.9197120299444,-50.9609293013464,-52.8806413312908,24.520608635701,27.4001766806176,-51.9207853163186
1.36329588014981,1.56246678000726,-51.9820068195328,-53.54447359954,25.2097700197628,27.5534701897736,-52.7632402095364
1.36543606206528,1.89635632033903,-51.5804144157061,-53.4767707360451,24.8420290476835,27.6865635281921,-52.5285925758756
1.36757624398074,1.54218875662829,-49.9436236630997,-51.485812419728,24.2007174532357,26.5140005881781,-50.7147180414139
1.3697164258962,1.87875042271889,-49.8106381168976,-51.6893885396165,23.9659438470893,26.7840694811677,-50.750013328257
1.37185660781166,1.52690286681457,-52.9154716065605,-54.442374473375,25.6942843698729,27.9846386700948,-53.6789230399677
1.37399678972713,1.22141983568375,-51.7468133890598,-52.9682332247435,25.262696776688,27.0948265302136,-52.3575233069016
1.37613697164259,0.956191668703817,-50.7321544873644,-51.6883461560683,24.8879814093303,26.322268912386,-51.2102503217164
1.37827715355805,1.36997278976673,-50.4952607106722,-51.8652335004389,24.5626439604527,26.6176031451028,-51.1802471055556
1.38041733547352,1.08516913617569,-49.6455244983311,-50.7306936345067,24.2801776810777,25.9079313853412,-50.1881090664189
1.38255751738898,1.48195431997693,-48.2637028367492,-49.7456571567261,23.3908742583861,25.6138057383515,-49.0046799967377
1.38469769930444,1.82645334695998,-48.9961469522761,-50.8226002992361,23.5848468026581,26.3245268230981,-49.9093736257561
1.3868378812199,0.837438223201369,-47.6998966718683,-48.5373348950696,23.4312292243334,24.6873865591355,-48.1186157834689
1.38897806313537,2.55498599092519,-47.86257705804,-50.4175630489652,22.6537955335574,26.4862745199452,-49.1400700535026
1.39111824505083,2.75808683947679,-48.6478793099733,-51.4059661494501,22.9448962352483,27.0820264944635,-50.0269227297117
1.39325842696629,2.29036519436863,-49.3296987748205,-51.6200639691891,23.5196667902259,26.9552145817789,-50.4748813720048
1.39539860888175,2.52833630781661,-46.7013769057206,-49.2297132135372,22.086520298952,25.8790247606769,-47.9655450596289
1.39753879079722,4.02306687866633,-44.419400754724,-48.4424676333904,20.1981669380289,26.2327672560283,-46.4309341940572
1.39967897271268,3.38865316086707,-45.6584257349688,-49.0470788958359,21.1348862870509,26.2178660283515,-47.3527523154024
1.40181915462814,2.1937799864908,-46.0901198693958,-48.2838998558866,21.9481699414525,25.2388399211887,-47.1870098626412
1.40395933654361,3.08853755163119,-43.2446328024221,-46.3331703540532,20.0780476253954,24.7108539528422,-44.7889015782376
1.40609951845907,3.22132992669997,-43.350344231067,-46.5716741577669,20.0645071521835,24.8965020422335,-44.961009194417
1.40823970037453,1.40444669539032,-44.7302435668206,-46.1346902622109,21.6628984357151,23.7695684788006,-45.4324669145157
1.41037988228999,1.1151002611987,-43.9961304389302,-45.1112307001289,21.4405150888658,23.1131654806638,-44.5536805695296
1.41252006420546,1.50794128689982,-41.4265777168029,-42.9345190037027,19.9593182149515,22.2212301453013,-42.1805483602528
1.41466024612092,1.8490158951212,-42.4159213758134,-44.2649372709346,20.2834527403461,23.0569765830279,-43.340429323374
1.41680042803638,2.78920456525885,-43.2748947997095,-46.0640993649683,20.2428451172253,24.4266519651136,-44.6694970823389
1.41894060995185,3.60550037282901,-41.4444415080427,-45.0499418808717,18.9194705676069,24.3277211268504,-43.2471916944572
1.42108079186731,3.67017024675152,-40.4992542137574,-44.1694244605089,18.4145419835029,23.9197973536302,-42.3343393371331
1.42322097378277,3.08225929515976,-40.3226774603128,-43.4049367554726,18.6202090825765,23.2435980253162,-41.8638071078927
1.42536115569823,3.85993797137154,-39.5253100275221,-43.3852479988936,17.8326860280753,23.6225929851326,-41.4552790132079
1.4275013376137,4.53513845313809,-38.8330152646159,-43.368153717754,17.1489384057389,23.951646085446,-41.1005844911849
1.42964151952916,4.47730576286316,-40.8081832252623,-45.2854889881255,18.1654387311996,24.8813973754943,-43.0468361066939
1.43178170144462,4.42709394462777,-41.2349565026652,-45.662050447293,18.4039312790187,25.0445721959604,-43.4485034749791
1.43392188336009,3.73943977483565,-39.6733149964509,-43.4127547712865,17.9669376108076,23.5760972730611,-41.5430348838687
1.43606206527555,3.14240086797744,-39.6055759446177,-42.7479768125951,18.2315875383201,22.9451888402863,-41.1767763786064
1.43820224719101,1.97997745868443,-40.1908221575876,-42.170799616272,19.1054223494516,22.0753885374782,-41.1808108869298
1.44034242910647,3.5469677255835,-39.4108298872703,-42.9577976128538,17.9319310808434,23.2523826692187,-41.1843137500621
1.44248261102194,2.97529172077195,-40.0217386584956,-42.9970303792676,18.5232234688618,22.9861610500198,-41.5093845188816
1.4446227929374,2.47894801781305,-42.4843222126098,-44.9632702304228,20.0026870973984,23.7211091241179,-43.7237962215163
1.44676297485286,2.04800974264762,-43.9783411398039,-46.0263508824515,20.9651656985781,24.0371803125496,-45.0023460111277
1.44890315676833,3.60603509146704,-42.0551915803506,-45.6612266718177,19.2245782444418,24.6336308816424,-43.8582091260841
1.45104333868379,3.67063450312507,-42.3176409941881,-45.9882754973131,19.3235032455315,24.8294550002191,-44.1529582457506
1.45318352059925,4.37078034885944,-43.8336242503966,-48.204404599256,19.7314219507686,26.2875924740577,-46.0190144248263
1.45532370251471,4.97866484769834,-42.5736036694011,-47.5522685170995,18.7974694108514,26.2654666823989,-45.0629360932503
1.45746388443018,5.50644568961853,-39.5474446694331,-45.0538903590516,17.0204994899073,25.2801680243351,-42.3006675142423
1.45960406634564,5.96467849145843,-41.4284690747735,-47.3931475662319,17.7318952916575,26.6789130288452,-44.4108083205027
1.4617442482611,5.0744099347917,-43.7056814755553,-48.780091410347,19.3156357703818,26.9272506725693,-46.2428864429511
1.46388443017656,4.94551503148959,-43.1065794729813,-48.0520945044709,19.0805322207459,26.4988047679802,-45.5793369887261
1.46602461209203,4.83360518559953,-43.2304828057776,-48.0640879913772,19.1984388100891,26.4488465884883,-45.6472853985774
1.46816479400749,2.80426523850904,-45.91429479164,-48.718560030149,21.5550147765655,25.761412634329,-47.3164274108945
1.47030497592295,2.97451744663051,-44.3800949553502,-47.3546124019807,20.7027887543599,25.1645649243056,-45.8673536786655
1.47244515783842,3.76639374769842,-43.6921224747331,-47.4585162224315,19.9628643635173,25.612454985065,-45.5753193485823
1.47458533975388,2.52174400815294,-45.671043151216,-48.1927871593689,21.5746495715315,25.3572655837609,-46.9319151552925
1.47672552166934,1.44110732686267,-48.0332515940142,-49.4743589208768,23.2960721335757,25.4577331238698,-48.7538052574455
1.4788657035848,1.14692995743335,-47.5079453251708,-48.6548752826042,23.1805076838687,24.9009026200188,-48.0814103038875
1.48100588550027,0.247458667358352,-48.9840379725498,-49.2314966399082,24.3682896525957,24.7394776536333,-49.107767306229
1.48314606741573,0.110573715954226,-49.6215603082076,-49.7321340241618,24.7554932961267,24.921353870058,-49.6768471661847
1.48528624933119,0.635785693537956,-48.8869555022807,-49.5227411958187,24.1255849043714,25.0792634446783,-49.2048483490497
1.48742643124666,0.447729154543152,-47.6050938671921,-48.0528230217353,23.5786823563245,24.2502760881392,-47.8289584444637
1.48956661316212,0.284453666076419,-48.4243258298212,-48.7087794958976,24.0699360818724,24.496616580987,-48.5665526628594
1.49170679507758,0.786752705599987,-49.135603935761,-49.922356641361,24.1744256150805,25.3545546734805,-49.528980288561
1.49384697699304,1.22286155601783,-48.4650357726672,-49.6878973286851,23.6210871083247,25.4553794423515,-49.0764665506762
1.49598715890851,0.957443407106728,-50.4590673219773,-51.416510729084,24.7508119574353,26.1869770680954,-50.9377890255306
1.49812734082397,-0.561117380688158,-52.1903364231313,-51.6292190424432,26.3757269019097,25.5340508308775,-51.9097777327872
1.50026752273943,0.696665321576534,-51.1172325092262,-51.8138978308027,25.2102835938248,26.2552815761896,-51.4655651700144
1.5024077046549,1.78870437640009,-48.253359331835,-50.0420637082351,23.2323274777175,25.9153840423176,-49.1477115200351
1.50454788657036,1.44872259041585,-48.3431074699959,-49.7918300604118,23.44719243979,25.6202763254138,-49.0674687652038
1.50668806848582,2.44165969814027,-47.7769701076944,-50.2186298058346,22.667655204777,26.3301447519875,-48.9977999567645
1.50882825040128,2.65969405872327,-45.9973172211078,-48.657011279831,21.6688115811923,25.6583526692772,-47.3271642504694
1.51096843231675,2.848997057263,-45.7402951227406,-48.5892921800036,21.4456490327388,25.7191446186333,-47.1647936513721
1.51310861423221,2.36929576649869,-48.7374369110102,-51.1067326775089,23.1840705722557,26.7380142220038,-49.9220847942595
1.51524879614767,1.95280685850157,-49.4074549705548,-51.3602618290564,23.7273240560266,26.656534343779,-50.3838583998056
1.51738897806314,1.59120055511169,-49.9891817562249,-51.5803823113365,24.1989906005566,26.5857914332241,-50.7847820337807
1.5195291599786,1.92130371749282,-51.1383107909653,-53.0596145084581,24.6085035367362,27.4904591129755,-52.0989626497117
1.52166934189406,2.20790771100607,-50.8478959831213,-53.0558036941274,24.3199941360576,27.6318557025667,-51.9518498386244
1.52380952380952,2.45674461552171,-49.9516914450775,-52.4084360605992,23.7474734147779,27.4325903380604,-51.1800637528383
1.52594970572499,3.31685015636163,-50.4617017584225,-53.7785519147841,23.5724258010304,28.5477010355729,-52.1201268366033
1.52808988764045,2.77549777199298,-50.9045057336502,-53.6800035056432,24.0645039808286,28.2277506388181,-52.2922546196467
1.53023006955591,2.3054818105014,-50.6449004630338,-52.9503822735352,24.1697093262662,27.6279320420183,-51.7976413682845
1.53237025147138,2.54146093988862,-50.4195045390473,-52.9609654789359,23.9390217995793,27.7512132094123,-51.6902350089916
1.53451043338684,0.170108095929626,-53.4441049793688,-53.6142130752984,26.6369984417196,26.892160585614,-53.5291590273336
1.5366506153023,0.0434159749859358,-53.493904354446,-53.537320329432,26.72524418973,26.7903681522089,-53.515612341939
1.53879079721776,1.86559560267387,-52.8930824560949,-54.7586780587688,25.5137434267105,28.3121368307213,-53.8258802574319
1.54093097913323,2.15954050342454,-53.0154925314665,-55.1750330348911,25.427976014021,28.6672867691578,-54.0952627831788
1.54307116104869,0.482574009331287,-52.4777130969503,-52.9602871062816,25.9975695438095,26.7214305578064,-52.7190001016159
1.54521134296415,2.89094280756113,-48.7905043255844,-51.6814471331456,22.9497807590117,27.2861949703533,-50.235975729365
1.54735152487961,2.40571413783339,-46.8772935058374,-49.2830076436707,22.235789684002,25.8443608907521,-48.080150574754
1.54949170679508,1.34036723106797,-47.1483719872358,-48.4887392183037,22.9040023780839,24.9145532246859,-47.8185556027698
1.55163188871054,2.34758280871074,-47.3837292457482,-49.7313120544589,22.5180732185187,26.0394474315848,-48.5575206501036
1.553772070626,1.93395511419193,-44.367777490387,-46.3017326045789,21.2169111880975,24.1178438593854,-45.334755047483
1.55591225254147,1.57483298939417,-43.6814281371722,-45.2562611265664,21.053297573889,23.4155470579803,-44.4688446318693
1.55805243445693,1.2630339918215,-45.0176990670747,-46.2807330588962,21.8773325376266,23.7718835253588,-45.6492160629854
1.56019261637239,1.63638112875404,-42.9575886688751,-44.5939697976292,20.6606037700605,23.1151754631916,-43.7757792332522
1.56233279828785,1.96053064504392,-39.880830249579,-41.8413608946229,18.9601498022675,21.9009457698334,-40.8610955721009
1.56447298020332,2.88602451824853,-41.7179229471942,-44.6039474654428,19.4159492144729,23.7449859918456,-43.1609352063185
1.56661316211878,3.04550294071387,-42.0248157560046,-45.0703186967184,19.4896564076454,24.0579108187162,-43.5475672263615
1.56875334403424,3.18396617877576,-42.9353269151908,-46.1192930939665,19.8756803682075,24.6516296363711,-44.5273100045786
1.57089352594971,2.66012450996387,-46.3020918989763,-48.9622164089402,21.8209836945062,25.811170459452,-47.6321541539582
1.57303370786517,1.5612528115569,-48.5811442282593,-50.1423970398162,23.5099457083512,25.8518249256866,-49.3617706340377
1.57517388978063,1.25124333470478,-47.3395807113541,-48.5908240460589,23.0441686883247,24.9210336903818,-47.9652023787065
1.57731407169609,1.62614417921553,-46.9056825545867,-48.5318267338022,22.6397691876856,25.0789854565089,-47.7187546441945
1.57945425361156,1.30758367686129,-47.1730200841668,-48.4806037610281,22.9327182036528,24.8940937189447,-47.8268119225975
1.58159443552702,3.60723726440775,-46.761070365568,-50.3683076299757,21.5769165505801,26.9877724471917,-48.5646889977718
1.58373461744248,4.31573724759669,-47.0474640895362,-51.3632013371329,21.3658634209698,27.8394692923648,-49.2053327133346
1.58587479935795,4.28681603463334,-49.2282953943592,-53.5151114289925,22.4707396798629,28.9009637318129,-51.3717034116758
1.58801498127341,2.97358792468179,-49.8336308380106,-52.8072187626924,23.4300214566644,27.8904033436871,-51.3204248003515
1.59015516318887,3.12152772577916,-50.3591985251366,-53.4807262509158,23.6188353996787,28.3011269883475,-51.9199623880262
1.59229534510433,3.89403182540595,-50.8155098094796,-54.7095416348856,23.4607389920368,29.3017867301458,-52.7625257221826
1.5944355270198,3.27662163320506,-50.567631929495,-53.8442535627001,23.645505148145,28.5604375979526,-52.2059427460975
1.59657570893526,2.74057034110548,-47.7761820765433,-50.5167524176488,22.5178058677189,26.6286613793771,-49.1464672470961
1.59871589085072,2.91921591049678,-46.6406920195746,-49.5599079300714,21.8607380545389,26.2395619202841,-48.100299974823
1.60085607276619,1.14214359318559,-46.9429485361397,-48.0850921293253,22.900402471477,24.6136178612554,-47.5140203327325
1.60299625468165,2.81953897264302,-48.4934933352599,-51.3130323079029,22.8369771813085,27.066285640273,-49.9032628215814
1.60513643659711,1.69966051809945,-47.9075389554501,-49.6071994735495,23.1039392186753,25.6534299958245,-48.7573692144998
1.60727661851257,2.01547142647314,-48.6869163772365,-50.7023878037097,23.3357224753817,26.3589296150914,-49.6946520904731
1.60941680042804,2.28966652015857,-49.3635917532821,-51.6532582734406,23.5369626165617,26.9714623967996,-50.5084250133613
1.6115569823435,2.52772970102944,-47.3748626421813,-49.9025923432107,22.4235664705759,26.2151610221201,-48.638727492696
1.61369716425896,3.37848121993473,-43.7160202915635,-47.0945015114982,20.1687695358144,25.2364913657165,-45.4052609015309
1.61583734617442,2.82900743490292,-44.4036738714653,-47.2326813063682,20.7873332182812,25.0308443706356,-45.8181775889167
1.61797752808989,3.64005824046951,-45.6447712533972,-49.2848294938667,21.0023565064638,26.4624438671681,-47.4648003736319
1.62011771000535,4.34423325697283,-45.4342057126482,-49.778438969621,20.5449862278377,27.0613361132969,-47.6063223411346
1.62225789192081,4.31155699751137,-45.2513873341764,-49.5629443316878,20.4699151683325,26.9372506645996,-47.4071658329321
1.62439807383628,2.99506866031928,-47.0248367121071,-50.0199053724263,22.0148840258939,26.5074870163728,-48.5223710422667
1.62653825575174,2.49611886165729,-45.988354791413,-48.4844736530702,21.7461179648778,25.4902962573638,-47.2364142222416
1.6286784376672,3.99509486936034,-45.0884547252262,-49.0835495945866,20.5466799279329,26.5393222319735,-47.0860021599064
1.63081861958266,4.00842613545987,-44.3071385122232,-48.3155646476831,20.1493561883817,26.1619953915715,-46.3113515799531
1.63295880149813,3.3759416938193,-44.9168978026069,-48.2928394964262,20.7704780543938,25.8343905951227,-46.6048686495165
1.63509898341359,2.82680255349233,-44.1581884119488,-46.9849909654412,20.6656929292282,24.9058967594667,-45.571589688695
1.63723916532905,2.35002593167241,-45.4316345099036,-47.781660441576,21.5408042891156,25.0658431866242,-46.6066474757398
1.63937934724452,1.29201730869158,-46.5372729247707,-47.8292902334623,22.6226278080396,24.560653771077,-47.1832815791165
1.64151952915998,1.66154518443986,-46.2090984503845,-47.8706436348244,22.2737766329723,24.7660944096321,-47.0398710426044
1.64365971107544,0.694260746196075,-46.5682279802617,-47.2624887264578,22.9369836170328,23.9783747363269,-46.9153583533598
1.6457998929909,1.14255767543149,-46.8800334071134,-48.0225910825449,22.868737865841,24.5825743789882,-47.4513122448292
1.64794007490637,2.17583950218936,-47.1507508394767,-49.3265903416661,22.4874556686437,25.7512149219277,-48.2386705905714
1.65008025682183,3.71702015234993,-44.8095586770725,-48.5265788294224,20.5462692623613,26.1217994908862,-46.6680687532474
1.65222043873729,2.47887659210363,-44.0649938426618,-46.5438704347655,20.7930586252791,24.5113735134346,-45.3044321387137
1.65436062065276,2.04794772902312,-45.3507206054783,-47.3986683345014,21.6513864382276,24.7233080317623,-46.3746944699898
1.65650080256822,3.60598124965496,-45.822962419887,-49.428943669542,21.108490585116,26.5174624595985,-47.6259530447145
1.65864098448368,3.02652876905762,-44.3007978583681,-47.3273266274257,20.6371345446553,25.1769276982417,-45.8140622428969
1.66078116639914,2.52343333127863,-45.5554516722769,-48.0788850035555,21.5160091704991,25.3011591674171,-46.8171683379162
1.66292134831461,2.08663302756242,-45.3566561718824,-47.4432891994448,21.63501157216,24.7649611135036,-46.3999726856636
1.66506153023007,2.35145083906623,-43.8959388684866,-46.2473897075528,20.7722440147102,24.2994202733095,-45.0716642880197
1.66720171214553,1.93731343690208,-42.6277068117946,-44.5650202486967,20.3451966874463,23.2511668427994,-43.5963635302457
1.669341894061,2.8658667453763,-43.4587723223673,-46.3246390677436,20.2964527884955,24.5952529065599,-44.8917056950554
1.67148207597646,3.02800144765382,-41.6040886678303,-44.6320901154841,19.2880436100882,23.830045781569,-43.1180893916572
1.67362225789192,3.16877093566669,-41.2819229411021,-44.4506938767688,19.0565760027177,23.8097324062177,-42.8663084089354
1.67576243980738,2.00287262471203,-41.6462694191066,-43.6491420438186,19.8216983971973,22.8260073342653,-42.6477057314626
1.67790262172285,2.92278690603845,-42.606663320749,-45.5294502267875,19.8419382073553,24.226118566413,-44.0680567737682
1.68004280363831,2.43336199714985,-42.1523838517125,-44.5857458488624,19.8595109272813,23.5095539230061,-43.3690648502875
1.68218298555377,2.65248978287301,-43.6901437800841,-46.3426335629571,20.5188269986056,24.4975616729151,-45.0163886715206
1.68432316746923,4.13086009549904,-44.3812072235402,-48.5120673190392,20.1251735640206,26.3214637072691,-46.4466372712897
1.6864633493847,4.12630097104432,-43.6930881743732,-47.8193891454175,19.7833936016644,25.9728450582309,-45.7562386598953
1.68860353130016,3.47828363556118,-42.4515866601412,-45.9298702957023,19.48665151229,24.7040769656318,-44.1907284779218
1.69074371321562,3.55971742745805,-44.5939782846039,-48.1536957120619,20.5171304285729,25.85670656976,-46.3738369983329
1.69288389513109,2.98636133745478,-43.8778214418918,-46.8641827793466,20.4457300522185,24.9252720584007,-45.3710021106192
1.69502407704655,3.13261792886938,-44.5441537611599,-47.6767716900292,20.7057679161452,25.4046948094493,-46.1104627255946
1.69716425896201,1.32742467394895,-45.7667394802519,-47.0941641542009,22.2196574031515,24.2107944140749,-46.4304518172264
1.69930444087747,1.69228676294927,-46.8282196156634,-48.5205063786126,22.567966426357,25.1063965707809,-47.674362997138
1.70144462279294,1.36501035675928,-43.2414108594814,-44.6064212162407,20.9382002513611,22.9857157865,-43.9239160378611
1.7035848047084,1.08086062514169,-40.7713109090195,-41.8521715341612,19.8452251419389,21.4665160796515,-41.3117412215904
1.70572498662386,0.190095586232569,-41.2029430163083,-41.3930386025408,20.5064237150379,20.7915670943867,-41.2979908094246
1.70786516853933,1.34888759883494,-39.6455200702527,-40.9944076690876,19.1483162357089,21.1716476339613,-40.3199638696702
1.71000535045479,2.99903939677291,-38.2933257055912,-41.2923651023641,17.6471431544091,22.1457022495685,-39.7928454039776
1.71214553237025,3.14362534365561,-40.3396109711883,-43.4832363148439,18.5979928137663,23.3134308292497,-41.9114236430161
1.71428571428571,2.62509956696213,-42.760307070155,-45.3854066371172,20.0676037515965,24.0052531020396,-44.0728568536361
1.71642589620118,3.46302022350822,-41.6417222904265,-45.1047425139347,19.0893510334591,24.2838813687215,-43.3732324021806
1.71856607811664,3.54646534342025,-39.3824204513774,-42.9288857947977,17.9179775539786,23.237675569109,-41.1556531230875
1.7207062600321,3.61891452698296,-40.6411318481576,-44.2600463751406,18.5111086605873,23.9394804510618,-42.4505891116491
1.72284644194757,4.96993473233073,-40.4458592448071,-45.4157939771379,17.7379622562382,25.1928643547343,-42.9308266109725
1.72498662386303,4.21074800610281,-40.2763185850319,-44.4870665911347,18.0327852894646,24.3489072986188,-42.3816925880833
1.72712680577849,3.55160270743416,-40.1291190556365,-43.6807217630707,18.2887581741012,23.6161622352524,-41.9049204093536
1.72926698769395,2.33525694311984,-43.8656705894223,-46.2009275325422,20.7652068231512,24.268092237831,-45.0332990609822
1.73140716960942,2.56731247022318,-43.8895450935883,-46.4568575638115,20.6611163116825,24.5120850170173,-45.1732013286999
1.73354735152488,2.1247300162817,-43.2662145604186,-45.3909445767003,20.5707422720685,23.757837296491,-44.3285795685595
1.73568753344034,1.74046863010306,-44.6572000388312,-46.3976686689343,21.4583657043641,24.0690686495187,-45.5274343538827
1.73782771535581,2.05090207119525,-44.5767711702716,-46.6276732414668,21.2629345495382,24.339287656331,-45.6022222058692
1.73996789727127,1.67636932326206,-43.2188227986785,-44.8951921219405,20.7712267377082,23.2857807226013,-44.0570074603095
1.74210807918673,1.35119042923131,-43.9719943140877,-45.323184743319,21.3104019424282,23.3371875862751,-44.6475895287033
1.74424826110219,2.35697978568552,-45.2699760403795,-47.626955826065,21.456498127347,24.9919678058753,-46.4484659332222
1.74638844301766,3.23023178398079,-45.10879893973,-48.3390307237108,20.9392835778746,25.7846312538458,-46.7239148317204
1.74852862493312,2.70029348961987,-47.5450968148257,-50.2453903044456,22.4224016626029,26.4728418970327,-48.8952435596356
1.75066880684858,0.952069558025427,-49.0162938443907,-49.9683634024162,24.0321121431826,25.4602164802208,-49.4923286234034
1.75280898876405,1.36639386803327,-48.3614477052083,-49.7278415732415,23.4975269185875,25.5471177206374,-49.0446446392249
1.75494917067951,1.72612081218405,-46.5047755936911,-48.2308964058751,22.3893273907535,24.9785086090296,-47.3678359997831
1.75708935259497,2.68250391659234,-46.8249424250764,-49.5074463416688,22.071219254242,26.0949751291306,-48.1661943833726
1.75922953451043,2.22474217099669,-49.6791553912588,-51.9038975622555,23.7272066101311,27.0643198666261,-50.7915264767572
1.7613697164259,1.82730173625818,-49.5810200110897,-51.4083217473479,23.8768591374158,26.617811741803,-50.4946708792188
1.76350989834136,1.48223380368204,-50.7839343429747,-52.2661681466568,24.6508502696463,26.8742009751694,-51.5250512448158
1.76565008025682,-0.105480959846378,-51.1842762905471,-51.0787953307007,25.6448786251967,25.4866571854272,-51.1315358106239
1.76779026217228,0.44820150787005,-50.8878044034132,-51.3360059112832,25.2198014477716,25.8921037095766,-51.1119051573482
1.76993044408775,1.57298174975771,-49.9863409544852,-51.5593227042429,24.2066796023637,26.5661522270003,-50.772831829364
1.77207062600321,2.54954467276787,-48.5596083854395,-51.1091530582074,23.0050318563358,26.8293488654876,-49.8343807218235
1.77421080791867,2.10930356089758,-49.2530597044765,-51.3623632653741,23.5718780717895,26.7358334131358,-50.3077114849253
1.77635098983414,2.37113397491403,-48.5670138698542,-50.9381478447683,23.0979399474701,26.6546409098411,-49.7525808573112
1.7784911717496,2.59846182521102,-49.9035483223479,-52.5020101475589,23.6525432485684,27.550235986385,-51.2027792349534
1.78063135366506,2.15177468156294,-51.063961657348,-53.2157363389109,24.4560934878925,27.6837555102369,-52.1398489981294
1.78277153558052,1.76394949898332,-52.0714621415543,-53.8354116405377,25.1537563212855,27.7996805697605,-52.953436891046
1.78491171749599,0.139111799357454,-51.6580818101881,-51.7971936095455,25.7594850054153,25.9681527044515,-51.7276377098668
1.78705189941145,0.0165041989289433,-52.5872924268579,-52.6037966257869,26.2853941139645,26.3101504123579,-52.5955445263224
1.78919208132691,0.554112137147785,-52.7499978208928,-53.3041099580406,26.0979428418725,26.9291110475942,-53.0270538894667
1.79133226324238,2.30899504935498,-50.9590858363652,-53.2680808857202,24.3250453935051,27.7885379675376,-52.1135833610427
1.79347244515784,1.90045223632698,-51.9804062761702,-53.8808585124972,25.0399770199216,27.8906553744121,-52.9306323943337
1.7956126270733,2.1898039226943,-52.8671427575581,-55.0569466802524,25.3386694174319,28.6233753014733,-53.9620447189052
1.79775280898876,2.44102644429777,-49.7726760867671,-52.2137025310648,23.6658248212347,27.3273644876813,-50.993189308916
1.79989299090423,2.0150852643379,-49.6622170666267,-51.6773023309646,23.8235659011444,26.8461937976512,-50.6697596987956
1.80203317281969,1.00121326987043,-51.4984906868828,-52.4997039567532,25.2486387085062,26.7504586133118,-51.999097321818
1.80417335473515,0.765002706124086,-53.092790326281,-53.8577930324051,26.1638938100785,27.3113978692646,-53.475291679343
1.80631353665062,1.20397765116899,-49.9685890669883,-51.1725667181573,24.3823057079097,26.1882721846632,-50.5705778925728
1.80845371856608,1.58510690601955,-50.4763727051823,-52.0614796112018,24.4456328995814,26.8232932586107,-51.268926158192
1.81059390048154,1.2719540685412,-51.5613024114257,-52.8332564799669,25.1446741714423,27.0526052742541,-52.1972794456963
1.812734082397,1.64412576710245,-50.5710891202624,-52.2152148873649,24.46348167658,26.9296703272337,-51.3931520038136
1.81487426431247,1.32319575055646,-49.067301672297,-50.3904974228534,23.8720529608702,25.8568465867049,-49.7288995475752
1.81701444622793,1.04455611645881,-49.6938519781513,-50.7384080946101,24.3246479308462,25.8914821055345,-50.2161300363807
1.81915462814339,0.158575084895968,-50.237838950283,-50.3964140351789,25.0396319326935,25.2774945600375,-50.3171264927309
1.82129481005886,0.677461707586324,-50.0660833409031,-50.7435450484894,24.6943108166584,25.7105033780379,-50.4048141946962
1.82343499197432,0.483913333979113,-49.9169607357105,-50.4008740696896,24.7165237008657,25.4423937018344,-50.1589174027
1.82557517388978,1.60398766895182,-50.4315476698329,-52.0355353387848,24.4137800004406,26.8197615038683,-51.2335415043088
1.82771535580524,1.93240581619934,-49.5902072096032,-51.5226130258026,23.828900696702,26.727509421001,-50.5564101177029
1.82985553772071,2.21754683655311,-48.2156749543583,-50.4332217909114,22.9990640589026,26.3253843137322,-49.3244483726348
1.83199571963617,2.46511355042022,-49.5985069058058,-52.063620456226,23.5666966776928,27.2643670033231,-50.8310636810159
1.83413590155163,2.680057292078,-49.5109989369658,-52.1910562290438,23.4154708224439,27.4355567605609,-50.8510275830048
1.83627608346709,2.22261794912805,-50.0790812714659,-52.3016992205939,23.9282316611689,27.262158584861,-51.1903902460299
1.83841626538256,0.537339458134734,-51.8604228325727,-52.3977622907075,25.661541687219,26.4675508744211,-52.1290925616401
1.84055644729802,1.00631460674589,-53.4070290557355,-54.4133436624814,26.2003572244948,27.7098291346136,-53.9101863591085
1.84269662921348,1.41349080427424,-50.2414191547965,-51.6549099590707,24.4139641752611,26.5342003816725,-50.9481645569336
1.84483681112895,1.76701157467034,-48.7810737914055,-50.5480853660759,23.5070311083676,26.1575484703731,-49.6645795787407
1.84697699304441,1.42988834611056,-49.4453416242165,-50.8752299703271,24.007726639053,26.1525591582188,-50.1602857972718
1.84911717495987,1.13718935191019,-48.0898989545315,-49.2270883064417,23.4763548013106,25.1821388291759,-48.6584936304866
1.85125735687533,0.883060612185238,-44.3368330736899,-45.2198936858752,21.7268862307523,23.0514771490302,-44.7783633797825
1.8533975387908,0.0183605649096319,-46.2307973534736,-46.2491579183832,23.106218394282,23.1337592416464,-46.2399776359284
1.85553772070626,0.555723881487493,-49.1633034708492,-49.7190273523367,24.3037897946809,25.1373756169121,-49.441165411593
1.85767790262172,1.66633541970894,-47.845026229002,-49.5113616487109,23.0893454046465,25.5888485342099,-48.6781939388565
1.85981808453719,3.27465569968346,-43.4801693342561,-46.7548250339396,20.1027568172863,25.0147403668115,-45.1174971840978
1.86195826645265,2.73886346742936,-44.1989020487701,-46.9377655161994,20.7300192906704,24.8383144918144,-45.5683337824848
1.86409844836811,2.91773395919262,-44.1788651543972,-47.0965991135898,20.6305655976023,25.0071665363912,-45.6377321339935
1.86623863028357,3.073033886922,-42.2292916494417,-45.3023255363637,19.5781288812599,24.1876797116429,-43.7658085929027
1.86837881219904,3.85192823640366,-41.1806811446957,-45.0326093810993,18.664376454146,24.4422688087515,-43.1066452628975
1.8705189941145,3.2400662222776,-42.8464866811039,-46.0865529033815,19.8032102294131,24.6633095628295,-44.4665197922427
1.87265917602996,2.70883200003429,-41.7165456289222,-44.4253776289565,19.503856814444,23.5671048144954,-43.0709616289394
1.87479935794543,4.17977784692358,-39.4473839841899,-43.6271618311135,17.6338030686332,23.9034698390185,-41.5372729076517
1.87693953986089,4.81283159899217,-38.121298897017,-42.9341304960091,16.6542336490124,23.8734810475007,-40.5277146965131
1.87907972177635,5.36246502916794,-36.3258989805418,-41.6883640097097,15.4817169756869,23.5254145194388,-39.0071314951258
1.88121990369181,5.8396708060544,-34.7670869343214,-40.6067577403758,14.4637080641335,23.2232142732151,-37.6869223373486
1.88336008560728,4.96587507072615,-34.7018044918945,-39.6676795626206,14.8679647105842,22.3167773166734,-37.1847420272576
1.88550026752274,5.49534127871277,-35.9332425831027,-41.4285838618154,15.218950652195,23.4619625702641,-38.6809132224591
1.8876404494382,4.66691938393784,-33.7821136378393,-38.4490330217771,14.5575971269507,21.5579762028575,-36.1155733298082
1.88978063135367,5.23578031874202,-33.2025665410947,-38.4383468598367,13.9833931111763,21.8370635892894,-35.8204567004657
1.89192081326913,5.0856209188168,-33.3434479423926,-38.4290688612094,14.1289135117879,21.7573448900131,-35.886258401801
1.89406099518459,5.59930768128175,-30.8895288229461,-36.4888365042279,12.6451105708322,21.0440720927548,-33.689182663587
1.89620117710005,6.68936263073124,-28.1149146046808,-34.8042772354121,10.7127759869748,20.7468199330716,-31.4595959200464
1.89834135901552,6.34765819380462,-27.6381006628126,-33.9857588566172,10.645221234504,20.1667085252109,-30.8119297597149
1.90048154093098,6.69504066476793,-27.2241186248446,-33.9191592896125,10.2645389800383,20.3070999771902,-30.5716389572285
1.90262172284644,8.28476496961706,-24.9325118883227,-33.2172768579398,8.32387345935281,20.7510209137784,-29.0748943731312
1.9047619047619,9.02094521144443,-23.5869393994076,-32.607884610852,7.28299709398157,20.8144149111482,-28.0974120051298
1.90690208667737,7.7279387312784,-24.3508559721291,-32.0787947034075,8.31145862042537,19.903366717343,-28.2148253377683
1.90904226859283,7.2493764804067,-25.0141078442823,-32.263484324689,8.88236568193778,19.7564304025478,-28.6387960844856
1.91118245050829,6.83387651592541,-23.0137241043838,-29.8476006203092,8.0899237942292,18.3407385681173,-26.4306623623465
1.91332263242376,7.11718782577647,-21.9209988564133,-29.0381866821898,7.40190551531843,18.0776872539831,-25.4795927693016
1.91546281433922,6.71910695103882,-21.6163258847565,-28.3354328357953,7.44860946685885,17.5272698934171,-24.9758793602759
1.91760299625468,6.37348297210422,-19.419624070399,-25.7931070425032,6.52307054914739,16.0832950073037,-22.6063655564511
1.91974317817014,7.36152138385711,-19.4445684324079,-26.806089816265,6.04152352427538,17.083805600061,-23.1253291243364
1.92188336008561,7.57530257152797,-21.3984027260585,-28.9737052975864,6.91155007726524,18.2745039345572,-25.1860540118224
1.92402354200107,7.76091285675673,-23.0947715435643,-30.855684400321,7.66692934340378,19.3082986285389,-26.9752279719427
1.92616372391653,5.98988748355326,-23.2794842868123,-29.2693717703656,8.64479840162954,17.6296296269594,-26.274428028589
1.928303905832,5.74035601257614,-27.30421052983,-33.0445665424061,10.7819272586269,19.3924612774911,-30.174388536118
1.93044408774746,4.87964743140124,-27.5782856740007,-32.457933105402,11.3493191212997,18.6687902684016,-30.0181093897013
1.93258426966292,6.06453522798626,-26.5281267371773,-32.5926619651636,10.2317957545955,19.3285985965749,-29.5603943511705
1.93472445157838,6.44922607737185,-27.5485288980911,-33.997754975463,10.5496514103596,20.2234905264174,-30.773141936777
1.93686463349385,6.13916550720065,-29.0785270935323,-35.217692600733,11.4696807931658,20.6784290539668,-32.1481098471326
1.93900481540931,7.15808097841885,-27.830674640597,-34.9887556190159,10.3362968310891,21.0734182987174,-31.4097151298065
1.94114499732477,7.39867041744627,-27.3913162690042,-34.7899866864504,9.99632292577895,21.0943285519484,-31.0906514777273
1.94328517924024,6.31943833648682,-30.2301490495931,-36.54958738608,11.9553553565532,21.4345128612834,-33.3898682178365
1.9454253611557,6.02648047692588,-31.4067781740801,-37.433258651006,12.6901488485771,21.7298695639659,-34.420018412543
1.94756554307116,7.06024495814886,-30.4961806590331,-37.556425617182,11.7179678504421,22.3083352876654,-34.0263031381075
1.94970572498662,6.66966769954408,-30.9936946222738,-37.6633623218179,12.1620134613649,22.166515010681,-34.3285284720459
1.95184590690209,6.33055855171246,-32.0697079345257,-38.4002664862382,12.8695746914066,22.3654125189753,-35.2349872103819
1.95398608881755,6.68019431892892,-30.427694215221,-37.1078885341499,11.873749948146,21.8940414265394,-33.7677913746854
1.95612627073301,6.9837570186513,-28.3579969942879,-35.3417540129392,10.6871199878183,21.1627555157953,-31.8498755036136
1.95826645264848,5.9591999304109,-31.713504923047,-37.6727048534579,12.8771524963181,21.8159523919344,-34.6931048882525
1.96040663456394,5.06965330821594,-33.9827835897498,-39.0524368979657,14.4565651407669,22.0610451030908,-36.5176102438578
1.9625468164794,4.94138520685406,-34.0208523039221,-38.9622375107762,14.539733548534,21.9518113588151,-36.4915449073492
1.96468699839486,4.18596057917997,-35.3420225079701,-39.5279830871501,15.5780309643951,21.856971833165,-37.4350027975601
1.96682718031033,5.46225859222138,-35.2009782357386,-40.6632368279599,14.8693598217586,23.0627477100907,-37.9321075318493
1.96896736222579,6.57037311257962,-32.5022840486296,-39.0726571612092,12.965955468025,22.8215151368944,-35.7874706049194
1.97110754414125,6.24434845619872,-30.159208854447,-36.4035573106458,11.9574301991242,21.3239528834222,-33.2813830825464
1.97324772605671,6.60534451295563,-29.4130091237704,-36.018353636726,11.4038323054074,21.3118490748408,-32.7156813802482
1.97538790797218,7.56282949333056,-27.4770214917499,-35.0398509850805,9.95709599920969,21.3013402392055,-31.2584362384152
1.97752808988764,9.03820138627605,-24.5080296270552,-33.5462310133312,7.73491412038956,21.2922161998036,-29.0271303201932
1.9796682718031,9.67509794453297,-23.2183930626283,-32.8934910071613,6.77164755904769,21.2842944758471,-28.0559420348948
1.98180845371857,10.2280677971529,-22.0986976714079,-32.3267654685608,5.93531493712747,21.2774166328569,-27.2127315699844
1.98394863563403,10.7081703411884,-15.9740776477169,-26.6822479889053,2.63295365326426,18.6952091650468,-21.3281628183111
1.98608881754949,13.0571845892147,-13.2327621230998,-26.2899467123145,0.0877887669425679,19.6735656507646,-19.7613544177071
1.98822899946495,13.1644817708381,-10.2086230082867,-23.3731047791249,-1.47792938127572,18.2687932749815,-16.7908638937058
1.99036918138042,14.5457578978139,-6.93892923163628,-21.4846871294502,-3.80341433308882,18.0152225136321,-14.2118081805432
1.99250936329588,15.7450170969085,-4.74415660273358,-20.4891736996421,-5.50043024708746,18.1170953982753,-12.6166651511878
1.99464954521134,14.8540675904091,-6.05889390727187,-20.9129614976809,-4.3975868415686,17.883514544045,-13.4859277024764
1.99678972712681,14.7245814690767,-7.84444138914098,-22.5690228582177,-3.44007003996788,18.6468021636472,-15.2067321236793
1.99892990904227,14.6121583125983,-7.4625223383971,-22.0746806509954,-3.57481798710061,18.3434194817969,-14.7686014946963
2.00107009095773,13.8704906706127,-6.48687148045328,-20.357362151066,-3.69180959507972,17.1139264108394,-13.4221168157596
2.00321027287319,11.9384379137036,-8.21602244496341,-20.154460358667,-1.86120773437008,16.0464491361853,-14.1852414018152
2.00535045478866,11.5490983569688,-8.42919748520856,-19.9782958421774,-1.55995043588013,15.7636970995731,-14.203746663693
2.00749063670412,12.4991817879639,-7.32616352330351,-19.8253453112674,-2.58650913233021,16.1622635496157,-13.5757544172855
2.00963081861958,13.3240684795358,-7.65659925024628,-20.9806677297821,-2.83373461464474,17.1523681046589,-14.3186334900142
2.01177100053505,12.7521381910527,-10.519727933729,-23.2718661247817,-1.11620512866183,18.0120021579172,-16.8957970292553
2.01391118245051,12.2555737125179,-11.7174513814122,-23.9730250939301,-0.269061165552888,18.114299403224,-17.8452382376711
2.01605136436597,13.112561728824,-13.401404445254,-26.5139661740781,0.14442135821499,19.813263951451,-19.957685309666
2.01819154628143,11.9244436428294,-15.5075144758765,-27.4319581187059,1.79153541652354,19.6782008807676,-21.4697362972912
2.0203317281969,11.5369481737052,-17.3360929760054,-28.8730411497106,2.89957240115014,20.2049946617079,-23.104567062858
2.02247191011236,11.2005147141824,-17.6355935411804,-28.8361082553628,3.21753941349902,20.0183114847726,-23.2358508982716
2.02461209202782,11.5524735823021,-19.8278045401726,-31.3802781224747,4.13766547893522,21.4663758523884,-25.6040413313236
2.02675227394329,11.8580532575403,-21.0870791120707,-32.945132369611,4.61451292726517,22.4015928135757,-27.0161057408409
2.02889245585875,12.1233653334017,-20.2482364845045,-32.3716018179063,4.06243557555139,22.247483575654,-26.3099191512054
2.03103263777421,11.709657064172,-19.5199318985823,-31.2295889627543,3.90513741720512,21.4696230134632,-25.3747604306683
2.03317281968967,10.7064059951215,-19.531658249817,-30.2380642449385,4.41262612734777,20.47223512003,-24.8848612473778
2.03531300160514,11.7675347644504,-16.3215444311892,-28.0890791956396,2.27700483336941,19.928306980045,-22.2053118134144
2.0374531835206,12.0447748666542,-12.8903826685272,-24.9351575351813,0.422803900936493,18.4899662009178,-18.9127701018542
2.03959336543606,12.929540788895,-10.5554194116957,-23.4849602005907,-1.18706068859964,18.2072504947429,-17.0201898061432
2.04173354735152,14.3417761389628,-7.88408571044019,-22.225861849403,-3.22884521426129,18.2838189941829,-15.0549737799216
2.04387372926699,15.5679149259723,-4.9207066013904,-20.4886215273627,-5.32360416229096,18.0282682266675,-12.7046640643766
2.04601391118245,16.6324799256638,-2.34782520025185,-18.9803051259157,-7.14232736270599,17.8063925257898,-10.6640651630838
2.04815409309791,16.9127034507996,-2.69021982792804,-19.6029232787276,-7.11124181143577,18.2578133647636,-11.1465715533278
2.05029427501338,17.1560006697688,-1.05531862373178,-18.2113192935006,-8.0503410230185,17.6836599816347,-9.63331895861617
2.05243445692884,17.3672375269508,0.364144342761351,-17.0030931841895,-8.86569093485609,17.1851653555702,-8.31947442071406
2.0545746388443,16.2625207850262,-0.335618630813489,-16.5981394158397,-7.96345107710636,16.430330100433,-8.4668790233266
2.05671482075976,17.2355544666242,-0.299111723036724,-17.5346661896609,-8.46822137179372,17.3851103281425,-8.91688895634881
2.05885500267523,16.792249177254,1.66476146805538,-15.1274877091986,-9.22850532265468,15.9598684432263,-6.73136312057162
2.06099518459069,16.4073602069013,1.43766935093045,-14.9696908559708,-8.92251477891587,15.6885255314361,-6.76601075252019
2.06313536650615,16.073189776159,1.24050217690551,-14.8326875992535,-8.65684597653227,15.4529386877063,-6.796092711174
2.06527554842162,15.7830544764123,1.06931660250006,-14.7137378739123,-8.42618553945619,15.2483961751623,-6.82221063570611
2.06741573033708,16.1752105888978,-0.36742905823715,-16.542639647135,-7.90389076533035,16.3589251180164,-8.45503435268607
2.06955591225254,14.5835135762841,-4.83514325890568,-19.4186568351898,-4.87418515868921,17.0010852057369,-12.1269000470477
2.071696094168,13.2015615919783,-8.71412679408639,-21.9156883860647,-2.24371739894595,17.5586249890215,-15.3149075900755
2.07383627608347,12.6457745835259,-10.1497823727882,-22.7955569563141,-1.24799610536883,17.72066576992,-16.4726696645512
2.07597645799893,11.5191671256398,-12.0403141874762,-23.559481313116,0.260573530918237,17.5393242193779,-17.7998977502961
2.07811663991439,10.5410177670487,-14.3257811637893,-24.866798930838,1.89238169837029,17.7039083489434,-19.5962900473137
2.08025682182986,10.979881495044,-15.021963968904,-26.0018454639481,2.02104123692999,18.4908634794961,-20.5119047164261
2.08239700374532,9.42873722671796,-15.6264076546957,-25.0551448814137,3.09883521398888,17.2419410540658,-20.3407762680547
2.08453718566078,7.43793518313187,-19.371496031038,-26.8094312141699,5.96678042395307,17.1236831986509,-23.090463622604
2.08667736757624,6.9975879957637,-23.9111953504884,-30.9087833462521,8.45680367736236,18.9531856710079,-27.4099893483703
2.08881754949171,7.9033852995562,-24.6323832675051,-32.5357685670613,8.36449898397444,20.2195769333087,-28.5840759172832
2.09095773140717,7.40170367034909,-27.1907139915555,-34.5924176619046,9.89450516060323,20.9970606661269,-30.8915658267301
2.09309791332263,8.25424884579437,-26.8356860945351,-35.0899349403294,9.29071862437035,21.6720918930619,-30.9628105174322
