t,leadI,leadII,leadIII,aVR,aVL,aVF
0,98,63,-35,-80.5,66.5,14
0.00216286363144804,66,60,-6,-63,36,27
0.00432572726289607,57,54,-3,-55.5,30,25.5
0.00648859089434411,55,55,0,-55,27.5,27.5
0.00865145452579215,55,59,4,-57,25.5,31.5
0.0108143181572402,54,54,0,-54,27,27
0.0129771817886882,52,51,-1,-51.5,26.5,25
0.0151400454201363,52,57,5,-54.5,23.5,31
0.0173029090515843,53,56,3,-54.5,25,29.5
0.0194657726830323,50,50,0,-50,25,25
0.0216286363144804,50,52,2,-51,24,27
0.0237914999459284,50,53,3,-51.5,23.5,28
0.0259543635773764,50,52,2,-51,24,27
0.0281172272088245,50,49,-1,-49.5,25.5,24
0.0302800908402725,48,52,4,-50,22,28
0.0324429544717206,51,50,-1,-50.5,26,24.5
0.0346058181031686,46,50,4,-48,21,27
0.0367686817346166,47,51,4,-49,21.5,27.5
0.0389315453660647,48,48,0,-48,24,24
0.0410944089975127,47,45,-2,-46,24.5,21.5
0.0432572726289607,45,48,3,-46.5,21,25.5
0.0454201362604088,47,51,4,-49,21.5,27.5
0.0475829998918568,48,47,-1,-47.5,24.5,23
0.0497458635233049,47,47,0,-47,23.5,23.5
0.0519087271547529,49,54,5,-51.5,22,29.5
0.0540715907862009,47,51,4,-49,21.5,27.5
0.056234454417649,48,46,-2,-47,25,22
0.058397318049097,46,49,3,-47.5,21.5,26
0.060560181680545,50,56,6,-53,22,31
0.0627230453119931,50,52,2,-51,24,27
0.0648859089434411,52,53,1,-52.5,25.5,27
0.0670487725748892,54,55,1,-54.5,26.5,28
0.0692116362063372,54,54,0,-54,27,27
0.0713744998377852,48,48,0,-48,24,24
0.0735373634692333,47,48,1,-47.5,23,24.5
0.0757002271006813,46,49,3,-47.5,21.5,26
0.0778630907321293,44,44,0,-44,22,22
0.0800259543635774,44,41,-3,-42.5,23.5,19
0.0821888179950254,45,47,2,-46,21.5,24.5
0.0843516816264734,46,45,-1,-45.5,23.5,22
0.0865145452579215,42,44,2,-43,20,23
0.0886774088893695,46,46,0,-46,23,23
0.0908402725208176,44,46,2,-45,21,24
0.0930031361522656,42,41,-1,-41.5,21.5,20
0.0951659997837136,44,46,2,-45,21,24
0.0973288634151617,44,44,0,-44,22,22
0.0994917270466097,41,43,2,-42,19.5,22.5
0.101654590678058,43,44,1,-43.5,21,22.5
0.103817454309506,46,49,3,-47.5,21.5,26
0.105980317940954,44,46,2,-45,21,24
0.108143181572402,43,42,-1,-42.5,22,20.5
0.11030604520385,43,41,-2,-42,22.5,19.5
0.112468908835298,42,43,1,-42.5,20.5,22
0.114631772466746,40,42,2,-41,19,22
0.116794636098194,41,41,0,-41,20.5,20.5
0.118957499729642,41,44,3,-42.5,19,23.5
0.12112036336109,44,42,-2,-43,23,20
0.123283226992538,41,41,0,-41,20.5,20.5
0.125446090623986,42,42,0,-42,21,21
0.127608954255434,43,42,-1,-42.5,22,20.5
0.129771817886882,40,37,-3,-38.5,21.5,17
0.13193468151833,38,40,2,-39,18,21
0.134097545149778,42,42,0,-42,21,21
0.136260408781226,38,39,1,-38.5,18.5,20
0.138423272412674,37,37,0,-37,18.5,18.5
0.140586136044122,41,45,4,-43,18.5,24.5
0.14274899967557,41,41,0,-41,20.5,20.5
0.144911863307018,41,38,-3,-39.5,22,17.5
0.147074726938467,39,40,1,-39.5,19,20.5
0.149237590569915,42,42,0,-42,21,21
0.151400454201363,39,37,-2,-38,20.5,17.5
0.153563317832811,40,40,0,-40,20,20
0.155726181464259,40,43,3,-41.5,18.5,23
0.157889045095707,40,43,3,-41.5,18.5,23
0.160051908727155,39,36,-3,-37.5,21,16.5
0.162214772358603,39,41,2,-40,18.5,21.5
0.164377635990051,40,42,2,-41,19,22
0.166540499621499,40,39,-1,-39.5,20.5,19
0.168703363252947,37,37,0,-37,18.5,18.5
0.170866226884395,39,40,1,-39.5,19,20.5
0.173029090515843,39,38,-1,-38.5,20,18.5
0.175191954147291,38,38,0,-38,19,19
0.177354817778739,37,42,5,-39.5,16,23.5
0.179517681410187,40,40,0,-40,20,20
0.181680545041635,38,36,-2,-37,20,17
0.183843408673083,37,37,0,-37,18.5,18.5
0.186006272304531,38,41,3,-39.5,17.5,22
0.188169135935979,36,37,1,-36.5,17.5,19
0.190331999567427,38,37,-1,-37.5,19.5,18
0.192494863198875,39,41,2,-40,18.5,21.5
0.194657726830323,38,39,1,-38.5,18.5,20
0.196820590461771,37,40,3,-38.5,17,21.5
0.198983454093219,36,39,3,-37.5,16.5,21
0.201146317724667,40,40,0,-40,20,20
0.203309181356115,39,38,-1,-38.5,20,18.5
0.205472044987564,38,37,-1,-37.5,19.5,18
0.207634908619012,39,43,4,-41,17.5,23.5
0.20979777225046,38,39,1,-38.5,18.5,20
0.211960635881908,38,37,-1,-37.5,19.5,18
0.214123499513356,38,40,2,-39,18,21
0.216286363144804,37,42,5,-39.5,16,23.5
0.218449226776252,38,35,-3,-36.5,20.5,16
0.2206120904077,35,32,-3,-33.5,19,14.5
0.222774954039148,37,39,2,-38,17.5,20.5
0.224937817670596,39,37,-2,-38,20.5,17.5
0.227100681302044,37,39,2,-38,17.5,20.5
0.229263544933492,40,42,2,-41,19,22
0.23142640856494,37,39,2,-38,17.5,20.5
0.233589272196388,37,36,-1,-36.5,19,17.5
0.235752135827836,36,36,0,-36,18,18
0.237914999459284,38,40,2,-39,18,21
0.240077863090732,35,34,-1,-34.5,18,16.5
0.24224072672218,36,32,-4,-34,20,14
0.244403590353628,38,37,-1,-37.5,19.5,18
0.246566453985076,38,36,-2,-37,20,17
0.248729317616524,34,34,0,-34,17,17
0.250892181247972,34,38,4,-36,15,21
0.25305504487942,36,37,1,-36.5,17.5,19
0.255217908510868,34,34,0,-34,17,17
0.257380772142316,35,33,-2,-34,18.5,15.5
0.259543635773764,36,35,-1,-35.5,18.5,17
0.261706499405213,36,36,0,-36,18,18
0.263869363036661,34,33,-1,-33.5,17.5,16
0.266032226668109,35,36,1,-35.5,17,18.5
0.268195090299557,36,34,-2,-35,19,16
0.270357953931005,32,33,1,-32.5,15.5,17
0.272520817562453,33,31,-2,-32,17.5,14.5
0.274683681193901,33,34,1,-33.5,16,17.5
0.276846544825349,33,35,2,-34,15.5,18.5
0.279009408456797,36,33,-3,-34.5,19.5,15
0.281172272088245,36,37,1,-36.5,17.5,19
0.283335135719693,36,38,2,-37,17,20
0.285497999351141,33,34,1,-33.5,16,17.5
0.287660862982589,33,36,3,-34.5,15,19.5
0.289823726614037,35,36,1,-35.5,17,18.5
0.291986590245485,32,33,1,-32.5,15.5,17
0.294149453876933,34,29,-5,-31.5,19.5,12
0.296312317508381,34,36,2,-35,16,19
0.298475181139829,34,37,3,-35.5,15.5,20
0.300638044771277,33,31,-2,-32,17.5,14.5
0.302800908402725,36,34,-2,-35,19,16
0.304963772034173,34,37,3,-35.5,15.5,20
0.307126635665621,34,31,-3,-32.5,18.5,14
0.309289499297069,31,30,-1,-30.5,16,14.5
0.311452362928517,33,34,1,-33.5,16,17.5
0.313615226559965,33,32,-1,-32.5,17,15.5
0.315778090191413,32,30,-2,-31,17,14
0.317940953822861,33,38,5,-35.5,14,21.5
0.320103817454309,34,35,1,-34.5,16.5,18
0.322266681085758,32,31,-1,-31.5,16.5,15
0.324429544717206,34,34,0,-34,17,17
0.326592408348654,35,36,1,-35.5,17,18.5
0.328755271980102,32,29,-3,-30.5,17.5,13
0.33091813561155,33,31,-2,-32,17.5,14.5
0.333080999242998,34,38,4,-36,15,21
0.335243862874446,34,36,2,-35,16,19
0.337406726505894,31,31,0,-31,15.5,15.5
0.339569590137342,32,33,1,-32.5,15.5,17
0.34173245376879,33,35,2,-34,15.5,18.5
0.343895317400238,30,32,2,-31,14,17
0.346058181031686,31,29,-2,-30,16.5,13.5
0.348221044663134,30,34,4,-32,13,19
0.350383908294582,30,34,4,-32,13,19
0.35254677192603,30,31,1,-30.5,14.5,16
0.354709635557478,34,34,0,-34,17,17
0.356872499188926,32,36,4,-34,14,20
0.359035362820374,32,29,-3,-30.5,17.5,13
0.361198226451822,31,31,0,-31,15.5,15.5
0.36336109008327,30,33,3,-31.5,13.5,18
0.365523953714718,31,32,1,-31.5,15,16.5
0.367686817346166,31,28,-3,-29.5,17,12.5
0.369849680977614,32,34,2,-33,15,18
0.372012544609062,30,33,3,-31.5,13.5,18
0.37417540824051,30,29,-1,-29.5,15.5,14
0.376338271871958,31,32,1,-31.5,15,16.5
0.378501135503406,36,36,0,-36,18,18
0.380663999134855,32,29,-3,-30.5,17.5,13
0.382826862766303,31,27,-4,-29,17.5,11.5
0.384989726397751,34,34,0,-34,17,17
0.387152590029199,32,35,3,-33.5,14.5,19
0.389315453660647,30,29,-1,-29.5,15.5,14
0.391478317292095,31,34,3,-32.5,14,18.5
0.393641180923543,33,33,0,-33,16.5,16.5
0.395804044554991,31,27,-4,-29,17.5,11.5
0.397966908186439,30,30,0,-30,15,15
0.400129771817887,32,32,0,-32,16,16
0.402292635449335,32,28,-4,-30,18,12
0.404455499080783,31,27,-4,-29,17.5,11.5
0.406618362712231,32,34,2,-33,15,18
0.408781226343679,31,32,1,-31.5,15,16.5
0.410944089975127,30,30,0,-30,15,15
0.413106953606575,31,34,3,-32.5,14,18.5
0.415269817238023,32,31,-1,-31.5,16.5,15
0.417432680869471,29,28,-1,-28.5,15,13.5
0.419595544500919,29,27,-2,-28,15.5,12.5
0.421758408132367,30,32,2,-31,14,17
0.423921271763815,31,35,4,-33,13.5,19.5
0.426084135395263,27,30,3,-28.5,12,16.5
0.428246999026711,29,31,2,-30,13.5,16.5
0.430409862658159,32,34,2,-33,15,18
0.432572726289607,29,30,1,-29.5,14,15.5
0.434735589921055,32,28,-4,-30,18,12
0.436898453552504,29,33,4,-31,12.5,18.5
0.439061317183952,30,34,4,-32,13,19
0.4412241808154,29,28,-1,-28.5,15,13.5
0.443387044446848,31,33,2,-32,14.5,17.5
0.445549908078296,30,35,5,-32.5,12.5,20
0.447712771709744,28,30,2,-29,13,16
0.449875635341192,30,29,-1,-29.5,15.5,14
0.45203849897264,29,30,1,-29.5,14,15.5
0.454201362604088,29,30,1,-29.5,14,15.5
0.456364226235536,27,29,2,-28,12.5,15.5
0.458527089866984,31,35,4,-33,13.5,19.5
0.460689953498432,29,31,2,-30,13.5,16.5
0.46285281712988,29,27,-2,-28,15.5,12.5
0.465015680761328,32,32,0,-32,16,16
0.467178544392776,33,34,1,-33.5,16,17.5
0.469341408024224,31,29,-2,-30,16.5,13.5
0.471504271655672,31,29,-2,-30,16.5,13.5
0.47366713528712,34,31,-3,-32.5,18.5,14
0.475829998918568,32,31,-1,-31.5,16.5,15
0.477992862550016,29,30,1,-29.5,14,15.5
0.480155726181464,29,32,3,-30.5,13,17.5
0.482318589812912,31,34,3,-32.5,14,18.5
0.48448145344436,32,28,-4,-30,18,12
0.486644317075808,30,30,0,-30,15,15
0.488807180707256,32,33,1,-32.5,15.5,17
0.490970044338704,29,26,-3,-27.5,16,11.5
0.493132907970152,28,26,-2,-27,15,12
0.4952957716016,29,33,4,-31,12.5,18.5
0.497458635233049,33,33,0,-33,16.5,16.5
0.499621498864497,29,30,1,-29.5,14,15.5
0.501784362495945,28,29,1,-28.5,13.5,15
0.503947226127393,30,31,1,-30.5,14.5,16
0.506110089758841,29,28,-1,-28.5,15,13.5
0.508272953390289,26,28,2,-27,12,15
0.510435817021737,29,32,3,-30.5,13,17.5
0.512598680653185,30,33,3,-31.5,13.5,18
0.514761544284633,30,29,-1,-29.5,15.5,14
0.516924407916081,31,33,2,-32,14.5,17.5
0.519087271547529,31,35,4,-33,13.5,19.5
0.521250135178977,33,29,-4,-31,18.5,12.5
0.523412998810425,29,27,-2,-28,15.5,12.5
0.525575862441873,30,32,2,-31,14,17
0.527738726073321,30,32,2,-31,14,17
0.529901589704769,29,28,-1,-28.5,15,13.5
0.532064453336217,29,32,3,-30.5,13,17.5
0.534227316967665,32,34,2,-33,15,18
0.536390180599113,28,31,3,-29.5,12.5,17
0.538553044230561,27,29,2,-28,12.5,15.5
0.540715907862009,29,32,3,-30.5,13,17.5
0.542878771493457,29,30,1,-29.5,14,15.5
0.545041635124905,29,26,-3,-27.5,16,11.5
0.547204498756353,29,34,5,-31.5,12,19.5
0.549367362387801,31,33,2,-32,14.5,17.5
0.55153022601925,30,30,0,-30,15,15
0.553693089650698,30,30,0,-30,15,15
0.555855953282146,31,34,3,-32.5,14,18.5
0.558018816913594,29,27,-2,-28,15.5,12.5
0.560181680545042,29,28,-1,-28.5,15,13.5
0.56234454417649,32,34,2,-33,15,18
0.564507407807938,29,33,4,-31,12.5,18.5
0.566670271439386,32,30,-2,-31,17,14
0.568833135070834,29,31,2,-30,13.5,16.5
0.570995998702282,30,34,4,-32,13,19
0.57315886233373,32,29,-3,-30.5,17.5,13
0.575321725965178,30,28,-2,-29,16,13
0.577484589596626,31,33,2,-32,14.5,17.5
0.579647453228074,32,33,1,-32.5,15.5,17
0.581810316859522,29,29,0,-29,14.5,14.5
0.58397318049097,29,34,5,-31.5,12,19.5
0.586136044122418,32,35,3,-33.5,14.5,19
0.588298907753866,32,31,-1,-31.5,16.5,15
0.590461771385314,30,30,0,-30,15,15
0.592624635016762,33,33,0,-33,16.5,16.5
0.59478749864821,30,30,0,-30,15,15
0.596950362279658,31,29,-2,-30,16.5,13.5
0.599113225911106,30,32,2,-31,14,17
0.601276089542554,30,31,1,-30.5,14.5,16
0.603438953174002,29,28,-1,-28.5,15,13.5
0.60560181680545,34,34,0,-34,17,17
0.607764680436898,32,35,3,-33.5,14.5,19
0.609927544068346,31,30,-1,-30.5,16,14.5
0.612090407699795,30,30,0,-30,15,15
0.614253271331243,32,33,1,-32.5,15.5,17
0.616416134962691,32,33,1,-32.5,15.5,17
0.618578998594139,29,30,1,-29.5,14,15.5
0.620741862225587,28,33,5,-30.5,11.5,19
0.622904725857035,31,34,3,-32.5,14,18.5
0.625067589488483,29,32,3,-30.5,13,17.5
0.627230453119931,29,32,3,-30.5,13,17.5
0.629393316751379,30,34,4,-32,13,19
0.631556180382827,30,28,-2,-29,16,13
0.633719044014275,28,28,0,-28,14,14
0.635881907645723,29,32,3,-30.5,13,17.5
0.638044771277171,29,32,3,-30.5,13,17.5
0.640207634908619,30,27,-3,-28.5,16.5,12
0.642370498540067,30,29,-1,-29.5,15.5,14
0.644533362171515,31,36,5,-33.5,13,20.5
0.646696225802963,31,30,-1,-30.5,16,14.5
0.648859089434411,30,28,-2,-29,16,13
0.651021953065859,31,32,1,-31.5,15,16.5
0.653184816697307,30,32,2,-31,14,17
0.655347680328755,27,23,-4,-25,15.5,9.5
0.657510543960203,26,29,3,-27.5,11.5,16
0.659673407591651,26,30,4,-28,11,17
0.661836271223099,27,26,-1,-26.5,14,12.5
0.663999134854547,26,25,-1,-25.5,13.5,12
0.666161998485995,25,28,3,-26.5,11,15.5
0.668324862117443,27,28,1,-27.5,13,14.5
0.670487725748891,25,24,-1,-24.5,13,11.5
0.67265058938034,26,24,-2,-25,14,11
0.674813453011788,26,28,2,-27,12,15
0.676976316643236,26,24,-2,-25,14,11
0.679139180274684,24,25,1,-24.5,11.5,13
0.681302043906132,26,27,1,-26.5,12.5,14
0.68346490753758,25,24,-1,-24.5,13,11.5
0.685627771169028,25,24,-1,-24.5,13,11.5
0.687790634800476,26,27,1,-26.5,12.5,14
0.689953498431924,25,23,-2,-24,13.5,10.5
0.692116362063372,26,24,-2,-25,14,11
0.69427922569482,28,29,1,-28.5,13.5,15
0.696442089326268,27,28,1,-27.5,13,14.5
0.698604952957716,24,25,1,-24.5,11.5,13
0.700767816589164,23,23,0,-23,11.5,11.5
0.702930680220612,27,28,1,-27.5,13,14.5
0.70509354385206,27,29,2,-28,12.5,15.5
0.707256407483508,26,26,0,-26,13,13
0.709419271114956,27,27,0,-27,13.5,13.5
0.711582134746404,30,31,1,-30.5,14.5,16
0.713744998377852,27,32,5,-29.5,11,18.5
0.7159078620093,32,31,-1,-31.5,16.5,15
0.718070725640748,32,37,5,-34.5,13.5,21
0.720233589272196,36,34,-2,-35,19,16
0.722396452903644,35,33,-2,-34,18.5,15.5
0.724559316535092,32,34,2,-33,15,18
0.72672218016654,31,34,3,-32.5,14,18.5
0.728885043797988,29,26,-3,-27.5,16,11.5
0.731047907429436,27,27,0,-27,13.5,13.5
0.733210771060885,27,29,2,-28,12.5,15.5
0.735373634692333,26,25,-1,-25.5,13.5,12
0.737536498323781,25,23,-2,-24,13.5,10.5
0.739699361955229,27,24,-3,-25.5,15,10.5
0.741862225586677,23,26,3,-24.5,10,14.5
0.744025089218125,24,23,-1,-23.5,12.5,11
0.746187952849573,25,26,1,-25.5,12,13.5
0.748350816481021,26,26,0,-26,13,13
0.750513680112469,27,26,-1,-26.5,14,12.5
0.752676543743917,26,24,-2,-25,14,11
0.754839407375365,26,27,1,-26.5,12.5,14
0.757002271006813,29,25,-4,-27,16.5,10.5
0.759165134638261,26,25,-1,-25.5,13.5,12
0.761327998269709,22,29,7,-25.5,7.5,18
0.763490861901157,25,26,1,-25.5,12,13.5
0.765653725532605,23,21,-2,-22,12.5,9.5
0.767816589164053,25,23,-2,-24,13.5,10.5
0.769979452795501,28,27,-1,-27.5,14.5,13
0.772142316426949,25,23,-2,-24,13.5,10.5
0.774305180058397,25,24,-1,-24.5,13,11.5
0.776468043689845,29,28,-1,-28.5,15,13.5
0.778630907321293,28,27,-1,-27.5,14.5,13
0.780793770952741,25,23,-2,-24,13.5,10.5
0.782956634584189,24,26,2,-25,11,14
0.785119498215637,29,32,3,-30.5,13,17.5
0.787282361847086,25,26,1,-25.5,12,13.5
0.789445225478534,28,22,-6,-25,17,8
0.791608089109982,25,26,1,-25.5,12,13.5
0.79377095274143,24,24,0,-24,12,12
0.795933816372878,22,23,1,-22.5,10.5,12
0.798096680004326,23,24,1,-23.5,11,12.5
0.800259543635774,26,28,2,-27,12,15
0.802422407267222,25,24,-1,-24.5,13,11.5
0.80458527089867,25,22,-3,-23.5,14,9.5
0.806748134530118,24,31,7,-27.5,8.5,19
0.808910998161566,25,26,1,-25.5,12,13.5
0.811073861793014,25,24,-1,-24.5,13,11.5
0.813236725424462,26,27,1,-26.5,12.5,14
0.81539958905591,26,27,1,-26.5,12.5,14
0.817562452687358,23,26,3,-24.5,10,14.5
0.819725316318806,25,24,-1,-24.5,13,11.5
0.821888179950254,28,29,1,-28.5,13.5,15
0.824051043581702,25,23,-2,-24,13.5,10.5
0.82621390721315,26,25,-1,-25.5,13.5,12
0.828376770844598,25,28,3,-26.5,11,15.5
0.830539634476046,25,23,-2,-24,13.5,10.5
0.832702498107494,24,24,0,-24,12,12
0.834865361738942,25,27,2,-26,11.5,14.5
0.83702822537039,25,29,4,-27,10.5,16.5
0.839191089001838,23,25,2,-24,10.5,13.5
0.841353952633286,25,24,-1,-24.5,13,11.5
0.843516816264735,24,29,5,-26.5,9.5,17
0.845679679896183,25,26,1,-25.5,12,13.5
0.847842543527631,24,28,4,-26,10,16
0.850005407159079,25,26,1,-25.5,12,13.5
0.852168270790527,26,27,1,-26.5,12.5,14
0.854331134421975,24,24,0,-24,12,12
0.856493998053423,24,25,1,-24.5,11.5,13
0.858656861684871,25,29,4,-27,10.5,16.5
0.860819725316319,28,27,-1,-27.5,14.5,13
0.862982588947767,24,25,1,-24.5,11.5,13
0.865145452579215,27,31,4,-29,11.5,17.5
0.867308316210663,26,29,3,-27.5,11.5,16
0.869471179842111,25,23,-2,-24,13.5,10.5
0.871634043473559,25,27,2,-26,11.5,14.5
0.873796907105007,28,31,3,-29.5,12.5,17
0.875959770736455,26,25,-1,-25.5,13.5,12
0.878122634367903,28,24,-4,-26,16,10
0.880285497999351,27,30,3,-28.5,12,16.5
0.882448361630799,23,25,2,-24,10.5,13.5
0.884611225262247,26,23,-3,-24.5,14.5,10
0.886774088893695,29,28,-1,-28.5,15,13.5
0.888936952525143,27,29,2,-28,12.5,15.5
0.891099816156591,25,27,2,-26,11.5,14.5
0.893262679788039,26,26,0,-26,13,13
0.895425543419487,29,29,0,-29,14.5,14.5
0.897588407050935,26,27,1,-26.5,12.5,14
0.899751270682383,28,26,-2,-27,15,12
0.901914134313831,25,28,3,-26.5,11,15.5
0.90407699794528,28,28,0,-28,14,14
0.906239861576728,25,24,-1,-24.5,13,11.5
0.908402725208176,25,25,0,-25,12.5,12.5
0.910565588839624,26,29,3,-27.5,11.5,16
0.912728452471072,26,24,-2,-25,14,11
0.91489131610252,25,24,-1,-24.5,13,11.5
0.917054179733968,26,28,2,-27,12,15
0.919217043365416,26,30,4,-28,11,17
0.921379906996864,24,24,0,-24,12,12
0.923542770628312,25,27,2,-26,11.5,14.5
0.92570563425976,24,29,5,-26.5,9.5,17
0.927868497891208,25,25,0,-25,12.5,12.5
0.930031361522656,25,25,0,-25,12.5,12.5
0.932194225154104,27,29,2,-28,12.5,15.5
0.934357088785552,27,28,1,-27.5,13,14.5
0.936519952417,25,26,1,-25.5,12,13.5
0.938682816048448,26,28,2,-27,12,15
0.940845679679896,24,29,5,-26.5,9.5,17
0.943008543311344,26,25,-1,-25.5,13.5,12
0.945171406942792,25,25,0,-25,12.5,12.5
0.94733427057424,27,29,2,-28,12.5,15.5
0.949497134205688,26,28,2,-27,12,15
0.951659997837136,28,25,-3,-26.5,15.5,11
0.953822861468584,26,28,2,-27,12,15
0.955985725100032,26,26,0,-26,13,13
0.95814858873148,23,24,1,-23.5,11,12.5
0.960311452362928,24,26,2,-25,11,14
0.962474315994376,27,29,2,-28,12.5,15.5
0.964637179625825,24,23,-1,-23.5,12.5,11
0.966800043257273,23,26,3,-24.5,10,14.5
0.968962906888721,26,28,2,-27,12,15
0.971125770520169,25,25,0,-25,12.5,12.5
0.973288634151617,22,22,0,-22,11,11
0.975451497783065,26,28,2,-27,12,15
0.977614361414513,26,28,2,-27,12,15
0.979777225045961,23,23,0,-23,11.5,11.5
0.981940088677409,24,24,0,-24,12,12
0.984102952308857,25,27,2,-26,11.5,14.5
0.986265815940305,26,25,-1,-25.5,13.5,12
0.988428679571753,26,25,-1,-25.5,13.5,12
0.990591543203201,23,27,4,-25,9.5,15.5
0.992754406834649,25,26,1,-25.5,12,13.5
0.994917270466097,23,22,-1,-22.5,12,10.5
0.997080134097545,24,21,-3,-22.5,13.5,9
0.999242997728993,25,28,3,-26.5,11,15.5
1.00140586136044,25,23,-2,-24,13.5,10.5
1.00356872499189,25,22,-3,-23.5,14,9.5
1.00573158862334,25,26,1,-25.5,12,13.5
1.00789445225479,25,26,1,-25.5,12,13.5
1.01005731588623,24,22,-2,-23,13,10
1.01222017951768,23,24,1,-23.5,11,12.5
1.01438304314913,25,26,1,-25.5,12,13.5
1.01654590678058,26,23,-3,-24.5,14.5,10
1.01870877041203,24,24,0,-24,12,12
1.02087163404347,27,28,1,-27.5,13,14.5
1.02303449767492,24,26,2,-25,11,14
1.02519736130637,23,22,-1,-22.5,12,10.5
1.02736022493782,25,25,0,-25,12.5,12.5
1.02952308856927,25,25,0,-25,12.5,12.5
1.03168595220071,21,21,0,-21,10.5,10.5
1.03384881583216,23,22,-1,-22.5,12,10.5
1.03601167946361,25,26,1,-25.5,12,13.5
1.03817454309506,26,25,-1,-25.5,13.5,12
1.04033740672651,24,25,1,-24.5,11.5,13
1.04250027035795,23,28,5,-25.5,9,16.5
1.0446631339894,23,27,4,-25,9.5,15.5
1.04682599762085,24,21,-3,-22.5,13.5,9
1.0489888612523,24,22,-2,-23,13,10
1.05115172488375,25,29,4,-27,10.5,16.5
1.05331458851519,25,22,-3,-23.5,14,9.5
1.05547745214664,23,22,-1,-22.5,12,10.5
1.05764031577809,24,27,3,-25.5,10.5,15
1.05980317940954,25,30,5,-27.5,10,17.5
1.06196604304099,22,23,1,-22.5,10.5,12
1.06412890667243,24,25,1,-24.5,11.5,13
1.06629177030388,25,26,1,-25.5,12,13.5
1.06845463393533,24,23,-1,-23.5,12.5,11
1.07061749756678,24,23,-1,-23.5,12.5,11
1.07278036119823,24,26,2,-25,11,14
1.07494322482967,23,24,1,-23.5,11,12.5
1.07710608846112,23,23,0,-23,11.5,11.5
1.07926895209257,25,26,1,-25.5,12,13.5
1.08143181572402,23,27,4,-25,9.5,15.5
1.08359467935547,24,21,-3,-22.5,13.5,9
1.08575754298691,24,21,-3,-22.5,13.5,9
1.08792040661836,26,26,0,-26,13,13
1.09008327024981,23,22,-1,-22.5,12,10.5
1.09224613388126,22,22,0,-22,11,11
1.09440899751271,24,26,2,-25,11,14
1.09657186114415,24,28,4,-26,10,16
1.0987347247756,24,20,-4,-22,14,8
1.10089758840705,25,21,-4,-23,14.5,8.5
1.1030604520385,23,23,0,-23,11.5,11.5
1.10522331566995,21,21,0,-21,10.5,10.5
1.1073861793014,23,20,-3,-21.5,13,8.5
1.10954904293284,22,24,2,-23,10,13
1.11171190656429,24,26,2,-25,11,14
1.11387477019574,23,22,-1,-22.5,12,10.5
1.11603763382719,24,25,1,-24.5,11.5,13
1.11820049745864,23,24,1,-23.5,11,12.5
1.12036336109008,23,19,-4,-21,13.5,7.5
1.12252622472153,22,19,-3,-20.5,12.5,8
1.12468908835298,21,24,3,-22.5,9,13.5
1.12685195198443,23,21,-2,-22,12.5,9.5
1.12901481561588,20,22,2,-21,9,12
1.13117767924732,22,27,5,-24.5,8.5,16
1.13334054287877,21,25,4,-23,8.5,14.5
1.13550340651022,20,18,-2,-19,11,8
1.13766627014167,22,24,2,-23,10,13
1.13982913377312,22,25,3,-23.5,9.5,14
1.14199199740456,20,20,0,-20,10,10
1.14415486103601,21,20,-1,-20.5,11,9.5
1.14631772466746,20,23,3,-21.5,8.5,13
1.14848058829891,23,25,2,-24,10.5,13.5
1.15064345193036,21,18,-3,-19.5,12,7.5
1.1528063155618,23,24,1,-23.5,11,12.5
1.15496917919325,21,23,2,-22,9.5,12.5
1.1571320428247,21,22,1,-21.5,10,11.5
1.15929490645615,20,21,1,-20.5,9.5,11
1.1614577700876,21,22,1,-21.5,10,11.5
1.16362063371904,20,22,2,-21,9,12
1.16578349735049,20,19,-1,-19.5,10.5,9
1.16794636098194,22,23,1,-22.5,10.5,12
1.17010922461339,22,24,2,-23,10,13
1.17227208824484,18,19,1,-18.5,8.5,10
1.17443495187628,19,18,-1,-18.5,10,8.5
1.17659781550773,19,23,4,-21,7.5,13.5
1.17876067913918,21,22,1,-21.5,10,11.5
1.18092354277063,22,21,-1,-21.5,11.5,10
1.18308640640208,22,24,2,-23,10,13
1.18524927003352,22,23,1,-22.5,10.5,12
1.18741213366497,20,18,-2,-19,11,8
1.18957499729642,21,24,3,-22.5,9,13.5
1.19173786092787,21,24,3,-22.5,9,13.5
1.19390072455932,23,18,-5,-20.5,14,6.5
1.19606358819076,22,19,-3,-20.5,12.5,8
1.19822645182221,24,23,-1,-23.5,12.5,11
1.20038931545366,22,20,-2,-21,12,9
1.20255217908511,19,18,-1,-18.5,10,8.5
1.20471504271656,21,22,1,-21.5,10,11.5
1.206877906348,21,24,3,-22.5,9,13.5
1.20904076997945,19,16,-3,-17.5,11,6.5
1.2112036336109,18,19,1,-18.5,8.5,10
1.21336649724235,24,23,-1,-23.5,12.5,11
1.2155293608738,21,18,-3,-19.5,12,7.5
1.21769222450524,21,20,-1,-20.5,11,9.5
1.21985508813669,23,24,1,-23.5,11,12.5
1.22201795176814,21,25,4,-23,8.5,14.5
1.22418081539959,18,18,0,-18,9,9
1.22634367903104,18,18,0,-18,9,9
1.22850654266249,19,24,5,-21.5,7,14.5
1.23066940629393,19,18,-1,-18.5,10,8.5
1.23283226992538,18,19,1,-18.5,8.5,10
1.23499513355683,19,24,5,-21.5,7,14.5
1.23715799718828,22,24,2,-23,10,13
1.23932086081973,20,20,0,-20,10,10
1.24148372445117,22,22,0,-22,11,11
1.24364658808262,21,24,3,-22.5,9,13.5
1.24580945171407,19,19,0,-19,9.5,9.5
1.24797231534552,21,19,-2,-20,11.5,8.5
1.25013517897697,22,21,-1,-21.5,11.5,10
1.25229804260841,18,21,3,-19.5,7.5,12
1.25446090623986,21,18,-3,-19.5,12,7.5
1.25662376987131,21,24,3,-22.5,9,13.5
1.25878663350276,20,22,2,-21,9,12
1.26094949713421,22,18,-4,-20,13,7
1.26311236076565,20,19,-1,-19.5,10.5,9
1.2652752243971,19,21,2,-20,8.5,11.5
1.26743808802855,22,18,-4,-20,13,7
1.26960095166,21,19,-2,-20,11.5,8.5
1.27176381529145,22,23,1,-22.5,10.5,12
1.27392667892289,21,24,3,-22.5,9,13.5
1.27608954255434,19,18,-1,-18.5,10,8.5
1.27825240618579,19,21,2,-20,8.5,11.5
1.28041526981724,19,23,4,-21,7.5,13.5
1.28257813344869,20,22,2,-21,9,12
1.28474099708013,18,17,-1,-17.5,9.5,8
1.28690386071158,20,22,2,-21,9,12
1.28906672434303,19,21,2,-20,8.5,11.5
1.29122958797448,18,16,-2,-17,10,7
1.29339245160593,21,21,0,-21,10.5,10.5
1.29555531523737,19,23,4,-21,7.5,13.5
1.29771817886882,19,17,-2,-18,10.5,7.5
1.29988104250027,20,20,0,-20,10,10
1.30204390613172,18,20,2,-19,8,11
1.30420676976317,18,19,1,-18.5,8.5,10
1.30636963339461,18,17,-1,-17.5,9.5,8
1.30853249702606,18,22,4,-20,7,13
1.31069536065751,22,21,-1,-21.5,11.5,10
1.31285822428896,18,18,0,-18,9,9
1.31502108792041,20,19,-1,-19.5,10.5,9
1.31718395155185,18,21,3,-19.5,7.5,12
1.3193468151833,18,18,0,-18,9,9
1.32150967881475,18,20,2,-19,8,11
1.3236725424462,18,21,3,-19.5,7.5,12
1.32583540607765,19,23,4,-21,7.5,13.5
1.32799826970909,18,20,2,-19,8,11
1.33016113334054,18,21,3,-19.5,7.5,12
1.33232399697199,20,24,4,-22,8,14
1.33448686060344,18,17,-1,-17.5,9.5,8
1.33664972423489,19,15,-4,-17,11.5,5.5
1.33881258786634,19,22,3,-20.5,8,12.5
1.34097545149778,17,18,1,-17.5,8,9.5
1.34313831512923,19,19,0,-19,9.5,9.5
1.34530117876068,20,23,3,-21.5,8.5,13
1.34746404239213,20,24,4,-22,8,14
1.34962690602358,17,17,0,-17,8.5,8.5
1.35178976965502,19,18,-1,-18.5,10,8.5
1.35395263328647,18,20,2,-19,8,11
1.35611549691792,16,18,2,-17,7,10
1.35827836054937,18,16,-2,-17,10,7
1.36044122418082,19,23,4,-21,7.5,13.5
1.36260408781226,21,21,0,-21,10.5,10.5
1.36476695144371,19,16,-3,-17.5,11,6.5
1.36692981507516,18,19,1,-18.5,8.5,10
1.36909267870661,18,21,3,-19.5,7.5,12
1.37125554233806,20,18,-2,-19,11,8
1.3734184059695,18,17,-1,-17.5,9.5,8
1.37558126960095,20,22,2,-21,9,12
1.3777441332324,22,21,-1,-21.5,11.5,10
1.37990699686385,20,21,1,-20.5,9.5,11
1.3820698604953,24,26,2,-25,11,14
1.38423272412674,23,26,3,-24.5,10,14.5
1.38639558775819,24,23,-1,-23.5,12.5,11
1.38855845138964,25,23,-2,-24,13.5,10.5
1.39072131502109,24,25,1,-24.5,11.5,13
1.39288417865254,20,19,-1,-19.5,10.5,9
1.39504704228398,18,18,0,-18,9,9
1.39720990591543,19,21,2,-20,8.5,11.5
1.39937276954688,19,22,3,-20.5,8,12.5
1.40153563317833,18,18,0,-18,9,9
1.40369849680978,16,18,2,-17,7,10
1.40586136044122,17,18,1,-17.5,8,9.5
1.40802422407267,16,10,-6,-13,11,2
1.41018708770412,15,11,-4,-13,9.5,3.5
1.41234995133557,14,18,4,-16,5,11
1.41451281496702,18,18,0,-18,9,9
1.41667567859846,14,14,0,-14,7,7
1.41883854222991,14,16,2,-15,6,9
1.42100140586136,16,16,0,-16,8,8
1.42316426949281,15,15,0,-15,7.5,7.5
1.42532713312426,13,10,-3,-11.5,8,3.5
1.4274899967557,16,16,0,-16,8,8
1.42965286038715,13,11,-2,-12,7.5,4.5
1.4318157240186,14,14,0,-14,7,7
1.43397858765005,14,17,3,-15.5,5.5,10
1.4361414512815,14,17,3,-15.5,5.5,10
1.43830431491294,13,11,-2,-12,7.5,4.5
1.44046717854439,16,18,2,-17,7,10
1.44263004217584,15,16,1,-15.5,7,8.5
1.44479290580729,13,9,-4,-11,8.5,2.5
1.44695576943874,14,10,-4,-12,9,3
1.44911863307018,12,14,2,-13,5,8
1.45128149670163,13,15,2,-14,5.5,8.5
1.45344436033308,14,10,-4,-12,9,3
1.45560722396453,15,14,-1,-14.5,8,6.5
1.45777008759598,12,13,1,-12.5,5.5,7
1.45993295122743,12,7,-5,-9.5,8.5,1
1.46209581485887,11,7,-4,-9,7.5,1.5
1.46425867849032,11,12,1,-11.5,5,6.5
1.46642154212177,12,12,0,-12,6,6
1.46858440575322,11,10,-1,-10.5,6,4.5
1.47074726938467,11,14,3,-12.5,4,8.5
1.47291013301611,9,10,1,-9.5,4,5.5
1.47507299664756,7,6,-1,-6.5,4,2.5
1.47723586027901,8,1,-7,-4.5,7.5,-3
1.47939872391046,7,8,1,-7.5,3,4.5
1.48156158754191,6,7,1,-6.5,2.5,4
1.48372445117335,4,0,-4,-2,4,-2
1.4858873148048,6,8,2,-7,2,5
1.48805017843625,6,6,0,-6,3,3
1.4902130420677,3,4,1,-3.5,1,2.5
1.49237590569915,4,5,1,-4.5,1.5,3
1.49453876933059,6,7,1,-6.5,2.5,4
1.49670163296204,2,1,-1,-1.5,1.5,0
1.49886449659349,4,2,-2,-3,3,0
1.50102736022494,3,5,2,-4,0.5,3.5
1.50319022385639,3,7,4,-5,-0.5,5.5
1.50535308748783,3,2,-1,-2.5,2,0.5
1.50751595111928,5,3,-2,-4,3.5,0.5
1.50967881475073,7,9,2,-8,2.5,5.5
1.51184167838218,2,6,4,-4,-1,5
1.51400454201363,2,4,2,-3,0,3
1.51616740564507,5,6,1,-5.5,2,3.5
1.51833026927652,3,2,-1,-2.5,2,0.5
1.52049313290797,1,2,1,-1.5,0,1.5
1.52265599653942,4,7,3,-5.5,0.5,5
1.52481886017087,5,6,1,-5.5,2,3.5
1.52698172380231,2,1,-1,-1.5,1.5,0
1.52914458743376,5,3,-2,-4,3.5,0.5
1.53130745106521,6,8,2,-7,2,5
1.53347031469666,2,5,3,-3.5,-0.5,4
1.53563317832811,4,3,-1,-3.5,2.5,1
1.53779604195955,8,6,-2,-7,5,2
1.539958905591,5,3,-2,-4,3.5,0.5
1.54212176922245,3,4,1,-3.5,1,2.5
1.5442846328539,5,7,2,-6,1.5,4.5
1.54644749648535,4,8,4,-6,0,6
1.54861036011679,5,5,0,-5,2.5,2.5
1.55077322374824,5,0,-5,-2.5,5,-2.5
1.55293608737969,7,5,-2,-6,4.5,1.5
1.55509895101114,3,1,-2,-2,2.5,-0.5
1.55726181464259,5,2,-3,-3.5,4,-0.5
1.55942467827403,6,9,3,-7.5,1.5,6
1.56158754190548,7,7,0,-7,3.5,3.5
1.56375040553693,3,5,2,-4,0.5,3.5
1.56591326916838,3,7,4,-5,-0.5,5.5
1.56807613279983,4,8,4,-6,0,6
1.57023899643127,2,5,3,-3.5,-0.5,4
1.57240186006272,6,1,-5,-3.5,5.5,-2
1.57456472369417,8,9,1,-8.5,3.5,5
1.57672758732562,8,8,0,-8,4,4
1.57889045095707,6,5,-1,-5.5,3.5,2
1.58105331458852,8,5,-3,-6.5,5.5,1
1.58321617821996,8,7,-1,-7.5,4.5,3
1.58537904185141,4,5,1,-4.5,1.5,3
1.58754190548286,4,2,-2,-3,3,0
1.58970476911431,6,7,1,-6.5,2.5,4
1.59186763274576,5,5,0,-5,2.5,2.5
1.5940304963772,5,3,-2,-4,3.5,0.5
1.59619336000865,7,7,0,-7,3.5,3.5
1.5983562236401,7,10,3,-8.5,2,6.5
1.60051908727155,7,6,-1,-6.5,4,2.5
1.602681950903,6,2,-4,-4,5,-1
1.60484481453444,6,7,1,-6.5,2.5,4
1.60700767816589,6,4,-2,-5,4,1
1.60917054179734,5,3,-2,-4,3.5,0.5
1.61133340542879,6,8,2,-7,2,5
1.61349626906024,8,7,-1,-7.5,4.5,3
1.61565913269168,5,3,-2,-4,3.5,0.5
1.61782199632313,3,4,1,-3.5,1,2.5
1.61998485995458,6,8,2,-7,2,5
1.62214772358603,3,5,2,-4,0.5,3.5
1.62431058721748,6,5,-1,-5.5,3.5,2
1.62647345084892,6,8,2,-7,2,5
1.62863631448037,5,7,2,-6,1.5,4.5
1.63079917811182,4,5,1,-4.5,1.5,3
1.63296204174327,8,7,-1,-7.5,4.5,3
1.63512490537472,8,8,0,-8,4,4
1.63728776900616,5,3,-2,-4,3.5,0.5
1.63945063263761,8,4,-4,-6,6,0
1.64161349626906,10,12,2,-11,4,7
1.64377635990051,7,4,-3,-5.5,5,0.5
1.64593922353196,8,1,-7,-4.5,7.5,-3
1.6481020871634,6,6,0,-6,3,3
1.65026495079485,5,8,3,-6.5,1,5.5
1.6524278144263,3,8,5,-5.5,-1,6.5
1.65459067805775,5,6,1,-5.5,2,3.5
1.6567535416892,6,7,1,-6.5,2.5,4
1.65891640532064,3,3,0,-3,1.5,1.5
1.66107926895209,2,5,3,-3.5,-0.5,4
1.66324213258354,5,5,0,-5,2.5,2.5
1.66540499621499,4,8,4,-6,0,6
1.66756785984644,5,1,-4,-3,4.5,-1.5
1.66973072347788,6,7,1,-6.5,2.5,4
1.67189358710933,5,6,1,-5.5,2,3.5
1.67405645074078,3,6,3,-4.5,0,4.5
1.67621931437223,3,4,1,-3.5,1,2.5
1.67838217800368,6,6,0,-6,3,3
1.68054504163512,6,7,1,-6.5,2.5,4
1.68270790526657,5,2,-3,-3.5,4,-0.5
1.68487076889802,5,6,1,-5.5,2,3.5
1.68703363252947,6,9,3,-7.5,1.5,6
1.68919649616092,3,2,-1,-2.5,2,0.5
1.69135935979237,4,2,-2,-3,3,0
1.69352222342381,4,6,2,-5,1,4
1.69568508705526,5,5,0,-5,2.5,2.5
1.69784795068671,4,4,0,-4,2,2
1.70001081431816,5,3,-2,-4,3.5,0.5
1.70217367794961,6,8,2,-7,2,5
1.70433654158105,5,3,-2,-4,3.5,0.5
1.7064994052125,5,6,1,-5.5,2,3.5
1.70866226884395,5,6,1,-5.5,2,3.5
1.7108251324754,4,2,-2,-3,3,0
1.71298799610685,6,3,-3,-4.5,4.5,0
1.71515085973829,5,7,2,-6,1.5,4.5
1.71731372336974,3,4,1,-3.5,1,2.5
1.71947658700119,3,2,-1,-2.5,2,0.5
1.72163945063264,4,7,3,-5.5,0.5,5
1.72380231426409,4,8,4,-6,0,6
1.72596517789553,3,2,-1,-2.5,2,0.5
1.72812804152698,5,6,1,-5.5,2,3.5
1.73029090515843,5,6,1,-5.5,2,3.5
1.73245376878988,5,2,-3,-3.5,4,-0.5
1.73461663242133,5,2,-3,-3.5,4,-0.5
1.73677949605277,6,7,1,-6.5,2.5,4
1.73894235968422,5,5,0,-5,2.5,2.5
1.74110522331567,5,3,-2,-4,3.5,0.5
1.74326808694712,6,8,2,-7,2,5
1.74543095057857,5,9,4,-7,0.5,6.5
1.74759381421001,4,2,-2,-3,3,0
1.74975667784146,3,2,-1,-2.5,2,0.5
1.75191954147291,4,7,3,-5.5,0.5,5
1.75408240510436,3,8,5,-5.5,-1,6.5
1.75624526873581,5,2,-3,-3.5,4,-0.5
1.75840813236725,5,5,0,-5,2.5,2.5
1.7605709959987,3,6,3,-4.5,0,4.5
1.76273385963015,5,6,1,-5.5,2,3.5
1.7648967232616,5,2,-3,-3.5,4,-0.5
1.76705958689305,7,9,2,-8,2.5,5.5
1.76922245052449,5,6,1,-5.5,2,3.5
1.77138531415594,5,4,-1,-4.5,3,1.5
1.77354817778739,8,5,-3,-6.5,5.5,1
1.77571104141884,7,10,3,-8.5,2,6.5
1.77787390505029,6,2,-4,-4,5,-1
1.78003676868173,6,2,-4,-4,5,-1
1.78219963231318,9,7,-2,-8,5.5,2.5
1.78436249594463,8,3,-5,-5.5,6.5,-1
1.78652535957608,6,3,-3,-4.5,4.5,0
1.78868822320753,8,8,0,-8,4,4
1.79085108683897,6,7,1,-6.5,2.5,4
1.79301395047042,5,4,-1,-4.5,3,1.5
1.79517681410187,7,5,-2,-6,4.5,1.5
1.79733967773332,7,9,2,-8,2.5,5.5
1.79950254136477,7,5,-2,-6,4.5,1.5
1.80166540499621,8,4,-4,-6,6,0
1.80382826862766,8,9,1,-8.5,3.5,5
1.80599113225911,7,7,0,-7,3.5,3.5
1.80815399589056,5,1,-4,-3,4.5,-1.5
1.81031685952201,7,8,1,-7.5,3,4.5
1.81247972315346,6,9,3,-7.5,1.5,6
1.8146425867849,5,1,-4,-3,4.5,-1.5
1.81680545041635,4,3,-1,-3.5,2.5,1
1.8189683140478,7,7,0,-7,3.5,3.5
1.82113117767925,5,3,-2,-4,3.5,0.5
1.8232940413107,6,2,-4,-4,5,-1
1.82545690494214,7,6,-1,-6.5,4,2.5
1.82761976857359,5,9,4,-7,0.5,6.5
1.82978263220504,3,6,3,-4.5,0,4.5
1.83194549583649,7,6,-1,-6.5,4,2.5
1.83410835946794,7,9,2,-8,2.5,5.5
1.83627122309938,5,4,-1,-4.5,3,1.5
1.83843408673083,5,6,1,-5.5,2,3.5
1.84059695036228,6,7,1,-6.5,2.5,4
1.84275981399373,5,7,2,-6,1.5,4.5
1.84492267762518,3,3,0,-3,1.5,1.5
1.84708554125662,7,6,-1,-6.5,4,2.5
1.84924840488807,7,5,-2,-6,4.5,1.5
1.85141126851952,5,2,-3,-3.5,4,-0.5
1.85357413215097,5,2,-3,-3.5,4,-0.5
1.85573699578242,5,7,2,-6,1.5,4.5
1.85789985941386,3,3,0,-3,1.5,1.5
1.86006272304531,3,2,-1,-2.5,2,0.5
1.86222558667676,6,4,-2,-5,4,1
1.86438845030821,8,7,-1,-7.5,4.5,3
1.86655131393966,3,2,-1,-2.5,2,0.5
1.8687141775711,5,3,-2,-4,3.5,0.5
1.87087704120255,5,7,2,-6,1.5,4.5
1.873039904834,4,5,1,-4.5,1.5,3
1.87520276846545,3,2,-1,-2.5,2,0.5
1.8773656320969,5,5,0,-5,2.5,2.5
1.87952849572834,3,5,2,-4,0.5,3.5
1.88169135935979,5,4,-1,-4.5,3,1.5
1.88385422299124,5,6,1,-5.5,2,3.5
1.88601708662269,7,7,0,-7,3.5,3.5
1.88817995025414,4,3,-1,-3.5,2.5,1
1.89034281388558,2,3,1,-2.5,0.5,2
1.89250567751703,6,7,1,-6.5,2.5,4
1.89466854114848,5,8,3,-6.5,1,5.5
1.89683140477993,3,3,0,-3,1.5,1.5
1.89899426841138,5,4,-1,-4.5,3,1.5
1.90115713204282,5,8,3,-6.5,1,5.5
1.90331999567427,5,2,-3,-3.5,4,-0.5
1.90548285930572,7,4,-3,-5.5,5,0.5
1.90764572293717,6,7,1,-6.5,2.5,4
1.90980858656862,5,4,-1,-4.5,3,1.5
1.91197145020006,5,0,-5,-2.5,5,-2.5
1.91413431383151,6,7,1,-6.5,2.5,4
1.91629717746296,4,10,6,-7,-1,8
1.91846004109441,6,4,-2,-5,4,1
1.92062290472586,5,4,-1,-4.5,3,1.5
1.92278576835731,8,10,2,-9,3,6
1.92494863198875,7,5,-2,-6,4.5,1.5
1.9271114956202,5,4,-1,-4.5,3,1.5
1.92927435925165,7,5,-2,-6,4.5,1.5
1.9314372228831,5,5,0,-5,2.5,2.5
1.93360008651455,4,3,-1,-3.5,2.5,1
1.93576295014599,8,10,2,-9,3,6
1.93792581377744,6,8,2,-7,2,5
1.94008867740889,7,2,-5,-4.5,6,-1.5
1.94225154104034,8,3,-5,-5.5,6.5,-1
1.94441440467179,7,8,1,-7.5,3,4.5
1.94657726830323,7,6,-1,-6.5,4,2.5
1.94874013193468,3,3,0,-3,1.5,1.5
1.95090299556613,5,8,3,-6.5,1,5.5
1.95306585919758,5,8,3,-6.5,1,5.5
1.95522872282903,5,5,0,-5,2.5,2.5
1.95739158646047,8,6,-2,-7,5,2
1.95955445009192,9,9,0,-9,4.5,4.5
1.96171731372337,5,5,0,-5,2.5,2.5
1.96388017735482,5,3,-2,-4,3.5,0.5
1.96604304098627,8,8,0,-8,4,4
1.96820590461771,5,6,1,-5.5,2,3.5
1.97036876824916,5,3,-2,-4,3.5,0.5
1.97253163188061,5,5,0,-5,2.5,2.5
1.97469449551206,5,8,3,-6.5,1,5.5
1.97685735914351,3,5,2,-4,0.5,3.5
1.97902022277495,4,3,-1,-3.5,2.5,1
1.9811830864064,6,8,2,-7,2,5
1.98334595003785,2,8,6,-5,-2,7
1.9855088136693,5,2,-3,-3.5,4,-0.5
1.98767167730075,6,6,0,-6,3,3
1.98983454093219,6,7,1,-6.5,2.5,4
1.99199740456364,3,3,0,-3,1.5,1.5
1.99416026819509,5,6,1,-5.5,2,3.5
1.99632313182654,8,9,1,-8.5,3.5,5
1.99848599545799,6,2,-4,-4,5,-1
2.00064885908943,6,2,-4,-4,5,-1
2.00281172272088,8,7,-1,-7.5,4.5,3
2.00497458635233,5,9,4,-7,0.5,6.5
2.00713744998378,6,5,-1,-5.5,3.5,2
2.00930031361523,6,6,0,-6,3,3
2.01146317724667,6,9,3,-7.5,1.5,6
2.01362604087812,5,6,1,-5.5,2,3.5
2.01578890450957,5,4,-1,-4.5,3,1.5
2.01795176814102,8,9,1,-8.5,3.5,5
2.02011463177247,5,4,-1,-4.5,3,1.5
2.02227749540391,4,3,-1,-3.5,2.5,1
2.02444035903536,8,8,0,-8,4,4
2.02660322266681,7,8,1,-7.5,3,4.5
2.02876608629826,6,4,-2,-5,4,1
2.03092894992971,5,4,-1,-4.5,3,1.5
2.03309181356115,7,6,-1,-6.5,4,2.5
2.0352546771926,6,6,0,-6,3,3
2.03741754082405,5,3,-2,-4,3.5,0.5
2.0395804044555,6,5,-1,-5.5,3.5,2
2.04174326808695,6,9,3,-7.5,1.5,6
2.0439061317184,3,4,1,-3.5,1,2.5
2.04606899534984,6,4,-2,-5,4,1
2.04823185898129,5,9,4,-7,0.5,6.5
2.05039472261274,4,4,0,-4,2,2
2.05255758624419,4,4,0,-4,2,2
2.05472044987564,6,7,1,-6.5,2.5,4
2.05688331350708,5,7,2,-6,1.5,4.5
2.05904617713853,6,4,-2,-5,4,1
2.06120904076998,7,4,-3,-5.5,5,0.5
2.06337190440143,8,10,2,-9,3,6
2.06553476803288,7,6,-1,-6.5,4,2.5
2.06769763166432,8,6,-2,-7,5,2
2.06986049529577,8,10,2,-9,3,6
2.07202335892722,7,10,3,-8.5,2,6.5
2.07418622255867,9,8,-1,-8.5,5,3.5
2.07634908619012,12,12,0,-12,6,6
2.07851194982156,12,13,1,-12.5,5.5,7
2.08067481345301,13,13,0,-13,6.5,6.5
2.08283767708446,17,16,-1,-16.5,9,7.5
2.08500054071591,20,19,-1,-19.5,10.5,9
2.08716340434736,17,16,-1,-16.5,9,7.5
2.0893262679788,13,13,0,-13,6.5,6.5
2.09148913161025,12,11,-1,-11.5,6.5,5
2.0936519952417,8,12,4,-10,2,8
2.09581485887315,6,6,0,-6,3,3
2.0979777225046,6,6,0,-6,3,3
2.10014058613604,6,8,2,-7,2,5
2.10230344976749,5,1,-4,-3,4.5,-1.5
2.10446631339894,6,1,-5,-3.5,5.5,-2
2.10662917703039,7,5,-2,-6,4.5,1.5
2.10879204066184,5,5,0,-5,2.5,2.5
2.11095490429328,3,1,-2,-2,2.5,-0.5
2.11311776792473,8,10,2,-9,3,6
2.11528063155618,8,7,-1,-7.5,4.5,3
2.11744349518763,7,3,-4,-5,5.5,-0.5
2.11960635881908,6,6,0,-6,3,3
2.12176922245052,8,10,2,-9,3,6
2.12393208608197,6,7,1,-6.5,2.5,4
2.12609494971342,6,5,-1,-5.5,3.5,2
2.12825781334487,6,7,1,-6.5,2.5,4
2.13042067697632,8,7,-1,-7.5,4.5,3
2.13258354060776,5,4,-1,-4.5,3,1.5
2.13474640423921,5,2,-3,-3.5,4,-0.5
2.13690926787066,7,7,0,-7,3.5,3.5
2.13907213150211,8,6,-2,-7,5,2
2.14123499513356,4,3,-1,-3.5,2.5,1
2.143397858765,8,7,-1,-7.5,4.5,3
2.14556072239645,5,9,4,-7,0.5,6.5
2.1477235860279,4,4,0,-4,2,2
2.14988644965935,5,7,2,-6,1.5,4.5
2.1520493132908,7,9,2,-8,2.5,5.5
2.15421217692225,5,4,-1,-4.5,3,1.5
2.15637504055369,5,4,-1,-4.5,3,1.5
2.15853790418514,7,10,3,-8.5,2,6.5
2.16070076781659,9,9,0,-9,4.5,4.5
2.16286363144804,6,3,-3,-4.5,4.5,0
2.16502649507949,7,7,0,-7,3.5,3.5
2.16718935871093,8,9,1,-8.5,3.5,5
2.16935222234238,6,4,-2,-5,4,1
2.17151508597383,6,3,-3,-4.5,4.5,0
2.17367794960528,6,10,4,-8,1,7
2.17584081323673,5,8,3,-6.5,1,5.5
2.17800367686817,5,6,1,-5.5,2,3.5
2.18016654049962,4,6,2,-5,1,4
2.18232940413107,6,7,1,-6.5,2.5,4
2.18449226776252,6,4,-2,-5,4,1
2.18665513139397,4,6,2,-5,1,4
2.18881799502541,5,8,3,-6.5,1,5.5
2.19098085865686,5,3,-2,-4,3.5,0.5
2.19314372228831,8,5,-3,-6.5,5.5,1
2.19530658591976,7,9,2,-8,2.5,5.5
2.19746944955121,7,8,1,-7.5,3,4.5
2.19963231318265,6,6,0,-6,3,3
2.2017951768141,8,10,2,-9,3,6
2.20395804044555,7,7,0,-7,3.5,3.5
2.206120904077,5,6,1,-5.5,2,3.5
2.20828376770845,5,5,0,-5,2.5,2.5
2.21044663133989,8,12,4,-10,2,8
2.21260949497134,5,8,3,-6.5,1,5.5
2.21477235860279,8,5,-3,-6.5,5.5,1
2.21693522223424,7,7,0,-7,3.5,3.5
2.21909808586569,7,7,0,-7,3.5,3.5
2.22126094949713,5,3,-2,-4,3.5,0.5
2.22342381312858,7,6,-1,-6.5,4,2.5
2.22558667676003,8,10,2,-9,3,6
2.22774954039148,10,7,-3,-8.5,6.5,2
2.22991240402293,7,4,-3,-5.5,5,0.5
2.23207526765437,8,10,2,-9,3,6
2.23423813128582,8,10,2,-9,3,6
2.23640099491727,8,7,-1,-7.5,4.5,3
2.23856385854872,7,10,3,-8.5,2,6.5
2.24072672218017,6,10,4,-8,1,7
2.24288958581161,7,5,-2,-6,4.5,1.5
2.24505244944306,8,8,0,-8,4,4
2.24721531307451,7,10,3,-8.5,2,6.5
2.24937817670596,8,8,0,-8,4,4
2.25154104033741,6,5,-1,-5.5,3.5,2
2.25370390396885,8,14,6,-11,1,10
2.2558667676003,10,17,7,-13.5,1.5,12
2.25802963123175,9,12,3,-10.5,3,7.5
2.2601924948632,12,10,-2,-11,7,4
2.26235535849465,13,14,1,-13.5,6,7.5
2.26451822212609,13,15,2,-14,5.5,8.5
2.26668108575754,13,12,-1,-12.5,7,5.5
2.26884394938899,15,17,2,-16,6.5,9.5
2.27100681302044,13,15,2,-14,5.5,8.5
2.27316967665189,14,14,0,-14,7,7
2.27533254028334,16,14,-2,-15,9,6
2.27749540391478,16,17,1,-16.5,7.5,9
2.27965826754623,15,14,-1,-14.5,8,6.5
2.28182113117768,13,14,1,-13.5,6,7.5
2.28398399480913,15,20,5,-17.5,5,12.5
2.28614685844058,16,17,1,-16.5,7.5,9
2.28830972207202,14,14,0,-14,7,7
2.29047258570347,16,17,1,-16.5,7.5,9
2.29263544933492,16,18,2,-17,7,10
2.29479831296637,15,13,-2,-14,8.5,5.5
2.29696117659782,14,14,0,-14,7,7
2.29912404022926,16,22,6,-19,5,14
2.30128690386071,15,16,1,-15.5,7,8.5
2.30344976749216,15,13,-2,-14,8.5,5.5
2.30561263112361,18,19,1,-18.5,8.5,10
2.30777549475506,17,18,1,-17.5,8,9.5
2.3099383583865,13,14,1,-13.5,6,7.5
2.31210122201795,18,20,2,-19,8,11
2.3142640856494,16,19,3,-17.5,6.5,11
2.31642694928085,15,15,0,-15,7.5,7.5
2.3185898129123,17,16,-1,-16.5,9,7.5
2.32075267654374,16,16,0,-16,8,8
2.32291554017519,19,20,1,-19.5,9,10.5
2.32507840380664,17,14,-3,-15.5,10,5.5
2.32724126743809,17,17,0,-17,8.5,8.5
2.32940413106954,17,18,1,-17.5,8,9.5
2.33156699470098,18,13,-5,-15.5,11.5,4
2.33372985833243,14,14,0,-14,7,7
2.33589272196388,18,23,5,-20.5,6.5,14
2.33805558559533,16,18,2,-17,7,10
2.34021844922678,15,13,-2,-14,8.5,5.5
2.34238131285822,17,17,0,-17,8.5,8.5
2.34454417648967,17,17,0,-17,8.5,8.5
2.34670704012112,15,13,-2,-14,8.5,5.5
2.34886990375257,15,15,0,-15,7.5,7.5
2.35103276738402,15,18,3,-16.5,6,10.5
2.35319563101546,15,15,0,-15,7.5,7.5
2.35535849464691,15,16,1,-15.5,7,8.5
2.35752135827836,20,18,-2,-19,11,8
2.35968422190981,16,18,2,-17,7,10
2.36184708554126,17,13,-4,-15,10.5,4.5
2.3640099491727,14,14,0,-14,7,7
2.36617281280415,17,18,1,-17.5,8,9.5
2.3683356764356,15,15,0,-15,7.5,7.5
2.37049854006705,14,16,2,-15,6,9
2.3726614036985,15,20,5,-17.5,5,12.5
2.37482426732994,18,18,0,-18,9,9
2.37698713096139,17,18,1,-17.5,8,9.5
2.37914999459284,18,21,3,-19.5,7.5,12
2.38131285822429,19,18,-1,-18.5,10,8.5
2.38347572185574,16,13,-3,-14.5,9.5,5
2.38563858548719,18,18,0,-18,9,9
2.38780144911863,21,32,11,-26.5,5,21.5
2.38996431275008,23,28,5,-25.5,9,16.5
2.39212717638153,24,24,0,-24,12,12
2.39429004001298,25,29,4,-27,10.5,16.5
2.39645290364443,26,29,3,-27.5,11.5,16
2.39861576727587,26,23,-3,-24.5,14.5,10
2.40077863090732,25,27,2,-26,11.5,14.5
2.40294149453877,25,27,2,-26,11.5,14.5
2.40510435817022,25,27,2,-26,11.5,14.5
2.40726722180167,26,25,-1,-25.5,13.5,12
2.40943008543311,26,27,1,-26.5,12.5,14
2.41159294906456,26,30,4,-28,11,17
2.41375581269601,26,25,-1,-25.5,13.5,12
2.41591867632746,25,26,1,-25.5,12,13.5
2.41808153995891,26,27,1,-26.5,12.5,14
2.42024440359035,26,26,0,-26,13,13
2.4224072672218,26,23,-3,-24.5,14.5,10
2.42457013085325,26,30,4,-28,11,17
2.4267329944847,26,28,2,-27,12,15
2.42889585811615,28,24,-4,-26,16,10
2.43105872174759,27,27,0,-27,13.5,13.5
2.43322158537904,25,30,5,-27.5,10,17.5
2.43538444901049,24,24,0,-24,12,12
2.43754731264194,25,24,-1,-24.5,13,11.5
2.43971017627339,26,30,4,-28,11,17
2.44187303990483,27,25,-2,-26,14.5,11.5
2.44403590353628,27,25,-2,-26,14.5,11.5
2.44619876716773,28,29,1,-28.5,13.5,15
2.44836163079918,26,27,1,-26.5,12.5,14
2.45052449443063,25,26,1,-25.5,12,13.5
2.45268735806207,27,27,0,-27,13.5,13.5
2.45485022169352,30,29,-1,-29.5,15.5,14
2.45701308532497,25,25,0,-25,12.5,12.5
2.45917594895642,25,26,1,-25.5,12,13.5
2.46133881258787,27,29,2,-28,12.5,15.5
2.46350167621931,27,27,0,-27,13.5,13.5
2.46566453985076,25,23,-2,-24,13.5,10.5
2.46782740348221,27,32,5,-29.5,11,18.5
2.46999026711366,27,27,0,-27,13.5,13.5
2.47215313074511,25,26,1,-25.5,12,13.5
2.47431599437655,25,23,-2,-24,13.5,10.5
2.476478858008,27,29,2,-28,12.5,15.5
2.47864172163945,25,25,0,-25,12.5,12.5
2.4808045852709,23,26,3,-24.5,10,14.5
2.48296744890235,28,29,1,-28.5,13.5,15
2.48513031253379,28,28,0,-28,14,14
2.48729317616524,27,23,-4,-25,15.5,9.5
2.48945603979669,28,27,-1,-27.5,14.5,13
2.49161890342814,25,29,4,-27,10.5,16.5
2.49378176705959,26,23,-3,-24.5,14.5,10
2.49594463069103,28,28,0,-28,14,14
2.49810749432248,27,30,3,-28.5,12,16.5
2.50027035795393,24,26,2,-25,11,14
2.50243322158538,24,22,-2,-23,13,10
2.50459608521683,24,28,4,-26,10,16
2.50675894884828,25,23,-2,-24,13.5,10.5
2.50892181247972,23,22,-1,-22.5,12,10.5
2.51108467611117,16,11,-5,-13.5,10.5,3
2.51324753974262,17,17,0,-17,8.5,8.5
2.51541040337407,16,10,-6,-13,11,2
2.51757326700552,15,13,-2,-14,8.5,5.5
2.51973613063696,16,17,1,-16.5,7.5,9
2.52189899426841,14,14,0,-14,7,7
2.52406185789986,15,9,-6,-12,10.5,1.5
2.52622472153131,11,12,1,-11.5,5,6.5
2.52838758516276,16,18,2,-17,7,10
2.5305504487942,16,14,-2,-15,9,6
2.53271331242565,13,14,1,-13.5,6,7.5
2.5348761760571,16,15,-1,-15.5,8.5,7
2.53703903968855,14,13,-1,-13.5,7.5,6
2.53920190332,14,14,0,-14,7,7
2.54136476695144,15,14,-1,-14.5,8,6.5
2.54352763058289,14,15,1,-14.5,6.5,8
2.54569049421434,13,11,-2,-12,7.5,4.5
2.54785335784579,13,13,0,-13,6.5,6.5
2.55001622147724,14,18,4,-16,5,11
2.55217908510868,16,16,0,-16,8,8
2.55434194874013,14,13,-1,-13.5,7.5,6
2.55650481237158,14,14,0,-14,7,7
2.55866767600303,16,18,2,-17,7,10
2.56083053963448,13,10,-3,-11.5,8,3.5
2.56299340326592,13,9,-4,-11,8.5,2.5
2.56515626689737,16,18,2,-17,7,10
2.56731913052882,14,13,-1,-13.5,7.5,6
2.56948199416027,14,14,0,-14,7,7
2.57164485779172,14,17,3,-15.5,5.5,10
2.57380772142316,16,17,1,-16.5,7.5,9
2.57597058505461,14,12,-2,-13,8,5
2.57813344868606,14,14,0,-14,7,7
2.58029631231751,14,16,2,-15,6,9
2.58245917594896,10,12,2,-11,4,7
2.5846220395804,12,11,-1,-11.5,6.5,5
2.58678490321185,13,17,4,-15,4.5,10.5
2.5889477668433,12,15,3,-13.5,4.5,9
2.59111063047475,13,14,1,-13.5,6,7.5
2.5932734941062,15,15,0,-15,7.5,7.5
2.59543635773764,15,15,0,-15,7.5,7.5
2.59759922136909,14,13,-1,-13.5,7.5,6
2.59976208500054,11,11,0,-11,5.5,5.5
2.60192494863199,16,17,1,-16.5,7.5,9
2.60408781226344,16,14,-2,-15,9,6
2.60625067589488,13,12,-1,-12.5,7,5.5
2.60841353952633,16,20,4,-18,6,12
2.61057640315778,18,19,1,-18.5,8.5,10
2.61273926678923,15,13,-2,-14,8.5,5.5
2.61490213042068,14,14,0,-14,7,7
2.61706499405212,15,18,3,-16.5,6,10.5
2.61922785768357,15,14,-1,-14.5,8,6.5
2.62139072131502,16,13,-3,-14.5,9.5,5
2.62355358494647,15,16,1,-15.5,7,8.5
2.62571644857792,16,17,1,-16.5,7.5,9
2.62787931220937,14,12,-2,-13,8,5
2.63004217584081,16,17,1,-16.5,7.5,9
2.63220503947226,13,18,5,-15.5,4,11.5
2.63436790310371,15,14,-1,-14.5,8,6.5
2.63653076673516,14,15,1,-14.5,6.5,8
2.63869363036661,15,18,3,-16.5,6,10.5
2.64085649399805,16,14,-2,-15,9,6
2.6430193576295,15,14,-1,-14.5,8,6.5
2.64518222126095,17,16,-1,-16.5,9,7.5
2.6473450848924,16,17,1,-16.5,7.5,9
2.64950794852385,17,12,-5,-14.5,11,3.5
2.65167081215529,16,14,-2,-15,9,6
2.65383367578674,18,18,0,-18,9,9
2.65599653941819,15,13,-2,-14,8.5,5.5
2.65815940304964,13,13,0,-13,6.5,6.5
2.66032226668109,14,19,5,-16.5,4.5,12
2.66248513031253,15,22,7,-18.5,4,14.5
2.66464799394398,14,14,0,-14,7,7
2.66681085757543,15,17,2,-16,6.5,9.5
2.66897372120688,15,17,2,-16,6.5,9.5
2.67113658483833,16,14,-2,-15,9,6
2.67329944846977,14,14,0,-14,7,7
2.67546231210122,15,17,2,-16,6.5,9.5
2.67762517573267,16,18,2,-17,7,10
2.67978803936412,16,14,-2,-15,9,6
2.68195090299557,17,17,0,-17,8.5,8.5
2.68411376662701,14,18,4,-16,5,11
2.68627663025846,13,12,-1,-12.5,7,5.5
2.68843949388991,12,16,4,-14,4,10
2.69060235752136,14,18,4,-16,5,11
2.69276522115281,16,15,-1,-15.5,8.5,7
2.69492808478425,14,12,-2,-13,8,5
2.6970909484157,18,20,2,-19,8,11
2.69925381204715,20,21,1,-20.5,9.5,11
2.7014166756786,15,18,3,-16.5,6,10.5
2.70357953931005,15,17,2,-16,6.5,9.5
2.70574240294149,17,21,4,-19,6.5,12.5
2.70790526657294,17,15,-2,-16,9.5,6.5
2.71006813020439,18,15,-3,-16.5,10.5,6
2.71223099383584,20,19,-1,-19.5,10.5,9
2.71439385746729,18,19,1,-18.5,8.5,10
2.71655672109873,16,16,0,-16,8,8
2.71871958473018,21,20,-1,-20.5,11,9.5
2.72088244836163,20,21,1,-20.5,9.5,11
2.72304531199308,18,19,1,-18.5,8.5,10
2.72520817562453,18,16,-2,-17,10,7
2.72737103925597,20,20,0,-20,10,10
2.72953390288742,18,20,2,-19,8,11
2.73169676651887,19,19,0,-19,9.5,9.5
2.73385963015032,18,21,3,-19.5,7.5,12
2.73602249378177,21,23,2,-22,9.5,12.5
2.73818535741322,21,19,-2,-20,11.5,8.5
2.74034822104466,20,19,-1,-19.5,10.5,9
2.74251108467611,21,19,-2,-20,11.5,8.5
2.74467394830756,20,16,-4,-18,12,6
2.74683681193901,16,19,3,-17.5,6.5,11
2.74899967557046,20,23,3,-21.5,8.5,13
2.7511625392019,21,23,2,-22,9.5,12.5
2.75332540283335,21,24,3,-22.5,9,13.5
2.7554882664648,24,27,3,-25.5,10.5,15
2.75765113009625,25,28,3,-26.5,11,15.5
2.7598139937277,25,24,-1,-24.5,13,11.5
2.76197685735914,23,24,1,-23.5,11,12.5
2.76413972099059,28,27,-1,-27.5,14.5,13
2.76630258462204,27,27,0,-27,13.5,13.5
2.76846544825349,28,27,-1,-27.5,14.5,13
2.77062831188494,30,31,1,-30.5,14.5,16
2.77279117551638,32,33,1,-32.5,15.5,17
2.77495403914783,32,33,1,-32.5,15.5,17
2.77711690277928,40,34,-6,-37,23,14
2.77927976641073,43,42,-1,-42.5,22,20.5
2.78144263004218,45,43,-2,-44,23.5,20.5
2.78360549367362,48,44,-4,-46,26,20
2.78576835730507,48,49,1,-48.5,23.5,25
2.78793122093652,45,48,3,-46.5,21,25.5
2.79009408456797,46,41,-5,-43.5,25.5,18
2.79225694819942,41,43,2,-42,19.5,22.5
2.79441981183086,37,41,4,-39,16.5,22.5
2.79658267546231,31,32,1,-31.5,15,16.5
2.79874553909376,29,29,0,-29,14.5,14.5
2.80090840272521,29,30,1,-29.5,14,15.5
2.80307126635666,27,30,3,-28.5,12,16.5
2.8052341299881,25,23,-2,-24,13.5,10.5
2.80739699361955,24,29,5,-26.5,9.5,17
2.809559857251,25,29,4,-27,10.5,16.5
2.81172272088245,24,25,1,-24.5,11.5,13
2.8138855845139,26,23,-3,-24.5,14.5,10
2.81604844814534,26,30,4,-28,11,17
2.81821131177679,26,26,0,-26,13,13
2.82037417540824,28,26,-2,-27,15,12
2.82253703903969,29,31,2,-30,13.5,16.5
2.82469990267114,26,30,4,-28,11,17
2.82686276630258,25,25,0,-25,12.5,12.5
2.82902562993403,26,26,0,-26,13,13
2.83118849356548,27,30,3,-28.5,12,16.5
2.83335135719693,25,23,-2,-24,13.5,10.5
2.83551422082838,25,23,-2,-24,13.5,10.5
2.83767708445982,28,32,4,-30,12,18
2.83983994809127,30,30,0,-30,15,15
2.84200281172272,27,26,-1,-26.5,14,12.5
2.84416567535417,25,30,5,-27.5,10,17.5
2.84632853898562,27,30,3,-28.5,12,16.5
2.84849140261706,28,24,-4,-26,16,10
2.85065426624851,27,25,-2,-26,14.5,11.5
2.85281712987996,27,28,1,-27.5,13,14.5
2.85497999351141,28,30,2,-29,13,16
2.85714285714286,27,24,-3,-25.5,15,10.5
2.85930572077431,29,29,0,-29,14.5,14.5
2.86146858440575,27,29,2,-28,12.5,15.5
2.8636314480372,26,28,2,-27,12,15
2.86579431166865,28,31,3,-29.5,12.5,17
2.8679571753001,30,28,-2,-29,16,13
2.87012003893155,25,26,1,-25.5,12,13.5
2.87228290256299,26,27,1,-26.5,12.5,14
2.87444576619444,26,30,4,-28,11,17
2.87660862982589,28,29,1,-28.5,13.5,15
2.87877149345734,28,28,0,-28,14,14
2.88093435708879,28,30,2,-29,13,16
2.88309722072023,29,30,1,-29.5,14,15.5
2.88526008435168,29,23,-6,-26,17.5,8.5
2.88742294798313,30,26,-4,-28,17,11
2.88958581161458,29,31,2,-30,13.5,16.5
2.89174867524603,30,31,1,-30.5,14.5,16
2.89391153887747,29,28,-1,-28.5,15,13.5
2.89607440250892,28,32,4,-30,12,18
2.89823726614037,30,32,2,-31,14,17
2.90040012977182,26,29,3,-27.5,11.5,16
2.90256299340327,29,26,-3,-27.5,16,11.5
2.90472585703471,30,32,2,-31,14,17
2.90688872066616,27,27,0,-27,13.5,13.5
2.90905158429761,30,30,0,-30,15,15
2.91121444792906,30,32,2,-31,14,17
2.91337731156051,29,30,1,-29.5,14,15.5
2.91554017519195,30,30,0,-30,15,15
2.9177030388234,30,29,-1,-29.5,15.5,14
2.91986590245485,32,33,1,-32.5,15.5,17
2.9220287660863,30,27,-3,-28.5,16.5,12
2.92419162971775,28,26,-2,-27,15,12
2.92635449334919,29,34,5,-31.5,12,19.5
2.92851735698064,32,31,-1,-31.5,16.5,15
2.93068022061209,31,30,-1,-30.5,16,14.5
2.93284308424354,31,32,1,-31.5,15,16.5
2.93500594787499,30,35,5,-32.5,12.5,20
2.93716881150643,30,27,-3,-28.5,16.5,12
2.93933167513788,29,27,-2,-28,15.5,12.5
2.94149453876933,30,32,2,-31,14,17
2.94365740240078,29,29,0,-29,14.5,14.5
2.94582026603223,30,28,-2,-29,16,13
2.94798312966367,30,34,4,-32,13,19
2.95014599329512,32,35,3,-33.5,14.5,19
2.95230885692657,30,30,0,-30,15,15
2.95447172055802,31,31,0,-31,15.5,15.5
2.95663458418947,32,35,3,-33.5,14.5,19
2.95879744782091,32,29,-3,-30.5,17.5,13
2.96096031145236,32,29,-3,-30.5,17.5,13
2.96312317508381,32,35,3,-33.5,14.5,19
2.96528603871526,32,34,2,-33,15,18
2.96744890234671,30,30,0,-30,15,15
2.96961176597816,33,36,3,-34.5,15,19.5
2.9717746296096,31,37,6,-34,12.5,21.5
2.97393749324105,33,31,-2,-32,17.5,14.5
2.9761003568725,32,30,-2,-31,17,14
2.97826322050395,33,38,5,-35.5,14,21.5
2.9804260841354,37,35,-2,-36,19.5,16.5
2.98258894776684,34,35,1,-34.5,16.5,18
2.98475181139829,36,35,-1,-35.5,18.5,17
2.98691467502974,37,39,2,-38,17.5,20.5
2.98907753866119,36,39,3,-37.5,16.5,21
2.99124040229264,34,34,0,-34,17,17
2.99340326592408,33,34,1,-33.5,16,17.5
2.99556612955553,36,33,-3,-34.5,19.5,15
2.99772899318698,36,31,-5,-33.5,20.5,13
2.99989185681843,35,36,1,-35.5,17,18.5
3.00205472044988,33,33,0,-33,16.5,16.5
3.00421758408132,31,32,1,-31.5,15,16.5
3.00638044771277,33,36,3,-34.5,15,19.5
3.00854331134422,31,23,-8,-27,19.5,7.5
3.01070617497567,27,20,-7,-23.5,17,6.5
3.01286903860712,25,20,-5,-22.5,15,7.5
3.01503190223856,28,28,0,-28,14,14
3.01719476587001,27,27,0,-27,13.5,13.5
3.01935762950146,26,24,-2,-25,14,11
3.02152049313291,26,28,2,-27,12,15
3.02368335676436,26,29,3,-27.5,11.5,16
3.0258462203958,25,23,-2,-24,13.5,10.5
3.02800908402725,23,22,-1,-22.5,12,10.5
3.0301719476587,24,26,2,-25,11,14
3.03233481129015,24,24,0,-24,12,12
3.0344976749216,23,19,-4,-21,13.5,7.5
3.03666053855304,22,24,2,-23,10,13
3.03882340218449,25,23,-2,-24,13.5,10.5
3.04098626581594,22,19,-3,-20.5,12.5,8
3.04314912944739,21,23,2,-22,9.5,12.5
3.04531199307884,21,23,2,-22,9.5,12.5
3.04747485671028,21,17,-4,-19,12.5,6.5
3.04963772034173,19,18,-1,-18.5,10,8.5
3.05180058397318,22,22,0,-22,11,11
3.05396344760463,22,20,-2,-21,12,9
3.05612631123608,17,15,-2,-16,9.5,6.5
3.05828917486752,17,16,-1,-16.5,9,7.5
3.06045203849897,16,20,4,-18,6,12
3.06261490213042,15,13,-2,-14,8.5,5.5
3.06477776576187,13,11,-2,-12,7.5,4.5
3.06694062939332,16,15,-1,-15.5,8.5,7
3.06910349302476,16,14,-2,-15,9,6
3.07126635665621,16,13,-3,-14.5,9.5,5
3.07342922028766,14,17,3,-15.5,5.5,10
3.07559208391911,17,17,0,-17,8.5,8.5
3.07775494755056,14,13,-1,-13.5,7.5,6
3.079917811182,12,11,-1,-11.5,6.5,5
3.08208067481345,13,14,1,-13.5,6,7.5
3.0842435384449,12,12,0,-12,6,6
3.08640640207635,11,12,1,-11.5,5,6.5
3.0885692657078,12,13,1,-12.5,5.5,7
3.09073212933925,11,13,2,-12,4.5,7.5
3.09289499297069,11,9,-2,-10,6.5,3.5
3.09505785660214,14,13,-1,-13.5,7.5,6
3.09722072023359,13,14,1,-13.5,6,7.5
3.09938358386504,10,6,-4,-8,7,1
3.10154644749649,9,4,-5,-6.5,7,-0.5
3.10370931112793,11,8,-3,-9.5,7,2.5
3.10587217475938,10,7,-3,-8.5,6.5,2
3.10803503839083,8,6,-2,-7,5,2
3.11019790202228,12,10,-2,-11,7,4
3.11236076565373,13,13,0,-13,6.5,6.5
3.11452362928517,11,10,-1,-10.5,6,4.5
3.11668649291662,9,8,-1,-8.5,5,3.5
3.11884935654807,11,11,0,-11,5.5,5.5
3.12101222017952,9,9,0,-9,4.5,4.5
3.12317508381097,12,7,-5,-9.5,8.5,1
3.12533794744241,14,14,0,-14,7,7
3.12750081107386,13,14,1,-13.5,6,7.5
3.12966367470531,12,10,-2,-11,7,4
3.13182653833676,12,15,3,-13.5,4.5,9
3.13398940196821,12,13,1,-12.5,5.5,7
3.13615226559965,9,10,1,-9.5,4,5.5
3.1383151292311,10,12,2,-11,4,7
3.14047799286255,14,15,1,-14.5,6.5,8
3.142640856494,13,12,-1,-12.5,7,5.5
3.14480372012545,10,7,-3,-8.5,6.5,2
3.14696658375689,11,11,0,-11,5.5,5.5
3.14912944738834,13,13,0,-13,6.5,6.5
3.15129231101979,11,11,0,-11,5.5,5.5
3.15345517465124,11,12,1,-11.5,5,6.5
3.15561803828269,12,13,1,-12.5,5.5,7
3.15778090191413,12,12,0,-12,6,6
3.15994376554558,12,8,-4,-10,8,2
3.16210662917703,13,15,2,-14,5.5,8.5
3.16426949280848,13,16,3,-14.5,5,9.5
3.16643235643993,13,12,-1,-12.5,7,5.5
3.16859522007137,12,13,1,-12.5,5.5,7
3.17075808370282,14,17,3,-15.5,5.5,10
3.17292094733427,14,12,-2,-13,8,5
3.17508381096572,13,13,0,-13,6.5,6.5
3.17724667459717,14,14,0,-14,7,7
3.17940953822861,18,15,-3,-16.5,10.5,6
3.18157240186006,16,11,-5,-13.5,10.5,3
3.18373526549151,16,17,1,-16.5,7.5,9
3.18589812912296,16,18,2,-17,7,10
3.18806099275441,16,16,0,-16,8,8
3.19022385638585,15,17,2,-16,6.5,9.5
3.1923867200173,14,16,2,-15,6,9
3.19454958364875,16,15,-1,-15.5,8.5,7
3.1967124472802,15,13,-2,-14,8.5,5.5
3.19887531091165,14,16,2,-15,6,9
3.20103817454309,17,20,3,-18.5,7,11.5
3.20320103817454,18,14,-4,-16,11,5
3.20536390180599,15,13,-2,-14,8.5,5.5
3.20752676543744,16,18,2,-17,7,10
3.20968962906889,15,14,-1,-14.5,8,6.5
3.21185249270034,13,14,1,-13.5,6,7.5
3.21401535633178,15,18,3,-16.5,6,10.5
3.21617821996323,18,18,0,-18,9,9
3.21834108359468,17,15,-2,-16,9.5,6.5
3.22050394722613,18,20,2,-19,8,11
3.22266681085758,21,26,5,-23.5,8,15.5
3.22482967448902,21,25,4,-23,8.5,14.5
3.22699253812047,21,21,0,-21,10.5,10.5
3.22915540175192,24,25,1,-24.5,11.5,13
3.23131826538337,22,23,1,-22.5,10.5,12
3.23348112901482,24,22,-2,-23,13,10
3.23564399264626,25,26,1,-25.5,12,13.5
3.23780685627771,24,29,5,-26.5,9.5,17
3.23996971990916,23,22,-1,-22.5,12,10.5
3.24213258354061,23,23,0,-23,11.5,11.5
3.24429544717206,26,28,2,-27,12,15
3.2464583108035,24,23,-1,-23.5,12.5,11
3.24862117443495,23,22,-1,-22.5,12,10.5
3.2507840380664,24,25,1,-24.5,11.5,13
3.25294690169785,25,29,4,-27,10.5,16.5
3.2551097653293,25,26,1,-25.5,12,13.5
3.25727262896074,25,25,0,-25,12.5,12.5
3.25943549259219,28,26,-2,-27,15,12
3.26159835622364,26,25,-1,-25.5,13.5,12
3.26376121985509,28,25,-3,-26.5,15.5,11
3.26592408348654,27,26,-1,-26.5,14,12.5
3.26808694711798,27,26,-1,-26.5,14,12.5
3.27024981074943,26,22,-4,-24,15,9
3.27241267438088,25,30,5,-27.5,10,17.5
3.27457553801233,25,27,2,-26,11.5,14.5
3.27673840164378,26,25,-1,-25.5,13.5,12
3.27890126527522,26,26,0,-26,13,13
3.28106412890667,29,31,2,-30,13.5,16.5
3.28322699253812,25,24,-1,-24.5,13,11.5
3.28538985616957,26,23,-3,-24.5,14.5,10
3.28755271980102,27,26,-1,-26.5,14,12.5
3.28971558343246,27,28,1,-27.5,13,14.5
3.29187844706391,27,26,-1,-26.5,14,12.5
3.29404131069536,27,27,0,-27,13.5,13.5
3.29620417432681,28,31,3,-29.5,12.5,17
3.29836703795826,26,25,-1,-25.5,13.5,12
3.3005299015897,28,25,-3,-26.5,15.5,11
3.30269276522115,28,29,1,-28.5,13.5,15
3.3048556288526,26,30,4,-28,11,17
3.30701849248405,26,26,0,-26,13,13
3.3091813561155,25,28,3,-26.5,11,15.5
3.31134421974694,27,32,5,-29.5,11,18.5
3.31350708337839,26,27,1,-26.5,12.5,14
3.31566994700984,28,26,-2,-27,15,12
3.31783281064129,26,28,2,-27,12,15
3.31999567427274,28,27,-1,-27.5,14.5,13
3.32215853790419,27,25,-2,-26,14.5,11.5
3.32432140153563,29,32,3,-30.5,13,17.5
3.32648426516708,27,30,3,-28.5,12,16.5
3.32864712879853,26,28,2,-27,12,15
3.33080999242998,27,27,0,-27,13.5,13.5
3.33297285606143,28,27,-1,-27.5,14.5,13
3.33513571969287,26,24,-2,-25,14,11
3.33729858332432,25,22,-3,-23.5,14,9.5
3.33946144695577,26,25,-1,-25.5,13.5,12
3.34162431058722,26,28,2,-27,12,15
3.34378717421867,26,25,-1,-25.5,13.5,12
3.34595003785011,27,26,-1,-26.5,14,12.5
3.34811290148156,24,26,2,-25,11,14
3.35027576511301,27,24,-3,-25.5,15,10.5
3.35243862874446,25,24,-1,-24.5,13,11.5
3.35460149237591,25,27,2,-26,11.5,14.5
3.35676435600735,26,28,2,-27,12,15
3.3589272196388,26,24,-2,-25,14,11
3.36109008327025,26,27,1,-26.5,12.5,14
3.3632529469017,26,28,2,-27,12,15
3.36541581053315,26,25,-1,-25.5,13.5,12
3.36757867416459,25,23,-2,-24,13.5,10.5
3.36974153779604,26,29,3,-27.5,11.5,16
3.37190440142749,22,24,2,-23,10,13
3.37406726505894,23,22,-1,-22.5,12,10.5
3.37623012869039,25,26,1,-25.5,12,13.5
3.37839299232183,25,27,2,-26,11.5,14.5
3.38055585595328,24,23,-1,-23.5,12.5,11
3.38271871958473,23,23,0,-23,11.5,11.5
3.38488158321618,24,30,6,-27,9,18
3.38704444684763,23,23,0,-23,11.5,11.5
3.38920731047907,23,23,0,-23,11.5,11.5
3.39137017411052,24,26,2,-25,11,14
3.39353303774197,25,27,2,-26,11.5,14.5
3.39569590137342,25,23,-2,-24,13.5,10.5
3.39785876500487,26,28,2,-27,12,15
3.40002162863631,25,27,2,-26,11.5,14.5
3.40218449226776,25,22,-3,-23.5,14,9.5
3.40434735589921,23,24,1,-23.5,11,12.5
3.40651021953066,25,29,4,-27,10.5,16.5
3.40867308316211,25,24,-1,-24.5,13,11.5
3.41083594679355,23,23,0,-23,11.5,11.5
3.412998810425,26,26,0,-26,13,13
3.41516167405645,27,27,0,-27,13.5,13.5
3.4173245376879,25,25,0,-25,12.5,12.5
3.41948740131935,28,27,-1,-27.5,14.5,13
3.42165026495079,26,28,2,-27,12,15
3.42381312858224,26,24,-2,-25,14,11
3.42597599221369,23,22,-1,-22.5,12,10.5
3.42813885584514,24,28,4,-26,10,16
3.43030171947659,23,26,3,-24.5,10,14.5
3.43246458310803,25,23,-2,-24,13.5,10.5
3.43462744673948,28,25,-3,-26.5,15.5,11
3.43679031037093,26,29,3,-27.5,11.5,16
3.43895317400238,28,22,-6,-25,17,8
3.44111603763383,28,24,-4,-26,16,10
3.44327890126528,26,28,2,-27,12,15
3.44544176489672,28,28,0,-28,14,14
3.44760462852817,29,27,-2,-28,15.5,12.5
3.44976749215962,33,35,2,-34,15.5,18.5
3.45193035579107,36,38,2,-37,17,20
3.45409321942252,37,37,0,-37,18.5,18.5
3.45625608305396,43,42,-1,-42.5,22,20.5
3.45841894668541,49,49,0,-49,24.5,24.5
3.46058181031686,48,45,-3,-46.5,25.5,21
3.46274467394831,43,39,-4,-41,23.5,17.5
3.46490753757976,38,39,1,-38.5,18.5,20
3.4670704012112,33,36,3,-34.5,15,19.5
3.46923326484265,30,29,-1,-29.5,15.5,14
3.4713961284741,28,29,1,-28.5,13.5,15
3.47355899210555,26,31,5,-28.5,10.5,18
3.475721855737,23,24,1,-23.5,11,12.5
3.47788471936844,19,23,4,-21,7.5,13.5
3.48004758299989,21,24,3,-22.5,9,13.5
3.48221044663134,22,25,3,-23.5,9.5,14
3.48437331026279,23,21,-2,-22,12.5,9.5
3.48653617389424,24,25,1,-24.5,11.5,13
3.48869903752568,25,24,-1,-24.5,13,11.5
3.49086190115713,25,22,-3,-23.5,14,9.5
3.49302476478858,25,24,-1,-24.5,13,11.5
3.49518762842003,25,28,3,-26.5,11,15.5
3.49735049205148,23,24,1,-23.5,11,12.5
3.49951335568292,22,20,-2,-21,12,9
3.50167621931437,23,26,3,-24.5,10,14.5
3.50383908294582,27,28,1,-27.5,13,14.5
3.50600194657727,24,25,1,-24.5,11.5,13
3.50816481020872,28,25,-3,-26.5,15.5,11
3.51032767384016,25,29,4,-27,10.5,16.5
3.51249053747161,25,26,1,-25.5,12,13.5
3.51465340110306,25,22,-3,-23.5,14,9.5
3.51681626473451,25,25,0,-25,12.5,12.5
3.51897912836596,24,25,1,-24.5,11.5,13
3.5211419919974,24,23,-1,-23.5,12.5,11
3.52330485562885,24,26,2,-25,11,14
3.5254677192603,26,28,2,-27,12,15
3.52763058289175,25,23,-2,-24,13.5,10.5
3.5297934465232,22,24,2,-23,10,13
3.53195631015464,23,25,2,-24,10.5,13.5
3.53411917378609,23,24,1,-23.5,11,12.5
3.53628203741754,23,21,-2,-22,12.5,9.5
3.53844490104899,24,26,2,-25,11,14
3.54060776468044,25,27,2,-26,11.5,14.5
3.54277062831188,21,24,3,-22.5,9,13.5
3.54493349194333,21,23,2,-22,9.5,12.5
3.54709635557478,23,29,6,-26,8.5,17.5
3.54925921920623,22,23,1,-22.5,10.5,12
3.55142208283768,22,22,0,-22,11,11
3.55358494646913,23,26,3,-24.5,10,14.5
3.55574781010057,23,25,2,-24,10.5,13.5
3.55791067373202,23,22,-1,-22.5,12,10.5
3.56007353736347,25,25,0,-25,12.5,12.5
3.56223640099492,24,26,2,-25,11,14
3.56439926462637,23,22,-1,-22.5,12,10.5
3.56656212825781,23,22,-1,-22.5,12,10.5
3.56872499188926,23,25,2,-24,10.5,13.5
3.57088785552071,25,23,-2,-24,13.5,10.5
3.57305071915216,25,20,-5,-22.5,15,7.5
3.57521358278361,24,28,4,-26,10,16
3.57737644641505,25,27,2,-26,11.5,14.5
3.5795393100465,25,21,-4,-23,14.5,8.5
3.58170217367795,24,22,-2,-23,13,10
3.5838650373094,23,25,2,-24,10.5,13.5
3.58602790094085,23,25,2,-24,10.5,13.5
3.58819076457229,21,21,0,-21,10.5,10.5
3.59035362820374,24,23,-1,-23.5,12.5,11
3.59251649183519,23,25,2,-24,10.5,13.5
3.59467935546664,23,20,-3,-21.5,13,8.5
3.59684221909809,21,24,3,-22.5,9,13.5
3.59900508272953,24,26,2,-25,11,14
3.60116794636098,21,22,1,-21.5,10,11.5
3.60333080999243,22,22,0,-22,11,11
3.60549367362388,22,23,1,-22.5,10.5,12
3.60765653725533,21,23,2,-22,9.5,12.5
3.60981940088677,21,22,1,-21.5,10,11.5
3.61198226451822,22,26,4,-24,9,15
3.61414512814967,24,27,3,-25.5,10.5,15
3.61630799178112,24,25,1,-24.5,11.5,13
3.61847085541257,22,21,-1,-21.5,11.5,10
3.62063371904401,25,26,1,-25.5,12,13.5
3.62279658267546,25,23,-2,-24,13.5,10.5
3.62495944630691,24,23,-1,-23.5,12.5,11
3.62712230993836,26,26,0,-26,13,13
3.62928517356981,28,30,2,-29,13,16
3.63144803720125,23,24,1,-23.5,11,12.5
3.6336109008327,24,25,1,-24.5,11.5,13
3.63577376446415,27,29,2,-28,12.5,15.5
3.6379366280956,24,25,1,-24.5,11.5,13
3.64009949172705,24,21,-3,-22.5,13.5,9
3.64226235535849,25,28,3,-26.5,11,15.5
3.64442521898994,25,25,0,-25,12.5,12.5
3.64658808262139,23,23,0,-23,11.5,11.5
3.64875094625284,29,29,0,-29,14.5,14.5
3.65091380988429,29,30,1,-29.5,14,15.5
3.65307667351573,25,25,0,-25,12.5,12.5
3.65523953714718,28,26,-2,-27,15,12
3.65740240077863,30,31,1,-30.5,14.5,16
3.65956526441008,27,27,0,-27,13.5,13.5
3.66172812804153,26,23,-3,-24.5,14.5,10
3.66389099167297,25,28,3,-26.5,11,15.5
3.66605385530442,25,28,3,-26.5,11,15.5
3.66821671893587,25,23,-2,-24,13.5,10.5
3.67037958256732,25,24,-1,-24.5,13,11.5
3.67254244619877,26,30,4,-28,11,17
3.67470530983022,26,26,0,-26,13,13
3.67686817346166,27,25,-2,-26,14.5,11.5
3.67903103709311,28,28,0,-28,14,14
3.68119390072456,28,28,0,-28,14,14
3.68335676435601,25,25,0,-25,12.5,12.5
3.68551962798746,25,28,3,-26.5,11,15.5
3.6876824916189,28,29,1,-28.5,13.5,15
3.68984535525035,26,25,-1,-25.5,13.5,12
3.6920082188818,28,26,-2,-27,15,12
3.69417108251325,29,31,2,-30,13.5,16.5
3.6963339461447,27,30,3,-28.5,12,16.5
3.69849680977614,26,24,-2,-25,14,11
3.70065967340759,26,30,4,-28,11,17
3.70282253703904,27,27,0,-27,13.5,13.5
3.70498540067049,28,26,-2,-27,15,12
3.70714826430194,28,25,-3,-26.5,15.5,11
3.70931112793338,25,29,4,-27,10.5,16.5
3.71147399156483,28,27,-1,-27.5,14.5,13
3.71363685519628,26,23,-3,-24.5,14.5,10
3.71579971882773,25,30,5,-27.5,10,17.5
3.71796258245918,25,28,3,-26.5,11,15.5
3.72012544609062,26,23,-3,-24.5,14.5,10
3.72228830972207,25,25,0,-25,12.5,12.5
3.72445117335352,26,30,4,-28,11,17
3.72661403698497,24,24,0,-24,12,12
3.72877690061642,24,22,-2,-23,13,10
3.73093976424786,25,25,0,-25,12.5,12.5
3.73310262787931,25,27,2,-26,11.5,14.5
3.73526549151076,23,22,-1,-22.5,12,10.5
3.73742835514221,26,26,0,-26,13,13
3.73959121877366,21,26,5,-23.5,8,15.5
3.7417540824051,22,21,-1,-21.5,11.5,10
3.74391694603655,20,22,2,-21,9,12
3.746079809668,21,26,5,-23.5,8,15.5
3.74824267329945,22,22,0,-22,11,11
3.7504055369309,22,18,-4,-20,13,7
3.75256840056234,20,22,2,-21,9,12
3.75473126419379,21,24,3,-22.5,9,13.5
3.75689412782524,22,22,0,-22,11,11
3.75905699145669,21,21,0,-21,10.5,10.5
3.76121985508814,22,23,1,-22.5,10.5,12
3.76338271871958,20,21,1,-20.5,9.5,11
3.76554558235103,21,21,0,-21,10.5,10.5
3.76770844598248,21,24,3,-22.5,9,13.5
3.76987130961393,22,24,2,-23,10,13
3.77203417324538,21,17,-4,-19,12.5,6.5
3.77419703687682,21,19,-2,-20,11.5,8.5
3.77635990050827,21,23,2,-22,9.5,12.5
3.77852276413972,21,20,-1,-20.5,11,9.5
3.78068562777117,21,20,-1,-20.5,11,9.5
3.78284849140262,20,25,5,-22.5,7.5,15
3.78501135503406,19,21,2,-20,8.5,11.5
3.78717421866551,20,17,-3,-18.5,11.5,7
3.78933708229696,23,23,0,-23,11.5,11.5
3.79149994592841,21,25,4,-23,8.5,14.5
3.79366280955986,21,22,1,-21.5,10,11.5
3.79582567319131,19,20,1,-19.5,9,10.5
3.79798853682275,20,25,5,-22.5,7.5,15
3.8001514004542,19,22,3,-20.5,8,12.5
3.80231426408565,21,18,-3,-19.5,12,7.5
3.8044771277171,22,24,2,-23,10,13
3.80663999134855,22,24,2,-23,10,13
3.80880285497999,20,18,-2,-19,11,8
3.81096571861144,20,24,4,-22,8,14
3.81312858224289,21,24,3,-22.5,9,13.5
3.81529144587434,21,22,1,-21.5,10,11.5
3.81745430950579,20,21,1,-20.5,9.5,11
3.81961717313723,25,25,0,-25,12.5,12.5
3.82178003676868,25,22,-3,-23.5,14,9.5
3.82394290040013,24,20,-4,-22,14,8
3.82610576403158,23,22,-1,-22.5,12,10.5
3.82826862766303,21,23,2,-22,9.5,12.5
3.83043149129447,21,21,0,-21,10.5,10.5
3.83259435492592,22,22,0,-22,11,11
3.83475721855737,20,26,6,-23,7,16
3.83692008218882,19,21,2,-20,8.5,11.5
3.83908294582027,20,19,-1,-19.5,10.5,9
3.84124580945171,21,21,0,-21,10.5,10.5
3.84340867308316,23,21,-2,-22,12.5,9.5
3.84557153671461,22,17,-5,-19.5,13.5,6
3.84773440034606,21,20,-1,-20.5,11,9.5
3.84989726397751,21,25,4,-23,8.5,14.5
3.85206012760895,21,21,0,-21,10.5,10.5
3.8542229912404,20,19,-1,-19.5,10.5,9
3.85638585487185,24,25,1,-24.5,11.5,13
3.8585487185033,21,24,3,-22.5,9,13.5
3.86071158213475,22,18,-4,-20,13,7
3.86287444576619,21,20,-1,-20.5,11,9.5
3.86503730939764,22,25,3,-23.5,9.5,14
3.86720017302909,21,22,1,-21.5,10,11.5
3.86936303666054,21,20,-1,-20.5,11,9.5
3.87152590029199,22,23,1,-22.5,10.5,12
3.87368876392343,23,20,-3,-21.5,13,8.5
3.87585162755488,23,19,-4,-21,13.5,7.5
3.87801449118633,23,22,-1,-22.5,12,10.5
3.88017735481778,21,24,3,-22.5,9,13.5
3.88234021844923,22,19,-3,-20.5,12.5,8
3.88450308208067,23,20,-3,-21.5,13,8.5
3.88666594571212,23,24,1,-23.5,11,12.5
3.88882880934357,23,21,-2,-22,12.5,9.5
3.89099167297502,19,18,-1,-18.5,10,8.5
3.89315453660647,22,23,1,-22.5,10.5,12
3.89531740023791,23,22,-1,-22.5,12,10.5
3.89748026386936,22,22,0,-22,11,11
3.89964312750081,21,24,3,-22.5,9,13.5
3.90180599113226,21,24,3,-22.5,9,13.5
3.90396885476371,21,21,0,-21,10.5,10.5
3.90613171839516,20,21,1,-20.5,9.5,11
3.9082945820266,23,25,2,-24,10.5,13.5
3.91045744565805,22,26,4,-24,9,15
3.9126203092895,21,20,-1,-20.5,11,9.5
3.91478317292095,21,20,-1,-20.5,11,9.5
3.9169460365524,23,25,2,-24,10.5,13.5
3.91910890018384,20,24,4,-22,8,14
3.92127176381529,21,23,2,-22,9.5,12.5
3.92343462744674,23,25,2,-24,10.5,13.5
3.92559749107819,21,24,3,-22.5,9,13.5
3.92776035470964,21,18,-3,-19.5,12,7.5
3.92992321834108,22,21,-1,-21.5,11.5,10
3.93208608197253,20,24,4,-22,8,14
3.93424894560398,22,19,-3,-20.5,12.5,8
3.93641180923543,21,23,2,-22,9.5,12.5
3.93857467286688,23,26,3,-24.5,10,14.5
3.94073753649832,19,18,-1,-18.5,10,8.5
3.94290040012977,20,18,-2,-19,11,8
3.94506326376122,24,26,2,-25,11,14
3.94722612739267,23,23,0,-23,11.5,11.5
3.94938899102412,20,20,0,-20,10,10
3.95155185465556,21,21,0,-21,10.5,10.5
3.95371471828701,25,23,-2,-24,13.5,10.5
3.95587758191846,24,20,-4,-22,14,8
3.95804044554991,21,22,1,-21.5,10,11.5
3.96020330918136,24,25,1,-24.5,11.5,13
3.9623661728128,24,25,1,-24.5,11.5,13
3.96452903644425,23,20,-3,-21.5,13,8.5
3.9666919000757,24,23,-1,-23.5,12.5,11
3.96885476370715,22,25,3,-23.5,9.5,14
3.9710176273386,22,23,1,-22.5,10.5,12
3.97318049097004,24,25,1,-24.5,11.5,13
3.97534335460149,22,28,6,-25,8,17
3.97750621823294,22,22,0,-22,11,11
3.97966908186439,22,23,1,-22.5,10.5,12
3.98183194549584,22,23,1,-22.5,10.5,12
3.98399480912728,22,24,2,-23,10,13
3.98615767275873,21,21,0,-21,10.5,10.5
3.98832053639018,22,23,1,-22.5,10.5,12
3.99048340002163,22,28,6,-25,8,17
3.99264626365308,22,22,0,-22,11,11
3.99480912728452,24,19,-5,-21.5,14.5,7
3.99697199091597,24,25,1,-24.5,11.5,13
3.99913485454742,22,25,3,-23.5,9.5,14
4.00129771817887,21,19,-2,-20,11.5,8.5
4.00346058181032,21,21,0,-21,10.5,10.5
4.00562344544176,23,25,2,-24,10.5,13.5
4.00778630907321,21,22,1,-21.5,10,11.5
4.00994917270466,22,22,0,-22,11,11
4.01211203633611,21,21,0,-21,10.5,10.5
4.01427489996756,17,15,-2,-16,9.5,6.5
4.01643776359901,18,13,-5,-15.5,11.5,4
4.01860062723045,17,18,1,-17.5,8,9.5
4.0207634908619,16,14,-2,-15,9,6
4.02292635449335,16,12,-4,-14,10,4
4.0250892181248,15,14,-1,-14.5,8,6.5
4.02725208175625,16,17,1,-16.5,7.5,9
4.02941494538769,15,12,-3,-13.5,9,4.5
4.03157780901914,14,13,-1,-13.5,7.5,6
4.03374067265059,14,16,2,-15,6,9
4.03590353628204,16,16,0,-16,8,8
4.03806639991349,13,12,-1,-12.5,7,5.5
4.04022926354493,14,16,2,-15,6,9
4.04239212717638,14,16,2,-15,6,9
4.04455499080783,10,5,-5,-7.5,7.5,0
4.04671785443928,9,8,-1,-8.5,5,3.5
4.04888071807073,12,12,0,-12,6,6
4.05104358170217,8,10,2,-9,3,6
4.05320644533362,8,8,0,-8,4,4
4.05536930896507,9,14,5,-11.5,2,9.5
4.05753217259652,9,12,3,-10.5,3,7.5
4.05969503622797,8,5,-3,-6.5,5.5,1
4.06185789985941,7,7,0,-7,3.5,3.5
4.06402076349086,7,12,5,-9.5,1,8.5
4.06618362712231,7,9,2,-8,2.5,5.5
4.06834649075376,7,9,2,-8,2.5,5.5
4.07050935438521,9,10,1,-9.5,4,5.5
4.07267221801665,9,11,2,-10,3.5,6.5
4.0748350816481,9,4,-5,-6.5,7,-0.5
4.07699794527955,9,10,1,-9.5,4,5.5
4.079160808911,10,11,1,-10.5,4.5,6
4.08132367254245,8,7,-1,-7.5,4.5,3
4.08348653617389,9,5,-4,-7,6.5,0.5
4.08564939980534,12,11,-1,-11.5,6.5,5
4.08781226343679,10,12,2,-11,4,7
4.08997512706824,10,5,-5,-7.5,7.5,0
4.09213799069969,10,11,1,-10.5,4.5,6
4.09430085433113,10,10,0,-10,5,5
4.09646371796258,10,9,-1,-9.5,5.5,4
4.09862658159403,13,10,-3,-11.5,8,3.5
4.10078944522548,13,17,4,-15,4.5,10.5
4.10295230885693,16,13,-3,-14.5,9.5,5
4.10511517248837,22,18,-4,-20,13,7
4.10727803611982,27,27,0,-27,13.5,13.5
4.10944089975127,31,26,-5,-28.5,18,10.5
4.11160376338272,30,26,-4,-28,17,11
4.11376662701417,32,29,-3,-30.5,17.5,13
4.11592949064561,27,29,2,-28,12.5,15.5
4.11809235427706,24,21,-3,-22.5,13.5,9
4.12025521790851,19,15,-4,-17,11.5,5.5
4.12241808153996,15,19,4,-17,5.5,11.5
4.12458094517141,12,11,-1,-11.5,6.5,5
4.12674380880286,9,9,0,-9,4.5,4.5
4.1289066724343,12,9,-3,-10.5,7.5,3
4.13106953606575,9,12,3,-10.5,3,7.5
4.1332323996972,8,6,-2,-7,5,2
4.13539526332865,10,9,-1,-9.5,5.5,4
4.1375581269601,10,11,1,-10.5,4.5,6
4.13972099059154,10,10,0,-10,5,5
4.14188385422299,6,5,-1,-5.5,3.5,2
4.14404671785444,10,12,2,-11,4,7
4.14620958148589,12,12,0,-12,6,6
4.14837244511734,12,7,-5,-9.5,8.5,1
4.15053530874878,10,9,-1,-9.5,5.5,4
4.15269817238023,9,12,3,-10.5,3,7.5
4.15486103601168,10,9,-1,-9.5,5.5,4
4.15702389964313,9,7,-2,-8,5.5,2.5
4.15918676327458,14,14,0,-14,7,7
4.16134962690602,11,12,1,-11.5,5,6.5
4.16351249053747,11,5,-6,-8,8.5,-0.5
4.16567535416892,11,9,-2,-10,6.5,3.5
4.16783821780037,10,10,0,-10,5,5
4.17000108143182,10,7,-3,-8.5,6.5,2
4.17216394506326,7,10,3,-8.5,2,6.5
4.17432680869471,11,12,1,-11.5,5,6.5
4.17648967232616,12,10,-2,-11,7,4
4.17865253595761,12,7,-5,-9.5,8.5,1
4.18081539958906,12,11,-1,-11.5,6.5,5
4.1829782632205,9,9,0,-9,4.5,4.5
4.18514112685195,10,8,-2,-9,6,3
4.1873039904834,12,7,-5,-9.5,8.5,1
4.18946685411485,11,12,1,-11.5,5,6.5
4.1916297177463,10,9,-1,-9.5,5.5,4
4.19379258137774,9,7,-2,-8,5.5,2.5
4.19595544500919,9,13,4,-11,2.5,8.5
4.19811830864064,10,11,1,-10.5,4.5,6
4.20028117227209,7,8,1,-7.5,3,4.5
4.20244403590354,8,10,2,-9,3,6
4.20460689953498,8,11,3,-9.5,2.5,7
4.20676976316643,8,9,1,-8.5,3.5,5
4.20893262679788,9,10,1,-9.5,4,5.5
4.21109549042933,10,16,6,-13,2,11
4.21325835406078,9,10,1,-9.5,4,5.5
4.21542121769222,9,7,-2,-8,5.5,2.5
4.21758408132367,11,11,0,-11,5.5,5.5
4.21974694495512,13,14,1,-13.5,6,7.5
4.22190980858657,10,6,-4,-8,7,1
4.22407267221802,11,7,-4,-9,7.5,1.5
4.22623553584946,13,14,1,-13.5,6,7.5
4.22839839948091,13,13,0,-13,6.5,6.5
4.23056126311236,10,8,-2,-9,6,3
4.23272412674381,12,12,0,-12,6,6
4.23488699037526,11,13,2,-12,4.5,7.5
4.2370498540067,10,8,-2,-9,6,3
4.23921271763815,11,11,0,-11,5.5,5.5
4.2413755812696,9,11,2,-10,3.5,6.5
4.24353844490105,8,10,2,-9,3,6
4.2457013085325,9,9,0,-9,4.5,4.5
4.24786417216395,12,14,2,-13,5,8
4.25002703579539,11,8,-3,-9.5,7,2.5
4.25218989942684,10,10,0,-10,5,5
4.25435276305829,10,12,2,-11,4,7
4.25651562668974,13,13,0,-13,6.5,6.5
4.25867849032119,11,8,-3,-9.5,7,2.5
4.26084135395263,11,10,-1,-10.5,6,4.5
4.26300421758408,11,14,3,-12.5,4,8.5
4.26516708121553,10,13,3,-11.5,3.5,8
4.26732994484698,11,11,0,-11,5.5,5.5
4.26949280847843,10,14,4,-12,3,9
4.27165567210987,12,14,2,-13,5,8
4.27381853574132,9,9,0,-9,4.5,4.5
4.27598139937277,12,11,-1,-11.5,6.5,5
4.27814426300422,13,13,0,-13,6.5,6.5
4.28030712663567,14,11,-3,-12.5,8.5,4
4.28246999026711,12,11,-1,-11.5,6.5,5
4.28463285389856,13,13,0,-13,6.5,6.5
4.28679571753001,14,15,1,-14.5,6.5,8
4.28895858116146,14,10,-4,-12,9,3
4.29112144479291,13,13,0,-13,6.5,6.5
4.29328430842435,13,16,3,-14.5,5,9.5
4.2954471720558,11,8,-3,-9.5,7,2.5
4.29761003568725,12,14,2,-13,5,8
4.2997728993187,12,18,6,-15,3,12
4.30193576295015,13,12,-1,-12.5,7,5.5
4.30409862658159,13,10,-3,-11.5,8,3.5
4.30626149021304,13,13,0,-13,6.5,6.5
4.30842435384449,15,16,1,-15.5,7,8.5
4.31058721747594,11,12,1,-11.5,5,6.5
4.31275008110739,10,10,0,-10,5,5
4.31491294473883,14,13,-1,-13.5,7.5,6
4.31707580837028,13,11,-2,-12,7.5,4.5
4.31923867200173,11,11,0,-11,5.5,5.5
4.32140153563318,13,17,4,-15,4.5,10.5
4.32356439926463,13,15,2,-14,5.5,8.5
4.32572726289607,13,10,-3,-11.5,8,3.5
4.32789012652752,13,13,0,-13,6.5,6.5
4.33005299015897,16,15,-1,-15.5,8.5,7
4.33221585379042,14,13,-1,-13.5,7.5,6
4.33437871742187,12,13,1,-12.5,5.5,7
4.33654158105331,16,18,2,-17,7,10
4.33870444468476,13,11,-2,-12,7.5,4.5
4.34086730831621,13,12,-1,-12.5,7,5.5
4.34303017194766,15,15,0,-15,7.5,7.5
4.34519303557911,16,16,0,-16,8,8
4.34735589921055,10,11,1,-10.5,4.5,6
4.349518762842,12,12,0,-12,6,6
4.35168162647345,16,16,0,-16,8,8
4.3538444901049,13,13,0,-13,6.5,6.5
4.35600735373635,11,12,1,-11.5,5,6.5
4.35817021736779,14,15,1,-14.5,6.5,8
4.36033308099924,13,17,4,-15,4.5,10.5
4.36249594463069,13,13,0,-13,6.5,6.5
4.36465880826214,14,12,-2,-13,8,5
4.36682167189359,13,15,2,-14,5.5,8.5
4.36898453552504,14,13,-1,-13.5,7.5,6
4.37114739915648,14,14,0,-14,7,7
4.37331026278793,16,15,-1,-15.5,8.5,7
4.37547312641938,13,14,1,-13.5,6,7.5
4.37763599005083,14,11,-3,-12.5,8.5,4
4.37979885368228,14,16,2,-15,6,9
4.38196171731372,13,14,1,-13.5,6,7.5
4.38412458094517,12,10,-2,-11,7,4
4.38628744457662,14,13,-1,-13.5,7.5,6
4.38845030820807,13,17,4,-15,4.5,10.5
4.39061317183952,12,12,0,-12,6,6
4.39277603547096,11,12,1,-11.5,5,6.5
4.39493889910241,12,15,3,-13.5,4.5,9
4.39710176273386,14,17,3,-15.5,5.5,10
4.39926462636531,14,11,-3,-12.5,8.5,4
4.40142748999676,12,11,-1,-11.5,6.5,5
4.4035903536282,14,16,2,-15,6,9
4.40575321725965,12,10,-2,-11,7,4
4.4079160808911,11,12,1,-11.5,5,6.5
4.41007894452255,11,13,2,-12,4.5,7.5
4.412241808154,14,12,-2,-13,8,5
4.41440467178544,10,8,-2,-9,6,3
4.41656753541689,10,9,-1,-9.5,5.5,4
4.41873039904834,9,8,-1,-8.5,5,3.5
4.42089326267979,7,3,-4,-5,5.5,-0.5
4.42305612631124,8,5,-3,-6.5,5.5,1
4.42521898994268,7,9,2,-8,2.5,5.5
4.42738185357413,6,8,2,-7,2,5
4.42954471720558,5,9,4,-7,0.5,6.5
4.43170758083703,8,11,3,-9.5,2.5,7
4.43387044446848,7,9,2,-8,2.5,5.5
4.43603330809992,5,6,1,-5.5,2,3.5
4.43819617173137,5,4,-1,-4.5,3,1.5
4.44035903536282,8,11,3,-9.5,2.5,7
4.44252189899427,9,8,-1,-8.5,5,3.5
4.44468476262572,8,4,-4,-6,6,0
4.44684762625716,9,11,2,-10,3.5,6.5
4.44901048988861,9,10,1,-9.5,4,5.5
4.45117335352006,9,7,-2,-8,5.5,2.5
4.45333621715151,10,10,0,-10,5,5
4.45549908078296,10,12,2,-11,4,7
4.4576619444144,9,5,-4,-7,6.5,0.5
4.45982480804585,13,8,-5,-10.5,9,1.5
4.4619876716773,12,10,-2,-11,7,4
4.46415053530875,10,9,-1,-9.5,5.5,4
4.4663133989402,7,7,0,-7,3.5,3.5
4.46847626257164,12,13,1,-12.5,5.5,7
4.47063912620309,9,11,2,-10,3.5,6.5
4.47280198983454,8,8,0,-8,4,4
4.47496485346599,9,8,-1,-8.5,5,3.5
4.47712771709744,10,11,1,-10.5,4.5,6
4.47929058072889,10,8,-2,-9,6,3
4.48145344436033,11,9,-2,-10,6.5,3.5
4.48361630799178,11,11,0,-11,5.5,5.5
4.48577917162323,10,12,2,-11,4,7
4.48794203525468,9,8,-1,-8.5,5,3.5
4.49010489888613,11,12,1,-11.5,5,6.5
4.49226776251757,10,12,2,-11,4,7
4.49443062614902,12,10,-2,-11,7,4
4.49659348978047,10,9,-1,-9.5,5.5,4
4.49875635341192,11,13,2,-12,4.5,7.5
4.50091921704337,11,13,2,-12,4.5,7.5
4.50308208067481,12,10,-2,-11,7,4
4.50524494430626,10,13,3,-11.5,3.5,8
4.50740780793771,12,11,-1,-11.5,6.5,5
4.50957067156916,10,11,1,-10.5,4.5,6
4.51173353520061,10,8,-2,-9,6,3
4.51389639883205,13,16,3,-14.5,5,9.5
4.5160592624635,12,11,-1,-11.5,6.5,5
4.51822212609495,13,10,-3,-11.5,8,3.5
4.5203849897264,13,14,1,-13.5,6,7.5
4.52254785335785,13,13,0,-13,6.5,6.5
4.52471071698929,13,8,-5,-10.5,9,1.5
4.52687358062074,11,7,-4,-9,7.5,1.5
4.52903644425219,12,11,-1,-11.5,6.5,5
4.53119930788364,8,10,2,-9,3,6
4.53336217151509,12,9,-3,-10.5,7.5,3
4.53552503514653,13,14,1,-13.5,6,7.5
4.53768789877798,14,12,-2,-13,8,5
4.53985076240943,14,12,-2,-13,8,5
4.54201362604088,10,13,3,-11.5,3.5,8
4.54417648967233,12,14,2,-13,5,8
4.54633935330377,10,10,0,-10,5,5
4.54850221693522,12,11,-1,-11.5,6.5,5
4.55066508056667,12,16,4,-14,4,10
4.55282794419812,13,13,0,-13,6.5,6.5
4.55499080782957,12,10,-2,-11,7,4
4.55715367146101,12,15,3,-13.5,4.5,9
4.55931653509246,13,15,2,-14,5.5,8.5
4.56147939872391,11,12,1,-11.5,5,6.5
4.56364226235536,11,12,1,-11.5,5,6.5
4.56580512598681,13,16,3,-14.5,5,9.5
4.56796798961825,11,11,0,-11,5.5,5.5
4.5701308532497,12,10,-2,-11,7,4
4.57229371688115,14,16,2,-15,6,9
4.5744565805126,13,14,1,-13.5,6,7.5
4.57661944414405,11,12,1,-11.5,5,6.5
4.57878230777549,12,13,1,-12.5,5.5,7
4.58094517140694,11,15,4,-13,3.5,9.5
4.58310803503839,13,11,-2,-12,7.5,4.5
4.58527089866984,11,10,-1,-10.5,6,4.5
4.58743376230129,12,15,3,-13.5,4.5,9
4.58959662593273,14,15,1,-14.5,6.5,8
4.59175948956418,12,13,1,-12.5,5.5,7
4.59392235319563,12,16,4,-14,4,10
4.59608521682708,13,12,-1,-12.5,7,5.5
4.59824808045853,11,9,-2,-10,6.5,3.5
4.60041094408998,11,10,-1,-10.5,6,4.5
4.60257380772142,15,15,0,-15,7.5,7.5
4.60473667135287,15,11,-4,-13,9.5,3.5
4.60689953498432,12,11,-1,-11.5,6.5,5
4.60906239861577,17,15,-2,-16,9.5,6.5
4.61122526224722,14,18,4,-16,5,11
4.61338812587866,12,9,-3,-10.5,7.5,3
4.61555098951011,13,12,-1,-12.5,7,5.5
4.61771385314156,14,13,-1,-13.5,7.5,6
4.61987671677301,14,13,-1,-13.5,7.5,6
4.62203958040446,14,9,-5,-11.5,9.5,2
4.6242024440359,16,16,0,-16,8,8
4.62636530766735,16,15,-1,-15.5,8.5,7
4.6285281712988,14,11,-3,-12.5,8.5,4
4.63069103493025,13,14,1,-13.5,6,7.5
4.6328538985617,15,17,2,-16,6.5,9.5
4.63501676219314,13,11,-2,-12,7.5,4.5
4.63717962582459,13,10,-3,-11.5,8,3.5
4.63934248945604,12,15,3,-13.5,4.5,9
4.64150535308749,15,14,-1,-14.5,8,6.5
4.64366821671894,14,11,-3,-12.5,8.5,4
4.64583108035038,16,15,-1,-15.5,8.5,7
4.64799394398183,14,15,1,-14.5,6.5,8
4.65015680761328,13,13,0,-13,6.5,6.5
4.65231967124473,11,13,2,-12,4.5,7.5
4.65448253487618,16,16,0,-16,8,8
4.65664539850762,12,11,-1,-11.5,6.5,5
4.65880826213907,15,9,-6,-12,10.5,1.5
4.66097112577052,16,15,-1,-15.5,8.5,7
4.66313398940197,14,15,1,-14.5,6.5,8
4.66529685303342,13,12,-1,-12.5,7,5.5
4.66745971666486,15,13,-2,-14,8.5,5.5
4.66962258029631,14,14,0,-14,7,7
4.67178544392776,14,11,-3,-12.5,8.5,4
4.67394830755921,13,11,-2,-12,7.5,4.5
4.67611117119066,13,16,3,-14.5,5,9.5
4.6782740348221,12,15,3,-13.5,4.5,9
4.68043689845355,12,13,1,-12.5,5.5,7
4.682599762085,16,15,-1,-15.5,8.5,7
4.68476262571645,14,18,4,-16,5,11
4.6869254893479,12,9,-3,-10.5,7.5,3
4.68908835297934,11,11,0,-11,5.5,5.5
4.69125121661079,12,15,3,-13.5,4.5,9
4.69341408024224,14,14,0,-14,7,7
4.69557694387369,13,10,-3,-11.5,8,3.5
4.69773980750514,16,13,-3,-14.5,9.5,5
4.69990267113658,14,17,3,-15.5,5.5,10
4.70206553476803,13,12,-1,-12.5,7,5.5
4.70422839839948,14,15,1,-14.5,6.5,8
4.70639126203093,14,16,2,-15,6,9
4.70855412566238,13,10,-3,-11.5,8,3.5
4.71071698929383,12,9,-3,-10.5,7.5,3
4.71287985292527,16,17,1,-16.5,7.5,9
4.71504271655672,14,13,-1,-13.5,7.5,6
4.71720558018817,12,11,-1,-11.5,6.5,5
4.71936844381962,11,15,4,-13,3.5,9.5
4.72153130745107,14,15,1,-14.5,6.5,8
4.72369417108251,11,11,0,-11,5.5,5.5
4.72585703471396,12,9,-3,-10.5,7.5,3
4.72801989834541,13,13,0,-13,6.5,6.5
4.73018276197686,12,13,1,-12.5,5.5,7
4.73234562560831,11,11,0,-11,5.5,5.5
4.73450848923975,15,18,3,-16.5,6,10.5
4.7366713528712,15,16,1,-15.5,7,8.5
4.73883421650265,11,11,0,-11,5.5,5.5
4.7409970801341,12,14,2,-13,5,8
4.74315994376555,14,17,3,-15.5,5.5,10
4.74532280739699,10,12,2,-11,4,7
4.74748567102844,12,10,-2,-11,7,4
4.74964853465989,13,14,1,-13.5,6,7.5
4.75181139829134,14,13,-1,-13.5,7.5,6
4.75397426192279,13,10,-3,-11.5,8,3.5
4.75613712555423,13,15,2,-14,5.5,8.5
4.75829998918568,13,15,2,-14,5.5,8.5
4.76046285281713,13,11,-2,-12,7.5,4.5
4.76262571644858,13,10,-3,-11.5,8,3.5
4.76478858008003,18,18,0,-18,9,9
4.76695144371147,16,16,0,-16,8,8
4.76911430734292,17,18,1,-17.5,8,9.5
4.77127717097437,20,19,-1,-19.5,10.5,9
4.77344003460582,22,24,2,-23,10,13
4.77560289823727,24,21,-3,-22.5,13.5,9
4.77776576186871,25,20,-5,-22.5,15,7.5
4.77992862550016,29,30,1,-29.5,14,15.5
4.78209148913161,31,27,-4,-29,17.5,11.5
4.78425435276306,28,22,-6,-25,17,8
4.78641721639451,28,28,0,-28,14,14
4.78858008002595,24,25,1,-24.5,11.5,13
4.7907429436574,18,16,-2,-17,10,7
4.79290580728885,17,17,0,-17,8.5,8.5
4.7950686709203,15,17,2,-16,6.5,9.5
4.79723153455175,11,11,0,-11,5.5,5.5
4.79939439818319,12,13,1,-12.5,5.5,7
4.80155726181464,11,15,4,-13,3.5,9.5
4.80372012544609,10,11,1,-10.5,4.5,6
4.80588298907754,13,12,-1,-12.5,7,5.5
4.80804585270899,15,15,0,-15,7.5,7.5
4.81020871634043,12,15,3,-13.5,4.5,9
4.81237157997188,13,11,-2,-12,7.5,4.5
4.81453444360333,13,12,-1,-12.5,7,5.5
4.81669730723478,14,13,-1,-13.5,7.5,6
4.81886017086623,13,10,-3,-11.5,8,3.5
4.82102303449767,11,11,0,-11,5.5,5.5
4.82318589812912,13,17,4,-15,4.5,10.5
4.82534876176057,16,16,0,-16,8,8
4.82751162539202,11,12,1,-11.5,5,6.5
4.82967448902347,12,12,0,-12,6,6
4.83183735265492,15,17,2,-16,6.5,9.5
4.83400021628636,14,10,-4,-12,9,3
4.83616307991781,11,10,-1,-10.5,6,4.5
4.83832594354926,14,16,2,-15,6,9
4.84048880718071,15,18,3,-16.5,6,10.5
4.84265167081216,11,9,-2,-10,6.5,3.5
4.8448145344436,16,16,0,-16,8,8
4.84697739807505,14,15,1,-14.5,6.5,8
4.8491402617065,14,13,-1,-13.5,7.5,6
4.85130312533795,13,12,-1,-12.5,7,5.5
4.8534659889694,14,15,1,-14.5,6.5,8
4.85562885260084,14,11,-3,-12.5,8.5,4
4.85779171623229,14,13,-1,-13.5,7.5,6
4.85995457986374,12,15,3,-13.5,4.5,9
4.86211744349519,14,15,1,-14.5,6.5,8
4.86428030712664,14,12,-2,-13,8,5
4.86644317075808,13,13,0,-13,6.5,6.5
4.86860603438953,13,15,2,-14,5.5,8.5
4.87076889802098,12,12,0,-12,6,6
4.87293176165243,11,11,0,-11,5.5,5.5
4.87509462528388,13,17,4,-15,4.5,10.5
4.87725748891532,14,16,2,-15,6,9
4.87942035254677,13,10,-3,-11.5,8,3.5
4.88158321617822,15,16,1,-15.5,7,8.5
4.88374607980967,16,15,-1,-15.5,8.5,7
4.88590894344112,13,12,-1,-12.5,7,5.5
4.88807180707256,12,11,-1,-11.5,6.5,5
4.89023467070401,14,17,3,-15.5,5.5,10
4.89239753433546,14,12,-2,-13,8,5
4.89456039796691,13,11,-2,-12,7.5,4.5
4.89672326159836,14,17,3,-15.5,5.5,10
4.8988861252298,14,17,3,-15.5,5.5,10
4.90104898886125,13,13,0,-13,6.5,6.5
4.9032118524927,12,13,1,-12.5,5.5,7
4.90537471612415,12,15,3,-13.5,4.5,9
4.9075375797556,12,12,0,-12,6,6
4.90970044338704,13,11,-2,-12,7.5,4.5
4.91186330701849,13,16,3,-14.5,5,9.5
4.91402617064994,18,15,-3,-16.5,10.5,6
4.91618903428139,14,14,0,-14,7,7
4.91835189791284,14,17,3,-15.5,5.5,10
4.92051476154428,13,16,3,-14.5,5,9.5
4.92267762517573,13,14,1,-13.5,6,7.5
4.92484048880718,11,13,2,-12,4.5,7.5
4.92700335243863,16,17,1,-16.5,7.5,9
4.92916621607008,15,12,-3,-13.5,9,4.5
4.93132907970152,16,13,-3,-14.5,9.5,5
4.93349194333297,15,18,3,-16.5,6,10.5
4.93565480696442,15,20,5,-17.5,5,12.5
4.93781767059587,12,11,-1,-11.5,6.5,5
4.93998053422732,14,16,2,-15,6,9
4.94214339785876,15,15,0,-15,7.5,7.5
4.94430626149021,13,11,-2,-12,7.5,4.5
4.94646912512166,14,12,-2,-13,8,5
4.94863198875311,17,20,3,-18.5,7,11.5
4.95079485238456,18,17,-1,-17.5,9.5,8
4.95295771601601,16,13,-3,-14.5,9.5,5
4.95512057964745,17,22,5,-19.5,6,13.5
4.9572834432789,17,22,5,-19.5,6,13.5
4.95944630691035,18,17,-1,-17.5,9.5,8
4.9616091705418,19,19,0,-19,9.5,9.5
4.96377203417325,21,29,8,-25,6.5,18.5
4.96593489780469,21,21,0,-21,10.5,10.5
4.96809776143614,19,20,1,-19.5,9,10.5
4.97026062506759,22,22,0,-22,11,11
4.97242348869904,22,22,0,-22,11,11
4.97458635233049,18,20,2,-19,8,11
4.97674921596193,17,17,0,-17,8.5,8.5
4.97891207959338,21,25,4,-23,8.5,14.5
4.98107494322483,20,20,0,-20,10,10
4.98323780685628,22,19,-3,-20.5,12.5,8
4.98540067048773,21,22,1,-21.5,10,11.5
4.98756353411917,21,23,2,-22,9.5,12.5
4.98972639775062,20,19,-1,-19.5,10.5,9
4.99188926138207,21,24,3,-22.5,9,13.5
4.99405212501352,24,25,1,-24.5,11.5,13
4.99621498864497,24,22,-2,-23,13,10
4.99837785227641,23,22,-1,-22.5,12,10.5
5.00054071590786,26,23,-3,-24.5,14.5,10
5.00270357953931,24,22,-2,-23,13,10
5.00486644317076,21,19,-2,-20,11.5,8.5
5.00702930680221,21,23,2,-22,9.5,12.5
5.00919217043365,20,22,2,-21,9,12
5.0113550340651,19,17,-2,-18,10.5,7.5
5.01351789769655,18,17,-1,-17.5,9.5,8
5.015680761328,19,22,3,-20.5,8,12.5
5.01784362495945,17,15,-2,-16,9.5,6.5
5.02000648859089,17,12,-5,-14.5,11,3.5
5.02216935222234,17,17,0,-17,8.5,8.5
5.02433221585379,17,18,1,-17.5,8,9.5
5.02649507948524,15,14,-1,-14.5,8,6.5
5.02865794311669,16,15,-1,-15.5,8.5,7
5.03082080674813,14,14,0,-14,7,7
5.03298367037958,14,12,-2,-13,8,5
5.03514653401103,13,12,-1,-12.5,7,5.5
5.03730939764248,14,16,2,-15,6,9
5.03947226127393,13,16,3,-14.5,5,9.5
5.04163512490537,12,13,1,-12.5,5.5,7
5.04379798853682,13,14,1,-13.5,6,7.5
5.04596085216827,12,18,6,-15,3,12
5.04812371579972,12,11,-1,-11.5,6.5,5
5.05028657943117,12,8,-4,-10,8,2
5.05244944306261,16,15,-1,-15.5,8.5,7
5.05461230669406,14,16,2,-15,6,9
5.05677517032551,12,12,0,-12,6,6
5.05893803395696,13,14,1,-13.5,6,7.5
5.06110089758841,14,15,1,-14.5,6.5,8
5.06326376121986,12,10,-2,-11,7,4
5.0654266248513,11,9,-2,-10,6.5,3.5
5.06758948848275,11,13,2,-12,4.5,7.5
5.0697523521142,11,11,0,-11,5.5,5.5
5.07191521574565,12,9,-3,-10.5,7.5,3
5.0740780793771,11,15,4,-13,3.5,9.5
5.07624094300854,12,15,3,-13.5,4.5,9
5.07840380663999,12,11,-1,-11.5,6.5,5
5.08056667027144,13,14,1,-13.5,6,7.5
5.08272953390289,12,12,0,-12,6,6
5.08489239753434,10,10,0,-10,5,5
5.08705526116578,12,9,-3,-10.5,7.5,3
5.08921812479723,13,14,1,-13.5,6,7.5
5.09138098842868,13,12,-1,-12.5,7,5.5
5.09354385206013,12,10,-2,-11,7,4
5.09570671569158,12,13,1,-12.5,5.5,7
5.09786957932302,10,12,2,-11,4,7
5.10003244295447,10,9,-1,-9.5,5.5,4
5.10219530658592,10,7,-3,-8.5,6.5,2
5.10435817021737,13,13,0,-13,6.5,6.5
5.10652103384882,11,11,0,-11,5.5,5.5
5.10868389748026,11,10,-1,-10.5,6,4.5
5.11084676111171,11,12,1,-11.5,5,6.5
5.11300962474316,14,12,-2,-13,8,5
5.11517248837461,12,10,-2,-11,7,4
5.11733535200606,12,11,-1,-11.5,6.5,5
5.1194982156375,12,13,1,-12.5,5.5,7
5.12166107926895,10,12,2,-11,4,7
5.1238239429004,11,10,-1,-10.5,6,4.5
5.12598680653185,11,15,4,-13,3.5,9.5
5.1281496701633,11,12,1,-11.5,5,6.5
5.13031253379474,13,10,-3,-11.5,8,3.5
5.13247539742619,10,13,3,-11.5,3.5,8
5.13463826105764,12,14,2,-13,5,8
5.13680112468909,12,8,-4,-10,8,2
5.13896398832054,9,8,-1,-8.5,5,3.5
5.14112685195198,12,13,1,-12.5,5.5,7
5.14328971558343,11,14,3,-12.5,4,8.5
5.14545257921488,11,12,1,-11.5,5,6.5
5.14761544284633,12,13,1,-12.5,5.5,7
5.14977830647778,14,13,-1,-13.5,7.5,6
5.15194117010922,11,9,-2,-10,6.5,3.5
5.15410403374067,11,8,-3,-9.5,7,2.5
5.15626689737212,11,12,1,-11.5,5,6.5
5.15842976100357,10,8,-2,-9,6,3
5.16059262463502,8,8,0,-8,4,4
5.16275548826646,13,15,2,-14,5.5,8.5
5.16491835189791,12,16,4,-14,4,10
5.16708121552936,11,11,0,-11,5.5,5.5
5.16924407916081,12,11,-1,-11.5,6.5,5
5.17140694279226,11,16,5,-13.5,3,10.5
5.1735698064237,10,9,-1,-9.5,5.5,4
5.17573267005515,9,9,0,-9,4.5,4.5
5.1778955336866,11,14,3,-12.5,4,8.5
5.18005839731805,12,14,2,-13,5,8
5.1822212609495,9,9,0,-9,4.5,4.5
5.18438412458095,12,16,4,-14,4,10
5.18654698821239,13,15,2,-14,5.5,8.5
5.18870985184384,12,9,-3,-10.5,7.5,3
5.19087271547529,8,6,-2,-7,5,2
5.19303557910674,13,13,0,-13,6.5,6.5
5.19519844273819,10,8,-2,-9,6,3
5.19736130636963,9,9,0,-9,4.5,4.5
5.19952417000108,10,12,2,-11,4,7
5.20168703363253,13,13,0,-13,6.5,6.5
5.20384989726398,9,8,-1,-8.5,5,3.5
5.20601276089543,14,12,-2,-13,8,5
5.20817562452687,12,13,1,-12.5,5.5,7
5.21033848815832,9,5,-4,-7,6.5,0.5
5.21250135178977,9,6,-3,-7.5,6,1.5
5.21466421542122,11,13,2,-12,4.5,7.5
5.21682707905267,11,9,-2,-10,6.5,3.5
5.21898994268411,12,8,-4,-10,8,2
5.22115280631556,11,13,2,-12,4.5,7.5
5.22331566994701,10,13,3,-11.5,3.5,8
5.22547853357846,10,7,-3,-8.5,6.5,2
5.22764139720991,8,5,-3,-6.5,5.5,1
5.22980426084135,9,10,1,-9.5,4,5.5
5.2319671244728,9,6,-3,-7.5,6,1.5
5.23412998810425,9,9,0,-9,4.5,4.5
5.2362928517357,12,11,-1,-11.5,6.5,5
5.23845571536715,10,12,2,-11,4,7
5.24061857899859,9,8,-1,-8.5,5,3.5
5.24278144263004,12,9,-3,-10.5,7.5,3
5.24494430626149,11,10,-1,-10.5,6,4.5
5.24710716989294,9,8,-1,-8.5,5,3.5
5.24927003352439,9,5,-4,-7,6.5,0.5
5.25143289715583,9,10,1,-9.5,4,5.5
5.25359576078728,9,11,2,-10,3.5,6.5
5.25575862441873,9,8,-1,-8.5,5,3.5
5.25792148805018,13,9,-4,-11,8.5,2.5
5.26008435168163,9,12,3,-10.5,3,7.5
5.26224721531307,7,7,0,-7,3.5,3.5
5.26441007894452,9,8,-1,-8.5,5,3.5
5.26657294257597,8,11,3,-9.5,2.5,7
5.26873580620742,7,11,4,-9,1.5,7.5
5.27089866983887,8,7,-1,-7.5,4.5,3
5.27306153347031,11,14,3,-12.5,4,8.5
5.27522439710176,11,14,3,-12.5,4,8.5
5.27738726073321,9,7,-2,-8,5.5,2.5
5.27955012436466,9,8,-1,-8.5,5,3.5
5.28171298799611,12,11,-1,-11.5,6.5,5
5.28387585162755,11,7,-4,-9,7.5,1.5
5.286038715259,10,5,-5,-7.5,7.5,0
5.28820157889045,11,13,2,-12,4.5,7.5
5.2903644425219,13,14,1,-13.5,6,7.5
5.29252730615335,12,9,-3,-10.5,7.5,3
5.2946901697848,11,10,-1,-10.5,6,4.5
5.29685303341624,14,13,-1,-13.5,7.5,6
5.29901589704769,11,11,0,-11,5.5,5.5
5.30117876067914,10,8,-2,-9,6,3
5.30334162431059,11,11,0,-11,5.5,5.5
5.30550448794204,10,12,2,-11,4,7
5.30766735157348,10,9,-1,-9.5,5.5,4
5.30983021520493,13,14,1,-13.5,6,7.5
5.31199307883638,11,12,1,-11.5,5,6.5
5.31415594246783,12,11,-1,-11.5,6.5,5
5.31631880609928,14,11,-3,-12.5,8.5,4
5.31848166973072,14,19,5,-16.5,4.5,12
5.32064453336217,14,14,0,-14,7,7
5.32280739699362,15,11,-4,-13,9.5,3.5
5.32497026062507,16,20,4,-18,6,12
5.32713312425652,17,20,3,-18.5,7,11.5
5.32929598788796,16,16,0,-16,8,8
5.33145885151941,15,20,5,-17.5,5,12.5
5.33362171515086,15,20,5,-17.5,5,12.5
5.33578457878231,17,16,-1,-16.5,9,7.5
5.33794744241376,16,14,-2,-15,9,6
5.3401103060452,16,19,3,-17.5,6.5,11
5.34227316967665,16,20,4,-18,6,12
5.3444360333081,19,16,-3,-17.5,11,6.5
5.34659889693955,18,21,3,-19.5,7.5,12
5.348761760571,20,21,1,-20.5,9.5,11
5.35092462420244,16,15,-1,-15.5,8.5,7
5.35308748783389,19,18,-1,-18.5,10,8.5
5.35525035146534,17,19,2,-18,7.5,10.5
5.35741321509679,16,17,1,-16.5,7.5,9
5.35957607872824,17,15,-2,-16,9.5,6.5
5.36173894235968,19,21,2,-20,8.5,11.5
5.36390180599113,17,14,-3,-15.5,10,5.5
5.36606466962258,16,15,-1,-15.5,8.5,7
5.36822753325403,15,16,1,-15.5,7,8.5
5.37039039688548,16,20,4,-18,6,12
5.37255326051692,16,14,-2,-15,9,6
5.37471612414837,15,13,-2,-14,8.5,5.5
5.37687898777982,17,20,3,-18.5,7,11.5
5.37904185141127,18,21,3,-19.5,7.5,12
5.38120471504272,16,16,0,-16,8,8
5.38336757867416,18,18,0,-18,9,9
5.38553044230561,17,18,1,-17.5,8,9.5
5.38769330593706,17,16,-1,-16.5,9,7.5
5.38985616956851,17,14,-3,-15.5,10,5.5
5.39201903319996,18,18,0,-18,9,9
5.3941818968314,17,18,1,-17.5,8,9.5
5.39634476046285,17,15,-2,-16,9.5,6.5
5.3985076240943,18,21,3,-19.5,7.5,12
5.40067048772575,17,23,6,-20,5.5,14.5
5.4028333513572,16,17,1,-16.5,7.5,9
5.40499621498864,20,18,-2,-19,11,8
5.40715907862009,20,22,2,-21,9,12
5.40932194225154,18,17,-1,-17.5,9.5,8
5.41148480588299,17,13,-4,-15,10.5,4.5
5.41364766951444,17,20,3,-18.5,7,11.5
5.41581053314589,18,22,4,-20,7,13
5.41797339677733,20,16,-4,-18,12,6
5.42013626040878,18,19,1,-18.5,8.5,10
5.42229912404023,20,21,1,-20.5,9.5,11
5.42446198767168,19,17,-2,-18,10.5,7.5
5.42662485130313,16,17,1,-16.5,7.5,9
5.42878771493457,20,19,-1,-19.5,10.5,9
5.43095057856602,20,20,0,-20,10,10
5.43311344219747,20,15,-5,-17.5,12.5,5
5.43527630582892,21,21,0,-21,10.5,10.5
5.43743916946037,20,22,2,-21,9,12
5.43960203309181,18,18,0,-18,9,9
5.44176489672326,17,18,1,-17.5,8,9.5
5.44392776035471,19,20,1,-19.5,9,10.5
5.44609062398616,17,15,-2,-16,9.5,6.5
5.44825348761761,18,13,-5,-15.5,11.5,4
5.45041635124905,19,21,2,-20,8.5,11.5
5.4525792148805,18,21,3,-19.5,7.5,12
5.45474207851195,17,17,0,-17,8.5,8.5
5.4569049421434,16,20,4,-18,6,12
5.45906780577485,20,23,3,-21.5,8.5,13
5.46123066940629,18,18,0,-18,9,9
5.46339353303774,18,16,-2,-17,10,7
5.46555639666919,18,19,1,-18.5,8.5,10
5.46771926030064,21,22,1,-21.5,10,11.5
5.46988212393209,18,19,1,-18.5,8.5,10
5.47204498756353,19,21,2,-20,8.5,11.5
5.47420785119498,23,25,2,-24,10.5,13.5
5.47637071482643,25,21,-4,-23,14.5,8.5
5.47853357845788,26,21,-5,-23.5,15.5,8
5.48069644208933,29,32,3,-30.5,13,17.5
5.48285930572077,31,28,-3,-29.5,17,12.5
5.48502216935222,34,30,-4,-32,19,13
5.48718503298367,37,37,0,-37,18.5,18.5
5.48934789661512,34,36,2,-35,16,19
5.49151076024657,28,30,2,-29,13,16
5.49367362387801,26,31,5,-28.5,10.5,18
5.49583648750946,23,27,4,-25,9.5,15.5
5.49799935114091,19,16,-3,-17.5,11,6.5
5.50016221477236,18,15,-3,-16.5,10.5,6
5.50232507840381,17,17,0,-17,8.5,8.5
5.50448794203525,17,19,2,-18,7.5,10.5
5.5066508056667,18,16,-2,-17,10,7
5.50881366929815,15,18,3,-16.5,6,10.5
5.5109765329296,16,19,3,-17.5,6.5,11
5.51313939656105,16,13,-3,-14.5,9.5,5
5.51530226019249,15,13,-2,-14,8.5,5.5
5.51746512382394,15,20,5,-17.5,5,12.5
5.51962798745539,19,18,-1,-18.5,10,8.5
5.52179085108684,16,17,1,-16.5,7.5,9
5.52395371471829,17,20,3,-18.5,7,11.5
5.52611657834973,20,21,1,-20.5,9.5,11
5.52827944198118,18,17,-1,-17.5,9.5,8
5.53044230561263,18,18,0,-18,9,9
5.53260516924408,16,18,2,-17,7,10
5.53476803287553,17,15,-2,-16,9.5,6.5
5.53693089650698,17,14,-3,-15.5,10,5.5
5.53909376013842,19,19,0,-19,9.5,9.5
5.54125662376987,18,18,0,-18,9,9
5.54341948740132,18,18,0,-18,9,9
5.54558235103277,19,20,1,-19.5,9,10.5
5.54774521466422,19,20,1,-19.5,9,10.5
5.54990807829566,19,14,-5,-16.5,12,4.5
5.55207094192711,16,14,-2,-15,9,6
5.55423380555856,18,18,0,-18,9,9
5.55639666919001,18,22,4,-20,7,13
5.55855953282146,16,15,-1,-15.5,8.5,7
5.5607223964529,18,19,1,-18.5,8.5,10
5.56288526008435,18,19,1,-18.5,8.5,10
5.5650481237158,17,16,-1,-16.5,9,7.5
5.56721098734725,19,15,-4,-17,11.5,5.5
5.5693738509787,18,20,2,-19,8,11
5.57153671461014,16,15,-1,-15.5,8.5,7
5.57369957824159,16,14,-2,-15,9,6
5.57586244187304,15,20,5,-17.5,5,12.5
5.57802530550449,18,22,4,-20,7,13
5.58018816913594,17,15,-2,-16,9.5,6.5
5.58235103276738,20,22,2,-21,9,12
5.58451389639883,17,22,5,-19.5,6,13.5
5.58667676003028,18,17,-1,-17.5,9.5,8
5.58883962366173,18,13,-5,-15.5,11.5,4
5.59100248729318,18,19,1,-18.5,8.5,10
5.59316535092462,15,19,4,-17,5.5,11.5
5.59532821455607,15,17,2,-16,6.5,9.5
5.59749107818752,16,20,4,-18,6,12
5.59965394181897,17,22,5,-19.5,6,13.5
5.60181680545042,18,16,-2,-17,10,7
5.60397966908186,16,16,0,-16,8,8
5.60614253271331,17,20,3,-18.5,7,11.5
5.60830539634476,17,17,0,-17,8.5,8.5
5.61046825997621,17,19,2,-18,7.5,10.5
5.61263112360766,17,20,3,-18.5,7,11.5
5.6147939872391,18,20,2,-19,8,11
5.61695685087055,19,19,0,-19,9.5,9.5
5.619119714502,20,19,-1,-19.5,10.5,9
5.62128257813345,19,23,4,-21,7.5,13.5
5.6234454417649,18,19,1,-18.5,8.5,10
5.62560830539634,18,17,-1,-17.5,9.5,8
5.62777116902779,22,24,2,-23,10,13
5.62993403265924,18,22,4,-20,7,13
5.63209689629069,20,18,-2,-19,11,8
5.63425975992214,23,25,2,-24,10.5,13.5
5.63642262355358,22,25,3,-23.5,9.5,14
5.63858548718503,20,18,-2,-19,11,8
5.64074835081648,19,19,0,-19,9.5,9.5
5.64291121444793,19,24,5,-21.5,7,14.5
5.64507407807938,23,19,-4,-21,13.5,7.5
5.64723694171083,18,18,0,-18,9,9
5.64939980534227,23,21,-2,-22,12.5,9.5
5.65156266897372,21,23,2,-22,9.5,12.5
5.65372553260517,20,18,-2,-19,11,8
5.65588839623662,20,17,-3,-18.5,11.5,7
5.65805125986807,20,22,2,-21,9,12
5.66021412349951,21,16,-5,-18.5,13,5.5
5.66237698713096,18,15,-3,-16.5,10.5,6
5.66453985076241,18,22,4,-20,7,13
5.66670271439386,21,20,-1,-20.5,11,9.5
5.66886557802531,18,19,1,-18.5,8.5,10
5.67102844165675,19,18,-1,-18.5,10,8.5
5.6731913052882,21,21,0,-21,10.5,10.5
5.67535416891965,17,18,1,-17.5,8,9.5
5.6775170325511,17,16,-1,-16.5,9,7.5
5.67967989618255,19,19,0,-19,9.5,9.5
5.68184275981399,16,17,1,-16.5,7.5,9
5.68400562344544,15,12,-3,-13.5,9,4.5
5.68616848707689,15,15,0,-15,7.5,7.5
5.68833135070834,17,17,0,-17,8.5,8.5
5.69049421433979,15,13,-2,-14,8.5,5.5
5.69265707797123,14,11,-3,-12.5,8.5,4
5.69481994160268,14,15,1,-14.5,6.5,8
5.69698280523413,13,14,1,-13.5,6,7.5
5.69914566886558,14,13,-1,-13.5,7.5,6
5.70130853249703,12,18,6,-15,3,12
5.70347139612847,16,18,2,-17,7,10
5.70563425975992,15,10,-5,-12.5,10,2.5
5.70779712339137,13,16,3,-14.5,5,9.5
5.70995998702282,13,17,4,-15,4.5,10.5
5.71212285065427,13,13,0,-13,6.5,6.5
5.71428571428571,12,11,-1,-11.5,6.5,5
5.71644857791716,13,16,3,-14.5,5,9.5
5.71861144154861,14,17,3,-15.5,5.5,10
5.72077430518006,14,12,-2,-13,8,5
5.72293716881151,18,18,0,-18,9,9
5.72510003244295,15,17,2,-16,6.5,9.5
5.7272628960744,13,12,-1,-12.5,7,5.5
5.72942575970585,16,11,-5,-13.5,10.5,3
5.7315886233373,13,15,2,-14,5.5,8.5
5.73375148696875,15,12,-3,-13.5,9,4.5
5.73591435060019,13,10,-3,-11.5,8,3.5
5.73807721423164,13,15,2,-14,5.5,8.5
5.74024007786309,14,15,1,-14.5,6.5,8
5.74240294149454,13,14,1,-13.5,6,7.5
5.74456580512599,13,10,-3,-11.5,8,3.5
5.74672866875743,13,14,1,-13.5,6,7.5
5.74889153238888,14,13,-1,-13.5,7.5,6
5.75105439602033,12,9,-3,-10.5,7.5,3
5.75321725965178,14,15,1,-14.5,6.5,8
5.75538012328323,15,16,1,-15.5,7,8.5
5.75754298691467,13,12,-1,-12.5,7,5.5
5.75970585054612,13,14,1,-13.5,6,7.5
5.76186871417757,13,18,5,-15.5,4,11.5
5.76403157780902,13,10,-3,-11.5,8,3.5
5.76619444144047,14,13,-1,-13.5,7.5,6
5.76835730507192,16,14,-2,-15,9,6
5.77052016870336,11,11,0,-11,5.5,5.5
5.77268303233481,10,9,-1,-9.5,5.5,4
5.77484589596626,14,14,0,-14,7,7
5.77700875959771,16,16,0,-16,8,8
5.77917162322916,11,13,2,-12,4.5,7.5
5.7813344868606,10,10,0,-10,5,5
5.78349735049205,13,15,2,-14,5.5,8.5
5.7856602141235,12,11,-1,-11.5,6.5,5
5.78782307775495,10,9,-1,-9.5,5.5,4
5.7899859413864,12,16,4,-14,4,10
5.79214880501784,12,16,4,-14,4,10
5.79431166864929,13,10,-3,-11.5,8,3.5
5.79647453228074,12,14,2,-13,5,8
5.79863739591219,13,16,3,-14.5,5,9.5
5.80080025954364,13,11,-2,-12,7.5,4.5
5.80296312317508,11,11,0,-11,5.5,5.5
5.80512598680653,13,14,1,-13.5,6,7.5
5.80728885043798,13,14,1,-13.5,6,7.5
5.80945171406943,10,11,1,-10.5,4.5,6
5.81161457770088,13,14,1,-13.5,6,7.5
5.81377744133232,13,17,4,-15,4.5,10.5
5.81594030496377,13,9,-4,-11,8.5,2.5
5.81810316859522,12,9,-3,-10.5,7.5,3
5.82026603222667,14,14,0,-14,7,7
5.82242889585812,9,11,2,-10,3.5,6.5
5.82459175948956,11,9,-2,-10,6.5,3.5
5.82675462312101,12,15,3,-13.5,4.5,9
5.82891748675246,13,15,2,-14,5.5,8.5
5.83108035038391,11,14,3,-12.5,4,8.5
5.83324321401536,10,13,3,-11.5,3.5,8
5.8354060776468,12,14,2,-13,5,8
5.83756894127825,11,12,1,-11.5,5,6.5
5.8397318049097,11,13,2,-12,4.5,7.5
5.84189466854115,12,16,4,-14,4,10
5.8440575321726,14,13,-1,-13.5,7.5,6
5.84622039580404,11,10,-1,-10.5,6,4.5
5.84838325943549,15,15,0,-15,7.5,7.5
5.85054612306694,15,18,3,-16.5,6,10.5
5.85270898669839,14,10,-4,-12,9,3
5.85487185032984,12,9,-3,-10.5,7.5,3
5.85703471396128,16,15,-1,-15.5,8.5,7
5.85919757759273,13,11,-2,-12,7.5,4.5
5.86136044122418,16,26,10,-21,3,18
5.86352330485563,21,29,8,-25,6.5,18.5
5.86568616848708,23,34,11,-28.5,6,22.5
5.86784903211852,26,30,4,-28,11,17
5.87001189574997,28,32,4,-30,12,18
5.87217475938142,28,32,4,-30,12,18
5.87433762301287,28,29,1,-28.5,13.5,15
5.87650048664432,29,27,-2,-28,15.5,12.5
5.87866335027577,28,31,3,-29.5,12.5,17
5.88082621390721,30,31,1,-30.5,14.5,16
5.88298907753866,29,28,-1,-28.5,15,13.5
5.88515194117011,27,29,2,-28,12.5,15.5
5.88731480480156,30,31,1,-30.5,14.5,16
5.88947766843301,30,27,-3,-28.5,16.5,12
5.89164053206445,29,27,-2,-28,15.5,12.5
5.8938033956959,30,31,1,-30.5,14.5,16
5.89596625932735,30,28,-2,-29,16,13
5.8981291229588,27,28,1,-27.5,13,14.5
5.90029198659025,29,32,3,-30.5,13,17.5
5.90245485022169,30,31,1,-30.5,14.5,16
5.90461771385314,29,28,-1,-28.5,15,13.5
5.90678057748459,30,31,1,-30.5,14.5,16
5.90894344111604,31,32,1,-31.5,15,16.5
5.91110630474749,28,30,2,-29,13,16
5.91326916837893,27,25,-2,-26,14.5,11.5
5.91543203201038,28,32,4,-30,12,18
5.91759489564183,32,30,-2,-31,17,14
5.91975775927328,27,27,0,-27,13.5,13.5
5.92192062290473,28,32,4,-30,12,18
5.92408348653617,28,32,4,-30,12,18
5.92624635016762,28,28,0,-28,14,14
5.92840921379907,29,23,-6,-26,17.5,8.5
5.93057207743052,30,30,0,-30,15,15
5.93273494106197,30,32,2,-31,14,17
5.93489780469341,26,28,2,-27,12,15
5.93706066832486,30,30,0,-30,15,15
5.93922353195631,30,33,3,-31.5,13.5,18
5.94138639558776,29,27,-2,-28,15.5,12.5
5.94354925921921,28,28,0,-28,14,14
5.94571212285065,30,32,2,-31,14,17
5.9478749864821,29,27,-2,-28,15.5,12.5
5.95003785011355,27,28,1,-27.5,13,14.5
5.952200713745,30,30,0,-30,15,15
5.95436357737645,28,30,2,-29,13,16
5.95652644100789,27,27,0,-27,13.5,13.5
5.95868930463934,30,33,3,-31.5,13.5,18
5.96085216827079,31,33,2,-32,14.5,17.5
5.96301503190224,31,30,-1,-30.5,16,14.5
5.96517789553369,28,27,-1,-27.5,14.5,13
5.96734075916513,29,30,1,-29.5,14,15.5
5.96950362279658,30,30,0,-30,15,15
5.97166648642803,27,26,-1,-26.5,14,12.5
5.97382935005948,28,32,4,-30,12,18
5.97599221369093,30,31,1,-30.5,14.5,16
5.97815507732237,27,28,1,-27.5,13,14.5
5.98031794095382,29,30,1,-29.5,14,15.5
5.98248080458527,30,32,2,-31,14,17
5.98464366821672,29,29,0,-29,14.5,14.5
5.98680653184817,29,25,-4,-27,16.5,10.5
5.98896939547961,28,29,1,-28.5,13.5,15
5.99113225911106,30,32,2,-31,14,17
5.99329512274251,29,26,-3,-27.5,16,11.5
5.99545798637396,28,29,1,-28.5,13.5,15
5.99762085000541,31,34,3,-32.5,14,18.5
5.99978371363686,27,28,1,-27.5,13,14.5
6.0019465772683,26,27,1,-26.5,12.5,14
6.00410944089975,29,31,2,-30,13.5,16.5
6.0062723045312,28,30,2,-29,13,16
6.00843516816265,29,27,-2,-28,15.5,12.5
6.0105980317941,29,30,1,-29.5,14,15.5
6.01276089542554,32,30,-2,-31,17,14
6.01492375905699,31,28,-3,-29.5,17,12.5
6.01708662268844,28,27,-1,-27.5,14.5,13
6.01924948631989,29,32,3,-30.5,13,17.5
6.02141234995134,29,32,3,-30.5,13,17.5
6.02357521358278,29,25,-4,-27,16.5,10.5
6.02573807721423,29,29,0,-29,14.5,14.5
6.02790094084568,32,34,2,-33,15,18
6.03006380447713,27,29,2,-28,12.5,15.5
6.03222666810858,28,30,2,-29,13,16
6.03438953174002,30,34,4,-32,13,19
6.03655239537147,28,27,-1,-27.5,14.5,13
6.03871525900292,29,28,-1,-28.5,15,13.5
6.04087812263437,31,29,-2,-30,16.5,13.5
6.04304098626582,30,29,-1,-29.5,15.5,14
6.04520384989726,28,27,-1,-27.5,14.5,13
6.04736671352871,32,32,0,-32,16,16
6.04952957716016,33,34,1,-33.5,16,17.5
6.05169244079161,31,32,1,-31.5,15,16.5
6.05385530442306,29,30,1,-29.5,14,15.5
6.0560181680545,29,33,4,-31,12.5,18.5
6.05818103168595,29,29,0,-29,14.5,14.5
6.0603438953174,29,27,-2,-28,15.5,12.5
6.06250675894885,29,30,1,-29.5,14,15.5
6.0646696225803,30,33,3,-31.5,13.5,18
6.06683248621174,27,30,3,-28.5,12,16.5
6.06899534984319,28,28,0,-28,14,14
6.07115821347464,28,34,6,-31,11,20
6.07332107710609,29,31,2,-30,13.5,16.5
6.07548394073754,29,27,-2,-28,15.5,12.5
6.07764680436898,28,32,4,-30,12,18
6.07980966800043,30,31,1,-30.5,14.5,16
6.08197253163188,29,28,-1,-28.5,15,13.5
6.08413539526333,28,29,1,-28.5,13.5,15
6.08629825889478,30,32,2,-31,14,17
6.08846112252622,30,30,0,-30,15,15
6.09062398615767,29,27,-2,-28,15.5,12.5
6.09278684978912,29,29,0,-29,14.5,14.5
6.09494971342057,28,28,0,-28,14,14
6.09711257705202,28,25,-3,-26.5,15.5,11
6.09927544068346,30,31,1,-30.5,14.5,16
6.10143830431491,32,34,2,-33,15,18
6.10360116794636,30,29,-1,-29.5,15.5,14
6.10576403157781,27,27,0,-27,13.5,13.5
6.10792689520926,30,31,1,-30.5,14.5,16
6.1100897588407,29,28,-1,-28.5,15,13.5
6.11225262247215,29,26,-3,-27.5,16,11.5
6.1144154861036,29,32,3,-30.5,13,17.5
6.11657834973505,29,33,4,-31,12.5,18.5
6.1187412133665,29,28,-1,-28.5,15,13.5
6.12090407699795,28,27,-1,-27.5,14.5,13
6.12306694062939,30,34,4,-32,13,19
6.12522980426084,29,26,-3,-27.5,16,11.5
6.12739266789229,27,26,-1,-26.5,14,12.5
6.12955553152374,29,30,1,-29.5,14,15.5
6.13171839515519,29,32,3,-30.5,13,17.5
6.13388125878663,28,27,-1,-27.5,14.5,13
6.13604412241808,31,29,-2,-30,16.5,13.5
6.13820698604953,29,34,5,-31.5,12,19.5
6.14036984968098,29,27,-2,-28,15.5,12.5
6.14253271331243,30,26,-4,-28,17,11
6.14469557694387,29,28,-1,-28.5,15,13.5
6.14685844057532,28,26,-2,-27,15,12
6.14902130420677,27,26,-1,-26.5,14,12.5
6.15118416783822,27,32,5,-29.5,11,18.5
6.15334703146967,28,33,5,-30.5,11.5,19
6.15550989510111,30,29,-1,-29.5,15.5,14
6.15767275873256,29,29,0,-29,14.5,14.5
6.15983562236401,29,33,4,-31,12.5,18.5
6.16199848599546,28,30,2,-29,13,16
6.16416134962691,30,29,-1,-29.5,15.5,14
6.16632421325835,30,31,1,-30.5,14.5,16
6.1684870768898,30,31,1,-30.5,14.5,16
6.17064994052125,28,30,2,-29,13,16
6.1728128041527,29,29,0,-29,14.5,14.5
6.17497566778415,29,34,5,-31.5,12,19.5
6.17713853141559,30,28,-2,-29,16,13
6.17930139504704,29,27,-2,-28,15.5,12.5
6.18146425867849,31,30,-1,-30.5,16,14.5
6.18362712230994,29,27,-2,-28,15.5,12.5
6.18578998594139,27,25,-2,-26,14.5,11.5
6.18795284957283,30,30,0,-30,15,15
6.19011571320428,30,31,1,-30.5,14.5,16
6.19227857683573,27,26,-1,-26.5,14,12.5
6.19444144046718,27,25,-2,-26,14.5,11.5
6.19660430409863,30,31,1,-30.5,14.5,16
6.19876716773007,30,25,-5,-27.5,17.5,10
6.20093003136152,27,25,-2,-26,14.5,11.5
6.20309289499297,29,30,1,-29.5,14,15.5
6.20525575862442,30,30,0,-30,15,15
6.20741862225587,27,27,0,-27,13.5,13.5
6.20958148588731,26,27,1,-26.5,12.5,14
6.21174434951876,30,30,0,-30,15,15
6.21390721315021,27,27,0,-27,13.5,13.5
6.21607007678166,27,26,-1,-26.5,14,12.5
6.21823294041311,26,27,1,-26.5,12.5,14
6.22039580404455,25,30,5,-27.5,10,17.5
6.222558667676,25,27,2,-26,11.5,14.5
6.22472153130745,26,30,4,-28,11,17
6.2268843949389,29,32,3,-30.5,13,17.5
6.22904725857035,29,27,-2,-28,15.5,12.5
6.2312101222018,28,30,2,-29,13,16
6.23337298583324,30,31,1,-30.5,14.5,16
6.23553584946469,28,28,0,-28,14,14
6.23769871309614,31,27,-4,-29,17.5,11.5
6.23986157672759,31,30,-1,-30.5,16,14.5
6.24202444035904,34,35,1,-34.5,16.5,18
6.24418730399048,33,31,-2,-32,17.5,14.5
6.24635016762193,32,32,0,-32,16,16
6.24851303125338,36,37,1,-36.5,17.5,19
6.25067589488483,35,32,-3,-33.5,19,14.5
6.25283875851628,33,32,-1,-32.5,17,15.5
6.25500162214772,33,33,0,-33,16.5,16.5
6.25716448577917,31,32,1,-31.5,15,16.5
6.25932734941062,27,28,1,-27.5,13,14.5
6.26149021304207,29,28,-1,-28.5,15,13.5
6.26365307667352,28,33,5,-30.5,11.5,19
6.26581594030496,27,26,-1,-26.5,14,12.5
6.26797880393641,26,26,0,-26,13,13
6.27014166756786,26,26,0,-26,13,13
6.27230453119931,27,29,2,-28,12.5,15.5
6.27446739483076,25,24,-1,-24.5,13,11.5
6.2766302584622,28,26,-2,-27,15,12
6.27879312209365,28,29,1,-28.5,13.5,15
6.2809559857251,28,27,-1,-27.5,14.5,13
6.28311884935655,28,32,4,-30,12,18
6.285281712988,28,31,3,-29.5,12.5,17
6.28744457661944,26,27,1,-26.5,12.5,14
6.28960744025089,24,25,1,-24.5,11.5,13
6.29177030388234,26,30,4,-28,11,17
6.29393316751379,28,31,3,-29.5,12.5,17
6.29609603114524,26,25,-1,-25.5,13.5,12
6.29825889477668,27,26,-1,-26.5,14,12.5
6.30042175840813,28,31,3,-29.5,12.5,17
6.30258462203958,25,28,3,-26.5,11,15.5
6.30474748567103,25,25,0,-25,12.5,12.5
6.30691034930248,28,28,0,-28,14,14
6.30907321293392,27,29,2,-28,12.5,15.5
6.31123607656537,26,26,0,-26,13,13
6.31339894019682,27,30,3,-28.5,12,16.5
6.31556180382827,28,32,4,-30,12,18
6.31772466745972,28,26,-2,-27,15,12
6.31988753109116,28,29,1,-28.5,13.5,15
6.32205039472261,28,30,2,-29,13,16
6.32421325835406,28,28,0,-28,14,14
6.32637612198551,28,25,-3,-26.5,15.5,11
6.32853898561696,29,31,2,-30,13.5,16.5
6.3307018492484,27,29,2,-28,12.5,15.5
6.33286471287985,26,29,3,-27.5,11.5,16
6.3350275765113,27,28,1,-27.5,13,14.5
6.33719044014275,28,31,3,-29.5,12.5,17
6.3393533037742,27,26,-1,-26.5,14,12.5
6.34151616740564,27,24,-3,-25.5,15,10.5
6.34367903103709,30,29,-1,-29.5,15.5,14
6.34584189466854,28,30,2,-29,13,16
6.34800475829999,26,24,-2,-25,14,11
6.35016762193144,27,29,2,-28,12.5,15.5
6.35233048556289,32,32,0,-32,16,16
6.35449334919433,30,29,-1,-29.5,15.5,14
6.35665621282578,27,26,-1,-26.5,14,12.5
6.35881907645723,29,31,2,-30,13.5,16.5
6.36098194008868,29,27,-2,-28,15.5,12.5
6.36314480372013,29,27,-2,-28,15.5,12.5
6.36530766735157,30,29,-1,-29.5,15.5,14
6.36747053098302,28,30,2,-29,13,16
6.36963339461447,29,28,-1,-28.5,15,13.5
6.37179625824592,27,29,2,-28,12.5,15.5
6.37395912187737,29,30,1,-29.5,14,15.5
6.37612198550881,27,29,2,-28,12.5,15.5
6.37828484914026,28,26,-2,-27,15,12
6.38044771277171,27,29,2,-28,12.5,15.5
6.38261057640316,27,30,3,-28.5,12,16.5
6.38477344003461,26,26,0,-26,13,13
6.38693630366605,24,30,6,-27,9,18
6.3890991672975,27,31,4,-29,11.5,17.5
6.39126203092895,26,26,0,-26,13,13
6.3934248945604,25,28,3,-26.5,11,15.5
6.39558775819185,28,31,3,-29.5,12.5,17
6.39775062182329,30,30,0,-30,15,15
6.39991348545474,26,25,-1,-25.5,13.5,12
6.40207634908619,25,29,4,-27,10.5,16.5
6.40423921271764,30,30,0,-30,15,15
6.40640207634909,26,28,2,-27,12,15
6.40856493998053,26,26,0,-26,13,13
6.41072780361198,30,29,-1,-29.5,15.5,14
6.41289066724343,29,27,-2,-28,15.5,12.5
6.41505353087488,28,26,-2,-27,15,12
6.41721639450633,26,29,3,-27.5,11.5,16
6.41937925813777,26,30,4,-28,11,17
6.42154212176922,28,26,-2,-27,15,12
6.42370498540067,31,31,0,-31,15.5,15.5
6.42586784903212,29,31,2,-30,13.5,16.5
6.42803071266357,28,27,-1,-27.5,14.5,13
6.43019357629501,27,25,-2,-26,14.5,11.5
6.43235643992646,29,31,2,-30,13.5,16.5
6.43451930355791,27,29,2,-28,12.5,15.5
6.43668216718936,26,23,-3,-24.5,14.5,10
6.43884503082081,25,29,4,-27,10.5,16.5
6.44100789445225,29,30,1,-29.5,14,15.5
6.4431707580837,28,27,-1,-27.5,14.5,13
6.44533362171515,27,26,-1,-26.5,14,12.5
6.4474964853466,28,30,2,-29,13,16
6.44965934897805,27,30,3,-28.5,12,16.5
6.45182221260949,25,23,-2,-24,13.5,10.5
6.45398507624094,26,30,4,-28,11,17
6.45614793987239,27,30,3,-28.5,12,16.5
6.45831080350384,27,25,-2,-26,14.5,11.5
6.46047366713529,27,32,5,-29.5,11,18.5
6.46263653076674,27,31,4,-29,11.5,17.5
6.46479939439818,26,27,1,-26.5,12.5,14
6.46696225802963,28,26,-2,-27,15,12
6.46912512166108,28,28,0,-28,14,14
6.47128798529253,29,29,0,-29,14.5,14.5
6.47345084892398,27,24,-3,-25.5,15,10.5
6.47561371255542,25,28,3,-26.5,11,15.5
6.47777657618687,28,32,4,-30,12,18
6.47993943981832,28,27,-1,-27.5,14.5,13
6.48210230344977,25,28,3,-26.5,11,15.5
6.48426516708122,30,32,2,-31,14,17
6.48642803071266,29,29,0,-29,14.5,14.5
6.48859089434411,30,26,-4,-28,17,11
6.49075375797556,29,27,-2,-28,15.5,12.5
6.49291662160701,29,30,1,-29.5,14,15.5
6.49507948523846,28,29,1,-28.5,13.5,15
6.4972423488699,28,26,-2,-27,15,12
6.49940521250135,28,31,3,-29.5,12.5,17
6.5015680761328,28,28,0,-28,14,14
6.50373093976425,29,27,-2,-28,15.5,12.5
6.5058938033957,31,29,-2,-30,16.5,13.5
6.50805666702714,26,26,0,-26,13,13
6.51021953065859,26,26,0,-26,13,13
6.51238239429004,29,33,4,-31,12.5,18.5
6.51454525792149,29,29,0,-29,14.5,14.5
6.51670812155294,30,24,-6,-27,18,9
6.51887098518438,26,24,-2,-25,14,11
6.52103384881583,27,31,4,-29,11.5,17.5
6.52319671244728,28,27,-1,-27.5,14.5,13
6.52535957607873,25,26,1,-25.5,12,13.5
6.52752243971018,28,25,-3,-26.5,15.5,11
6.52968530334162,27,29,2,-28,12.5,15.5
6.53184816697307,25,23,-2,-24,13.5,10.5
6.53401103060452,26,25,-1,-25.5,13.5,12
6.53617389423597,26,31,5,-28.5,10.5,18
6.53833675786742,27,25,-2,-26,14.5,11.5
6.54049962149886,25,24,-1,-24.5,13,11.5
6.54266248513031,23,27,4,-25,9.5,15.5
6.54482534876176,28,28,0,-28,14,14
6.54698821239321,26,26,0,-26,13,13
6.54915107602466,25,24,-1,-24.5,13,11.5
6.5513139396561,26,30,4,-28,11,17
6.55347680328755,26,24,-2,-25,14,11
6.555639666919,26,24,-2,-25,14,11
6.55780253055045,27,29,2,-28,12.5,15.5
6.5599653941819,25,24,-1,-24.5,13,11.5
6.56212825781334,24,23,-1,-23.5,12.5,11
6.56429112144479,25,28,3,-26.5,11,15.5
6.56645398507624,28,30,2,-29,13,16
6.56861684870769,26,25,-1,-25.5,13.5,12
6.57077971233914,26,22,-4,-24,15,9
6.57294257597058,27,28,1,-27.5,13,14.5
6.57510543960203,27,27,0,-27,13.5,13.5
6.57726830323348,25,22,-3,-23.5,14,9.5
6.57943116686493,25,28,3,-26.5,11,15.5
6.58159403049638,27,26,-1,-26.5,14,12.5
6.58375689412783,25,25,0,-25,12.5,12.5
6.58591975775927,25,26,1,-25.5,12,13.5
6.58808262139072,30,30,0,-30,15,15
6.59024548502217,25,25,0,-25,12.5,12.5
6.59240834865362,25,26,1,-25.5,12,13.5
6.59457121228507,26,28,2,-27,12,15
6.59673407591651,25,30,5,-27.5,10,17.5
6.59889693954796,24,24,0,-24,12,12
6.60105980317941,25,29,4,-27,10.5,16.5
6.60322266681086,25,29,4,-27,10.5,16.5
6.60538553044231,25,25,0,-25,12.5,12.5
6.60754839407375,26,25,-1,-25.5,13.5,12
6.6097112577052,28,29,1,-28.5,13.5,15
6.61187412133665,27,26,-1,-26.5,14,12.5
6.6140369849681,26,25,-1,-25.5,13.5,12
6.61619984859955,26,28,2,-27,12,15
6.61836271223099,28,30,2,-29,13,16
6.62052557586244,26,23,-3,-24.5,14.5,10
6.62268843949389,25,24,-1,-24.5,13,11.5
6.62485130312534,26,32,6,-29,10,19
6.62701416675679,27,25,-2,-26,14.5,11.5
6.62917703038823,25,24,-1,-24.5,13,11.5
6.63133989401968,25,29,4,-27,10.5,16.5
6.63350275765113,25,29,4,-27,10.5,16.5
6.63566562128258,24,25,1,-24.5,11.5,13
6.63782848491403,24,28,4,-26,10,16
6.63999134854547,25,30,5,-27.5,10,17.5
6.64215421217692,26,26,0,-26,13,13
6.64431707580837,27,24,-3,-25.5,15,10.5
6.64647993943982,28,30,2,-29,13,16
6.64864280307127,24,23,-1,-23.5,12.5,11
6.65080566670271,26,23,-3,-24.5,14.5,10
6.65296853033416,27,28,1,-27.5,13,14.5
6.65513139396561,27,28,1,-27.5,13,14.5
6.65729425759706,27,26,-1,-26.5,14,12.5
6.65945712122851,25,25,0,-25,12.5,12.5
6.66161998485995,27,28,1,-27.5,13,14.5
6.6637828484914,27,25,-2,-26,14.5,11.5
6.66594571212285,26,25,-1,-25.5,13.5,12
6.6681085757543,27,28,1,-27.5,13,14.5
6.67027143938575,27,26,-1,-26.5,14,12.5
6.67243430301719,26,24,-2,-25,14,11
6.67459716664864,25,26,1,-25.5,12,13.5
6.67676003028009,28,29,1,-28.5,13.5,15
6.67892289391154,26,25,-1,-25.5,13.5,12
6.68108575754299,26,25,-1,-25.5,13.5,12
6.68324862117443,25,28,3,-26.5,11,15.5
6.68541148480588,25,29,4,-27,10.5,16.5
6.68757434843733,25,23,-2,-24,13.5,10.5
6.68973721206878,27,29,2,-28,12.5,15.5
6.69190007570023,27,29,2,-28,12.5,15.5
6.69406293933167,27,25,-2,-26,14.5,11.5
6.69622580296312,28,27,-1,-27.5,14.5,13
6.69838866659457,28,30,2,-29,13,16
6.70055153022602,25,26,1,-25.5,12,13.5
6.70271439385747,24,24,0,-24,12,12
6.70487725748892,25,27,2,-26,11.5,14.5
6.70704012112036,27,29,2,-28,12.5,15.5
6.70920298475181,27,25,-2,-26,14.5,11.5
6.71136584838326,26,25,-1,-25.5,13.5,12
6.71352871201471,26,32,6,-29,10,19
6.71569157564616,26,27,1,-26.5,12.5,14
6.7178544392776,26,25,-1,-25.5,13.5,12
6.72001730290905,27,28,1,-27.5,13,14.5
6.7221801665405,26,28,2,-27,12,15
6.72434303017195,27,25,-2,-26,14.5,11.5
6.7265058938034,28,27,-1,-27.5,14.5,13
6.72866875743484,26,29,3,-27.5,11.5,16
6.73083162106629,27,26,-1,-26.5,14,12.5
6.73299448469774,27,23,-4,-25,15.5,9.5
6.73515734832919,29,29,0,-29,14.5,14.5
6.73732021196064,26,27,1,-26.5,12.5,14
6.73948307559208,27,24,-3,-25.5,15,10.5
6.74164593922353,28,28,0,-28,14,14
6.74380880285498,28,29,1,-28.5,13.5,15
6.74597166648643,26,26,0,-26,13,13
6.74813453011788,27,26,-1,-26.5,14,12.5
6.75029739374932,29,27,-2,-28,15.5,12.5
6.75246025738077,27,25,-2,-26,14.5,11.5
6.75462312101222,26,23,-3,-24.5,14.5,10
6.75678598464367,26,29,3,-27.5,11.5,16
6.75894884827512,25,28,3,-26.5,11,15.5
6.76111171190656,23,24,1,-23.5,11,12.5
6.76327457553801,24,26,2,-25,11,14
6.76543743916946,26,30,4,-28,11,17
6.76760030280091,26,28,2,-27,12,15
6.76976316643236,26,26,0,-26,13,13
6.7719260300638,27,29,2,-28,12.5,15.5
6.77408889369525,27,25,-2,-26,14.5,11.5
6.7762517573267,24,23,-1,-23.5,12.5,11
6.77841462095815,25,28,3,-26.5,11,15.5
6.7805774845896,24,27,3,-25.5,10.5,15
6.78274034822104,25,23,-2,-24,13.5,10.5
6.78490321185249,25,28,3,-26.5,11,15.5
6.78706607548394,29,29,0,-29,14.5,14.5
6.78922893911539,25,25,0,-25,12.5,12.5
6.79139180274684,25,23,-2,-24,13.5,10.5
6.79355466637828,27,26,-1,-26.5,14,12.5
6.79571753000973,29,26,-3,-27.5,16,11.5
6.79788039364118,28,24,-4,-26,16,10
6.80004325727263,24,27,3,-25.5,10.5,15
6.80220612090408,26,27,1,-26.5,12.5,14
6.80436898453552,26,28,2,-27,12,15
6.80653184816697,26,25,-1,-25.5,13.5,12
6.80869471179842,26,30,4,-28,11,17
6.81085757542987,26,26,0,-26,13,13
6.81302043906132,26,23,-3,-24.5,14.5,10
6.81518330269277,26,29,3,-27.5,11.5,16
6.81734616632421,27,29,2,-28,12.5,15.5
6.81950902995566,28,25,-3,-26.5,15.5,11
6.82167189358711,27,25,-2,-26,14.5,11.5
6.82383475721856,28,30,2,-29,13,16
6.82599762085001,27,26,-1,-26.5,14,12.5
6.82816048448145,26,24,-2,-25,14,11
6.8303233481129,28,28,0,-28,14,14
6.83248621174435,26,28,2,-27,12,15
6.8346490753758,26,26,0,-26,13,13
6.83681193900725,26,28,2,-27,12,15
6.83897480263869,28,30,2,-29,13,16
6.84113766627014,28,27,-1,-27.5,14.5,13
6.84330052990159,26,25,-1,-25.5,13.5,12
6.84546339353304,28,28,0,-28,14,14
6.84762625716449,29,31,2,-30,13.5,16.5
6.84978912079593,27,28,1,-27.5,13,14.5
6.85195198442738,27,28,1,-27.5,13,14.5
6.85411484805883,26,27,1,-26.5,12.5,14
6.85627771169028,27,25,-2,-26,14.5,11.5
6.85844057532173,28,29,1,-28.5,13.5,15
6.86060343895317,27,31,4,-29,11.5,17.5
6.86276630258462,29,30,1,-29.5,14,15.5
6.86492916621607,25,25,0,-25,12.5,12.5
6.86709202984752,28,33,5,-30.5,11.5,19
6.86925489347897,28,30,2,-29,13,16
6.87141775711041,29,25,-4,-27,16.5,10.5
6.87358062074186,27,30,3,-28.5,12,16.5
6.87574348437331,31,32,1,-31.5,15,16.5
6.87790634800476,30,28,-2,-29,16,13
6.88006921163621,28,26,-2,-27,15,12
6.88223207526765,30,32,2,-31,14,17
6.8843949388991,28,30,2,-29,13,16
6.88655780253055,25,28,3,-26.5,11,15.5
6.888720666162,26,29,3,-27.5,11.5,16
6.89088352979345,27,33,6,-30,10.5,19.5
6.89304639342489,26,30,4,-28,11,17
6.89520925705634,28,25,-3,-26.5,15.5,11
6.89737212068779,27,31,4,-29,11.5,17.5
6.89953498431924,29,27,-2,-28,15.5,12.5
6.90169784795069,28,26,-2,-27,15,12
6.90386071158213,26,29,3,-27.5,11.5,16
6.90602357521358,27,30,3,-28.5,12,16.5
6.90818643884503,28,28,0,-28,14,14
6.91034930247648,28,28,0,-28,14,14
6.91251216610793,29,32,3,-30.5,13,17.5
6.91467502973937,27,30,3,-28.5,12,16.5
6.91683789337082,25,27,2,-26,11.5,14.5
6.91900075700227,28,30,2,-29,13,16
6.92116362063372,25,28,3,-26.5,11,15.5
6.92332648426517,25,26,1,-25.5,12,13.5
6.92548934789661,26,29,3,-27.5,11.5,16
6.92765221152806,28,29,1,-28.5,13.5,15
6.92981507515951,28,26,-2,-27,15,12
6.93197793879096,25,25,0,-25,12.5,12.5
6.93414080242241,27,30,3,-28.5,12,16.5
6.93630366605386,26,29,3,-27.5,11.5,16
6.9384665296853,25,26,1,-25.5,12,13.5
6.94062939331675,28,30,2,-29,13,16
6.9427922569482,28,29,1,-28.5,13.5,15
6.94495512057965,27,25,-2,-26,14.5,11.5
6.9471179842111,29,27,-2,-28,15.5,12.5
6.94928084784254,30,30,0,-30,15,15
6.95144371147399,28,29,1,-28.5,13.5,15
6.95360657510544,25,27,2,-26,11.5,14.5
6.95576943873689,27,31,4,-29,11.5,17.5
6.95793230236834,30,28,-2,-29,16,13
6.96009516599978,27,26,-1,-26.5,14,12.5
6.96225802963123,26,28,2,-27,12,15
6.96442089326268,31,32,1,-31.5,15,16.5
6.96658375689413,30,28,-2,-29,16,13
6.96874662052558,30,26,-4,-28,17,11
6.97090948415702,28,32,4,-30,12,18
6.97307234778847,29,27,-2,-28,15.5,12.5
6.97523521141992,30,26,-4,-28,17,11
6.97739807505137,32,31,-1,-31.5,16.5,15
6.97956093868282,30,31,1,-30.5,14.5,16
6.98172380231426,30,30,0,-30,15,15
6.98388666594571,30,26,-4,-28,17,11
6.98604952957716,29,29,0,-29,14.5,14.5
6.98821239320861,29,30,1,-29.5,14,15.5
6.99037525684006,30,28,-2,-29,16,13
6.9925381204715,28,29,1,-28.5,13.5,15
6.99470098410295,29,28,-1,-28.5,15,13.5
6.9968638477344,27,26,-1,-26.5,14,12.5
6.99902671136585,26,27,1,-26.5,12.5,14
