t,leadI,leadII,leadIII,aVR,aVL,aVF
0,420,323,-97,-371.5,258.5,113
0.0028062298302231,396,324,-72,-360,234,126
0.00561245966044619,371.049474101128,319.585933355469,-51.4635407456597,-345.317703728298,211.256507423394,134.061196304904
0.00841868949066928,351.213092702786,316.178750354801,-35.0343423479847,-333.695921528793,193.123717525385,140.572204003408
0.0112249193208924,334.772561157806,313.836093712649,-20.936467445157,-324.304327435227,177.854514301481,146.449813133746
0.0140311491511155,321.968125410591,314.238649868369,-7.72947554222134,-318.10338763948,164.848800476406,153.254587163074
0.0168373789813386,320.945720853454,306.997540596907,-13.9481802565468,-313.97163072518,167.446950555,146.52468017018
0.0196436088115617,322.053495222733,306.787631128149,-15.265864094584,-314.420563175441,168.659679658658,145.760883516782
0.0224498386417848,316.759087493199,303.539942744284,-13.2191447489157,-310.149515118741,164.989116121057,145.160398997684
0.0252560684720079,317.631304796143,306.529071122133,-11.1022336740104,-312.080187959138,164.366769235077,147.713418724061
0.028062298302231,313.71027431851,314.749994715367,1.03972039685664,-314.230134516938,156.335276960827,157.894857556112
0.030868528132454,303.703477011656,310.854676758962,7.1511997473059,-307.279076885309,148.276138632175,159.002938253134
0.0336747579626771,307.879163498911,315.022511252257,7.14334775334584,-311.450837375584,150.367907872783,161.082929502802
0.0364809877929002,313.760832509979,311.787707376327,-1.97312513365199,-312.774269943153,157.866978821816,154.907291121338
0.0392872176231233,317.682229931114,312.562093388569,-5.12013654254457,-315.122161659842,161.401183236829,153.720978423012
0.0420934474533464,324.077840720694,318.891062842759,-5.18677787793536,-321.484451781727,164.632309299315,156.852142482412
0.0448996772835695,322.828293983608,321.741664022476,-1.08662996113179,-322.284979003042,161.95746197237,160.327517030672
0.0477059071137926,308.418905836896,317.545734736493,9.12682889959694,-312.982320286695,149.64603846865,163.336281818045
0.0505121369440157,302.840452515485,313.073935168985,10.2334826535005,-307.957193842235,146.303484930992,161.653708911243
0.0533183667742388,306.65902709965,309.795545321261,3.13651822161142,-308.227286210455,151.761254439019,156.466031771436
0.0561245966044619,311.801613062855,307.665211136959,-4.13640192589628,-309.733412099907,157.969007494376,151.764404605531
0.058930826434685,317.48085351504,310.213270952881,-7.26758256215879,-313.84706223396,162.374218038599,151.472844195361
0.0617370562649081,314.67787634419,307.544612925383,-7.13326341880691,-311.111244634787,160.905569881499,150.205674753288
0.0645432860951312,301.083916462124,305.284821488421,4.20090502629694,-303.184368975272,148.441505717914,154.742863257359
0.0673495159253543,294.810908937857,306.102052431927,11.29114349407,-300.456480684892,141.759882721893,158.696597962998
0.0701557457555774,301.555168563273,308.633806295823,7.07863773255008,-305.094487429548,147.238265415362,157.856222014187
0.0729619755858005,306.934689888151,305.661806860277,-1.27288302787412,-306.298248374214,154.103786458012,152.194461916201
0.0757682054160236,316.868791998749,313.567462036189,-3.30132996256077,-315.218127017469,160.085060980655,155.133066036814
0.0785744352462467,324.49909348658,317.479308712466,-7.01978477411467,-320.989201099523,165.759439130347,155.229761969175
0.0813806650764698,324.661530078886,332.005350237728,7.34382015884228,-328.333440158307,158.658854960022,169.674585198285
0.0841868949066929,337.906788633517,365.231459765199,27.3246711316818,-351.569124199358,155.291058750918,196.27806544844
0.0869931247369159,368.661420568641,401.58448434782,32.9230637791792,-385.122952458231,167.869178394731,217.2537740635
0.089799354567139,408.77485595559,434.174164159516,25.3993082039258,-421.474510057553,191.687773875832,229.786736181721
0.0926055843973621,448.644236829659,468.487376840265,19.8431400106055,-458.565806834962,214.400548409527,244.165258425435
0.0954118142275852,477.997059723958,495.482304460158,17.4852447362004,-486.739682092058,230.255907493879,256.483774598179
0.0982180440578083,475.842603806045,488.410687855705,12.5680840496601,-482.126645830875,231.637259878193,250.489385952683
0.101024273888031,454.605494533104,472.896316446975,18.2908219138709,-463.750905490039,218.157336309617,245.593569180423
0.103830503718255,428.896431415752,440.594099258158,11.6976678424057,-434.745265336955,208.599381786673,226.145883550282
0.106636733548478,407.39822831979,400.748755971344,-6.6494723484463,-404.073492145567,207.023850334118,197.049641811449
0.109442963378701,391.758538309288,375.503851085881,-16.2546872234071,-383.631194697585,204.006612766348,179.624581931237
0.112249193208924,373.175990547483,351.61756823504,-21.5584223124427,-362.396779391261,197.367206429963,165.029572961299
0.115055423039147,346.84706982271,328.649413775997,-18.1976560467126,-337.748241799354,182.522362934711,155.225878864642
0.11786165286937,321.215758090343,311.321321219937,-9.89443687040551,-316.26853965514,165.555097480374,150.713442174766
0.120667882699593,306.098657566272,307.38362677952,1.28496921324808,-306.741142172896,152.406844176512,154.334297996384
0.123474112529816,304.846612540873,306.994972442655,2.1483599017821,-305.920792491764,151.349126319545,154.571666172218
0.126280342360039,320.606970792194,315.485821493356,-5.12114929883842,-318.046396142775,162.864060045516,155.182336097259
0.129086572190262,332.126636507051,324.889502825043,-7.23713368200816,-328.508069666047,169.681885094529,158.826184571517
0.131892802020485,328.417941632124,322.33272535311,-6.08521627901445,-325.375333492617,167.251578955569,158.123754537048
0.134699031850709,324.437447757298,324.503163394203,0.0657156369048835,-324.470305575751,162.185866060197,162.284439515554
0.137505261680932,312.290821583962,325.423954964985,13.1331333810232,-318.857388274474,149.57884410147,169.278544173004
0.140311491511155,311.126292367386,323.127173738035,12.0008813706492,-317.12673305271,149.562705498368,167.564027554342
0.143117721341378,324.784578635774,328.814163131455,4.02958449568143,-326.799370883615,160.377497070046,166.421873813568
0.145923951171601,330.661815571977,326.69771054433,-3.96410502764661,-328.679763058154,167.312960299812,161.366802758342
0.148730181001824,328.165489813795,322.200283348247,-5.96520646554791,-325.182886581021,167.065348139671,158.117538441349
0.151536410832047,323.630773564433,320.574388508364,-3.05638505606879,-322.102581036399,163.343579310251,158.759001726148
0.15434264066227,313.382298593658,322.296206315895,8.91390772223696,-317.839252454776,152.23419543571,165.605057019066
0.157148870492493,311.382330004119,323.306660783792,11.9243307796729,-317.344495393956,149.728999612223,167.615495781733
0.159955100322716,318.92208152398,327.052220032364,8.13013850838411,-322.987150778172,155.395971507798,167.591179270374
0.16276133015294,326.244221192463,327.423399608018,1.17917841555476,-326.83381040024,162.532521388454,164.301289011786
0.165567559983163,329.005397639244,325.073161716146,-3.93223592309852,-327.039279677695,166.468816781171,160.570462896524
0.168373789813386,331.786770184995,328.676271193376,-3.11049899161873,-330.231520689186,167.448634588307,162.782886100879
0.171180019643609,320.326055940835,325.161984020888,4.83592808005358,-322.744019980861,157.745063930391,164.998956050471
0.173986249473832,311.562064305388,324.482467805284,12.9204034998965,-318.022266055336,149.320830402746,168.70143565259
0.176792479304055,319.138429389713,328.302065039357,9.16363564964377,-323.720247214535,154.987396870035,168.7328503445
0.179598709134278,327.981477978429,330.183072616302,2.20159463787326,-329.082275297366,162.889941670278,166.192333627088
0.182404938964501,335.926298550275,330.988902152108,-4.93739639816766,-333.457600351191,170.431847474221,163.02575287697
0.185211168794724,339.888783750061,337.759054159376,-2.1297295906852,-338.823918954719,171.009256670373,167.814662284345
0.188017398624947,335.172641687847,333.990507017234,-1.18213467061264,-334.581574352541,168.17738817923,166.404186173311
0.19082362845517,322.708923150207,333.654530963628,10.9456078134211,-328.181727056917,155.881657668393,172.300069388524
0.193629858285394,321.46621867598,335.606663820786,14.1404451448056,-328.536441248383,153.662886765587,174.873554482796
0.196436088115617,324.895704552707,330.005706296654,5.11000174394752,-327.450705424681,159.89285140438,167.557854020301
0.19924231794584,328.945525125565,326.963309866064,-1.98221525950072,-327.954417495814,165.463870192533,162.490547303282
0.202048547776063,334.781648100995,333.733708965988,-1.04793913500674,-334.257678533491,167.914793618001,166.342884915491
0.204854777606286,336.824866130005,336.765529423829,-0.0593367061761683,-336.795197776917,168.44210141809,168.353096358826
0.207661007436509,329.878779589767,340.863529309882,10.9847497201148,-335.371154449825,159.447014934826,175.924139514999
0.210467237266732,326.817387071783,341.881048314612,15.0636612428293,-334.349217693197,155.876862914477,178.472354778721
0.213273467096955,327.81970054049,337.800386528202,9.98068598771141,-332.810043534346,158.919507276389,173.890536257957
0.216079696927178,331.957015567521,333.931608668916,1.97459310139465,-332.944312118219,164.991211233063,167.953100885155
0.218885926757401,337.68629283423,335.775449452601,-1.91084338162915,-336.730871143415,169.798568107929,166.932303035486
0.221692156587625,338.499678817343,339.626981044363,1.12730222702078,-339.063329930853,168.686188295161,170.377141635692
0.224498386417848,337.099267892013,344.122500498668,7.0232326066552,-340.61088419534,165.038017642679,175.572866552661
0.227304616248071,336.142615509983,352.058325733933,15.9157102239508,-344.100470621958,160.113452643016,183.987017978942
0.230110846078294,335.679477570917,351.462098230614,15.782620659697,-343.570787900766,159.94842845561,183.622359445156
0.232917075908517,338.955035740529,346.895672027634,7.94063628710597,-342.925353884081,165.507199726711,177.41815415737
0.23572330573874,346.64082829836,346.948339050272,0.307510751912048,-346.794583674316,173.166658773224,173.627924901092
0.238529535568963,347.241282571223,346.602134453195,-0.63914811802789,-346.921708512209,173.940215344626,172.981493167584
0.241335765399186,347.363675931378,351.412918405461,4.04924247408269,-349.388297168419,171.657216728648,177.731080439772
0.244141995229409,345.456599945837,357.142645116951,11.6860451711134,-351.299622531394,166.885277387362,184.414345144032
0.246948225059632,339.529445244423,357.086998886376,17.5575536419534,-348.308222065399,160.985945801235,187.322276264165
0.249754454889855,345.969569921793,354.909955966766,8.94038604497268,-350.439762944279,168.51459193841,181.925171005869
0.252560684720079,354.533642697885,356.070724289448,1.53708159156344,-355.302183493667,176.498280553161,178.803902940506
0.255366914550302,353.961900648759,351.537984577218,-2.4239160715411,-352.749942612989,178.19290836015,174.557034252839
0.258173144380525,356.671101934908,355.711076545272,-0.960025389635746,-356.19108924009,178.815563662272,177.375525577818
0.260979374210748,354.759223108822,361.202276068633,6.44305295981076,-357.980749588727,174.158085074506,183.822664514222
0.263785604040971,346.375213986495,357.74073996161,11.3655259751145,-352.057976974053,167.50484400569,184.553132968362
0.266591833871194,342.989267680301,355.966204584192,12.976936903891,-349.477736132246,165.006165388205,184.471570744041
0.269398063701417,354.409054391475,358.113016700871,3.70396230939582,-356.261035546173,175.35254604104,180.908489505134
0.27220429353164,360.773857124241,360.460265421772,-0.313591702469751,-360.617061273006,180.543724413356,180.073336859651
0.275010523361863,367.022601590418,365.019458536017,-2.00314305440145,-366.021030063217,184.51287232241,181.508157740808
0.277816753192086,369.962446396228,369.270652793407,-0.691793602821633,-369.616549594818,185.327119999525,184.289429595293
0.28062298302231,357.091430894161,369.420825349804,12.3293944556427,-363.256128121982,172.381018219259,190.875109902723
0.283429212852533,355.021479490696,371.05368963214,16.0322101414433,-363.037584561418,169.494634674626,193.542949886791
0.286235442682756,361.414112203965,372.200897542202,10.7867853382371,-366.807504873084,175.313663432864,191.49384144022
0.289041672512979,363.705636066448,365.365654243017,1.66001817656945,-364.535645154733,181.022808944939,183.512836209793
0.291847902343202,369.39494589528,364.341980907259,-5.05296498802159,-366.86846340127,187.223955441651,179.644507959619
0.294654132173425,375.995016928748,374.297731630436,-1.69728529831269,-375.146374279592,188.846151113531,186.300223166062
0.297460362003648,366.748486896703,377.12945520042,10.3809683037173,-371.938971048561,178.183759296493,193.755211752069
0.300266591833871,361.086353625209,375.170826257142,14.0844726319333,-368.128589941176,173.500940496638,194.627649444538
0.303072821664094,362.456596714743,374.214992243014,11.7583955282706,-368.335794478878,175.349100593236,192.986693885642
0.305879051494317,365.745594462792,365.320753196569,-0.424841266223382,-365.533173829681,183.085217864508,182.447955965173
0.30868528132454,376.759862182385,375.664155041405,-1.09570714098066,-376.212008611895,188.927784661683,187.284223950212
0.311491511154764,385.870833607501,384.200386700876,-1.67044690662408,-385.035610154188,193.770640257062,191.264969897126
0.314297740984987,380.294860231246,385.744506310509,5.44964607926329,-383.019683270877,187.422607075991,195.597076194886
0.31710397081521,368.213392265641,384.336304366944,16.122912101303,-376.274848316292,176.045240082169,200.229608234123
0.319910200645433,369.654256270784,384.333428424427,14.6791721536428,-376.993842347606,177.487542058571,199.506300289035
0.322716430475656,372.89237783279,379.335667859985,6.44329002719428,-376.114022846388,183.224543902798,192.88947894359
0.325522660305879,382.097669525066,380.992812605248,-1.10485691981762,-381.545241065157,191.601263222442,189.943977842715
0.328328890136102,385.618698351856,383.111623265298,-2.5070750865579,-384.365160808577,194.062886719207,190.30227408937
0.331135119966325,377.879743411598,375.504115988104,-2.37562742349371,-376.691929699851,190.127685417546,186.564244282305
0.333941349796548,366.361636474039,377.473453676904,11.1118172028654,-371.917545075471,177.624909635587,194.292635439885
0.336747579626771,362.728839691395,377.17705607703,14.4482163856346,-369.952947884213,174.14031165288,195.812636231332
0.339553809456994,365.053122877927,375.287738728418,10.2346158504901,-370.170430803173,177.409253513719,192.761177289454
0.342360039287218,373.378212137379,372.312314334253,-1.06589780312601,-372.845263235816,187.222054970252,185.623208265563
0.345166269117441,377.230733264188,371.986427710656,-5.24430555353291,-374.608580487422,191.237519408861,183.371061078561
0.347972498947664,370.494466026631,365.355051707206,-5.13941431942436,-367.924758866918,187.816940173027,180.107818693891
0.350778728777887,357.535227114633,358.583227998029,1.04800088339567,-358.059227556331,178.243613115619,179.815614440712
0.35358495860811,343.795460861668,356.954405892557,13.1589450308891,-350.374933377113,165.318257915389,185.056675461723
0.356391188438333,342.301619447662,350.32462019565,8.02300074798762,-346.313119821656,167.139309349837,179.173810471819
0.359197418268556,352.545344830496,353.551497383603,1.00615255310692,-353.04842110705,175.769596138695,177.278824968355
0.362003648098779,359.636055814776,355.651781944095,-3.98427387068114,-357.643918879436,181.810164842729,175.833754036707
0.364809877929002,354.107629663754,349.143159750181,-4.96446991357379,-351.625394706968,179.536049788664,172.089344918303
0.367616107759225,345.740658933262,343.710132499856,-2.03052643340629,-344.725395716559,173.885592683334,170.839803033225
0.370422337589449,326.892059548511,331.812997352408,4.92093780389729,-329.35252845046,160.985560872307,168.366967578153
0.373228567419672,319.559026728605,330.479363242337,10.9203365137326,-325.019194985471,154.319345107436,170.699849878035
0.376034797249895,327.637459433084,332.712097800295,5.07463836721075,-330.17477861669,161.281410532937,168.893368083753
0.378841027080118,335.036823219384,331.212460234278,-3.82436298510567,-333.124641726831,169.430593102245,163.694048624586
0.381647256910341,336.842493019783,331.97009150219,-4.87240151759289,-334.406292260986,170.857447268688,163.548844992298
0.384453486740564,337.928347607516,336.828405408911,-1.09994219860471,-337.378376508214,169.51414490306,167.864231605153
0.387259716570787,328.876497397345,339.638135189965,10.7616377926196,-334.257316293655,159.057429802363,175.199886491292
0.39006594640101,319.640755904655,335.444109145319,15.8033532406634,-327.542432524987,151.918701331996,175.623731192991
0.392872176231233,321.847728662957,327.039213686531,5.19148502357439,-324.443471174744,158.328121819691,166.115349355053
0.395678406061456,327.791488031654,327.204194882793,-0.587293148861249,-327.497841457224,164.189390590258,163.308450866966
0.398484635891679,325.742585337143,321.969290621995,-3.77329471514741,-323.855937979569,164.757940026145,159.097997953424
0.401290865721903,326.046342715247,320.840721975444,-5.20562073980284,-323.443532345345,165.625981727525,157.817550617821
0.404097095552126,319.712343433043,317.297153819801,-2.41518961324135,-318.504748626422,161.063766523142,157.44098210328
0.406903325382349,306.725093446139,319.524271125182,12.7991776790431,-313.12468228566,146.962957883548,166.161724402112
0.409709555212572,313.012220485801,325.238775989195,12.2265555033936,-319.125498237498,150.392832491204,168.732665746294
0.412515785042795,323.505909041843,325.902170832034,2.39626179019098,-324.704039936939,160.554823625826,164.149216311113
0.415322014873018,328.646055429374,326.82680598677,-1.81924944260425,-327.736430708072,165.232652435989,162.503778272083
0.418128244703241,334.217016942605,334.017475068596,-0.199541874009014,-334.117246005601,167.208279408307,166.908966597294
0.420934474533464,332.574405616531,332.194587707375,-0.37981790915552,-332.384496661953,166.477111762843,165.90738489911
0.423740704363687,319.743631282539,330.571621311192,10.8279900286534,-325.157626296865,154.457820626943,170.699805669923
0.42654693419391,316.318415263967,330.552892465981,14.2344772020139,-323.435653864974,151.041969030977,172.393684833998
0.429353164024134,317.462079093947,325.808628759235,8.34654966528831,-321.635353926591,154.557764714329,167.077589212262
0.432159393854357,318.700818282252,320.813942205676,2.11312392342387,-319.757380243964,158.293847179414,161.46353306455
0.43496562368458,324.191138149519,319.043881799398,-5.14725635012132,-321.617509974458,164.66919724982,156.948312724638
0.437771853514803,325.191057581963,318.966853795897,-6.22420378606625,-322.07895568893,165.707630684015,156.371325004915
0.440578083345026,315.786040951323,321.720821994925,5.93478104360167,-318.753431473124,154.925629953861,163.827801519263
0.443384313175249,313.595464492314,325.708357047411,12.1128925550964,-319.651910769862,150.741285968609,168.910624801253
0.446190543005472,315.389141406415,328.502189248794,13.1130478423787,-321.945665327605,151.138046782018,170.807618545586
0.448996772835695,322.736215763863,325.730358416889,2.99414265302579,-324.233287090376,159.871036555419,164.362250534957
0.451803002665918,329.198114459998,326.21503475677,-2.98307970322787,-327.706574608384,166.090597081613,161.615977526771
0.454609232496141,325.839106899228,324.884142160031,-0.954964739197692,-325.361624529629,163.397035819213,161.964588710416
0.457415462326364,321.85487580283,322.873559209637,1.01868340680744,-322.364217506234,160.418096198011,161.946121308222
0.460221692156588,316.918756874584,328.88502763044,11.9662707558561,-322.901892252512,152.476243059364,170.425649193148
0.463027921986811,313.35026236629,328.223021201941,14.8727588356511,-320.786641784116,149.238751765319,171.547890018796
0.465834151817034,320.791902176304,329.706819456544,8.91491728023976,-325.249360816424,155.938492448032,169.310868368392
0.468640381647257,331.127294461427,331.332593042915,0.205298581487398,-331.229943752171,165.46099793997,165.768945812201
0.47144661147748,332.437113194317,329.730812022892,-2.70630117142451,-331.083962608605,167.571707182871,163.512255425734
0.474252841307703,333.939798904947,330.030990033484,-3.9088088714629,-331.985394469216,168.924303888205,163.061090581011
0.477059071137926,328.322582883835,334.085121673561,5.76253878972636,-331.203852278698,161.280022047054,169.923830231644
0.479865300968149,317.357941184712,329.991713299546,12.6337721148343,-323.674827242129,152.362084534939,171.31274270719
0.482671530798372,317.846423827966,325.722648863342,7.87622503537597,-321.784536345654,154.985099396295,166.799436949359
0.485477760628595,325.017395387421,325.393994027486,0.376598640065652,-325.205694707454,162.320398373678,162.885296333776
0.488283990458819,326.097172192946,322.592724069481,-3.50444812346529,-324.344948131214,164.800810158206,159.544137973008
0.491090220289042,328.123911808582,324.242828188532,-3.88108362004931,-326.183369998557,166.002497714316,160.180872284242
0.493896450119265,324.554471885714,327.137314486772,2.58284260105847,-325.845893186243,160.985814642328,164.860078543915
0.496702679949488,314.227472196854,322.679148939142,8.45167674228804,-318.453310567998,152.887897727283,165.565412840715
0.499508909779711,311.885441933592,326.764101809558,14.8786598759664,-319.324771871575,148.503391028813,170.821380842762
0.502315139609934,323.916625053448,329.442611735531,5.52598668208236,-326.67961839449,159.195319185683,167.484299208807
0.505121369440157,330.797189620681,327.400132904443,-3.39705671623807,-329.098661262562,167.09712316846,162.001538094102
0.50792759927038,335.332473806182,331.435472983047,-3.89700082313408,-333.383973394614,169.614737314658,163.769236079957
0.510733829100603,337.847162384472,340.310872686254,2.46371030178256,-339.079017535363,167.691726041345,171.387291494018
0.513540058930826,326.065621203142,336.417517269978,10.351896066836,-331.24156923656,157.856862568153,173.384706668407
0.516346288761049,319.906266834096,330.810240577338,10.9039737432423,-325.358253705717,154.501146545427,170.85710716029
0.519152518591273,322.937550168684,330.590407986238,7.65285781755404,-326.763979077461,157.642346175565,169.121632901896
0.521958748421496,326.688530872224,325.370627375324,-1.31790349689965,-326.029579123774,164.003217184562,162.026361939212
0.524764978251719,330.609222906864,323.676512917205,-6.93270998965932,-327.142867912035,168.770966448262,158.371901463773
0.527571208081942,332.88244875557,328.250384738211,-4.63206401735931,-330.56641674689,168.757256386465,161.809160360426
0.530377437912165,319.763122566717,323.109286078043,3.34616351132661,-321.43620432238,158.208479527695,163.227724794685
0.533183667742388,306.948905209992,318.906134483369,11.9572292733771,-312.92751984668,147.495837968307,165.431681878373
0.535989897572611,309.908948049437,319.553451300862,9.64450325142525,-314.731199675149,150.132222399006,164.598977276144
0.538796127402834,319.648025487675,322.251941477836,2.60391599016083,-320.949983482755,158.522054748757,162.427928733998
0.541602357233057,328.894461917691,326.910484767491,-1.98397715020002,-327.902473342591,165.439219533946,162.463253808646
0.54440858706328,334.809039280197,329.240735731822,-5.56830354837547,-332.02488750601,170.188671414286,161.836216091723
0.547214816893504,325.35028015395,326.818031838666,1.46775168471612,-326.084155996308,161.941264234617,164.142891761691
0.550021046723727,314.0100407571,325.015010293755,11.004969536655,-319.512525525427,151.502535610222,168.009989915205
0.55282727655395,313.085748530108,326.633153134774,13.5474046046664,-319.859450832441,149.769171962721,170.09027886972
0.555633506384173,316.723921752336,320.155266413959,3.43134466162354,-318.439594083147,156.646288545356,161.793305537791
0.558439736214396,326.168219404548,325.149062899284,-1.01915650526382,-325.658641151916,163.593687954906,162.06495319701
0.561245966044619,335.618212443399,333.193279650906,-2.42493279249345,-334.405746047153,169.021572617946,165.384173429206
0.564052195874842,333.896900803,331.517024442476,-2.37987636052372,-332.706962622738,168.138388581762,164.568574040976
0.566858425705065,323.123332146733,332.154813294479,9.03148114774672,-327.639072720606,157.045925499493,170.593147221113
0.569664655535288,320.333365674235,336.721697812804,16.3883321385691,-328.52753174352,151.972516767833,176.555014975687
0.572470885365511,321.839423153997,333.068636378416,11.2292132244193,-327.454029766207,155.305104964789,172.148924801418
0.575277115195735,332.422086989425,333.402322451912,0.980235462486974,-332.912204720669,165.720925763469,167.1912789572
0.578083345025958,338.396597812761,334.221714321019,-4.17488349174135,-336.30915606689,171.285740652251,165.023415414639
0.580889574856181,339.474099842722,336.352859772443,-3.12124007027893,-337.913479807583,171.297669956501,166.615809851082
0.583695804686404,332.287180953741,337.304533590335,5.01735263659447,-334.795857272038,163.634914158573,171.160943113465
0.586502034516627,323.539716474804,336.651833783748,13.1121173089446,-330.095775129276,155.21379958293,174.881975546346
0.58930826434685,321.948922592258,332.94783415693,10.9989115646727,-327.448378374594,155.475005513793,171.973372860802
0.592114494177073,332.647496560736,333.66208267131,1.01458611057433,-333.154789616023,165.816455225081,167.338334390942
0.594920724007296,339.10154043117,338.181656972087,-0.919883459082826,-338.641598701628,170.010711945126,168.630886756502
0.597726953837519,336.077334484148,333.148203646846,-2.92913083730127,-334.612769065497,169.503232660724,165.109536404772
0.600533183667742,336.486728207989,337.463587675045,0.976859467056499,-336.975157941517,167.754934370466,169.220223571051
0.603339413497965,332.680848938052,344.568680777257,11.8878318392051,-338.624764857655,160.396508549423,178.228256308231
0.606145643328189,329.971665607104,347.802028060035,17.830362452931,-338.886846833569,156.070651577086,182.816195256483
0.608951873158412,337.883523253498,346.967158646856,9.08363539335863,-342.425340950177,164.399943930069,178.025397020107
0.611758102988635,345.924503177483,347.252202347409,1.32769916992646,-346.588352762446,172.298402003778,174.289950758668
0.614564332818858,344.799112729804,342.032832178574,-2.76628055123058,-343.415972454189,173.782696640517,169.633275813671
0.617370562649081,344.717956277866,339.626719733408,-5.0912365444583,-342.172338005637,174.904596411162,167.267741594475
0.620176792479304,336.777653231621,340.453313255532,3.67566002391044,-338.615483243576,166.550996603855,172.064486639721
0.622983022309527,326.013332166769,340.758210605319,14.7448784385498,-333.385771386044,155.63422686411,177.751544521934
0.62578925213975,333.078425262648,344.216740834063,11.1383155714148,-338.647583048356,160.970054845617,177.677528202739
0.628595481969973,341.639607742311,345.068604639691,3.42899689738044,-343.354106191001,169.105305422465,174.248800768536
0.631401711800196,345.577063808051,341.847029853885,-3.73003395416634,-343.712046830968,174.653548881109,169.058497949859
0.634207941630419,343.950419575353,339.81104461027,-4.13937496508322,-341.880732092812,174.044897270218,167.835834822593
0.637014171460643,339.791302513854,342.381215563073,2.58991304921932,-341.086259038463,168.600694732317,172.485564306146
0.639820401290866,325.025861150203,336.742123850543,11.7162627003397,-330.883992500373,156.654799224932,174.229193275441
0.642626631121089,326.275743149615,339.459017150627,13.1832740010124,-332.867380150121,156.546234574301,176.32114557582
0.645432860951312,333.420258757717,338.885876082828,5.46561732511054,-336.153067420273,163.977320716303,172.175746703969
0.648239090781535,337.477398811461,336.734297156553,-0.743101654908401,-337.105847984007,169.110250233185,167.995597750822
0.651045320611758,345.124046502992,340.962201931574,-4.16184457141799,-343.043124217283,174.642945537205,168.400178680078
0.653851550441981,343.591124758451,342.188443772375,-1.40268098607567,-342.889784265413,172.496902872263,170.39288139315
0.656657780272204,325.931636237162,330.700392832398,4.76875659523557,-328.31601453478,160.581439820963,167.734574713817
0.659464010102427,312.54382358573,322.717383490724,10.1735599049933,-317.630603538227,151.185131840369,166.445471697859
0.66227023993265,312.432468161182,316.808758555328,4.37629039414531,-314.620613358255,154.028088883519,160.592524474736
0.665076469762873,313.621412936278,310.809923626929,-2.81148930934967,-312.215668281604,158.216451122814,153.99921715879
0.667882699593097,319.080032926493,314.925155543693,-4.15487738280018,-317.002594235093,161.617455154646,155.385139080446
0.67068892942332,323.026916613071,318.695824405993,-4.33109220707775,-320.861370509532,163.679004410074,157.182366099458
0.673495159253543,315.819381889821,319.664439357521,3.84505746770009,-317.741910623671,155.98716221106,161.754748412611
0.676301389083766,310.83479155152,325.980381214347,15.145589662827,-318.407586382934,147.844600944347,170.562985438587
0.679107618913989,309.429002352796,324.666581349935,15.2375789971383,-317.047791851366,147.095711677829,169.952080173537
0.681913848744212,317.661430787515,320.704929909236,3.04349912172165,-319.183180348376,157.308965832897,161.874214515479
0.684720078574435,324.140326791453,322.10548596763,-2.03484082382363,-323.122906379542,163.087583807639,160.035322571903
0.687526308404658,323.665385826876,320.605769375918,-3.05961645095755,-322.135577601397,163.362501138917,158.77307646248
0.690332538234881,318.760699350114,316.746708959651,-2.01399039046345,-317.753704154882,160.387344870289,157.366359284594
0.693138768065104,310.164340745386,320.174519182208,10.0101784368226,-315.169429963797,150.077081154282,165.092348809515
0.695944997895328,309.471054694699,323.437655930825,13.9666012361262,-316.454355312762,147.752226729286,168.702128583475
0.698751227725551,312.719360806574,320.640905112075,7.92154430550124,-316.680132959324,152.398908250536,164.281224708788
0.701557457555774,324.128557651206,325.244286456939,1.11572880573323,-324.686422054072,161.506414422736,163.180007631336
0.704363687385997,326.240848156735,322.44300926544,-3.79783889129476,-324.341928711088,165.019343524015,159.322585187073
0.70716991721622,323.720936091361,320.823109063796,-2.89782702756509,-322.272022577579,163.309381559463,158.962641018115
0.709976147046443,315.546389211703,317.399584193108,1.85319498140541,-316.472986702406,156.846597115149,159.626389587257
0.712782376876666,302.540478162877,314.278313216966,11.7378350540889,-308.409395689922,145.401321554394,163.008074135528
0.715588606706889,298.82078555578,307.670416162651,8.84963060687141,-303.245600859216,144.985577474454,158.260023384761
0.718394836537112,308.991220860061,311.243085887114,2.25186502705327,-310.117153373587,153.369677916504,156.747475457084
0.721201066367335,314.763264524519,315.161111593775,0.3978470692565,-314.962188059147,157.182708727631,157.779479331516
0.724007296197559,316.77299225135,312.918399929939,-3.85459232141079,-314.845696090645,160.31379228638,154.531903804264
0.726813526027782,316.851581201866,319.591433911079,2.73985270921389,-318.221507556472,157.055864246326,161.165643310147
0.729619755858005,310.47650268161,326.053589960658,15.5770872790475,-318.265046321134,147.449707701281,170.815338619852
0.732425985688228,316.816684756947,335.621242202403,18.8045574454563,-326.218963479675,149.006063655745,177.21289982393
0.735232215518451,343.056070773815,359.479848065246,16.4237772914313,-351.26795941953,163.316146741192,187.951812678339
0.738038445348674,372.371024822036,386.897934071678,14.5269092496426,-379.634479446857,178.922057786197,200.712421660661
0.740844675178897,402.691952511166,419.812610505843,17.1206579946763,-411.252281508504,192.785647258245,218.466634250259
0.74365090500912,434.752965659918,457.519343772012,22.766378112094,-446.136154715965,205.993293773912,240.142860942053
0.746457134839343,448.489741900623,480.00514140241,31.515399501787,-464.247441651516,208.487171199418,255.760270452098
0.749263364669566,450.506191079089,481.285556839904,30.7793657608158,-465.895873959496,209.863412659136,256.03246130036
0.752069594499789,455.135839754425,475.761318177306,20.6254784228802,-465.448578965866,217.255180665773,248.193398300093
0.754875824330013,446.840587733351,451.55824477077,4.71765703741829,-449.199416252061,221.061465347967,228.137950904094
0.757682054160236,429.912286856619,419.082091040982,-10.830195815637,-424.4971889488,220.371241336128,204.125947612672
0.760488283990459,409.007124293701,392.480881258031,-16.5262430356697,-400.744002775866,212.766683664685,187.977319111181
0.763294513820682,373.437219126647,359.859208850758,-13.5780102758886,-366.648213988702,193.507614701268,173.140599287435
0.766100743650905,335.784600089739,329.683982486284,-6.10061760345485,-332.734291288011,170.942608846597,161.791682441415
0.768906973481128,319.2922206361,314.637871889172,-4.65434874692721,-316.965046262636,161.973284691513,154.991761571123
0.771713203311351,315.376895158219,306.846890779292,-8.53000437892723,-311.111892968755,161.953449768573,149.158443200182
0.774519433141574,317.343985683413,304.448083388533,-12.8959022948803,-310.896034535973,165.119943989147,145.776090546826
0.777325662971797,325.238142374577,315.776189997085,-9.46195237749129,-320.507166185831,167.350047376034,153.157118809797
0.78013189280202,327.600533950391,325.106874562453,-2.49365938793824,-326.353704256422,165.047096669165,161.306607587257
0.782938122632243,321.799780098378,331.724826053234,9.92504595485639,-326.762303075806,155.937367071761,170.824936004045
0.785744352462467,319.440835293414,332.850781431391,13.4099461379765,-326.145808362403,153.015444577719,173.130363784684
0.78855058229269,319.360278641352,323.742131055161,4.38185241380961,-321.551204848256,157.489213113771,164.061991734485
0.791356812122913,322.575794955021,316.619321296384,-5.95647365863761,-319.597558125703,164.26613430683,155.331423818873
0.794163041953136,325.245565952169,318.93811501997,-6.30745093219895,-322.091840486069,165.776508442184,156.315332043885
0.796969271783359,319.261800741974,316.962118160406,-2.29968258156822,-318.11195945119,160.780741661771,157.331217789419
0.799775501613582,312.871741078812,316.845661796033,3.97392071722084,-314.858701437423,154.448910180796,160.409791256627
0.802581731443805,309.473042367985,322.730877854676,13.2578354866916,-316.10196011133,148.107603440647,167.994356670684
0.805387961274028,312.304095239751,323.485294924704,11.1811996849533,-317.894695082227,150.561447777399,167.333247304829
0.808194191104251,319.812577675885,318.817930551561,-0.994647124324672,-319.315254113723,160.403612400105,158.911641713618
0.811000420934474,324.160052042391,319.073402965258,-5.08664907713245,-321.616727503825,164.623350559762,156.993376944063
0.813806650764698,319.885564076779,312.832995171669,-7.05256890510981,-316.359279624224,163.469066490944,152.890213133279
0.816612880594921,310.963230796709,310.963281049774,5.02530650123845e-05,-310.963255923242,155.481590271822,155.48166565142
0.819419110425144,303.616087923893,316.613953410098,12.9978654862051,-310.115020666996,145.309111218844,164.805909448152
0.822225340255367,300.361096602073,316.262075453604,15.9009788515316,-308.311586027838,142.230058875271,166.081527152568
0.82503157008559,311.03972293303,318.042722438592,7.00299950556234,-314.541222685811,152.018361713734,162.522860972077
0.827837799915813,323.895065521323,324.115394605098,0.220329083775084,-324.00523006321,161.837368218774,162.167861844436
0.830644029746036,325.39024617901,324.601839269112,-0.788406909897503,-324.996042724061,163.089326544454,161.906716179607
0.833450259576259,324.101457955658,327.090178983903,2.98872102824544,-325.59581846978,160.556368463706,165.039450006074
0.836256489406482,317.926607885248,326.697089989224,8.77048210397544,-322.311848937236,154.578062890636,167.7337860466
0.839062719236705,307.437398544769,324.158441951552,16.721043406783,-315.79792024816,145.358177568993,170.439742679167
0.841868949066929,314.246288606629,323.282441291999,9.03615268537021,-318.764364949314,152.60506796063,166.159296988685
0.844675178897152,325.712559904962,328.13634388245,2.4237839774882,-326.924451893706,161.644387963737,165.280063929969
0.847481408727375,327.033989420758,321.396388438004,-5.6376009827539,-324.215188929381,166.335795201756,157.879393727625
0.850287638557598,328.283263969573,326.230068070232,-2.05319589934112,-327.256666019903,165.168229934457,162.088436085445
0.853093868387821,324.079588582922,327.629754300882,3.55016571796045,-325.854671441902,160.264711432481,165.589960009421
0.855900098218044,310.430517845421,327.016108673537,16.5855908281167,-318.723313259479,146.922463508652,171.800849750827
0.858706328048267,312.445963215307,327.537571443042,15.0916082277348,-319.991767329175,148.677177493786,171.314589835388
0.86151255787849,323.556132844996,327.145293534931,3.58916068993466,-325.350713189964,159.983486077531,165.367227112433
0.864318787708713,328.791116750721,328.254777045046,-0.53633970567472,-328.522946897883,164.663728228198,163.859218669686
0.867125017538936,335.483948793122,330.380237594925,-5.10371119819638,-332.932093194023,170.293829995659,162.638263198364
0.869931247369159,337.109725590234,338.549346278523,1.43962068828915,-337.829535934378,167.835052450972,169.994483483406
0.872737477199383,324.291865941534,336.833909441009,12.5420434994758,-330.562887691271,155.874911221029,174.687976470243
0.875543707029606,321.688533192103,337.83151308828,16.142979896177,-329.760023140191,152.772776647963,176.987246492229
0.878349936859829,330.599723933873,340.237840532543,9.63811659866951,-335.418782233208,160.480803667602,174.937978565606
0.881156166690052,335.690863586187,335.113593453148,-0.577270133039463,-335.402228519668,168.134066859613,167.268161660054
0.883962396520275,339.676297776879,336.53957011009,-3.13672766678911,-338.107933943484,171.406512721834,166.70142122165
0.886768626350498,338.0020596016,336.449150575888,-1.55290902571215,-337.225605088744,169.777484313656,167.448120775088
0.889574856180721,326.168834874241,331.771825611788,5.60299073754635,-328.970330243015,160.282922068348,168.687408174667
0.892381086010944,315.927421338665,333.086917105077,17.1594957664128,-324.507169221871,149.383962786126,175.123206435745
0.895187315841167,320.566742050888,330.104157311679,9.5374152607904,-325.335449681283,155.514663395049,169.820786286235
0.89799354567139,322.679985455416,326.996513729352,4.31652827393634,-324.838249592384,159.18172859074,165.656521001644
0.900799775501613,331.796119231526,329.667959283049,-2.12815994847745,-330.732039257288,166.962139590002,163.769899667286
0.903606005331837,338.657851717284,334.242063264146,-4.41578845313808,-336.449957490715,171.536820085211,164.913137405504
0.90641223516206,334.929544041067,342.676393527824,7.7468494867573,-338.802968784445,163.591347277155,175.211621507291
0.909218464992283,333.255990271908,350.397942784497,17.1419525125892,-341.826966528202,158.057018879659,183.769947648543
0.912024694822506,338.699318624746,355.070538409438,16.3712197846917,-346.884928517092,161.164049420027,185.720879097065
0.914830924652729,341.623810835209,351.761753346564,10.1379425113553,-346.692782090886,165.742934161927,180.94984792896
0.917637154482952,346.990811258872,346.936619433817,-0.0541918250544313,-346.963715346344,173.522501541963,173.441213804381
0.920443384313175,347.511637656321,345.361986842951,-2.14965081337078,-346.436812249636,174.830644234846,171.60616801479
0.923249614143398,342.829426447485,343.749722602189,0.920296154703749,-343.289574524837,170.954565146391,172.335009378446
0.926055843973621,336.554778574503,344.607362358441,8.05258378393842,-340.581070466472,164.251097395282,176.32997307119
0.928862073803844,332.688768857574,349.792527468367,17.1037586107927,-341.240648162971,157.792505123391,183.44814303958
0.931668303634068,337.648577044246,347.610130520195,9.96155347594913,-342.629353782221,163.843511784148,178.785841998072
0.934474533464291,347.07660989285,352.128313393708,5.05170350085808,-349.602461643279,171.012453195996,178.590008447283
0.937280763294514,353.129914584517,351.232461595502,-1.89745298901454,-352.18118809001,177.513683786766,174.667504303244
0.940086993124737,352.661896054286,350.730223254903,-1.93167279938336,-351.696059654594,177.296784426835,174.39927522776
0.94289322295496,349.946632692372,357.887460644049,7.94082795167742,-353.917046668211,171.002902370347,182.914144297863
0.945699452785183,343.799013406073,361.631159965475,17.8321465594012,-352.715086685774,162.983433423336,189.731653262438
0.948505682615406,344.663019507991,356.478163276881,11.8151437688906,-350.570591392436,166.42393786955,184.146653522886
0.951311912445629,357.173167575887,363.367425949825,6.194258373938,-360.270296762856,175.489454600975,184.780842161882
0.954118142275852,364.776094927889,362.155886312753,-2.62020861513611,-363.465990620321,183.698151771512,179.767838848808
0.956924372106075,363.545764346989,360.751445813244,-2.7943185337449,-362.148605080116,183.170041440367,178.978563639749
0.959730601936299,361.369093969916,363.157841923534,1.78874795361804,-362.263467946725,179.790173008149,182.473294938576
0.962536831766522,348.895424526604,357.466266314408,8.57084178780434,-353.180845420506,170.1622913694,183.018554051106
0.965343061596745,344.71626882384,359.469870444731,14.7536016208913,-352.093069634285,164.981333601474,187.111736032811
0.968149291426968,352.189167644563,361.499649951293,9.31048230672968,-356.844408797928,171.439342668917,185.405066129011
0.970955521257191,361.374504758338,358.910065122669,-2.46443963566912,-360.142284940504,181.919472197004,178.2228127435
0.973761751087414,359.544120118347,356.796478195566,-2.74764192278116,-358.170299156957,181.145881020564,177.024418136392
0.976567980917637,362.704568549889,360.385180208512,-2.31938834137748,-361.544874379201,182.511978445633,179.032895933567
0.97937421074786,353.823128391448,363.264655087258,9.44152669580956,-358.543891739353,172.190800847819,186.353090891534
0.982180440578083,342.707093965977,354.431578808599,11.724484842622,-348.569336387288,165.491304561678,183.078031825611
0.984986670408306,348.248367671873,359.65911584879,11.4107481769169,-353.953741760331,168.418809747478,185.534932012853
0.98779290023853,356.105255054786,361.738451614377,5.63319655959032,-358.921853334581,175.236029247598,183.685824086983
0.990599130068753,360.655196047617,361.882793781616,1.22759773399935,-361.268994914616,179.713799156809,181.555195757808
0.993405359898976,364.953837300293,363.602575759204,-1.35126154108866,-364.278206529748,183.152549420691,181.125657109058
0.996211589729199,354.594938438025,355.032661121163,0.437722683138361,-354.813799779594,177.078607877443,177.735191902151
0.999017819559422,340.678510704021,350.471384948628,9.79287424460705,-345.574947826324,165.442818229707,180.132129596618
1.00182404938964,335.346390701492,347.732183967767,12.3857932662752,-341.539287334629,161.480298717608,180.058988617021
1.00463027921987,338.992813981457,342.513949523184,3.52113554172666,-340.75338175232,167.735839219865,173.017542532455
1.00743650905009,341.890303277019,337.054331729259,-4.83597154776032,-339.472317503139,173.36313741239,166.109180090749
1.01024273888031,342.953201809115,333.616609864764,-9.33659194435131,-338.28490583694,176.144896876733,162.140008960206
1.01304896871054,339.171313588543,333.731883849233,-5.43942973930996,-336.451598718888,172.305371663926,164.146227054961
1.01585519854076,323.668511738696,328.549316547777,4.88080480908116,-326.108914143237,159.393853464807,166.715060678429
1.01866142837098,313.417760956666,324.69816038259,11.2803994259244,-319.057960669628,151.068680765371,167.989279904257
1.02146765820121,315.936350088904,319.260281990648,3.32393190174378,-317.598316039776,156.30620909358,161.292106946196
1.02427388803143,320.152516874368,318.233920979539,-1.91859589482874,-319.193218926953,161.035556384598,158.157662542355
1.02708011786165,326.825312091547,322.608978748717,-4.21633334283041,-324.717145420132,165.520822717189,159.196322702943
1.02988634769188,324.63034335353,322.363923812241,-2.26641954128871,-323.497133582885,163.448381447409,160.048752135476
1.0326925775221,315.656650383896,317.595721807972,1.93907142407636,-316.626186095934,156.85878947991,159.767396616024
1.03549880735232,303.596066384435,315.785036337777,12.1889699533415,-309.690551361106,145.703548215547,163.987003145559
1.03830503718255,299.979220450114,308.141949840158,8.16272939004421,-304.060585145136,145.908245530035,158.152339615101
1.04111126701277,303.400450245564,305.419702877343,2.0192526317789,-304.410076561453,150.690598806892,153.719477754561
1.04391749684299,311.637445222496,307.571095685891,-4.06634953660512,-309.604270454193,157.851897379551,151.752373074643
1.04672372667321,312.111152041251,305.056466460411,-7.05468558083982,-308.583809250831,159.582918811045,149.000890439786
1.04952995650344,305.687975084177,303.689507209448,-1.99846787472916,-304.688741146813,153.843221479453,150.845519667359
1.05233618633366,292.780654988239,302.771235233757,9.99058024551806,-297.775945110998,141.39503737136,156.380907739638
1.05514241616388,285.047612299153,296.964321998257,11.9167096991038,-291.005967148705,136.565451300025,154.44051584868
1.05794864599411,290.622992401795,297.594023206728,6.97103080493304,-294.108507804261,141.825980798431,152.282527005831
1.06075487582433,304.396597003887,305.56318608235,1.16658907846352,-304.979891543119,151.615003962712,153.364887580407
1.06356110565455,309.5711694328,308.756576928311,-0.814592504488758,-309.163873180556,155.192880968644,153.970992211911
1.06636733548478,309.748756310191,307.772268736565,-1.97648757362629,-308.760512523378,155.862621941909,152.897890581469
1.069173565315,301.091178956929,307.920131283328,6.82895232639925,-304.505655120128,147.131113315265,157.374541804864
1.07197979514522,291.126672001703,304.884787153781,13.7581151520778,-298.005729577742,138.684278424813,159.321451152929
1.07478602497545,292.798224916835,303.766693471946,10.968468555111,-298.282459194391,140.914878180862,157.367581013529
1.07759225480567,302.271361880299,305.603071233904,3.33170935360459,-303.937216557101,149.469826263347,154.467390293754
1.08039848463589,302.209455682582,298.542533261597,-3.66692242098446,-300.375994472089,152.938189051783,147.437805420306
1.08320471446611,302.880388646303,300.900033941597,-1.98035470470563,-301.89021129395,152.430371675504,149.459839618446
1.08601094429634,302.213329119987,303.869404432082,1.65607531209542,-303.041366776035,150.278626903946,152.762739872089
1.08881717412656,291.049460478575,305.67992712717,14.6304666485954,-298.364693802873,138.20949691499,160.155196887883
1.09162340395678,289.959183213542,304.950230765437,14.9910475518952,-297.454706989489,137.484067830823,159.970639158666
1.09442963378701,298.201224218159,303.677181333998,5.47595711583841,-300.939202776078,146.36263355116,154.576569224918
1.09723586361723,301.979175198169,301.414440405837,-0.564734792331706,-301.696807802003,151.27195499525,150.424852806753
1.10004209344745,308.041757700776,305.033681100924,-3.00807659985196,-306.53771940085,155.524917150314,151.012802250536
1.10284832327768,310.27019238477,308.823210381026,-1.44698200374427,-309.546701382898,155.858587194257,153.688114188641
1.1056545531079,300.877500681518,308.457687589301,7.58018690778283,-304.66759413541,146.648656886868,158.018937248542
1.10846078293812,294.129312769609,307.156207526923,13.026894757313,-300.642760148266,140.551209006148,160.091551142118
1.11126701276835,298.280453853135,307.775418577507,9.49496472437227,-303.027936215321,144.392744564381,158.63519165094
1.11407324259857,300.904474754251,301.293241498447,0.388766744196118,-301.098858126349,150.257854005027,150.841004121322
1.11687947242879,304.209192131049,301.171877844649,-3.03731428640032,-302.690534987849,153.623253208725,149.067281779124
1.11968570225901,306.148490245128,302.727987538526,-3.42050270660184,-304.438238891827,154.784496475865,149.653742415962
1.12249193208924,299.665259400255,304.3148902527,4.64963085244545,-301.990074826477,147.507814273905,154.482260552573
1.12529816191946,293.318841663549,307.371541080816,14.0526994172679,-300.345191372183,139.63307112314,160.712120249042
1.12810439174968,296.314657068864,311.732794700672,15.4181376318077,-304.023725884768,140.448259718528,163.57546616624
1.13091062157991,301.829684707617,308.076712728647,6.24702802103019,-304.953198718132,147.791328343293,157.161870374839
1.13371685141013,307.375226621846,307.337386515013,-0.0378401068330732,-307.356306568429,153.706533364339,153.64977320409
1.13652308124035,311.016497543617,309.771526262898,-1.24497128071852,-310.394011903257,156.130734412168,154.26327749109
1.13932931107058,305.4289686564,306.235355418541,0.806386762141699,-305.832162037471,152.311290947129,153.520871090342
1.1421355409008,293.544495527166,304.589719524314,11.0452239971481,-299.06710752574,141.249635765009,157.817471760731
1.14494177073102,295.435938516753,308.660397027678,13.2244585109246,-302.048167772215,141.105740002914,160.942427769301
1.14774800056125,298.843329460864,309.928086691958,11.0847572310944,-304.385708076411,143.879286114885,160.506421961526
1.15055423039147,308.508574330412,309.502410822263,0.993836491851425,-309.005492576337,153.75736891928,155.248123657057
1.15336046022169,313.72890527107,310.698585543754,-3.03031972731594,-312.213745407412,158.379612499193,153.834132908219
1.15616669005192,310.138698041241,307.136611884063,-3.0020861571777,-308.637654962652,156.570392099209,152.067262863443
1.15897291988214,300.821992448929,304.817450142932,3.99545769400339,-302.819721295931,148.413267377463,154.406453918468
1.16177914971236,292.624043428723,305.596528669599,12.9724852408755,-299.110286049161,139.825779093924,159.284506955237
1.16458537954258,294.932988744349,302.824512448996,7.89152370464666,-298.878750596673,143.520732519851,155.358018076821
1.16739160937281,304.588053726703,305.644541468934,1.0564877422317,-305.116297597819,151.765782992236,153.350514605583
1.17019783920303,310.317870541296,310.518408551857,0.200538010561445,-310.418139546577,155.058666265367,155.359473281209
1.17300406903325,308.866923514642,305.006674931527,-3.86024858311481,-306.936799223085,156.363586048878,150.573213174206
1.17581029886348,305.133458299209,309.064025534392,3.93056723518305,-307.098741916801,150.601445532013,156.497296384788
1.1786165286937,298.79003611679,311.552547903321,12.7625117865315,-305.171292010055,143.013762165129,162.157529844926
1.18142275852392,291.952025008355,308.709574434096,16.7575494257413,-300.330799721225,137.597237791307,162.733561929919
1.18422898835415,298.66202343236,303.820409005515,5.15838557315476,-301.241216218937,146.751818929603,154.489397289335
1.18703521818437,305.993573010319,305.447535463315,-0.546037547003948,-305.720554236817,153.269805278662,152.450748958156
1.18984144801459,306.727293444942,304.023486080688,-2.7038073642542,-305.375389762815,154.715550404598,150.659839358217
1.19264767784482,311.428477948774,312.253687426516,0.825209477742249,-311.841082687645,155.301634235516,156.539448452129
1.19545390767504,304.797423529168,313.315840715321,8.51841718615287,-309.056632122245,148.139503171508,160.917128950737
1.19826013750526,294.883781941785,311.535620535171,16.6518385933853,-303.209701238478,139.1159716742,164.093729564278
1.20106636733548,298.778237047659,307.041335786905,8.26309873924589,-302.909786417282,145.257569154206,157.652217263075
1.20387259716571,304.814940736712,306.451103071459,1.63616233474733,-305.633021904085,151.589389200982,154.043632703103
1.20667882699593,306.709518425624,307.073879331035,0.36436090541099,-306.891698878329,153.172578760106,153.719120118223
1.20948505682615,310.683063690197,307.421528840119,-3.26153485007779,-309.052296265158,156.972299270137,152.079996995021
1.21229128665638,304.685560468119,309.079459524519,4.3938990563999,-306.882509996319,150.14583070586,156.73667929046
1.2150975164866,291.808427373784,304.444957474711,12.6365301009269,-298.126692424247,139.585948636428,158.540743787819
1.21790374631682,293.886166207426,307.210923790433,13.3247575830071,-300.54854499893,140.28070431221,160.26784068672
1.22070997614705,300.648665265904,303.310288083833,2.6616228179293,-301.979476674869,148.993521223987,152.985955450881
1.22351620597727,306.750899707966,305.088266552712,-1.66263315525396,-305.919583130339,154.20676643161,151.712816698729
1.22632243580749,313.903832760609,311.595629848114,-2.30820291249523,-312.749731304362,158.106017836552,154.643713467809
1.22912866563772,311.480484082575,315.847011403976,4.36652732140089,-313.663747743275,153.556978380587,160.106769362688
1.23193489546794,300.681153014756,313.340444747026,12.6592917322695,-307.010798880891,144.010930641243,162.999868239648
1.23474112529816,301.086478252018,317.461485838655,16.3750075866379,-309.273982045337,142.35573533269,166.918246712647
1.23754735512838,305.622441652921,314.280342451256,8.65790079833471,-309.951392052088,148.482270427293,161.469121624795
1.24035358495861,308.844111499654,308.115573923977,-0.728537575676967,-308.479842711815,154.786324537665,153.69351817415
1.24315981478883,313.081403061463,308.774610386845,-4.30679267461744,-310.928006724154,158.69409786804,152.233908856114
1.24596604461905,314.226828463049,310.675600660157,-3.55122780289139,-312.451214561603,158.88902813297,153.562186428633
1.24877227444928,300.594264155173,308.36367281836,7.76940866318648,-304.478968486766,146.412427745993,158.066540740773
1.2515785042795,295.261773628467,311.570730117206,16.3089564887392,-303.416251872836,139.476408569864,163.939843302973
1.25438473410972,301.593668456763,310.051832043731,8.45816358696874,-305.822750250247,146.567752434897,159.25499781535
1.25719096393995,311.993859436644,313.150587409205,1.15672797256042,-312.572223422924,155.418565732042,157.153657690882
1.25999719377017,321.179010636201,314.961499912038,-6.21751072416316,-318.070255274119,163.698260680182,154.371994593937
1.26280342360039,319.815526546344,315.483611143081,-4.33191540326231,-317.649568844712,162.073720974803,155.575847869909
1.26560965343062,311.476253415891,315.363314633032,3.88706121714063,-313.419784024461,153.794596099375,159.625187925086
1.26841588326084,304.567453361676,318.755020585741,14.1875672240655,-311.661236973709,145.189943068805,166.471293904903
1.27122211309106,301.684954125817,315.901825615198,14.2168714893818,-308.793389870508,143.734041318217,165.05934855229
1.27402834292129,307.179031308955,313.207175329799,6.02814402084391,-310.193103319377,150.575443644055,159.617659675321
1.27683457275151,317.163584145743,314.127239048383,-3.03634509736077,-315.645411597063,160.099964621552,155.545446975511
1.27964080258173,320.347708247005,318.310686429237,-2.03702181776833,-319.329197338121,161.192365032387,158.136832305734
1.28244703241195,319.415303413748,318.409539600357,-1.00576381339107,-318.912421507053,160.21053361357,158.701887893483
1.28525326224218,310.874397868748,322.883852707167,12.0094548384191,-316.879125287958,149.432471515165,167.446653772793
1.2880594920724,308.754598715539,322.690791375579,13.9361926600406,-315.722695045559,147.409203027749,168.31349201781
1.29086572190262,313.331658954827,324.271728559709,10.940069604882,-318.801693757268,151.195794674973,167.605899082296
1.29367195173285,327.180931809758,329.341496973765,2.16056516400778,-328.261214391762,162.510183322875,165.751031068887
1.29647818156307,331.907268669627,327.120061342576,-4.78720732705176,-329.513665006101,168.34723799834,161.166427007762
1.29928441139329,332.390564461961,327.461377215508,-4.92918724645267,-329.925970838734,168.659875854207,161.266094984528
1.30209064122352,326.249524258676,334.051811845403,7.80228758672627,-330.150668052039,159.223618335975,170.927049716064
1.30489687105374,316.826946386979,332.505365239025,15.6784188520457,-324.666155813002,150.574263767467,174.091892045535
1.30770310088396,315.484630138585,327.370468773454,11.8858386348681,-321.42754945602,151.799395751859,169.628153704161
1.31050933071419,323.144540175451,326.519747715227,3.37520753977589,-324.832143945339,159.884666317838,164.947477627501
1.31331556054441,327.542151350282,326.007584622548,-1.5345667277337,-326.774867986415,164.538359039008,162.236508947407
1.31612179037463,323.479260167145,317.581849805616,-5.89741036152947,-320.530554986381,164.688335264337,155.842219722043
1.31892802020485,318.419031478512,316.031278777101,-2.38775270141116,-317.225155127806,160.403392089962,156.821763037845
1.32173425003508,303.768741680946,308.300122912976,4.53138123202967,-306.034432296961,149.618680224458,156.415752072503
1.3245404798653,299.64684098228,312.55380685821,12.9069658759299,-306.100323920245,143.369937553175,162.73038636707
1.32734670969552,307.984853468771,317.419669918315,9.43481644954375,-312.702261693543,149.275018509614,163.427243183929
1.33015293952575,314.169947399075,311.625519034724,-2.54442836435089,-312.897733216899,158.357187881713,154.540545335186
1.33295916935597,311.614137137587,307.686215818627,-3.92792131895987,-309.650176478107,157.771029228273,151.879147249833
1.33576539918619,311.52611500273,305.114810011606,-6.4113049911245,-308.320462507168,158.968709996927,149.351752510241
1.33857162901642,301.652959554584,307.223254419888,5.57029486530411,-304.438106987236,148.04133234464,156.396774642596
1.34137785884664,291.775766618937,304.719420018289,12.9436533993511,-298.247593318613,139.416056609793,158.83153670882
1.34418408867686,292.93511038918,304.368047357851,11.4329369686708,-298.651578873515,140.751086710255,157.900492163261
1.34699031850709,298.999516770242,297.398027851329,-1.60148891891293,-298.198772310786,150.300502844578,147.898269466208
1.34979654833731,303.792302952135,298.827105030129,-4.96519792200684,-301.309703991132,154.378750437071,146.930953554061
1.35260277816753,304.446465450877,298.065789153422,-6.38067629745564,-301.256127302149,155.413570874166,145.842556427983
1.35540900799775,296.368413732222,295.007061598934,-1.36135213328822,-295.687737665578,148.864882932755,146.822854732823
1.35821523782798,285.900677140451,299.883194489333,13.9825173488818,-292.891935814892,135.959079895785,156.932855919107
1.3610214676582,289.001853085801,303.340490104992,14.3386370191912,-296.171171595396,137.331608033305,158.839563562092
1.36382769748842,295.917819512702,302.16114961537,6.24333010266787,-299.039484564036,144.837244705017,154.202239859019
1.36663392731865,302.966801620393,301.969548719891,-0.997252900501735,-302.468175170142,151.982027260447,150.486147909695
1.36944015714887,308.359647332872,304.166961860388,-4.19268547248384,-306.26330459663,156.276166402678,149.987138193952
1.37224638697909,306.051046125514,305.890452034439,-0.160594091075211,-305.970749079976,153.105820108295,152.864928971682
1.37505261680932,298.051117619976,310.054787903569,12.003670283593,-304.052952761772,143.023723668191,161.029229093581
1.37785884663954,294.218153671381,310.379060594475,16.1609069230944,-302.298607132928,139.028623374143,163.269983758785
1.38066507646976,294.937739056975,302.971778949302,8.03403989232675,-298.954759003139,143.451849582324,155.502909420814
1.38347130629999,300.13335209877,300.134784912007,0.00143281323772726,-300.134068505389,150.065959642766,150.068108862623
1.38627753613021,300.15754497905,295.182227937295,-4.97531704175435,-297.669886458172,152.566431010402,145.10345544777
1.38908376596043,292.768801443884,286.828444329251,-5.94035711463323,-289.798622886568,149.354579279259,140.444043607309
1.39188999579066,281.227114464723,284.216918390988,2.98980392626572,-282.722016427855,139.118655269228,143.603361158627
1.39469622562088,271.24126246475,283.128700044469,11.8874375797191,-277.18498125461,129.676912442516,147.508068812094
1.3975024554511,270.997782227225,280.810314463777,9.81253223655182,-275.904048345501,130.592624995336,145.311423350164
1.40030868528132,280.25470695262,285.290841341917,5.03613438929693,-282.772774147269,137.609286281662,145.163487865607
1.40311491511155,293.723339147491,292.005011606488,-1.71832754100319,-292.864175376989,147.720833344247,145.143342032742
1.40592114494177,304.336293822251,305.589769404701,1.25347558244994,-304.963031613476,151.5414091199,153.421622493575
1.40872737477199,320.479926124932,327.433849118745,6.95392299381308,-323.956887621839,156.76300156556,167.193886056279
1.41153360460222,334.586625952498,361.286120942743,26.699494990245,-347.936373447621,153.943565481127,193.992807966494
1.41433983443244,352.724764192773,385.285629233676,32.5608650409029,-369.005196713224,160.081949575935,208.923247137289
1.41714606426266,386.551859212682,413.699513899117,27.1476546864355,-400.1256865559,179.702102263123,220.423584292776
1.41995229409289,420.245570953184,444.976005599664,24.7304346464801,-432.610788276424,197.757568153352,234.853220123072
1.42275852392311,439.805192042451,459.208261834358,19.4030697919075,-449.506726938404,210.201061125272,239.305665813133
1.42556475375333,450.032642608116,463.949443437372,13.9168008292565,-456.991043022744,218.05792088943,238.933122133314
1.42837098358356,440.760349589905,456.356093418404,15.5957438284986,-448.558221504154,212.582302880703,235.975918623451
1.43117721341378,409.800516426953,424.385001436999,14.5844850100458,-417.092758931976,197.608015708454,219.484743223522
1.433983443244,387.788776934323,387.95330180633,0.164524872007235,-387.871039370326,193.812126031158,194.058913339169
1.43678967307422,372.22756360657,360.881074884775,-11.3464887217954,-366.554319245673,191.787026164183,174.76729308149
1.43959590290445,349.09940044438,331.653309972776,-17.4460904716036,-340.376355208578,183.272745457992,157.103609750586
1.44240213273467,331.022774483677,310.773722357773,-20.2490521259041,-320.898248420725,175.63591330479,145.262335115934
1.44520836256489,312.752208838472,296.921380101768,-15.8308287367038,-304.83679447012,164.291518787588,140.545275682532
1.44801459239512,292.856605872026,292.379897006588,-0.476708865438752,-292.618251439307,146.666657368733,145.951594070574
1.45082082222534,291.67108116994,296.883414999377,5.21233382943643,-294.277248084658,143.229373670252,151.047874414407
1.45362705205556,304.288332358139,307.955664704576,3.66733234643687,-306.121998531357,150.310500005851,155.811498525506
1.45643328188579,310.906970909427,308.330783986174,-2.57618692325383,-309.6188774478,156.741578916341,152.87729853146
1.45923951171601,317.241597832409,313.019690219461,-4.22190761294752,-315.130644025935,160.731752722678,154.398891303257
1.46204574154623,317.60462332033,315.965868546275,-1.63875477405423,-316.785245933302,159.621689047192,157.163556886111
1.46485197137646,304.692661565978,311.293184762005,6.60052319602744,-307.992923163992,149.046069184975,158.946853979016
1.46765820120668,296.880732828789,311.126776030085,14.2460432012957,-304.003754429437,141.317344813747,162.68640961569
1.4704644310369,295.315043216386,301.930823766211,6.61578054982556,-298.622933491299,144.34963133328,154.273302158018
1.47327066086712,295.031183002217,295.368687826257,0.337504824039911,-295.199935414237,147.346839089088,147.853096325148
1.47607689069735,298.33751835153,294.1186482274,-4.21887012412969,-296.228083289465,151.27819423783,144.949889051635
1.47888312052757,298.196034417929,292.661546620766,-5.53448779716314,-295.428790519347,151.865261107546,143.563529411801
1.48168935035779,292.560707022055,293.280433353601,0.719726331545871,-292.920570187828,145.920490345254,147.000079842573
1.48449558018802,284.041850548882,301.248346475684,17.2064959268025,-292.645098512283,133.41767731104,159.227421201243
1.48730181001824,291.247028674075,304.65957983985,13.4125511657758,-297.953304256962,138.917238754149,159.036065502813
1.49010803984846,300.083191707463,303.238385801751,3.15519409428862,-301.660788754607,148.463998806587,153.19678994802
1.49291426967869,309.50337608205,307.38443171263,-2.11894436941952,-308.44390389734,155.811160225735,152.632743671605
1.49572049950891,313.912999638557,312.66036804074,-1.25263159781662,-313.286683839648,157.582815618187,155.703868221462
1.49852672933913,306.355882237818,305.229150138311,-1.12673209950674,-305.792516188064,153.741307168662,152.051209019402
1.50133295916936,297.366359349897,308.479255449223,11.1128960993256,-302.92280739956,143.126731625286,159.796075774274
1.50413918899958,293.404666674845,308.585538101777,15.1808714269316,-300.995102388311,139.111897623957,161.883204764354
1.5069454188298,299.235912902563,309.250443931555,10.0145310289915,-304.243178417059,144.610690936786,159.632487480273
1.50975164866003,310.541149671811,309.55183050876,-0.989319163050823,-310.046490090286,155.765234417431,154.281255672855
1.51255787849025,315.441587416729,311.467582794459,-3.97400462227017,-313.454585105594,159.7077960195,153.746789086094
1.51536410832047,313.192823693397,313.223819996754,0.0309963033567442,-313.208321845076,156.58091369502,156.627408150055
1.51817033815069,308.712267241687,314.67704789805,5.96478065636347,-311.694657569869,151.373743292662,160.320914277207
1.52097656798092,294.528609202472,307.431134924458,12.9025257219863,-300.979872063465,140.813041740243,160.166830323222
1.52378279781114,291.375388022698,300.275082767804,8.89969474510616,-295.825235395251,141.237846638796,154.587388756455
1.52658902764136,302.522848873498,305.672763940988,3.14991506748976,-304.097806407243,149.686466903004,154.411339504239
1.52939525747159,312.991278395702,310.238470630877,-2.75280776482435,-311.614874513289,157.872043080263,153.742831433026
1.53220148730181,316.121228681058,314.235264642071,-1.88596403898646,-315.178246661565,159.003596360022,156.174650301542
1.53500771713203,313.025137606204,317.857925852585,4.83278824638131,-315.441531729395,154.096174679911,161.345357049483
1.53781394696226,304.573283823905,315.263601288454,10.6903174645499,-309.918442556179,146.941483179677,162.976959376502
1.54062017679248,302.446495531435,316.285824399802,13.8393288683669,-309.366159965619,144.303583331534,165.062576634084
1.5434264066227,313.602660920001,316.89283577039,3.29017485038844,-315.247748345196,155.156243034806,160.091505310389
1.54623263645293,318.663778247535,318.109630272733,-0.554147974801197,-318.386704260134,159.608963111168,158.777741148966
1.54903886628315,315.121206646007,308.282994036328,-6.83821260967937,-311.702100341167,160.979709627843,150.722390713324
1.55184509611337,313.304579116854,308.996549538264,-4.30802957858941,-311.150564327559,158.806304347721,152.344259979837
1.55465132594359,304.562011129342,315.116490463704,10.5544793343621,-309.839250796523,147.00376589749,162.835484899033
1.55745755577382,303.544029005824,319.363501150053,15.8194721442292,-311.453765077939,143.862278430798,167.591486647141
1.56026378560404,312.590194468881,320.99472728437,8.40453281548872,-316.792460876626,152.092830826696,164.699630049929
1.56307001543426,319.304034809158,321.84356226925,2.53952746009219,-320.573798539204,158.382253674533,162.191544864671
1.56587624526449,321.175475281855,318.330320689314,-2.84515459254067,-319.752897985584,162.010314937198,157.742583048387
1.56868247509471,323.584228310658,317.215146854721,-6.36908145593702,-320.39968758269,164.976654883298,155.423032699392
1.57148870492493,313.47602095464,315.999062615548,2.52304166090806,-314.737541785094,155.476489646866,159.261052138228
1.57429493475516,300.601423199656,311.465783490603,10.8643602909465,-306.03360334513,144.868531454355,161.165071890775
1.57710116458538,307.642192133566,319.030075134843,11.387883001277,-313.336133634204,148.127154566144,165.20897906806
1.5799073944156,318.112488896554,326.55835618314,8.44586728658572,-322.335422539847,154.833310804984,167.502111734863
1.58271362424583,326.319171407668,328.407756442003,2.0885850343347,-327.363463924836,162.115293186667,165.248170738169
1.58551985407605,336.713366195458,335.436024560573,-1.27734163488515,-336.074695378015,168.995353915172,167.079341462844
1.58832608390627,335.165697669084,337.814984322944,2.64928665385912,-336.490340996014,166.258205507613,170.232135488401
1.59113231373649,320.606663817728,335.527898819667,14.9212350019396,-328.067281318697,152.842714407894,175.224566910803
1.59393854356672,319.969934012334,336.28991253256,16.3199785202256,-328.129923272447,151.824977746054,176.304945526393
1.59674477339694,323.178725386158,329.461383285742,6.28265789958425,-326.32005433595,158.448033743287,167.872020592663
1.59955100322716,329.519372236932,328.55997999579,-0.959392241142325,-329.039676116361,165.239382239037,163.800293877324
1.60235723305739,334.645504653624,331.457139600783,-3.18836505284111,-333.051322127204,168.916934853233,164.134387273971
1.60516346288761,334.754003821561,333.551290931971,-1.2027128895898,-334.152647376766,167.978358355575,166.17428902119
1.60796969271783,327.685218680731,334.656966719301,6.97174803856944,-331.171092700016,160.356735321081,170.814357378935
1.61077592254806,322.19025000716,337.362415224174,15.1721652170139,-329.776332615667,153.509042395073,176.267290220594
1.61358215237828,325.170939301995,337.258576300317,12.0876369983215,-331.214757801156,156.541651151837,174.673106649319
1.6163883822085,333.706932525727,335.705311072924,1.99837854719715,-334.706121799325,165.854276989265,168.85184481006
1.61919461203873,343.566199733527,342.580527552355,-0.985672181171481,-343.073363642941,172.275935957349,170.797427685592
1.62200084186895,348.314332477376,345.337502947248,-2.97682953012759,-346.825917712312,175.645581003752,171.18033670856
1.62480707169917,343.796258537187,352.800076709427,9.00381817224002,-348.298167623307,167.396220182474,180.901947440834
1.6276133015294,338.544765207416,352.506430092589,13.961664885173,-345.525597650003,162.291550161122,183.234047488881
1.63041953135962,335.206775503697,352.062197508564,16.8554220048661,-343.634486506131,159.175676749416,184.458809756715
1.63322576118984,341.888391354563,347.875723677086,5.98733232252266,-344.882057515824,167.95052951602,176.931527999804
1.63603199102006,348.459866523373,345.727744555642,-2.73212196773073,-347.093805539508,175.595994245552,171.497811293956
1.63883822085029,346.936124519582,342.232123898113,-4.70400062146911,-344.584124208848,175.820062570526,168.764061638322
1.64164445068051,342.973952458047,341.977129173107,-0.996823284940831,-342.475540815577,171.985387871494,170.490152944083
1.64445068051073,338.721988544027,345.39298489812,6.67099635409267,-342.057486721074,166.025496094967,176.031990626106
1.64725691034096,332.173118425737,348.797350783218,16.6242323574804,-340.485234604477,157.774443034128,182.710791570349
1.65006314017118,337.063151310747,347.076958491149,10.0138071804025,-342.070054900948,163.524672065172,178.545382835776
1.6528693700014,347.271435882783,347.781434447204,0.509998564420755,-347.526435164993,173.380718659181,174.145716505812
1.65567559983163,348.585031507864,347.067982453215,-1.51704905464948,-347.826506980539,175.051040281257,172.775466699283
1.65848182966185,351.191885229732,348.159096788947,-3.03278844078477,-349.67549100934,177.112336835258,172.563154174081
1.66128805949207,349.90132012705,355.376946049759,5.47562592270936,-352.639133088404,172.21284710217,180.426285986234
1.6640942893223,337.076547010908,350.554110202076,13.4775631911679,-343.815328606492,161.79949190987,182.015836696622
1.66690051915252,335.236600550349,345.302160039024,10.0655594886741,-340.269380294687,162.585520530838,177.683859763849
1.66970674898274,341.17955236,341.84992845413,0.67037609413012,-341.514740407065,170.254588132935,171.26015227413
1.67251297881296,343.422316453811,338.010496603241,-5.41181985057017,-340.716406528526,174.41706815219,166.299338376335
1.67531920864319,342.418374985026,337.325546272229,-5.09282871279726,-339.871960628627,173.755601848912,166.116358779716
1.67812543847341,337.840180431716,334.131381748973,-3.70879868274272,-335.985781090345,170.774489557229,165.211291533115
1.68093166830363,319.962655515131,329.386117530397,9.42346201526573,-324.674386522764,155.269596749933,169.404789772831
1.68373789813386,316.38962231787,327.512228795675,11.1226064778053,-321.950925556772,152.633507920032,169.31741763674
1.68654412796408,323.950017600018,328.689382340738,4.73936474071957,-326.319699970378,159.605326429649,166.714373540729
1.6893503577943,327.273775014428,325.845332339896,-1.4284426745316,-326.559553677162,164.35110884448,162.208444832682
1.69215658762453,328.634652698992,321.495684671145,-7.13896802784751,-325.065168685068,167.88681036342,157.178358321649
1.69496281745475,325.700067052296,318.996151913331,-6.7039151389651,-322.348109482814,166.201991095631,156.146118387183
1.69776904728497,308.827907374303,308.320970815156,-0.506936559146652,-308.57443909473,154.667421966725,153.907017128005
1.7005752771152,296.544985860741,306.690523849755,10.1455379890147,-301.617754855248,143.199723935863,158.418030919385
1.70338150694542,297.812223484415,306.438288057189,8.62606457277451,-302.125255770802,144.59307945582,157.532176314982
1.70618773677564,302.309780235107,298.723641235989,-3.58613899911774,-300.516710735548,152.947959617112,147.568751118436
1.70899396660586,306.774268818052,303.626878514923,-3.14739030312967,-305.200573666488,154.960829560591,150.239744105897
1.71180019643609,310.302548937071,301.732761634066,-8.5697873030058,-306.017655285569,159.436168120039,146.58148716553
1.71460642626631,298.572020172033,297.216318619836,-1.35570155219659,-297.894169395935,149.963860862115,147.93030853382
1.71741265609653,284.750286639845,295.888493418105,11.1382067782596,-290.319390028975,136.806039930793,153.513350098182
1.72021888592676,283.861968039052,293.316553136758,9.45458509770589,-288.589260587905,137.203691470673,151.385569117232
1.72302511575698,285.424204966595,287.678336919167,2.25413195257153,-286.551270942881,141.585036507012,144.966234435869
1.7258313455872,293.858261580363,289.747344544699,-4.11091703566439,-291.802803062531,148.984589308014,142.818213754517
1.72863757541743,294.840604960914,289.500395903047,-5.34020905786718,-292.17050043198,150.090407009391,142.08009342259
1.73144380524765,292.33848052741,289.145832699213,-3.19264782819624,-290.742156613311,147.765564177803,142.976592435509
1.73425003507787,284.990114846693,294.082891872063,9.09277702536968,-289.536503359378,137.948668910662,151.587834448716
1.7370562649081,282.930115390465,297.169800570993,14.2396851805282,-290.049957980729,134.345215104968,155.704742875761
1.73986249473832,285.476512765804,293.541083042282,8.06457027647781,-289.508797904043,138.705971244663,150.80282665938
1.74266872456854,294.969241909225,296.950080354531,1.98083844530635,-295.959661131878,146.494201731959,149.465459399919
1.74547495439877,299.525756632468,292.467040344439,-7.05871628802902,-295.996398488453,153.292236460248,142.704162028205
1.74828118422899,292.13798914888,285.144439939659,-6.99354920922042,-288.641214544269,149.56576917905,139.075445365219
1.75108741405921,280.271981042733,283.250897659057,2.97891661632377,-281.761439350895,138.646532213205,143.11490713769
1.75389364388943,270.063419062282,281.998990117199,11.935571054917,-276.03120458974,129.063924003682,146.967280586058
1.75669987371966,272.646534006714,285.540544722199,12.8940107154849,-279.093539364457,129.876261645615,149.217277718842
1.75950610354988,286.935636894701,293.046013295333,6.11037640063239,-289.990825095017,140.412630247034,149.578194847983
1.7623123333801,299.956699437254,302.187948694301,2.23124925704667,-301.072324065778,148.862725090104,152.209598975674
1.76511856321033,301.879736231366,300.995221047442,-0.884515183923838,-301.437478639404,151.382125707645,150.055352931759
1.76792479304055,301.688244852821,301.590303201364,-0.0979416514568356,-301.639274027093,150.893093252139,150.746180774954
1.77073102287077,285.316881780319,296.103041604937,10.7861598246182,-290.709961692628,137.26536097785,153.444600714778
1.773537252701,276.721045498779,290.552459224185,13.8314137254068,-283.636752361482,131.444815886686,152.191936474796
1.77634348253122,279.961584925551,285.152834752754,5.19124982720354,-282.557209839153,137.385167549174,145.172042289979
1.77914971236144,287.624113381391,284.993168725023,-2.63094465636846,-286.308641053207,145.12752901888,141.181112034327
1.78195594219167,291.88243625974,290.078636144826,-1.80380011491394,-290.980536202283,146.843118187327,144.137418014956
1.78476217202189,297.89830280169,296.690890859329,-1.20741194236126,-297.29459683051,149.552857372026,147.741739458484
1.78756840185211,290.171599877611,296.773603096534,6.60200321892319,-293.472601487073,141.784798329344,151.687803157729
1.79037463168233,277.659056880407,289.441820960717,11.7827640803099,-283.550438920562,132.938146400049,150.612292520514
1.79318086151256,282.095814692955,291.376399332241,9.28058463928602,-286.736107012598,136.407615026835,150.328491985764
1.79598709134278,287.502904216707,288.971246585397,1.46834236869063,-288.237075401052,143.017280924008,145.219794477044
1.798793321173,290.960231637163,290.159916858852,-0.800314778310906,-290.560074248008,145.880273207737,144.679801040271
1.80159955100323,296.067112385661,291.807373896449,-4.25973848921217,-293.937243141055,150.163425437437,143.773817703618
1.80440578083345,290.957802543856,293.525734283735,2.56793173987887,-292.241768413795,144.194935401989,148.046833011807
1.80721201066367,277.617654575168,292.429183560366,14.8115289851975,-285.023419067767,131.403062794985,153.620356272782
1.8100182404939,280.228741322131,292.537375618218,12.3086342960868,-286.383058470174,133.960053513022,152.423004957152
1.81282447032412,290.405164136687,294.848960839791,4.44379670310366,-292.627062488239,142.980683716792,149.646378771447
1.81563070015434,296.058102530017,295.211535623492,-0.846566906525595,-295.634819076755,148.452334718272,147.182484358483
1.81843692998457,301.228887585736,292.977446336839,-8.25144124889704,-297.103166961287,154.740164417316,142.363002543971
1.82124315981479,293.71615310178,290.365199467325,-3.35095363445532,-292.040676284553,148.533553368118,143.507122916435
1.82404938964501,278.591259385477,288.478291975562,9.88703259008537,-283.534775680519,134.352113397696,149.182662282824
1.82685561947524,276.379497163019,290.609201374766,14.2297042117464,-283.494349268893,131.074896475636,152.419452793256
1.82966184930546,287.356647606389,296.617172480094,9.26052487370566,-291.986910043242,139.048061366342,152.9388486769
1.83246807913568,294.211499199547,296.267298875709,2.05579967616166,-295.239399037628,146.077849761693,149.161549275935
1.8352743089659,306.27404739925,304.162099244813,-2.1119481544369,-305.218073322031,154.192997776843,151.025075545188
1.83808053879613,305.32468996777,305.174913810675,-0.149776157094209,-305.249801889223,152.737233062432,152.512568826791
1.84088676862635,295.529557141951,302.485515492887,6.95595835093553,-299.007536317419,144.286799395508,154.720736921911
1.84369299845657,290.715393192717,302.834465671857,12.1190724791401,-296.774929432287,139.298160356789,157.476769075499
1.8464992282868,288.454073231942,299.53960424996,11.0855310180181,-293.996838740951,138.684271106962,155.312567633989
1.84930545811702,289.398070124314,292.393130687191,2.99506056287709,-290.895600405752,143.201504780718,147.694095625034
1.85211168794724,294.197099459437,289.216276240092,-4.98082321934442,-291.706687849764,149.588961339391,142.117726510374
1.85491791777747,293.933348697353,286.993290604225,-6.94005809312779,-290.463319650789,150.43670339524,140.026616255549
1.85772414760769,289.578821451315,286.608202285093,-2.97061916622204,-288.093511868204,146.274720308768,141.818791559435
1.86053037743791,280.848804659142,292.748732602699,11.8999279435569,-286.798768630921,134.474438357793,152.324330273128
1.86333660726814,280.418476739248,291.205999954245,10.7875232149972,-285.812238346747,134.815476762125,150.996761584621
1.86614283709836,284.563326461087,290.499355041195,5.93602858010854,-287.531340751141,139.313648940489,148.217691810652
1.86894906692858,294.110629717392,293.366652383281,-0.743977334111094,-293.738641050337,147.427303525752,146.311337524585
1.8717552967588,296.521094519263,294.843905561615,-1.67718895764841,-295.682500040439,149.099141738456,146.583358301983
1.87456152658903,300.63245350832,301.691544802827,1.05909129450686,-301.161999155573,149.786681106907,151.375318048667
1.87736775641925,299.124620541234,307.846330666773,8.72171012553895,-303.485475604003,145.201455207847,158.284020396156
1.88017398624947,289.370579513841,303.975592104078,14.6050125902375,-296.67308580896,137.382783461802,159.290302347158
1.8829802160797,290.696243306666,300.621791353949,9.92554804728297,-295.659017330307,140.385347629691,155.273669700616
1.88578644590992,299.135498478117,298.593922271951,-0.541576206166098,-298.864710375034,149.838537342142,149.026173032892
1.88859267574014,297.261876290615,292.791920446179,-4.46995584443596,-295.026898368397,150.865916067525,144.160982300871
1.89139890557037,295.754299422108,291.81671673787,-3.93758268423773,-293.785508079989,149.845941053173,143.939567026816
1.89420513540059,291.236735913499,294.727168128958,3.49043221545878,-292.981952021229,143.87315184902,149.108800172209
1.89701136523081,281.32100018547,292.732346332984,11.4113461475133,-287.026673259227,134.954827018979,152.071846240248
1.89981759506104,277.849878523036,287.798006309965,9.94812778692904,-282.823942416501,133.950875368054,148.873067048447
1.90262382489126,283.985084615707,289.621592370575,5.63650775486809,-286.803338493141,139.174288430419,147.629050062721
1.90543005472148,290.002545855057,288.637678931609,-1.36486692344806,-289.320112393333,145.683706389252,143.63640600408
1.9082362845517,295.905832688498,294.932417960358,-0.973414728140483,-295.419125324428,148.439623708319,146.979501616109
1.91104251438193,304.287771479214,304.667644952929,0.379873473714099,-304.477708216072,151.95394900275,152.523759213321
1.91384874421215,294.076560616737,305.43856236884,11.3620017521037,-299.757561492789,141.357279432317,158.400282060472
1.91665497404237,291.989063354585,307.985406278059,15.9963429234741,-299.987234816322,137.996360215555,161.990874600766
1.9194612038726,300.167668467436,312.889381602103,12.7217131346672,-306.52852503477,143.722977666385,162.805547368385
1.92226743370282,304.901402831695,308.518523904418,3.61712107272245,-306.709963368056,150.642140879486,156.06782248857
1.92507366353304,308.075780268974,306.05665538479,-2.01912488418412,-307.066217826882,155.047452576579,152.018765250303
1.92787989336327,308.338611851491,302.729807601847,-5.60880424964421,-305.534209726669,156.973708050568,148.560501676101
1.93068612319349,296.929378905304,298.392726207878,1.46334730257394,-297.661052556591,147.733015801365,149.928036755226
1.93349235302371,286.154537205043,300.193533736251,14.0389965312075,-293.174035470647,136.057770336918,157.116265133729
1.93629858285394,291.165125512563,301.742819511632,10.5776939990685,-296.453972512097,140.293715756747,156.16025675535
1.93910481268416,300.827140738446,304.277347064741,3.45020632629564,-302.552243901593,148.688467206075,153.863776695518
1.94191104251438,309.246964066113,307.199218965886,-2.04774510022673,-308.223091516,155.64735458317,152.57573693283
1.9447172723446,312.190659336457,307.71865820474,-4.47200113171635,-309.954658770598,158.331330234086,151.623328536512
1.94752350217483,307.63857680306,306.255753405464,-1.38282339759661,-306.947165104262,154.510700100328,152.436465003933
1.95032973200505,301.362335324213,311.420009407196,10.0576740829831,-306.391172365705,145.652330620615,160.73884174509
1.95313596183527,301.358737238338,316.777685578585,15.418948340247,-309.068211408462,142.969894449046,166.098316959416
1.9559421916655,305.811633364949,314.054741980175,8.24310861522645,-309.933187672562,148.784262374861,161.148925297701
1.95874842149572,315.411191197095,317.372953264948,1.96176206785259,-316.392072231022,156.724714564621,159.6673576664
1.96155465132594,320.01197318864,316.779169286553,-3.23280390208691,-318.395571237597,161.622388545364,156.773182692233
1.96436088115617,319.349077457415,318.182468520311,-1.16660893710417,-318.765772988863,160.257843197259,158.507929791603
1.96716711098639,309.6173094539,318.656545099247,9.03923564534705,-314.136927276573,150.289036904276,163.847890372297
1.96997334081661,306.569610821903,322.751847896342,16.1822370744391,-314.660729359122,145.193686873732,169.46704248539
1.97277957064684,306.855067870154,317.883929656542,11.0288617863885,-312.369498763348,147.913103041883,164.456395721465
1.97558580047706,318.541961011386,319.551391039205,1.00943002781889,-319.046676025295,158.766265491784,160.280410533512
1.97839203030728,322.701155349058,319.740264629367,-2.96089071969175,-321.220709989212,162.831023034375,158.389686954837
1.98119826013751,319.052902702897,311.102774968782,-7.95012773411418,-315.077838835839,163.501515218505,151.576323617334
1.98400448996773,311.904598204515,313.87293276508,1.9683345605647,-312.888765484798,154.968131821975,157.920633662822
1.98681071979795,303.737744352057,315.610733898663,11.8729895466058,-309.67423912536,145.932377402726,163.741861722634
1.98961694962817,297.92840596936,310.756559854254,12.8281538848943,-304.342482911807,142.550126042233,161.792356869574
1.9924231794584,305.61400346923,309.708457184073,4.09445371484304,-307.661230326651,150.759774877193,156.901455449458
1.99522940928862,314.288394718544,310.604227198481,-3.68416752006266,-312.446310958512,158.986281119303,153.460029839209
1.99803563911884,313.826539447651,308.069488881082,-5.75705056656869,-310.948014164367,159.79179500711,151.156219157257
2.00084186894907,309.203556305091,308.079059299843,-1.12449700524752,-308.641307802467,155.164026655169,153.477281147298
2.00364809877929,296.836584840533,301.448694307079,4.61210946654626,-299.142639573806,146.112237686993,153.030401886813
2.00645432860951,285.986886330952,297.700191554916,11.713305223964,-291.843538942934,137.136790553494,154.70674838944
2.00926055843974,288.644128035937,292.821146366219,4.17701833028167,-290.732637201078,142.233554852828,148.49908234825
2.01206678826996,296.880351855856,296.376230446052,-0.5041214098041,-296.628291150954,148.69223663283,147.936054518124
2.01487301810018,301.725146651551,299.042778275518,-2.68236837603257,-300.383962463535,152.203757513792,148.180204949743
2.01767924793041,305.462311136846,301.266983373635,-4.19532776321148,-303.36464725524,154.828819450029,148.535827805212
2.02048547776063,296.763474254404,300.259143859502,3.49566960509793,-298.511309056953,146.633902324653,151.8774067323
2.02329170759085,281.907089413156,292.580854909432,10.6737654962751,-287.243972161294,135.616661958441,151.627310202853
2.02609793742107,282.742989526172,290.987299013463,8.24430948729025,-286.865144269818,137.249340019441,149.615804250376
2.0289041672513,290.706686522146,294.27815957216,3.57147305001405,-292.492423047153,143.567606736066,148.924816311087
2.03171039708152,296.746335593043,293.05577248691,-3.69056310613337,-294.901054039977,150.218449349588,144.682604690388
2.03451662691174,301.677060463404,298.435478453559,-3.24158200984556,-300.056269458482,152.459321236625,147.596948221857
2.03732285674197,296.579774096004,298.0350364294,1.45526233339598,-297.307405262702,147.562255881304,149.745149381398
2.04012908657219,281.79533930655,291.488347903707,9.69300859715736,-286.641843605128,136.051165354696,150.590678250432
2.04293531640241,281.882351512871,295.164741753192,13.2823902403209,-288.523546633032,134.299980636275,154.223565996756
2.04574154623264,291.619422992268,296.17152769456,4.55210470229173,-293.895475343414,143.533659144988,150.361816198426
2.04854777606286,298.805555704226,300.069435736253,1.26388003202754,-299.437495720239,148.770837836099,150.66665788414
2.05135400589308,304.881006358584,302.63654498188,-2.24446137670395,-303.758775670232,153.562733867644,150.196041802588
2.05416023572331,302.360478142844,295.871082622027,-6.48939552081652,-299.115780382436,154.42493683183,144.690843550605
2.05696646555353,290.67322342266,296.464031085906,5.7908076632462,-293.568627254283,142.441207879707,151.127419374576
2.05977269538375,284.082104298884,298.316048293213,14.2339439943285,-291.199076296049,134.924080152278,156.274996143771
2.06257892521398,284.628287285113,291.007656941472,6.37936965635873,-287.817972113293,139.124458814377,148.693513298915
2.0653851550442,286.970360118853,284.117049884173,-2.8533102346799,-285.543705001513,144.911835176767,140.631869824747
2.06819138487442,290.92979307491,284.750910507753,-6.1788825671569,-287.840351791332,148.554337821034,139.286013970298
2.07099761470464,290.96408366607,284.669215847765,-6.29486781830445,-287.816649756918,148.629475742187,139.187174014731
2.07380384453487,280.591990435217,283.490617904431,2.89862746921403,-282.041304169824,138.846681483001,143.194622686822
2.07661007436509,281.231511148197,296.371393537947,15.1398823897496,-288.801452343072,133.045814379224,155.755637963848
2.07941630419531,291.552479469093,308.710658415639,17.1581789465457,-300.131568942366,137.197150261274,162.934418681092
2.08222253402554,316.045361417302,329.040506069047,12.9951446517454,-322.542933743175,151.525108382778,171.017825360396
2.08502876385576,351.16706216153,362.2057064541,11.0386442925697,-356.686384307815,170.06420893448,186.622175373335
2.08783499368598,381.525778773359,399.524721716187,17.9989429428277,-390.525250244773,181.763417915266,208.761832329507
2.09064122351621,404.152881294438,428.085159345926,23.9322780514875,-416.119020320182,190.110301621475,226.008718698707
2.09344745334643,426.345454096904,463.513312096628,37.1678579997234,-444.929383096766,194.58879804859,250.340585048176
2.09625368317665,436.104566854215,474.142737327839,38.0381704736239,-455.123652091027,199.033198190296,256.090453900732
2.09905991300688,441.893724803092,465.776788669322,23.8830638662293,-453.835256736207,209.005330468432,244.829926267776
2.1018661428371,440.054255186311,444.325853639503,4.27159845319181,-442.190054412907,217.89132836656,224.298726046347
2.10467237266732,414.840633352051,403.22573668617,-11.614896665881,-409.03318501911,213.227765008966,195.805420010144
2.10747860249754,382.303735104752,365.464054968152,-16.8396801366001,-373.883895036452,199.571707620676,174.312187415776
2.11028483232777,348.288011892727,336.912474038388,-11.3755378543394,-342.600242965558,179.831774873533,162.768468092024
2.11309106215799,315.045443484388,309.574150704013,-5.47129278037488,-312.309797094201,160.258368132382,152.051428961819
2.11589729198821,297.427827169282,292.304882592581,-5.12294457670077,-294.866354880931,151.275385872991,143.59096900794
2.11870352181844,301.980509092205,290.268930320512,-11.7115787716925,-296.124719706359,156.846043931949,139.27867577441
2.12150975164866,305.729301333524,293.209821014965,-12.5194803185589,-299.469561174245,159.124390826041,140.345170348203
2.12431598147888,307.437742517327,299.595274836799,-7.84246768052844,-303.516508677063,157.640105098928,145.876403578135
2.12712221130911,308.144136050666,306.68663647602,-1.45749957464608,-307.415386263343,154.800817812656,152.614568450687
2.12992844113933,293.746305392851,306.144726621705,12.3984212288541,-299.945516007278,140.673942081998,159.27157392528
2.13273467096955,293.543716966307,302.376738545479,8.833021579172,-297.960227755893,142.355347693567,155.604880062325
2.13554090079978,303.993430409652,310.559795355344,6.5663649456921,-307.276612882498,148.71353273198,158.563080150518
2.13834713063,312.425383272496,312.106496465073,-0.318886807423439,-312.265939868784,156.37213503996,155.893804828825
2.14115336046022,313.515725866285,309.654266197235,-3.86145966904985,-311.58499603176,158.688592767667,152.896403264093
2.14395959029044,311.374303755753,305.820625661315,-5.55367809443857,-308.597464708534,158.463990925096,150.133473783438
2.14676582012067,296.706467197665,300.062802657018,3.35633545935303,-298.384634927341,146.675065869156,151.709569058185
2.14957204995089,285.673410365214,297.558218867509,11.8848085022952,-291.615814616361,136.894300931459,154.721513684902
2.15237827978111,291.946768255672,301.521885628313,9.57511737264031,-296.734326941993,141.185825441516,155.548501500477
2.15518450961134,298.19594990402,301.809246393307,3.61329648928688,-300.002598148663,147.291326707366,152.711271441297
2.15799073944156,306.671081586391,306.751951125075,0.0808695386839418,-306.711516355733,153.295106023854,153.41641033188
2.16079696927178,313.361622639478,311.858840879987,-1.50278175949165,-312.610231759733,157.432202199485,155.178029560248
2.16360319910201,302.401679203725,304.838420435667,2.43674123194216,-303.620049819696,149.982468985892,153.637580833805
2.16640942893223,287.774677800809,303.71290007854,15.9382222777306,-295.743788939675,135.918227761539,159.825561178135
2.16921565876245,292.136029790294,306.671702373218,14.5356725829243,-299.403866081756,138.800178603685,160.603687478071
2.17202188859268,301.190186892405,304.67175751382,3.48157062141519,-302.930972203113,148.854308135495,154.076664067618
2.1748281184229,307.837888413356,306.870454906731,-0.967433506624388,-307.354171660044,154.40266095999,152.951510700054
2.17763434825312,315.264311215617,309.842456579476,-5.42185463614067,-312.553383897546,160.343082925879,152.210300971668
2.18044057808334,313.054812852958,310.648495387581,-2.40631746537753,-311.851654120269,157.730565159168,154.121088961102
2.18324680791357,304.911466991721,315.897221319379,10.9857543276585,-310.40434415555,146.962856332031,163.441487823519
2.18605303774379,300.405654867922,315.782128058249,15.3764731903265,-308.093891463086,142.514590838798,165.579300624288
2.18885926757401,300.214374433255,302.483629231599,2.26925479834387,-301.349001832427,148.972559817455,152.376442014971
2.19166549740424,303.99895505135,302.999082512806,-0.999872538543741,-303.499018782078,152.499413794947,150.999604987131
2.19447172723446,311.066219017513,305.814322900755,-5.25189611675791,-308.440270959134,158.159057567136,150.281213391999
2.19727795706468,312.711016809531,311.502819107688,-1.20819770184249,-312.106917958609,156.959607255687,155.147310702923
2.20008418689491,307.095596049991,316.102992179492,9.00739612950127,-311.599294114742,149.044099960245,162.555194154497
2.20289041672513,303.584168982696,319.788252189191,16.204083206496,-311.686210585944,143.6900428881,167.996167697844
2.20569664655535,304.187709327039,314.260278597067,10.072569270028,-309.223993962053,147.057570028505,162.166423933547
2.20850287638558,313.148556310135,318.148419268898,4.99986295876266,-315.648487789517,154.074346675686,161.57414111383
2.2113091062158,323.915135773536,323.910325789238,-0.00480998429810597,-323.912730781387,161.959972878917,161.95275790247
2.21411533604602,325.350082103716,322.345738320997,-3.00434378271945,-323.847910212357,164.177212943218,159.670697269139
2.21692156587625,322.332072312986,321.330216023003,-1.00185628998321,-321.831144167995,161.666964301485,160.16417986651
2.21972779570647,311.881938350091,323.865126408064,11.9831880579723,-317.873532379077,149.94937514606,167.924157233018
2.22253402553669,305.240335459875,320.137787044345,14.8974515844702,-312.68906125211,145.171441937703,167.517619314408
2.22534025536691,313.274563487879,320.306204892995,7.03164140511626,-316.790384190437,153.121461041381,163.668923149056
2.22814648519714,321.618075031738,322.839017591138,1.22094255940004,-322.228546311438,160.198566236169,162.029980075269
2.23095271502736,323.034032951061,319.211519900536,-3.82251305052495,-321.122776425798,163.428273000793,157.694503425005
2.23375894485758,326.600868374306,324.55982180116,-2.04104657314684,-325.580345087733,164.320957473727,161.259387614006
2.23656517468781,322.040098809675,330.802029839006,8.76193102933166,-326.42106432434,156.639083890171,169.781980434169
2.23937140451803,313.164974026473,326.909263459057,13.7442894325841,-320.037118742765,149.710342296944,170.326776445821
2.24217763434825,318.414924878494,329.49925977126,11.0843348927655,-323.957092324877,153.665294992864,170.291797332013
2.24498386417848,324.47859818693,325.876586704578,1.3979885176484,-325.177592445754,161.540304834641,163.637287611113
2.2477900940087,322.873659270881,318.17413902378,-4.69952024710068,-320.52389914733,163.786589758991,156.73730938834
2.25059632383892,322.87192521501,319.773658720234,-3.09826649477674,-321.322791967622,162.985095854894,158.337696112728
2.25340255366915,321.060127260376,321.644097665258,0.583970404881939,-321.352112462817,160.238078427747,161.11403403507
2.25620878349937,312.08136861879,324.765798594861,12.6844299760713,-318.423583606825,149.698469321359,168.725114285466
2.25901501332959,318.540728156575,334.675585300314,16.134857143739,-326.608156728445,151.202935506418,175.405221222027
2.26182124315981,334.274907248206,342.748539719367,8.47363247116061,-338.511723483787,162.900637388523,175.611086095264
2.26462747299004,336.667850483747,338.951228669238,2.28337818549107,-337.809539576493,167.192236149128,170.617303427365
2.26743370282026,342.213824534934,338.102124243268,-4.11170029166533,-340.157974389101,173.1627624133,166.995211975802
2.27023993265048,341.199164835949,342.828637415183,1.62947257923332,-342.013901125566,169.784846128358,172.229054997208
2.27304616248071,329.969064455714,338.703125604217,8.73406114850252,-334.336095029966,160.617501653606,173.71859337636
2.27585239231093,322.714639166708,336.858207421906,14.1435682551974,-329.786423294307,154.285535455755,175.500887838552
2.27865862214115,329.220639746721,337.62303007152,8.40239032479911,-333.421834909121,160.409124710961,173.01271019816
2.28146485197138,334.71220742046,334.924222853138,0.212015432677902,-334.818215136799,167.250095993891,167.568119142908
2.2842710818016,345.438880251268,343.326008837541,-2.11287141372708,-344.382444544404,173.775875832497,170.606568711907
2.28707731163182,349.922721221499,347.608049074966,-2.3146721465331,-348.765385148232,176.118696684016,172.646688464216
2.28988354146205,341.691956526401,347.507718863299,5.8157623368981,-344.59983769485,167.938097094751,176.661740600099
2.29268977129227,333.986598871831,350.111527670922,16.1249287990913,-342.049063271377,158.93083503637,183.118228235007
2.29549600112249,340.354956338266,350.62417397126,10.2692176329942,-345.489565154763,165.042869352636,180.446695802127
2.29830223095271,344.799520212061,349.900778551741,5.10125833968056,-347.350149381901,169.84913093619,177.501018445711
2.30110846078294,351.651428710194,349.594986677363,-2.05644203283043,-350.623207693779,176.853935371512,173.769272322266
2.30391469061316,356.630328674289,352.500183420458,-4.13014525383119,-354.565256047374,180.38023696406,174.185019083313
2.30672092044338,350.481435426697,355.43025230309,4.94881687639247,-352.955843864894,172.766309275153,180.189534589741
2.30952715027361,343.265746580461,357.317027785334,14.0512812048722,-350.291387182897,164.607232687795,185.684154495103
2.31233338010383,341.413579689734,357.470225058836,16.0566453691023,-349.441902374285,162.678467160316,186.763435213969
2.31513960993405,346.916061530598,353.859719078351,6.94365754775396,-350.387890304474,169.986201991422,180.401688313053
2.31794583976428,355.799248164125,351.864775214516,-3.93447294960839,-353.83201168932,179.866860556866,173.965151132454
2.3207520695945,358.228570484876,352.388036742793,-5.84053374208315,-355.308303613834,182.034552113479,173.273751500355
2.32355829942472,351.301347424026,349.41404250343,-1.88730492059636,-350.357694963728,176.594326172311,173.763368791417
2.32636452925495,344.558597962708,353.446573927195,8.887975964487,-349.002585944951,167.83531099911,181.167274945841
2.32917075908517,341.472394994561,355.20098506785,13.7285900732886,-348.336690031205,163.871902460636,184.464787570569
2.33197698891539,345.049548665037,353.849558437519,8.80000977248181,-349.449553551278,168.124769446278,181.324784105001
2.33478321874562,354.887208209745,355.122023038279,0.234814828533729,-355.004615624012,177.326196690606,177.678418933406
2.33758944857584,359.785129865508,354.235410934339,-5.54971893116846,-357.010270399924,182.667424398338,174.342846001585
2.34039567840606,354.165699052663,347.398979622344,-6.76671943031823,-350.782339337504,180.46620924149,170.316130096013
2.34320190823628,345.883012804482,346.589166612217,0.706153807735575,-346.236089708349,172.588429498373,173.647660209976
2.34600813806651,332.547123043161,343.007235646296,10.460112603135,-337.777179344728,161.043505220013,176.733674124715
2.34881436789673,328.235905609085,337.956923884969,9.72101827588403,-333.096414747027,159.257443666601,173.838971080427
2.35162059772695,335.827938615572,339.222294188736,3.39435557316432,-337.525116402154,166.216791521204,171.30832488095
2.35442682755718,339.254002353038,335.918774352157,-3.33522800088053,-337.586388352598,171.294615176959,166.291773175638
2.3572330573874,337.147176747481,332.429751103938,-4.7174256435427,-334.788463925709,170.932301195512,163.856162730198
2.36003928721762,336.083898770288,333.652001621266,-2.43189714902161,-334.867950195777,169.257897959655,165.610052236122
2.36284551704785,322.447019672646,329.747395777736,7.30037610508953,-326.097207725191,157.573321783778,168.523885941413
2.36565174687807,311.35120585731,319.06074582011,7.7095399627994,-315.20597583871,151.820832947255,163.385142891454
2.36845797670829,312.813022024439,316.317364454321,3.504342429882,-314.56519323938,154.654339797279,159.910853442102
2.37126420653852,316.932248451752,311.706779933561,-5.22546851819163,-314.319514192656,161.078858484972,153.240655707684
2.37407043636874,314.250585449414,306.537738964905,-7.71284648450893,-310.39416220716,160.981715966962,149.412446240198
2.37687666619896,318.119906203593,312.559079702321,-5.56082650127183,-315.339492952957,161.840366352432,153.499126600524
2.37968289602918,308.171681009831,307.360520799555,-0.811160210276284,-307.766100904693,154.491420610054,153.274680294639
2.38248912585941,292.42758277287,302.171366593368,9.74378382049798,-297.299474683119,141.341899476186,155.957575206933
2.38529535568963,291.849810321259,298.422272031184,6.57246170992482,-295.136041176221,142.638674305667,152.497366870554
2.38810158551985,295.757273557648,291.541657343713,-4.21561621393528,-293.649465450681,149.986444885792,143.663020564889
2.39090781535008,297.406077131684,292.644834154933,-4.76124297675096,-295.025455643308,151.083660054217,143.941795589091
2.3937140451803,305.053262002103,300.453790110393,-4.59947189170992,-302.753526056248,154.826366946906,147.927159109342
2.39652027501052,305.789086523373,308.989247137545,3.20016061417147,-307.389166830459,151.294462954601,156.094703875858
2.39932650484075,294.462566119588,306.246959792918,11.7843936733301,-300.354762956253,141.339086223129,159.015676733124
2.40213273467097,293.073501671844,305.712972341877,12.6394706700334,-299.39323700686,140.217015500905,159.176221505955
2.40493896450119,296.736327609661,302.499730175593,5.76340256593176,-299.618028892627,145.486462521865,154.131566370762
2.40774519433142,298.543948078138,291.70706344964,-6.83688462849847,-295.125505763889,152.690416353318,142.435089410571
2.41055142416164,299.026185326784,292.464585862412,-6.5615994643727,-295.745385594598,152.793892395578,142.951493199019
2.41335765399186,295.484763451131,294.81337849154,-0.67138495959108,-295.149070971336,148.078074205361,147.070996765974
2.41616388382208,287.568446270991,293.436236039342,5.86778976835086,-290.502341155166,140.85032825132,149.652012903846
2.41897011365231,283.161841717697,296.705882696408,13.5440409787109,-289.933862207052,134.808900369493,155.124961837559
2.42177634348253,294.629014037003,303.200294761413,8.57128072440923,-298.914654399208,143.028866656297,155.885787742911
2.42458257331275,302.672289694776,304.755198269672,2.08290857489652,-303.713743982224,150.29469055994,153.419053422284
2.42738880314298,306.01045947158,300.598429168394,-5.41203030318616,-303.304444319987,155.711244887383,147.593199432604
2.4301950329732,300.154891386542,293.707407505016,-6.44748388152578,-296.931149445779,153.301187634034,143.629961811745
2.43300126280342,288.673927449559,293.621028215028,4.94710076546829,-291.147477832294,141.863413342046,149.284064490248
2.43580749263365,280.387208425346,296.732480396696,16.3452719713502,-288.559844411021,132.020968226998,156.538876184023
2.43861372246387,283.657198824853,294.929816746376,11.2726179215227,-289.293507785615,136.192290451665,153.101217333949
2.44141995229409,291.826277994879,296.84444558456,5.0181675896809,-294.33536178972,143.404055202599,150.93130658712
2.44422618212432,300.760334009031,298.603370968321,-2.15696304070917,-299.681852488676,151.45864852487,148.223203963806
2.44703241195454,300.702493126777,296.546669792278,-4.15582333449851,-298.624581459528,152.429158230638,146.19542322889
2.44983864178476,295.815449374599,294.807191342832,-1.00825803176645,-295.311320358716,148.411853703183,146.899466655533
2.45264487161498,284.700731756388,296.814307094396,12.1135753380077,-290.757519425392,136.29357820919,154.463941216202
2.45545110144521,277.72958943235,290.759223878303,13.0296344459533,-284.244406655326,132.349977493198,151.894429162128
2.45825733127543,282.953198805448,290.950854426876,7.99765562142773,-286.952026616162,137.47777159201,149.474255024152
2.46106356110565,294.469379398482,295.541467770141,1.07208837165825,-295.005423584311,146.698645513412,148.306778070899
2.46386979093588,301.296783601268,298.361949567309,-2.93483403395913,-299.829366584289,152.115808817614,147.713557766675
2.4666760207661,307.012091158617,306.011736899414,-1.00035425920288,-306.511914029015,154.00622270891,152.505691320106
2.46948225059632,303.984063536724,310.896387231628,6.91232369490348,-307.440225384176,148.53586992091,158.904355463266
2.47228848042655,292.651852434063,307.514670351705,14.8628179176421,-300.083261392884,138.89451725821,161.188744134673
2.47509471025677,292.061868964352,302.072135243121,10.0102662787691,-297.067002103737,141.025801342792,156.041200760945
2.47790094008699,299.44694627762,302.699240028579,3.2522937509583,-301.073093153099,148.097326263331,152.975766889768
2.48070716991722,303.13795918775,301.351259101195,-1.78670008655507,-302.244609144472,152.462329637152,149.78227950732
2.48351339974744,304.241850455117,298.223531493771,-6.01831896134644,-301.232690974444,155.130084708232,146.102606266212
2.48631962957766,301.031973201979,296.791891848243,-4.24008135373595,-298.911932525111,152.636027277858,146.275905247254
2.48912585940789,284.525081042922,295.338820551638,10.813739508716,-289.93195079728,136.855670767103,153.076280030177
2.49193208923811,282.168360521494,293.199943836396,11.0315833149019,-287.684152178945,135.568388603296,152.115763575649
2.49473831906833,291.285603055355,297.565114848906,6.27951179355097,-294.42535895213,142.503045630902,151.922313321228
2.49754454889855,296.98949220111,294.187352285931,-2.80213991517923,-295.58842224352,149.895816058145,145.692606185376
2.50035077872878,302.479651060366,299.44404815922,-3.03560290114552,-300.961849609793,152.757626980756,148.204222629037
2.503157008559,306.007064085924,304.760090402259,-1.24697368366577,-305.383577244092,153.627018884795,151.756558359296
2.50596323838922,292.310001601383,300.111727376098,7.80172577471438,-296.210864488741,142.254137913334,153.956726575406
2.50876946821945,284.307730568377,298.35932742233,14.0515968539529,-291.333528995354,135.128066857212,156.205462138142
2.51157569804967,291.329708547935,301.604378036976,10.2746694890412,-296.467043292456,140.527519529447,155.939523763009
2.51438192787989,300.995864716848,304.144313586436,3.14844886958747,-302.570089151642,148.92370792363,153.646381228012
2.51718815771012,307.704599044519,303.671046064514,-4.03355298000503,-305.687822554516,155.869076012262,149.818746542254
2.51999438754034,309.857007707542,306.701242848271,-3.15576485927119,-308.279125277906,156.506386283407,151.7727389945
2.52280061737056,297.045145594008,301.946412531044,4.90126693703593,-299.495779062526,146.071939328486,153.42383973404
2.52560684720079,287.482838685112,299.521401597409,12.0385629122973,-293.502120141261,137.722137886407,155.779982254853
2.52841307703101,289.417875453041,300.554893330076,11.1370178770353,-294.986384391559,139.140428788003,155.845955603556
2.53121930686123,296.069412256654,301.095041939721,5.02562968306717,-298.582227098188,145.521891286793,153.060335811394
2.53402553669146,305.882032572519,303.882061405384,-1.9999711671353,-304.882046988952,153.941001869827,150.941045119124
2.53683176652168,307.546510877984,307.551616218473,0.00510534048919453,-307.549063548228,153.770702768747,153.778360779481
2.5396379963519,301.758438296472,297.762054140459,-3.99638415601248,-299.760246218466,152.877411226242,146.882834992224
2.54244422618212,287.704529933986,297.695025489059,9.99049555507321,-292.699777711523,138.857017189456,153.842760522066
2.54525045601235,284.568246453703,296.507970993928,11.9397245402253,-290.538108723816,136.314260956739,154.223847767077
2.54805668584257,290.217239839658,297.09799916072,6.88075932106182,-293.657619500189,141.668240259298,151.989379240891
2.55086291567279,300.994410750346,301.066099929907,0.0716891795605079,-301.030255340126,150.461360785393,150.568894554734
2.55366914550302,307.111697463804,302.331844722687,-4.77985274111631,-304.721771093245,155.94577510246,148.775995990785
2.55647537533324,305.440620256987,303.615317209164,-1.82530304782244,-304.527968733076,153.632961652405,150.895007080671
2.55928160516346,299.99258667942,308.893627327065,8.90104064764455,-304.443107003242,145.545773015888,158.897333987355
2.56208783499369,291.765303922342,307.455137021102,15.6898330987602,-299.610220471722,138.037735411791,161.572485059931
2.56489406482391,291.321102956984,299.030528846213,7.70942588922946,-295.175815901599,141.805838533877,153.369977367721
2.56770029465413,302.101941372492,304.298236302268,2.19629492977543,-303.20008883738,149.952823221358,153.247265616022
2.57050652448436,305.739828483626,303.244357866432,-2.49547061719409,-304.492093175029,154.11764955041,150.374443624619
2.57331275431458,303.238966747887,300.555680375341,-2.68328637254513,-301.897323561614,152.961126560216,148.936197001398
2.5761189841448,299.262109525649,300.03728731307,0.775177787421399,-299.649698419359,149.243465869114,150.406232550246
2.57892521397502,290.849472461743,303.299496485034,12.4500240232903,-297.074484473389,139.199724219227,157.874760254162
2.58173144380525,289.409832033056,303.025821420393,13.6159893873369,-296.217826726724,137.896921322859,158.320905403865
2.58453767363547,302.176606597125,309.507110845249,7.33050424812456,-305.841858721187,147.4230511745,158.418807546687
2.58734390346569,311.35506560078,312.075232486089,0.720166885309595,-311.715149043435,155.317449357735,156.397699685699
2.59015013329592,313.052708183632,312.439161107767,-0.613547075865085,-312.745934645699,156.833127629748,155.912807015951
2.59295636312614,314.609573385204,314.274283219692,-0.335290165511594,-314.441928302448,157.472431775358,156.96949652709
2.59576259295636,304.973819777326,313.25809487212,8.28427509479405,-309.115957324723,148.344772341266,160.771184983457
2.59856882278659,297.448172982426,312.037799310962,14.5896263285366,-304.742986146694,141.429273326944,163.313712819749
2.60137505261681,304.289351692839,315.722271715729,11.4329200228906,-310.005811704284,146.428215834974,163.57759586931
2.60418128244703,315.094552047857,317.911638156701,2.81708610884419,-316.503095102279,156.138732969506,160.364362132773
2.60698751227726,318.000883679895,313.384203133882,-4.61668054601273,-315.692543406888,161.308782112954,154.383761293935
2.60979374210748,321.884134555749,318.459659328039,-3.42447522770942,-320.171896941894,162.654304891729,157.517592050165
2.6125999719377,313.916063426704,319.123183229251,5.20711980254725,-316.519623327977,154.354471812078,162.165151515899
2.61540620176792,301.442073229164,312.055265302168,10.6131920730034,-306.748669265666,145.41444057808,161.334228687585
2.61821243159815,300.430050307877,315.922048975632,15.4919986677547,-308.176049641754,142.469025820061,165.707023821693
2.62101866142837,311.94299692923,316.749802630337,4.8068057011065,-314.346399779783,153.568095614062,160.778304165722
2.62382489125859,316.071308021195,315.397442176841,-0.673865844354395,-315.734375099018,158.372586932775,157.361788166243
2.62663112108882,322.031453373655,319.590871579946,-2.44058179370853,-320.8111624768,162.236017583682,158.575144893119
2.62943735091904,320.654950546924,318.909213097712,-1.74573744921213,-319.782081822318,161.200343998068,158.58173782425
2.63224358074926,309.390459558258,321.098014338143,11.7075547798852,-315.2442369482,148.841452389186,166.402784559014
2.63504981057949,310.665055250579,326.134709134982,15.4696538844028,-318.39988219278,147.597700683088,170.802181509692
2.63785604040971,317.880959175998,326.560555536183,8.67959636018469,-322.22075735609,154.600681407907,167.620075948184
2.64066227023993,322.164090139365,322.385796476644,0.221706337278818,-322.274943308005,160.971191901043,161.303751406961
2.64346850007016,325.168767343088,316.792502209962,-8.37626513312568,-320.980634776525,166.772516238107,154.208118538418
2.64627472990038,319.389917684721,310.851156327691,-8.53876135702933,-315.120537006206,163.964339520875,151.156197485331
2.6490809597306,304.408996710556,307.252077149426,2.84308043887035,-305.830536929991,150.782958135843,155.047578794148
2.65188718956082,297.811313337025,311.119338191644,13.3080248546187,-304.465325764335,142.251644241203,162.213681523131
2.65469341939105,298.813288145323,307.190585704357,8.37729755903416,-303.00193692484,145.217995293144,157.783941631696
2.65749964922127,303.350856826946,306.444444981467,3.09358815452123,-304.897650904207,150.128634336212,154.769016567994
2.66030587905149,312.056353860198,308.857887262064,-3.19846659813464,-310.457120561131,157.627410229166,152.829710331964
2.66311210888172,313.900568057744,306.636246914907,-7.26432114283728,-310.268407486326,160.582444600291,149.685962886035
2.66591833871194,309.406840620985,306.350940587261,-3.05590003372339,-307.878890604123,156.231370327354,151.647520276769
2.66872456854216,299.095321235405,309.229983387187,10.1346621517818,-304.162652311296,144.480329541812,159.682322769484
2.67153079837239,292.866658358491,303.983809530426,11.1171511719346,-298.425233944458,140.874753593278,157.55048035118
2.67433702820261,293.522508097092,295.525963521413,2.00345542432069,-294.524235809253,145.759526336386,148.764709472867
2.67714325803283,298.920385219859,294.91386831253,-4.00651690732872,-296.917126766194,151.463451063594,145.453675702601
2.67994948786306,300.474184965035,294.49327069606,-5.98091426897491,-297.483727830548,153.227549617005,144.256178213543
2.68275571769328,298.485993135419,296.502665223029,-1.98332791239022,-297.494329179224,150.234660523905,147.259668655319
2.6855619475235,293.252196671607,300.19153162217,6.93933495056251,-296.721864146889,143.156430860522,153.565433286366
2.68836817735373,282.795471705567,294.66940183162,11.8739301260527,-288.732436768593,135.460770789757,153.271665978836
2.69117440718395,284.660905985378,291.615594212538,6.95468822716037,-288.138250098958,138.853108879109,149.285141219849
2.69398063701417,293.80968472153,294.007582216918,0.197897495387963,-293.908633469224,146.805893613071,147.102739856153
2.69678686684439,297.105679527085,291.346149938033,-5.75952958905197,-294.225914732559,151.432604558069,142.793310174491
2.69959309667462,296.592295488897,291.6397857638,-4.95250972509723,-294.116040626348,150.772402606997,143.343638019351
2.70239932650484,292.453866131043,296.20358420852,3.74971807747716,-294.328725169782,144.352074026783,149.976651142999
2.70520555633506,281.760102341668,295.438592330718,13.6784899890496,-288.599347336193,134.040806176309,154.558541159884
2.70801178616529,280.784528522151,295.727177187232,14.942648665081,-288.255852854691,132.920939928535,155.334912926156
2.71081801599551,291.709030861535,297.105669399888,5.39663853835327,-294.407350130711,143.156196161591,151.251153969121
2.71362424582573,295.791606974762,292.200761216457,-3.59084575830451,-293.996184095609,149.691226366533,144.304957729076
2.71643047565596,294.739912275445,291.78273834697,-2.95717392847496,-293.261325311208,148.84854310196,144.412782209248
2.71923670548618,294.626826299365,291.227697322871,-3.39912897649441,-292.927261811118,149.01297763793,143.914284173188
2.7220429353164,278.680946168048,289.27134974806,10.5904035800127,-283.976147958054,134.045271294017,149.930876664036
2.72484916514663,274.900906475754,288.869574794999,13.9686683192456,-281.885240635377,130.466119078254,151.419121557123
2.72765539497685,283.599741352388,291.070641415015,7.47090006262658,-287.335191383702,138.064420644881,149.270770738821
2.73046162480707,289.568828963188,287.007176904147,-2.5616520590408,-288.288002933667,146.065240511114,142.222762422553
2.73326785463729,294.924826677158,289.93763561778,-4.98719105937778,-292.431231147469,149.956008868268,142.475222279201
2.73607408446752,294.678605234085,294.231788929497,-0.446816304588708,-294.455197081791,147.562710769337,146.892486312454
2.73888031429774,287.509515148813,295.06151611552,7.552000966707,-291.285515632167,139.978757091053,151.306758541114
2.74168654412796,292.014292421235,313.018652679807,21.0043602585725,-302.516472550521,135.504966081331,167.01150646919
2.74449277395819,319.649719165992,347.15747101663,27.5077518506377,-333.403595091311,146.070983657677,187.332611433634
2.74729900378841,357.224144025666,381.513211597853,24.289067572187,-369.368677811759,166.467538226739,202.90113958502
2.75010523361863,397.156749358705,419.151480024779,21.9947306660743,-408.154114691742,187.581009346315,220.573105345427
2.75291146344886,429.377660329175,447.251637625582,17.8739772964068,-438.314648977379,205.751841516384,232.562807460995
2.75571769327908,435.977222869081,458.726497056669,22.7492741875878,-447.351859962875,206.613974340746,240.737885622128
2.7585239231093,429.262946469095,455.298150096834,26.0352036277395,-442.280548282964,201.613871420678,240.666676862287
2.76133015293953,423.033629988468,443.460184062386,20.4265540739188,-433.246907025427,201.303537957274,231.943369068153
2.76413638276975,407.615860220154,409.849931496969,2.23407127681526,-408.732895858562,202.690894471669,206.042001386892
2.76694261259997,389.394158622923,375.366251839444,-14.0279067834792,-382.380205231184,201.711032703201,180.669172527982
2.76974884243019,368.111897419501,346.878669483998,-21.2332279355026,-357.495283451749,194.672562677502,162.822720774248
2.77255507226042,338.010904337444,316.963627916569,-21.0472764208751,-327.487266127006,179.52909037916,147.958175747847
2.77536130209064,308.363778867367,298.349069579098,-10.0147092882684,-303.356424223232,159.189244077818,144.167180145415
2.77816753192086,287.101868100477,285.013781232811,-2.08808686766611,-286.057824666644,144.594977484072,141.462847182573
2.78097376175109,283.68196619943,281.623466422366,-2.05849977706407,-282.652716310898,142.870232988247,139.782483322651
2.78377999158131,296.437918815605,287.447860437116,-8.99005837848881,-291.94288962636,152.713988597047,139.228901029314
2.78658622141153,306.991877717751,300.061894512719,-6.92998320503216,-303.526886115235,156.960930461392,146.565955653844
2.78939245124176,305.415256204051,300.520821842747,-4.89443436130381,-302.968039023399,155.154845282678,147.813193740722
2.79219868107198,301.614133467624,301.578946117819,-0.0351873498049713,-301.596539792722,150.824660408715,150.771879384007
2.7950049109022,291.361712974066,301.193700325521,9.83198735145504,-296.277706649793,140.764862811305,155.512843838488
2.79781114073243,287.786274607574,297.58782775923,9.80155315165683,-292.687051183402,138.992360727958,153.694690455444
2.80061737056265,296.554752212802,297.633662766186,1.07891055338416,-297.094207489494,147.737920829709,149.356286659785
