t,leadI,leadII,leadIII,aVR,aVL,aVF
0,116.72445985771,131.567869348763,14.8434094910533,-124.146164603236,50.9405251833282,73.2056394199081
0.00216333153055706,105.993618696662,113.852306687108,7.85868799044633,-109.922962691885,49.0674653531078,60.8554973387773
0.00432666306111412,90.2352934069135,97.5428309138413,7.30753750692783,-93.8890621603774,41.4638779499928,52.4251842103846
0.00648999459167117,72.219396456158,81.2953632943476,9.07596683818964,-76.7573798752528,31.5717148089842,45.1856650662686
0.00865332612222823,62.6229521438445,68.509799339186,5.88684719534159,-65.5663757415152,28.3680524742514,37.1983232672638
0.0108166576527853,61.5196446877464,63.2161563197962,1.69651163204981,-62.3679005037713,29.9115665278483,32.456333975923
0.0129799891833423,70.2237811833172,66.8490406481129,-3.37474053520434,-68.536410915715,36.7992608592608,31.7371500564543
0.0151433207138994,70.0099855843676,68.8093785491773,-1.20060703519033,-69.4096820667724,35.605296309779,33.8043857569935
0.0173066522444565,71.6508462000277,68.0882825897156,-3.56256361031207,-69.8695643948716,37.6067049051699,32.2628594897018
0.0194699837750135,68.7601521077518,67.8342349294098,-0.925917178341976,-68.2971935185808,34.8430346430469,33.4541588755339
0.0216333153055706,63.2267756270832,65.0297483609053,1.80297273382207,-64.1282619939943,30.7119014466306,33.4163605473637
0.0237966468361276,49.9468309205223,53.5706095925583,3.62377867203602,-51.7587202565403,23.1615261242431,28.5971941322972
0.0259599783666847,39.5862080037313,44.7714020800293,5.18519407629797,-42.1788050418803,17.2005069637167,24.9782980781636
0.0281233098972418,40.0969768301693,41.0324888059777,0.935511975808403,-40.5647328180735,19.5807324271805,20.9840003908931
0.0302866414277988,47.1783332393105,44.572049692531,-2.60628354677948,-45.8751914659207,24.892308393045,20.9828830728758
0.0324499729583559,54.8221454499487,50.3940663085417,-4.42807914140701,-52.6081058792452,29.6251122956778,22.9829935835673
0.0346133044889129,57.9853722063388,54.3857718289588,-3.59960037738005,-56.1855720176488,30.7924862918594,25.3930857257894
0.03677663601947,56.721877276387,54.1938768804962,-2.52800039589081,-55.4578770784416,29.6249388361389,25.8329382423027
0.038939967550027,55.3224733852062,55.5327918259789,0.210318440772689,-55.4276326055925,27.5560774722167,27.8715551333758
0.0411032990805841,46.2088206297844,46.6471715213819,0.438350891597551,-46.4279960755832,22.8852348690934,23.5427612064897
0.0432666306111412,33.5472698387735,37.9301730187787,4.38290318000521,-35.7387214287761,14.5821833293842,21.156538099392
0.0454299621416982,29.1758553529149,32.5019220028358,3.32606664992091,-30.8388886778754,12.924894351497,17.9139943263784
0.0475932936722553,35.9863400550903,33.4131804949303,-2.57315956016005,-34.6997602750103,19.2797498076252,15.4200104673851
0.0497566252028123,43.3598985066861,39.7780534983371,-3.58184500834897,-41.5689760025116,23.4708717575175,18.0981042449941
0.0519199567333694,46.4329686854812,42.8764044108602,-3.55656427462094,-44.6546865481707,24.9947664800511,19.6599200681196
0.0540832882639264,47.7282129833462,45.9936480541509,-1.73456492919532,-46.8609305187485,24.7313889562707,22.1295415624778
0.0562466197944835,49.0719857863701,46.0469446816626,-3.02504110470751,-47.5594652340163,26.0485134455388,21.5109517884775
0.0584099513250406,42.6721676873897,42.2276883006741,-0.44447938671555,-42.4499279940319,21.5583235370526,20.8916044569793
0.0605732828555976,31.6836911031221,33.618200573875,1.93450947075285,-32.6509458384986,14.8745908161846,17.7763550223139
0.0627366143861547,23.8984053963231,27.228584346982,3.33017895065889,-25.5634948716525,10.2841132228321,15.2793816488204
0.0648999459167117,27.1045883638589,28.5799086793502,1.47532031549131,-27.8422485216046,12.8146340241838,15.0276144974208
0.0670632774472688,36.5013664193527,31.436105687274,-5.06526073207863,-33.9687360533134,20.7833135757157,13.1854224775977
0.0692266089778259,40.2999558432172,35.2291848989408,-5.07077094427635,-37.764570371079,22.6853633937468,15.0792069773322
0.0713899405083829,42.6665998686512,38.5511594219804,-4.11544044667081,-40.6088796453158,23.391020157661,17.2178594876548
0.07355327203894,42.0992957530903,40.5864374193769,-1.51285833371338,-41.3428665862336,21.8060770434018,19.5367895428318
0.075716603569497,40.8527813437307,40.2874438726625,-0.565337471068162,-40.5701126081966,20.7090594073994,19.8610532007972
0.0778799351000541,30.7149557033166,33.3427467836178,2.62779108030121,-32.0288512434672,14.0435823115077,17.9852689319595
0.0800432666306111,21.0158600159189,24.3273475090766,3.31148749315773,-22.6716037624978,8.85218626138058,13.8194175011172
0.0822065981611682,19.7348443216349,19.7082216347347,-0.0266226869001542,-19.7215329781848,9.88073350426752,9.84079947391729
0.0843699296917253,27.947311274616,24.6238269452936,-3.32348432932237,-26.2855691099548,15.6353978019692,10.6501713079856
0.0865332612222823,33.3109541807913,29.9588014777104,-3.35215270308081,-31.6348778292509,18.331553441936,13.3033243873148
0.0886965927528394,36.0375546402165,34.3244649562494,-1.7130896839671,-35.1810097982329,18.8753221620918,16.3056876361411
0.0908599242833964,37.5876093088395,36.7535746087117,-0.834034700127752,-37.1705919587756,19.2108220044836,17.959769954292
0.0930232558139535,39.1020926939017,36.7623308659662,-2.33976182793553,-37.9322117799339,20.7209272609186,17.2112845190153
0.0951865873445105,29.7551798184865,32.244750660902,2.48957084241543,-30.9999652396943,13.6328044880356,17.3671607516587
0.0973499188750676,21.2601932895153,22.9861703806943,1.72597709117897,-22.1231818351048,9.76710809916817,12.3560737359366
0.0995132504056247,14.6821672134658,17.1876015978445,2.50543438437873,-15.9348844056552,6.08836641454353,9.84651799111162
0.101676581936182,20.1615353657224,18.6281640113365,-1.53337135438589,-19.3948496885294,10.8474533600541,8.54739632847528
0.103839913466739,27.1557673083007,23.9274875783514,-3.22827972994927,-25.541627443326,15.192023519125,10.3496039242011
0.106003244997296,34.2498542249629,28.5341664625053,-5.71568776245752,-31.3920103437341,19.9827709937102,11.4092393500239
0.108166576527853,35.5052238984445,32.9198785419617,-2.58534535648283,-34.2125512202031,19.0452846274637,15.1672665927394
0.11032990805841,38.1196036681763,35.5862781932065,-2.53332547496981,-36.8529409306914,20.3264645715731,16.5264763591184
0.112493239588967,31.0951636275635,31.8865655252978,0.791401897734318,-31.4908645764306,15.1518808649146,16.3389837115161
0.114656571119524,19.8394980847546,24.7788761781051,4.9393780933505,-22.3091871314298,7.45005999570203,14.8591271357278
0.116819902650081,12.8016186639708,14.6680134943914,1.86639483042066,-13.7348160791811,5.46761191677506,8.26720416240605
0.118983234180638,14.0409418498801,13.484450169113,-0.556491680767159,-13.7626960094965,7.29871676532364,6.4639792441729
0.121146565711195,22.6945056082224,18.7790254442604,-3.91548016396199,-20.7367655262414,13.3049928860922,7.43177264014922
0.123309897241752,28.5499031556324,24.396178445979,-4.15372470965341,-26.4730408008057,16.3518139326429,10.1212268681628
0.125473228772309,32.5986242628263,29.0753288223633,-3.52329544046296,-30.8369765425948,18.0609598516446,12.7760166909502
0.127636560302866,35.4434550477286,32.7323936858262,-2.7110613619024,-34.0879243667774,19.0772582048155,15.0106661619619
0.129799891833423,32.3187538624472,32.205263325827,-0.113490536620183,-32.2620085941371,16.2161221995337,16.0458863946034
0.131963223363981,21.5413982935256,23.3237066566538,1.78230836312824,-22.4325524750897,9.87954496519867,12.553007509891
0.134126554894538,10.171072393157,15.3532070327348,5.1821346395778,-12.7621397129459,2.49446887678958,10.2676708361563
0.136289886425095,8.04484373844429,9.24792595695108,1.20308221850679,-8.64638484769769,3.42088075996875,5.22550408772894
0.138453217955652,17.574263684582,14.5547389670999,-3.01952471748212,-16.0645013258409,10.296894201032,5.76760712480887
0.140616549486209,25.2940918773558,20.3252361697994,-4.96885570755642,-22.8096640235776,15.1314737924561,7.67819023112148
0.142779881016766,31.2189339097573,25.985757523794,-5.23317638596335,-28.6023457167757,18.2260551478603,10.3762905689153
0.144943212547323,31.8163892539149,30.5469861080584,-1.26940314585651,-31.1816876809867,16.5428961998857,14.638791481101
0.14710654407788,31.7994946248667,30.798231025641,-1.00126359922574,-31.2988628252538,16.4003791120462,14.8984837132076
0.149269875608437,20.8134987799082,24.1884353620303,3.37493658212216,-22.5009670709692,8.719281098893,13.7816859720762
0.151433207138994,9.2275247113557,15.2952337270938,6.06770901573812,-12.2613792192248,1.57990784780879,10.681471371416
0.153596538669551,5.40683889152494,7.53046672430251,2.12362783277757,-6.46865280791372,1.64160552937368,4.82704727854004
0.155759870200108,12.5969965255765,10.4692785538761,-2.12771797170041,-11.5331375397263,7.36235724863845,4.17078029108783
0.157923201730665,21.256943908082,17.1057136193823,-4.1512302886997,-19.1813287637321,12.7040870983908,6.47724166534128
0.160086533261222,27.3350243505892,22.8365426395652,-4.49848171102394,-25.0857834950772,15.9167530308065,9.16903046427063
0.162249864791779,31.9840219315608,29.0143839207708,-2.96963801079004,-30.4992029261658,17.4768299711754,13.0223729549904
0.164413196322336,31.9489267111418,32.4275513322785,0.478624621136714,-32.1882390217102,15.7351510450026,16.4530879767076
0.166576527852893,28.0258859412401,25.7893894592968,-2.23649648194332,-26.9076377002684,15.1311912115917,11.7764464886767
0.168739859383451,13.9586022208746,16.8880363484016,2.92943412752696,-15.4233192846381,5.51458404667385,9.90873523796428
0.170903190914008,7.69678214842556,10.727441559799,3.03065941137339,-9.21211185411226,2.33306136852609,6.87905048558617
0.173066522444565,11.7133370084641,11.2947031018959,-0.418633906568138,-11.50402005518,6.06598545751611,5.4380345976639
0.175229853975122,22.8002061663446,19.4982070581416,-3.30199910820299,-21.1492066122431,13.0511026372738,8.09810397496929
0.177393185505679,32.8904346949267,26.7612181544726,-6.12921654045413,-29.8258264246997,19.5098256176904,10.3160008070092
0.179556517036236,36.7589372603209,32.091008175022,-4.6679290852989,-34.4249727176714,20.7134331728099,13.7115395448615
0.181719848566793,36.7278982837086,34.7147786745061,-2.01311960920248,-35.7213384791074,19.3705089464555,16.3508295326518
0.18388318009735,31.2389414471779,30.5446888640989,-0.694252583079006,-30.8918151556384,15.9665970151284,14.9252181405099
0.186046511627907,18.0068155877699,21.7645333403618,3.75771775259189,-19.8856744640659,7.12454891758902,12.7611255464769
0.188209843158464,6.20758149160311,11.7074453929148,5.49986390131164,-8.95751344225894,0.353858795145737,8.6036546471132
0.190373174689021,5.42486687423716,8.27024217947847,2.84537530524131,-6.84755452685781,1.28974578449792,5.55780874235989
0.192536506219578,14.033862484345,12.3640978372746,-1.66976464707036,-13.1989801608098,7.85181356570766,5.34716659510212
0.194699837750135,20.8336324713841,17.0747254213381,-3.75890705004593,-18.9541789463611,12.296269760715,6.65790918564611
0.196863169280692,24.6463910282646,21.5141507312686,-3.132240296996,-23.0802708797666,13.8893156626303,9.19095521713628
0.199026500811249,26.2611598514524,23.3918650063132,-2.86929484513922,-24.8265124288828,14.5652273482958,10.261285080587
0.201189832341806,24.1063824982049,24.1646349447473,0.0582524465423866,-24.1355087214761,12.0240650258313,12.1114436956449
0.203353163872363,14.2219565990475,15.5886126801005,1.36665608105303,-14.905284639574,6.42765025899725,8.47763438057679
0.20551649540292,2.49756405304682,5.63953338216789,3.14196932912107,-4.06854871760735,-0.322202638037124,4.39075135564448
0.207679826933478,-1.54038621804433,1.34989976121801,2.89028597926234,0.0952432284131624,-2.21533609865333,2.12009287024017
0.209843158464035,6.87320635661046,4.45159107776277,-2.4216152788477,-5.66239871718662,4.64741081772908,1.01498789945754
0.212006489994592,16.6441181477987,14.4932916503814,-2.1508264974173,-15.56870489909,9.397472322608,6.17123257648204
0.214169821525149,22.7427723285375,18.0097108114482,-4.73306151708927,-20.3762415699929,13.7379169228134,6.63832464717949
0.216333153055706,26.0267501762291,22.3283733793144,-3.69837679691473,-24.1775617777718,14.8625634865719,9.31499829119983
0.218496484586263,24.1023456681365,23.3280887384617,-0.774256929674809,-23.7152172032991,12.4383012989057,11.2769159043935
0.22065981611682,17.652260061879,18.9944953255367,1.34223526365771,-18.3233776937079,8.15501239911065,10.1683652945972
0.222823147647377,6.84913301677678,8.40155716705144,1.55242415027466,-7.62534509191411,2.64835443325106,4.97699065866305
0.224986479177934,-0.459290216686574,3.2476974369174,3.70698765360398,-1.39420361011542,-2.08313893514528,3.47734254526069
0.227149810708491,4.50644867530042,3.70699826327783,-0.799450412022586,-4.10672346928912,2.6529495436615,1.45377392562762
0.229313142239048,13.9823367277664,8.68403122105386,-5.29830550671259,-11.3331839744102,9.64032111723952,1.69286285717064
0.231476473769605,19.9350321579875,15.2188261065747,-4.71620605141288,-17.5769291322811,12.3256191047002,5.25131002758089
0.233639805300162,22.522863460261,19.6139687072124,-2.90889475304866,-21.0684160837367,12.7158791066549,8.35253697708186
0.235803136830719,23.2789696512741,21.6795915111743,-1.59937814009983,-22.4792805812242,12.439173895687,10.0401066855372
0.237966468361276,18.7452163964687,19.2473485311361,0.502132134667338,-18.9962824638024,9.1215421309007,9.87474033290171
0.240129799891833,9.69189961231012,11.2072252477981,1.51532563548794,-10.4495624300541,4.08828698841109,6.361275441643
0.24229313142239,1.48017945321071,2.00661652494932,0.52643707173861,-1.74339798908001,0.47687119073605,1.26652679834396
0.244456462952948,0.566405550530713,1.39540941223929,0.829003861708575,-0.980907481385,-0.131299155588931,1.11220663697393
0.246619794483505,11.2898207557855,5.25995886684077,-6.02986188894477,-8.27488981131315,8.65984132236515,-0.384951511052003
0.248783126014062,18.6657652480928,12.4096897573087,-6.25607549078419,-15.5377275027007,12.4609203694385,3.07680713326223
0.250946457544619,20.5659191126012,17.6605843268299,-2.90533478577131,-19.1132517197156,11.7356269491863,7.37762477052931
0.253109789075176,22.4392472866328,19.202117331945,-3.23712995468786,-20.8206823092889,12.8381886206603,7.98249368862855
0.255273120605733,19.0565319647153,20.2756109343681,1.21907896965282,-19.6660714495417,8.91872649753124,10.7473449520105
0.25743645213629,10.1862680722372,13.2276255182224,3.04135744598522,-11.7069467952298,3.572455313126,8.13449148210383
0.259599783666847,1.07869685455264,5.56565904232391,4.48696218777127,-3.32217794843827,-1.70413266660932,5.02631061504759
0.261763115197404,-0.962874124962991,0.712261944961266,1.67513606992426,0.125306090000863,-1.31900509744362,1.19369900744276
0.263926446727961,7.00232351542616,3.44916047082217,-3.55316304460399,-5.22574199312417,5.27774328001507,-0.0520012868909059
0.266089778258518,13.3870782519282,8.80679597229696,-4.58028227963128,-11.0969371121126,8.98368026577976,2.11325684633284
0.268253109789075,19.3574191554877,15.6872102627986,-3.67020889268908,-17.5223147091432,11.5138140240884,6.00850068505478
0.270416441319632,19.9812754150812,18.2811255408172,-1.70014987426394,-19.1312004779492,10.8407126446726,8.29048783327665
0.272579772850189,18.5756545904438,18.8877089797699,0.312054389326125,-18.7316817851069,9.13180010055884,9.59988168454803
0.274743104380746,14.6830523218262,16.0227983344344,1.33974601260821,-15.3529253281303,6.671653154609,8.68127217352131
0.276906435911303,3.09813230074846,7.54100438804624,4.44287208729778,-5.31956834439735,-0.672369893274659,5.99193823767201
0.27906976744186,-0.878682835512296,1.64745221329427,2.52613504880657,-0.384384688890987,-1.70240894215943,2.08679363105042
0.281233098972418,1.13354146422581,0.0918531867473085,-1.0416882774785,-0.61269732548656,1.08761487085216,-0.474917545365598
0.283396430502975,10.4865726354852,7.62041569327781,-2.86615694220734,-9.05349416438148,6.67636478884624,2.37712937553524
0.285559762033532,15.7523555643861,12.1300000015585,-3.62235556282755,-13.9411777829723,9.68735556360681,4.25382221936549
0.287723093564089,18.2959413092226,14.9495558819953,-3.34638542722727,-16.622748595609,10.8211633682249,5.80158522738404
0.289886425094646,18.859418283359,18.2481383811603,-0.611279902198724,-18.5537783322597,9.73534909277887,8.81842923948078
0.292049756625203,15.1804805191078,17.9804295409688,2.79994902186095,-16.5804550300383,6.19026574862344,10.3901892814149
0.29421308815576,5.11326482474769,9.49778666785784,4.38452184311015,-7.30552574630276,0.364371490818772,6.94115425548399
0.296376419686317,-0.763818948386533,1.80751180175245,2.57133075013898,-0.521846426682958,-1.66757484926276,2.18942127594572
0.298539751216874,-0.712045206192009,-0.0383995979915387,0.67364560820047,0.375222402091774,-0.69284540719624,0.317623005104466
0.300703082747431,6.83288074053912,3.31237514857662,-3.5205055919625,-5.07262794455787,5.17669316625081,-0.104065221692939
0.302866414277988,13.7410036185654,10.1951391274121,-3.54586449115326,-11.9680713729888,8.64343405485933,3.32463731812943
0.305029745808545,18.1622774005122,14.7836290361625,-3.37864836434974,-16.4729532183373,10.770462882431,5.70249033590637
0.307193077339102,19.8768017593183,15.961006255032,-3.91579550428635,-17.9189040071751,11.8962986318023,6.02260537537281
0.309356408869659,19.5993310603132,18.2766678670912,-1.32266319322197,-18.9379994637022,10.4609971267676,8.47700233693463
0.311519740400216,8.70746334481922,12.2089498803466,3.50148653552735,-10.4582066125829,2.60298840464594,7.85521820793696
0.313683071930773,-0.60602927959161,3.57425348642944,4.18028276602105,-1.48411210341891,-2.39315602280633,3.87726812622524
0.31584640346133,-0.8905838675689,-0.89667224885992,-0.0060883812910203,0.89362805821441,-0.44224774313894,-0.45138031507547
0.318009734991888,4.04293097164961,1.46383833293246,-2.57909263871715,-2.75338465229103,3.31101180518338,-0.557627152892348
0.320173066522445,12.5379245943212,7.50687231941664,-5.03105227490456,-10.0223984568689,8.78448843461288,1.23791002225604
0.322336398053002,17.1766634993498,14.5987143073902,-2.57794919195953,-15.88768890337,9.87730634565466,6.01038255771536
0.324499729583559,20.0001756404431,15.9875755545405,-4.01260008590258,-17.9938755974918,12.0063878631729,5.98748773431898
0.326663061114116,19.9665828564947,17.6970065035745,-2.26957635292021,-18.8317946800346,11.1180796047075,7.71371507532713
0.328826392644673,14.6773426638282,14.8756836187926,0.198340954964342,-14.7765131413104,7.23950085443194,7.53701228687845
0.33098972417523,2.00346969196137,5.36374883275357,3.3602791407922,-3.68360926235747,-0.678404724415417,4.36201398677289
0.333153055705787,-0.968518111141974,-0.882134322690921,0.0863837884510525,0.925326216916448,-0.527450949796513,-0.397875267119934
0.335316387236344,0.53357411769881,-1.09140592399596,-1.62498004169477,0.278915903148574,1.07927707969679,-1.35819298284536
0.337479718766901,8.96267870192555,6.44979345953336,-2.51288524239218,-7.70623608072945,5.73778197215886,1.96845410857059
0.339643050297458,14.5470283758088,12.794198040456,-1.75283033535277,-13.6706132081324,8.14992935558078,5.52068385255162
0.341806381828015,19.2378405855449,15.1336230407239,-4.10421754482102,-17.1857318131344,11.671029065183,5.51470274795144
0.343969713358572,20.2513743325759,17.8224740192862,-2.42890031328967,-19.036924175931,11.3401373229328,7.69678685299826
0.346133044889129,17.4381595785722,16.7091414253142,-0.729018153258028,-17.0736505019432,9.08358886591514,7.99006163602809
0.348296376419686,6.23934043095183,8.77681265942528,2.53747222847345,-7.50807654518856,1.85093410123919,5.65714244394936
0.350459707950243,-0.957925815176845,1.60193635406205,2.55986216923889,-0.322005269442601,-1.75889399220787,2.08089926165047
0.3526230394808,-1.29434082706741,-1.17941472028692,0.114926106780488,1.23687777367716,-0.704633466923947,-0.532244306753215
0.354786371011358,4.64160128571134,3.83825167022995,-0.803349615481382,-4.23992647797065,2.72247545059636,1.51745102737429
0.356949702541915,11.8963138373917,8.57930490279877,-3.31700893459297,-10.2378093700953,7.60666138599235,2.6311479841029
0.359113034072472,16.8067319666857,15.00680267058,-1.79992929610565,-15.9067673186328,9.30333063139565,6.60343668723718
0.361276365603029,18.0559467881457,17.8751411942109,-0.180805593934817,-17.9655439911783,9.11837619104025,8.84716780013802
0.363439697133586,20.1354899467292,17.7025130958161,-2.43297685091304,-18.9190015212726,11.2842333988211,7.63476812245154
0.365603028664143,8.0954152447575,9.80996133492466,1.71454609016716,-8.95268828984108,3.19043457729517,5.76225371254591
0.3677663601947,-0.877743298144874,1.75658434044343,2.63432763858831,-0.43942052114928,-1.75603546836659,2.19545598951587
0.369929691725257,-1.43439385118157,-1.18802560838464,0.246368242796928,1.3112097297831,-0.840381046989248,-0.470828682793857
0.372093023255814,1.98243034882396,2.08218128239427,0.0997509335703153,-2.03230581560912,0.941339707626822,1.09096610798229
0.374256354786371,11.6340152618644,8.33843145600359,-3.29558380586082,-9.98622335893401,7.46479953386262,2.52142382507139
0.376419686316928,16.6921410893017,13.2280982771835,-3.46404281211816,-14.9601196832426,10.0780919507099,4.88202773253267
0.378583017847485,21.3176630135327,17.0444397653922,-4.27322324814047,-19.1810513894625,12.7954431308366,6.38560825862588
0.380746349378042,19.5760892873838,19.4338988272015,-0.14219046018232,-19.5049940572926,9.85913987378305,9.64585418350957
0.382909680908599,14.7147384899938,15.6181683004259,0.903429810432112,-15.1664533952098,6.90565433978083,8.260799055429
0.385073012439156,3.25072699918581,5.944928867091,2.69420186790518,-4.59782793313841,0.278262565640315,4.31956536749809
0.387236343969713,-1.46589640083454,-1.1208374095749,0.345058991259643,1.29336690520472,-0.905477696047093,-0.387889209157628
0.38939967550027,-1.3916523773928,-0.415113730001446,0.976538647391355,0.903383053697124,-1.18409551239208,0.280712458694954
0.391563007030827,8.20282843526168,4.93181746622866,-3.27101096903302,-6.56732295074517,5.73691970214735,0.830403248597822
0.393726338561385,13.334683019954,10.6236136096059,-2.71106941034808,-11.9791483147799,8.02287621515102,3.95627209962889
0.395889670091942,18.121506272115,15.3546863940837,-2.76681987803127,-16.7380963330994,10.4441630750731,6.29393325802624
0.398053001622499,18.9282797065704,17.11877412721,-1.80950557936043,-18.0235269168902,10.3688926429654,7.65463427392479
0.400216333153056,16.5352767257401,15.8184769738761,-0.716799751863981,-16.1768768498081,8.62603823880203,7.55083861100606
0.402379664683613,4.24131156004102,7.76138309650278,3.52007153646175,-6.0013473282719,0.360620011789635,5.64072731648226
0.40454299621417,-1.40304605862859,-0.985355399891785,0.417690658736801,1.19420072926019,-0.910368358682693,-0.283832370577492
0.406706327744727,-1.49008939577137,-1.23664328169438,0.253446114076981,1.36336633873287,-0.871767754924173,-0.491598583808702
0.408869659275284,7.20046002588396,3.96197269954316,-3.2384873263408,-5.58121636271356,5.21947367611238,0.361742686601178
0.411032990805841,13.1217603648181,10.3896531991686,-2.73210716564958,-11.7557067819934,7.92693376523386,3.82877301675949
0.413196322336398,18.0111704133774,15.1831977332647,-2.82797268011271,-16.597184073321,10.419571546745,6.17761252657598
0.415359653866955,19.7737860422144,17.1028281152692,-2.6709579269452,-18.4383070787418,11.2223719845798,7.21593509416202
0.417522985397512,19.9038621078495,18.3562250090264,-1.54763709882313,-19.130043558438,10.7257496033363,8.40429395510163
0.419686316928069,9.24167450089514,10.3929163220092,1.15124182111409,-9.81729541145218,4.04521633989053,5.77207907156165
0.421849648458626,-1.24797308715956,0.813991405905832,2.06196449306539,0.216990840626861,-1.65496879011247,1.43797794948561
0.424012979989183,-1.49581953576929,-1.1801924550925,0.315627080676787,1.33800599543089,-0.905723308223036,-0.432282687207856
0.42617631151974,3.85706717674241,1.44488295114685,-2.41218422559556,-2.65097506394463,3.13462570116899,-0.483650637224358
0.428339643050297,10.4949112640633,7.74903586695459,-2.7458753971087,-9.12197356550895,6.620393330586,2.50158023492295
0.430502974580855,17.018411388479,13.3496715620782,-3.66873982640081,-15.1840414752786,10.3435756074399,4.84046586783868
0.432666306111412,17.3419044239294,17.0040477032353,-0.337856720694099,-17.1729760635823,8.83988057231175,8.3330954912706
0.434829637641969,17.6566880231406,16.8750887399882,-0.781599283152403,-17.2658883815644,9.21914365314652,8.04674472841792
0.436992969172526,11.0899033599435,13.0402664162857,1.95036305634223,-12.0650848881146,4.56977015180063,7.49531473631397
0.439156300703083,-0.207399556827318,4.27011662369675,4.47751618052407,-2.03135853343471,-2.34245786867569,4.37381640211041
0.44131963223364,-1.40322955865066,-1.04503578346117,0.358193775189493,1.22413267105592,-0.880711666920077,-0.343421004135839
0.443482963764197,-0.235554953981975,-1.02578965785857,-0.790234703876599,0.630672305920275,0.277339874947312,-0.908012180867587
0.445646295294754,10.2184664458478,5.10124254249378,-5.11722390335398,-7.65985449417078,7.66784517460088,-0.00799068043010021
0.447809626825311,15.144457856098,10.66922314198,-4.47523471411798,-12.906840499039,9.80984628510799,3.09699421393103
0.449972958355868,17.208074357603,13.6620941910398,-3.54598016656319,-15.4350842743214,10.3770272620831,5.05805701223831
0.452136289886425,17.7603574768598,15.3504037234757,-2.40995375338411,-16.5553806001678,10.085155615122,6.47022498504579
0.454299621416982,14.563119103836,14.0951920880637,-0.467927015772275,-14.3291555959498,7.51552305980412,6.81363253614571
0.456462952947539,3.29638969829309,6.96354499153964,3.66715529324655,-5.12996734491637,-0.185382797476726,5.31535014239309
0.458626284478096,-1.23437084216502,-0.862081182774246,0.37228965939077,1.04822601246963,-0.803330250777893,-0.244895761691738
0.460789616008653,-1.12181164308009,-1.07436945129183,0.0474421917882544,1.09809054718596,-0.584626917434171,-0.51346362975179
0.46295294753921,5.14535653157785,0.878971639864174,-4.26638489171367,-3.01216408572101,4.70587071164576,-1.69370662592475
0.465116279069767,10.8234032859374,7.97870402208727,-2.84469926385016,-9.40105365401235,6.83405127489379,2.56700237911855
0.467279610600325,15.4274871888709,12.6765529905864,-2.75093419828453,-14.0520200897286,9.08921069357771,4.96280939615091
0.469442942130882,18.6293214463146,16.1718043464969,-2.4575170998177,-17.4005628964057,10.5434192730661,6.85714362333959
0.471606273661439,16.4503272371615,15.9079781801315,-0.542349057030048,-16.1791527086465,8.49633814709579,7.68281456155071
0.473769605191996,7.62113602572199,9.64027341740764,2.01913739168565,-8.63070472156481,2.80099931701817,5.82970540454665
0.475932936722553,-1.02527717001962,0.135349134437258,1.16062630445688,0.444964017791182,-1.09295173723825,0.647987719447069
0.47809626825311,-1.17045168056337,-1.06745111380163,0.103000566761744,1.1189513971825,-0.636726123662557,-0.482225273519941
0.480259599783667,1.69386266314773,0.691074804847434,-1.0027878583003,-1.19246873399758,1.34832526072402,-0.155856526726432
0.482422931314224,10.4781831831147,6.11062464297087,-4.36755854014384,-8.29440391304279,7.42287086162927,0.871533051413516
0.484586262844781,13.6109124952581,12.4548801943903,-1.15603230086774,-13.0328963448242,7.38347239806291,5.64942394676129
0.486749594375338,16.2593819391787,15.3303939240936,-0.928988015085142,-15.7948879316361,8.59418497713193,7.20070295450422
0.488912925905895,18.2858503154129,16.0608491755299,-2.22500113988296,-17.1733497454714,10.2554257276479,6.91792401782348
0.491076257436452,10.3462959979301,12.295325820877,1.94902982294692,-11.3208109094036,4.19863308749159,7.12217782191197
0.493239588967009,-0.778495391492124,2.76226513010503,3.54076052159716,-0.991884869306455,-2.15962795654464,3.1515128258511
0.495402920497566,-1.1534574815543,-0.984744145137815,0.168713336416483,1.06910081334606,-0.661085408985391,-0.408015404360666
0.497566252028123,-0.114480513106188,-1.02042649067603,-0.905945977569839,0.567453501891107,0.395732732231826,-0.963186234122933
0.49972958355868,7.76141522551773,3.46660082382434,-4.29481440169338,-5.61400802467104,6.02811481360555,-0.414106788934521
0.501892915089237,11.7584500186022,8.2260453481835,-3.53240467041866,-9.99224768339283,7.64542734451041,2.34682033888242
0.504056246619795,15.415222651007,12.8341844849438,-2.58103816606328,-14.1247035679754,8.99813040853516,5.12657315944023
0.506219578150352,17.6825671114271,14.5640060815315,-3.11856102989568,-16.1232865964793,10.4005640706614,5.72272252581789
0.508382909680909,13.8497521402677,14.1285481655911,0.278796025323341,-13.9891501529294,6.78547805747219,7.20367209545721
0.510546241211466,3.47075506135229,6.19918223853993,2.72842717718764,-4.83496864994611,0.371163942082322,4.46380470786379
0.512709572742023,-1.07988686164872,-0.853632131474042,0.226254730174683,0.966759496561383,-0.653070795911704,-0.313688700649679
0.51487290427258,-1.0753067705331,-1.08475907525156,-0.00945230471846514,1.08003292289233,-0.532927232907316,-0.547105689985013
0.517036235803137,5.07103634788659,1.65998735621335,-3.41104899167324,-3.36551185204997,4.24104266977991,-0.875530817729944
0.519199567333694,10.688641241876,7.97602393247229,-2.71261730940373,-9.33233258717415,6.70062927563987,2.63170331153428
0.521362898864251,16.907427577518,12.6850115626972,-4.2224160148208,-14.7962195701076,10.5649217961694,4.23129777393819
0.523526230394808,17.0163819243184,15.3857881023871,-1.63059382193128,-16.2010850133527,9.32348787312482,6.8775971402279
0.525689561925365,15.7184410552716,14.3161025032436,-1.40233855202796,-15.0172717792576,8.56038980364978,6.45688197560783
0.527852893455922,6.92719050435697,9.62425655823219,2.69706605387522,-8.27572353129458,2.11506222524088,6.1606613060537
0.530016224986479,-0.952441442069049,1.70386207071433,2.65630351278338,-0.37571031432264,-1.80437247742621,2.18008279174885
0.532179556517036,-1.16491211471933,-1.07756049893467,0.0873516157846632,1.121236306827,-0.626131865251997,-0.495104441575002
0.534342888047593,1.63981555187242,1.49719988133992,-0.142615670532492,-1.56850771660617,0.891215611202454,0.677292105403716
0.53650621957815,10.4085908071426,5.34900750050439,-5.05958330663818,-7.87879915382348,7.73408705689038,0.144712096933104
0.538669551108707,15.1601342163014,10.9037179580313,-4.25641625827019,-13.0319260871663,9.70827523728581,3.32365084988053
0.540832882639264,18.6491850438453,15.3481544863134,-3.3010305575319,-16.9986697650794,10.9751078006886,6.02356196439075
0.542996214169822,18.3225752702162,16.0398955396447,-2.28267973057148,-17.1812354049305,10.3026275003939,6.87860790453663
0.545159545700379,11.1784603873996,11.4457883474958,0.267327960096159,-11.3121243674477,5.45556621365174,5.85655815379598
0.547322877230936,0.827372086055136,2.70413858800782,1.87676650195268,-1.76575533703148,-0.524697207948772,2.29045254498025
0.549486208761493,-1.15971257578676,-1.00648465321525,0.153227922571511,1.083098614501,-0.656470249179136,-0.426628365321869
0.55164954029205,-0.92312507040163,-0.985260966270819,-0.0621358958691898,0.954193018336224,-0.43049458726622,-0.523698431070005
0.553812871822607,7.75557484466083,3.54362805884485,-4.21194678581599,-5.64960145175284,5.98376081523841,-0.334159363485569
0.555976203353164,13.3495621069604,9.88725743373222,-3.4623046732282,-11.6184097703463,8.40593339009431,3.21247638025201
0.558139534883721,16.2054365720961,12.8528229252135,-3.3526136468826,-14.5291297486548,9.77902510948937,4.75010463916546
0.560302866414278,16.8684213990091,16.0995642113213,-0.768857187687811,-16.4839928051652,8.81863929334848,7.66535351181676
0.562466197944835,13.8246722251927,14.0325814390392,0.207909213846587,-13.9286268321159,6.80838150567303,7.12024532644291
0.564629529475392,1.87540368565168,6.12131438655909,4.24591070090741,-3.99835903610538,-1.18525350762786,5.18361254373325
0.566792861005949,-1.05155787242535,-0.859422279824309,0.192135592601046,0.955490076124832,-0.6218467325132,-0.333643343611632
0.568956192536506,-1.02183557013438,-1.00979594616405,0.0120396239703342,1.01581575814922,-0.516937597052359,-0.498878161096858
0.571119524067063,5.11465911494268,0.976616430933344,-4.13804268400934,-3.04563777293801,4.62635089947601,-1.580713126538
0.57328285559762,12.2738639326221,8.0516919436865,-4.22217198893559,-10.1627779381543,8.24801796077883,1.91475997737546
0.575446187128177,16.8469166872011,11.8789005058804,-4.96801618132073,-14.3629085965408,10.9074664342609,3.45544216227984
0.577609518658734,17.725493719134,14.4955807812529,-3.22991293788111,-16.1105372501934,10.4777033285076,5.63283392168588
0.579772850189291,17.2540652298766,15.782611751795,-1.47145347808161,-16.5183384908358,9.36275935397913,7.15557913685671
0.581936181719849,7.743785869928,10.3459294398487,2.6021435699207,-9.04485765488835,2.57082115000365,6.4740365048847
0.584099513250406,-0.856684189044297,0.935630142886429,1.79231433193073,-0.0394729769210658,-1.32449926048751,1.36397223740858
0.586262844780963,-1.04826726994766,-0.961931515410243,0.0863357545374133,1.00509939267895,-0.567301512242535,-0.437797880436415
0.58842617631152,1.7013347260067,0.0463823392159023,-1.65495238679079,-0.873858532611299,1.67814355639875,-0.804285023787446
0.590589507842077,9.57060271253125,6.21623201261902,-3.35437069991224,-7.89341736257513,6.46248670622174,1.43093065635339
0.592752839372634,14.2317900332539,10.8586802093473,-3.37310982390659,-12.5452351213006,8.80244992858026,3.74278519272038
0.594916170903191,16.120492478712,15.2053110658118,-0.915181412900182,-15.6629017722619,8.51783694580609,7.14506482645582
0.597079502433748,16.673096876807,15.0920151548768,-1.58108172193018,-15.8825560158419,9.12708929936859,6.75546671647333
0.599242833964305,11.2509121413862,10.5879114229607,-0.663000718425561,-10.9194117821735,5.9569564299059,4.96245535226756
0.601406165494862,0.201386711310414,1.98384838170557,1.78246167039516,-1.09261754650799,-0.790537479542371,1.88315502605036
0.603569497025419,-0.998727964712435,-0.836230325123521,0.162497639588914,0.917479144917978,-0.580612802150675,-0.336866342767303
0.605732828555976,-0.0815604467311821,-0.826729589454935,-0.745169142723753,0.454145018093059,0.331804347996285,-0.785949366089344
0.607896160086533,8.44333187048852,3.58513961309483,-4.85819225739369,-6.01423574179168,6.65076206394111,-0.636526322149432
0.61005949161709,12.3545879141798,9.77962062169368,-2.57496729248608,-11.0671042679367,7.46477760333292,3.6023266646038
0.612222823147647,16.038191681496,15.042727032264,-0.995464649232018,-15.54045935688,8.516828165364,7.02363119151597
0.614386154678204,16.0536551007126,15.9428895442717,-0.11076555644089,-15.9982723224922,8.08221032857675,7.91606199391542
0.616549486208761,14.767454743021,14.8118517727319,0.0443970297108667,-14.7896532578765,7.36152885665509,7.42812440122139
0.618712817739319,2.8973219342165,7.0596363454049,4.16231441118841,-4.9784791398107,-0.632496238485957,5.61097537829666
0.620876149269876,-0.89131374559191,-0.643273128331905,0.248040617260005,0.767293436961907,-0.569677181425957,-0.19761625553595
0.623039480800433,-1.03664467729119,-0.859258884635693,0.177385792655495,0.94795178096344,-0.607015234973342,-0.340936545990099
0.62520281233099,4.92726907395527,1.7543595807537,-3.17290949320156,-3.34081432735449,4.05008928357842,-0.70927495622393
0.627366143861547,12.0287161683786,9.45834996968958,-2.57036619868904,-10.7435330690341,7.29954118353383,3.44399188550027
0.629529475392104,15.9071163874599,11.6418698269582,-4.26524656050172,-13.7744931072091,10.0861814739808,3.68831163322825
0.631692806922661,17.7788892313212,15.9451800897288,-1.83370914159236,-16.862034660525,9.80629918645678,7.05573547406824
0.633856138453218,16.6854315200854,15.8376778952506,-0.847753624834784,-16.261554707668,8.76659257246009,7.49496213520791
0.636019469983775,9.58948335444397,9.77534245024477,0.185859095800801,-9.68241290234437,4.70181212932158,4.98060077302279
0.638182801514332,-0.736228517904656,1.19117074506144,1.92739926296609,-0.227471113578391,-1.33181389043537,1.55928500401377
0.640346133044889,-1.14804111585198,-0.840990607448406,0.307050508403576,0.994515861650193,-0.727545812127778,-0.266970049522415
0.642509464575446,3.82139671852122,-0.054683982841394,-3.87608070136261,-1.88335636783991,3.84873870994191,-1.965382342102
0.644672796106003,10.102893272846,6.74141356234,-3.36147971050596,-8.42215341759298,6.73218649167596,1.68996692591702
0.64683612763656,14.9362152168934,11.3827480636569,-3.55346715323651,-13.1594816402752,9.24484118506497,3.9146404552102
0.648999459167117,17.8583175596022,16.6988710034245,-1.15944655617774,-17.2785942815133,9.50888205788997,7.76971222362336
0.651162790697674,18.5626600027116,18.4189080420091,-0.143751960702552,-18.4907840223604,9.35320598170709,9.13757804065326
0.653326122228231,12.3080323577941,13.2778569611845,0.969824603390443,-12.7929446594893,5.66910387720183,7.1238407822875
0.655489453758789,-0.539134280972025,5.43345459515949,5.97258887613151,-2.44716015709373,-3.25586157855177,5.7030217356455
0.657652785289346,-1.19503218533712,-0.773147379487476,0.421884805849646,0.984089782412299,-0.808458495593384,-0.175631286818915
0.659816116819903,-1.20477152923785,-0.221994608536466,0.982776920701386,0.713383068887159,-1.09377422496962,0.38039115608246
0.66197944835046,8.18749931136625,4.84665581982752,-3.34084349153873,-6.51707756559688,5.76417140145249,0.752906164144395
0.664142779881017,13.9244079327565,9.51788424459841,-4.40652368815808,-11.7211460886774,9.16546581045728,2.55568027822016
0.666306111411574,18.6553251450228,14.2191802504714,-4.43614489455137,-16.4372526977471,11.5457350197871,4.89151767796001
0.668469442942131,17.9863056194643,15.37618406992,-2.61012154954429,-16.6812448446922,10.2982135845043,6.38303126018788
0.670632774472688,17.3907461592826,14.3628390409009,-3.02790711838172,-15.8767926000917,10.2093266388322,5.66746596125958
0.672796106003245,4.47096560630466,7.30405679027286,2.8330911839682,-5.88751119828876,0.818937211168226,5.06857398712053
0.674959437533802,-1.1544224465385,0.134151336503223,1.28857378304172,0.51013555501764,-1.22149811479011,0.711362559772474
0.677122769064359,-1.38395390606054,-1.13388412600065,0.250069780059896,1.2589190160306,-0.81701184306022,-0.441907172970376
0.679286100594916,4.71295821412353,1.39343249102782,-3.31952572309571,-3.05319535257567,4.01624196860962,-0.963046616033946
0.681449432125473,13.6690253682658,8.44949925066146,-5.21952611760434,-11.0592623094636,9.44427574293507,1.61498656652856
0.68361276365603,16.1911195948448,14.8924861856119,-1.29863340923293,-15.5418028902284,8.74487650203888,6.79692638818949
0.685776095186587,18.9126469858891,16.2621694873853,-2.65047749850378,-17.5874082366372,10.7815622421965,6.80584599444078
0.687939426717144,16.8700902898096,16.1988675995513,-0.671222690258215,-16.5344789446805,8.77065649003389,7.76382245464657
0.690102758247702,7.91815172534273,9.95196067958877,2.03380895424603,-8.93505620246575,2.94217138554835,5.9928848169174
0.692266089778259,-1.03272013276604,1.86219605735547,2.89491619012151,-0.414737962294716,-1.96381816144378,2.37855612373849
0.694429421308816,-1.47573092137368,-1.1906296844073,0.285101236966376,1.33318030289049,-0.880416079170028,-0.452764223720464
0.696592752839373,1.2804207840889,-0.410802032406711,-1.69122281649561,-0.434809375841092,1.48582180029225,-1.05101242445116
0.69875608436993,9.41798041607838,6.60663537270966,-2.81134504336871,-8.01230789439402,6.11466272972354,1.89764516467048
0.700919415900487,14.4504770130087,9.97097118806722,-4.47950582494144,-12.2107241005379,9.46499141897505,2.74573268156289
0.703082747431044,18.1734336533237,16.2858063677748,-1.88762728554888,-17.2296200105492,10.0305304694363,7.19908954111296
0.705246078961601,17.8939917262138,16.3810518167056,-1.51293990950816,-17.1375217714597,9.70346581786096,7.43405595359872
0.707409410492158,12.1671388912736,13.363933028852,1.19679413757842,-12.7655359600628,5.48517237684759,7.28036358321522
0.709572742022715,-0.0642083793944641,4.40352498359784,4.4677333629923,-2.16965830210169,-2.26597087119338,4.43562917329507
0.711736073553272,-1.49471461642982,-1.18727638583283,0.307438230596991,1.34099550113132,-0.901076423513404,-0.439919077617917
0.713899405083829,-1.29775238416123,-1.34583482743979,-0.048082443278566,1.32179360580051,-0.62483497044133,-0.696958635359179
0.716062736614386,7.56656328590586,4.02376420264191,-3.54279908326395,-5.79516374427388,5.5546811845849,0.240482559688982
0.718226068144943,14.2578076420725,10.6111083266271,-3.6466993154454,-12.4344579843498,8.95225347875896,3.48220450559085
0.7203893996755,18.1466730325308,13.8650945691886,-4.28157846334224,-16.0058838008597,11.2141257479365,4.79175805292318
0.722552731206057,17.2506330106264,16.4700961391521,-0.78053687147429,-16.8603645748892,9.01558494105033,7.8447796338389
0.724716062736614,14.0080956509982,15.1179322723102,1.10983662131203,-14.5630139616542,6.44912951484308,8.11388444681112
0.726879394267171,3.33545279958462,5.35551696345321,2.0200641638686,-4.34548488151892,0.65769431785801,3.68779056366091
0.729042725797729,-1.42149722297802,-0.317495889154769,1.10400133382325,0.869496556066395,-1.26274927840064,0.393252722334242
0.731206057328286,-1.41469751580547,-1.38556871875466,0.0291287970508074,1.40013311728007,-0.721913156428138,-0.678219960851927
0.733369388858843,4.93662356931819,2.30119576491611,-2.63542780440208,-3.61890966711715,3.78602568686013,-0.167116019742987
0.7355327203894,12.4232806826401,9.65296302444904,-2.77031765819106,-11.0381218535446,7.59679917041558,3.44132268312899
0.737696051919957,16.4464066515178,13.7487831379754,-2.69762351354239,-15.0975948947466,9.57201508253011,5.52557981221653
0.739859383450514,17.3366328399559,15.6647089606524,-1.67192387930343,-16.5006709003041,9.50427835962964,6.9963925406745
0.742022714981071,17.4247114794258,15.2247529167906,-2.19995856263517,-16.3247321981082,9.81233502103046,6.5123971770777
0.744186046511628,9.15557953912933,9.50500279379105,0.349423254661716,-9.33029116646019,4.40307814223381,4.92721302422638
0.746349378042185,-1.28548949625444,-0.158435595523761,1.12705390073068,0.7219625458891,-1.20627169849256,0.484309152603459
0.748512709572742,-1.47317119705188,-1.33039633818825,0.142774858863627,1.40178376762006,-0.807973027957752,-0.593810739662312
0.750676041103299,1.5443321841627,0.628281285537104,-0.9160508986256,-1.0863067348499,1.23019154139415,-0.143884806544248
0.752839372633856,10.5828022308196,7.87600323294938,-2.70679899787025,-9.2294027318845,6.64480061434494,2.58460211753957
0.755002704164413,15.4961686884357,12.7559373240363,-2.74023136439941,-14.126053006236,9.11820002641757,5.00785297981845
0.75716603569497,18.1473036950008,14.7692216846781,-3.37808201032264,-16.4582626898395,10.7626928526617,5.69556983717774
0.759329367225527,16.8061358751574,15.2857467084494,-1.52038916670795,-16.0459412918034,9.16326252093265,6.88267877087073
0.761492698756084,10.1941096813175,12.0903063615596,1.89619668024209,-11.1422080214386,4.14895650053772,6.99325152090086
0.763656030286641,-1.09774250204161,3.2565545111932,4.35429701323481,-1.0794060045758,-2.72601975763821,3.805425762214
0.765819361817198,-1.43999643295683,-1.19212344917602,0.247872983780804,1.31605994106643,-0.843934708368816,-0.47212523269761
0.767982693347756,-0.980451583107461,-1.0050269622451,-0.0245753791376417,0.992739272676281,-0.477938101984909,-0.514801170691372
0.770146024878313,9.54159150535652,5.28341805533007,-4.25817345002645,-7.4125047803433,6.89988247769149,0.51262230265181
0.77230935640887,14.4760238564611,10.9044955508601,-3.57152830560094,-12.6902597036606,9.023776081031,3.66648362262958
0.774472687939427,18.8570780718071,13.8046907273407,-5.05238734446643,-16.3308843995739,11.9547327081368,4.37615169143712
0.776636019469984,17.7097266857032,16.8955090815012,-0.814217604202021,-17.3026178836022,9.26197214495262,8.04064573864958
0.778799351000541,13.6262731759572,13.8858369764951,0.259563800537842,-13.7560550762262,6.6833546877097,7.07270038851646
0.780962682531098,2.34779068131787,5.92231662326197,3.5745259419441,-4.13505365228992,-0.613367630313118,4.74842128260303
0.783126014061655,-1.30598175721542,-0.195304463956353,1.11067729325907,0.750643110585889,-1.20832952523725,0.457686414651359
0.785289345592212,-1.06086120073889,-0.999090282992523,0.0617709177463708,1.02997574186571,-0.561316059242632,-0.468659682623076
0.787452677122769,6.10443457898882,3.49479039562977,-2.60964418335904,-4.79961248730929,4.35703938117393,0.442573106135364
0.789616008653326,12.5852536738097,9.016565239913,-3.56868843389669,-10.8009094568613,8.07697105385319,2.72393840300815
0.791779340183883,17.8848158573063,14.36539517385,-3.51942068345624,-16.1251055155781,10.7021182703813,5.42298724519689
0.79394267171444,17.7601242955674,16.0662398032939,-1.69388449227351,-16.9131820494307,9.72700439392046,7.1861776555102
0.796106003244997,17.0626550380324,15.6655249187734,-1.39713011925906,-16.3640899784029,9.22989257864575,7.13419739975716
0.798269334775554,5.85309768942826,11.0033446900298,5.15024700060149,-8.428221189729,0.351425344413383,8.07679584531562
0.800432666306111,-1.09146941738309,1.65414960022365,2.74561901760674,-0.28134009142028,-1.91854421749491,2.19988430891519
0.802595997836668,-1.08156036398796,-0.941549765031322,0.140010598956639,1.01155506450964,-0.6107854814723,-0.400769583037341
0.804759329367225,3.47216198736907,0.932912827920133,-2.53924915944894,-2.2025374076446,3.00570557340901,-0.803168165764404
0.806922660897783,12.2403425383872,7.11233518457513,-5.12800735381208,-9.67633886148118,8.68417494609965,0.992163915381526
0.80908599242834,18.426093397322,13.293634751407,-5.13245864591499,-15.8598640743645,11.7792760216185,4.08058805274602
0.811249323958897,18.5356164597623,17.5677833375507,-0.967833122211605,-18.0516998986565,9.75172479098697,8.29997510766957
0.813412655489454,23.6496135101238,18.9925918148986,-4.65702169522523,-21.3211026625112,14.1533176026745,7.16778505983667
0.815575987020011,17.329058316818,17.6604068179861,0.331348501168158,-17.494732567402,8.49885490782491,8.99587765957714
0.817739318550568,4.74696611200573,9.8836143399908,5.13664822798507,-7.31529022599826,-0.194841057989668,7.51013128398793
0.819902650081125,0.558793071702367,3.14331802431335,2.58452495261098,-1.85105554800786,-1.01286594045431,2.86392148846216
0.822065981611682,6.45503210548409,4.78943798572726,-1.66559411975683,-5.62223504560567,4.06031311262046,1.56192193298521
0.824229313142239,17.4659737665604,10.8098932109165,-6.65608055564391,-14.1379334887385,12.0610271611022,2.07690632763631
0.826392644672796,21.3024155227471,16.9823639192095,-4.3200516035376,-19.1423897209783,12.8112335631424,6.33115615783595
0.828555976203353,21.6052129070228,19.8106441361368,-1.79456877088601,-20.7079285215798,11.6998908389544,9.00803768262538
0.83071930773391,21.4193703632791,20.6597872539548,-0.759583109324282,-21.039578808617,11.0894767363017,9.95010207231527
0.832882639264467,15.2941633482063,18.7120831145639,3.41791976635763,-17.0031232313851,5.93812179092433,11.0650014404608
0.835045970795024,3.52188707806919,8.59499494159661,5.07310786352742,-6.0584410098329,-0.77561039272912,6.83405140256202
0.837209302325581,-0.860943133092758,-0.646777572643547,0.214165560449212,0.753860352868152,-0.537554346770985,-0.216306006097167
0.839372633856138,-0.835971528770644,-0.809649239639427,0.0263222891312173,0.822810384205036,-0.431146908950931,-0.391663475254105
0.841535965386696,3.57394904339691,1.826866150938,-1.74708289245891,-2.70040759716745,2.66051596792791,0.0398916292395435
0.843699296917253,8.9726475052766,7.12576763180629,-1.84687987347031,-8.04920756854144,5.40976368937346,2.63944387916799
0.84586262844781,13.4626600115682,10.8442646261075,-2.61839538546067,-12.1534623188379,8.04052769851444,4.11293462032343
0.848025959978367,15.9926060719263,12.711414480962,-3.28119159096432,-14.3520102764442,9.63689883144532,4.71511144499884
0.850189291508924,15.6830918033903,14.1726186849567,-1.51047311843359,-14.9278552441735,8.59678246091196,6.33107278326156
0.852352623039481,7.11452719541475,8.9293590948765,1.81483189946175,-8.02194314514563,2.6498476479765,5.37209549716913
0.854515954570038,-0.661034309272435,0.399365353331802,1.06039966260424,0.130834477970316,-0.860716985938336,0.72988250796802
0.856679286100595,-0.959316323745365,-0.785574992022708,0.173741331722657,0.872445657884036,-0.566528827734011,-0.305916830150025
0.858842617631152,1.62217098035835,0.0222469196939941,-1.59992406066435,-0.822208950026172,1.61104752051135,-0.78883857048518
0.861005949161709,11.7618124341048,7.59009016970086,-4.17172226440396,-9.67595130190284,7.96676734925439,1.70918395264845
0.863169280692266,17.2365627039593,11.3829599782911,-5.85360272566819,-14.3097613411252,11.5450827148137,2.76467862631145
0.865332612222823,17.6758183246654,14.2633802342096,-3.41243809045577,-15.9695992794375,10.5441282075606,5.42547107187693
0.86749594375338,18.3958831051912,15.9646892209765,-2.43119388421472,-17.1802861630838,10.413538494703,6.76674766838088
0.869659275283937,11.4671884784921,13.229302847634,1.76211436914189,-12.3482456630631,4.85253705467511,7.49570860838794
0.871822606814494,0.355312601496099,3.04834371736315,2.69303111586706,-1.70182815942963,-1.16885925718548,2.87068741661511
0.873985938345051,-1.01544341633974,-0.731804177973261,0.283639238366484,0.873623797156503,-0.649541327353115,-0.224082469803388
0.876149269875608,-1.06039582447722,-0.957627594233171,0.102768230244048,1.0090117093552,-0.581582027360633,-0.427429681994562
0.878312601406166,7.41418998519562,4.09583671337155,-3.31835327182407,-5.75501334928359,5.36627162850985,0.388741720773737
0.880475932936723,12.2257190064322,9.52515191393692,-2.70056709249532,-10.8754354601846,7.46314304946378,3.4122924107208
0.88263926446728,16.1055222892087,13.3949412090968,-2.71058108011189,-14.7502317491527,9.40805168466028,5.34218006449245
0.884802595997837,17.8669724252924,16.9148335750264,-0.952138850266049,-17.3909030001594,9.40955563777925,7.98134736238017
0.886965927528394,15.0041967384908,14.3179703472094,-0.686226391281387,-14.6610835428501,7.84521156488608,6.815871977964
0.889129259058951,3.78422444688663,6.49413677800079,2.70991233111415,-5.13918061244371,0.537156057886241,4.60202455455747
0.891292590589508,-1.00712760716724,0.952731587816132,1.95985919498337,0.0271980096755522,-1.4834934010753,1.45629539139975
0.893455922120065,-1.28877843282639,-1.08196184507701,0.206816587749373,1.1853701389517,-0.74779751028788,-0.43757262866382
0.895619253650622,3.90849271896256,1.44449485618498,-2.46399786277758,-2.67649378757377,3.18624529087007,-0.509751503296299
0.897782585181179,11.1869153914177,8.47034032662692,-2.71657506479078,-9.82862785902231,6.95174522810424,2.87688263091807
0.899945916711736,16.0710874043263,13.2813579408053,-2.78972946352094,-14.6762226725658,9.43040843392361,5.24581423864221
0.902109248242293,18.0483004103996,15.4140945563808,-2.63420585401876,-16.7311974833902,10.3412531322092,6.38994435118103
0.90427257977285,16.8827560029505,16.9370061554877,0.0542501525371257,-16.9098810792191,8.4142529252067,8.49562815401239
0.906435911303407,6.40760119133361,9.12944097689766,2.72183978556405,-7.76852108411563,1.84288070288478,5.92564038123085
0.908599242833964,-0.939405839223787,1.88000451192753,2.81941035115132,-0.470299336351873,-1.87940809518755,2.34970743153943
0.910762574364521,-1.41952358964054,-1.13342817320982,0.286095416430721,1.27647588142518,-0.852809503035632,-0.423666378389551
0.912925905895078,3.6554031516361,-0.344994634359782,-4.00039778599589,-1.65520425863816,3.827900468816,-2.17269621017783
0.915089237425636,10.1502786933271,5.84852216489137,-4.30175652843576,-7.99940042910925,7.22601761088144,0.773382818227805
0.917252568956193,15.9626053496019,12.3354877011672,-3.62711764843475,-14.1490465253846,9.79486149901834,4.35418502636621
0.91941590048675,16.5393212413016,15.4233280984322,-1.11599314286941,-15.9813246698669,8.82765719208548,7.15366747778137
0.921579232017307,18.6986450411775,18.6841354832164,-0.0145095579611123,-18.6913902621969,9.3565772995693,9.33481296262763
0.923742563547864,12.2218293905029,12.5283433494131,0.306513958910235,-12.375086369958,5.95765771579633,6.41742865416168
0.925905895078421,-0.796059422170244,4.43343897746463,5.22949839963487,-1.81868977764719,-3.01277891090256,4.83146868854975
0.928069226608978,-1.46081018577064,-1.09686269805911,0.363947487711532,1.27883644191487,-0.912378836741086,-0.366457605173788
0.930232558139535,-1.30912786849221,-1.2490546413455,0.0600732271467079,1.27909125491886,-0.684600547819459,-0.594490707099397
0.932395889670092,7.52022779537397,5.64954834421812,-1.87067945115585,-6.58488806979605,4.69545362326491,1.88943444653114
0.934559221200649,14.2056779833543,8.96776952885775,-5.23790845449655,-11.586723756106,9.72179321892543,1.8649305371806
0.936722552731206,16.5306797662163,12.9544683061483,-3.57621146006797,-14.7425740361823,10.0534456131421,4.68912842304016
0.938885884261763,18.8500636613301,17.1607064407379,-1.68935722059216,-18.005385051034,10.2697104409611,7.73567461007289
0.94104921579232,14.8392134015795,15.0959910434862,0.256777641906776,-14.9676022225328,7.29121787983634,7.6763843426965
0.943212547322877,3.37379800498627,7.02308923731175,3.64929123232547,-5.19844362114901,-0.137746613669601,5.33619023481861
0.945375878853434,-1.40024240233041,-0.1839566808529,1.21628572147751,0.792099541591653,-1.30826406190396,0.516164520312304
0.947539210383991,-1.41615768628154,-1.28099095738259,0.13516672889895,1.34857432183207,-0.775662207590246,-0.572912114241821
0.949702541914548,6.50553149486493,3.10181337864902,-3.40371811621591,-4.80367243675697,4.95462480554042,-0.150952368783448
0.951865873445105,13.1884169136606,8.75704456973231,-4.43137234392833,-10.9727307416965,8.80989462879448,2.16283611290199
0.954029204975663,16.4196100444743,13.6003985961536,-2.81921144832065,-15.0100043203139,9.61941074639745,5.39059357391647
0.95619253650622,18.1186288858216,16.3579442801894,-1.7606846056322,-17.2382865830055,9.93965674572693,7.29862983727862
0.958355868036777,17.4337774755805,16.0319310817369,-1.40184639384361,-16.7328542786587,9.41781193471206,7.31504234394665
0.960519199567334,7.59695445844995,9.62843271899582,2.03147826054587,-8.61269358872289,2.78273809895204,5.82995548977084
0.962682531097891,-1.24528145674519,0.00188011940388666,1.24716157614908,0.621700668670653,-1.24622151644714,0.624520847776483
0.964845862628448,-1.44474454527064,-1.23424260923623,0.210501936034416,1.33949357725344,-0.827623240652529,-0.511870336600906
0.967009194159005,1.53938145290019,-0.19890157270953,-1.73828302560972,-0.67023994009533,1.63883223925496,-0.968592299159626
0.969172525689562,12.1276429446562,7.72925827417298,-4.39838467048324,-9.9284506094146,8.26301380756973,1.66543680184487
0.971335857220119,16.226753590301,10.9961599491495,-5.23059364115147,-13.6114567697252,10.7286736157262,2.88278315399902
0.973499188750676,18.102530486971,16.2711674639783,-1.83136302299265,-17.1868489754746,9.96694675498181,7.21990222049283
0.975662520281233,17.6104857884517,16.9286793234868,-0.681806464964957,-17.2695825559693,9.14614612670835,8.12343642926091
0.97782585181179,11.8512386108482,11.4608773104861,-0.390361300362089,-11.6560579606672,6.12079995560515,5.53525800506202
0.979989183342347,-0.213503566892568,4.22777451330802,4.44127808020059,-2.00713547320773,-2.32739082354658,4.33452629675431
0.982152514872904,-1.38503011732789,-1.11358946883712,0.27144064849077,1.2493097930825,-0.828235382909327,-0.421074410173173
0.984315846403461,-1.00055801436265,-0.284268303683797,0.716289710678857,0.642413159023226,-0.858423862520755,0.21601070349753
0.986479177934018,9.45010786977035,5.09794492402248,-4.35216294574787,-7.27402639689642,6.90113540775911,0.372890989137308
0.988642509464575,15.1572892132276,10.7207462017849,-4.43654301144273,-12.9390177075063,9.79691611233519,3.14210159517109
0.990805840995132,17.9981583979612,15.3281672561555,-2.66999114180567,-16.6631628270583,10.3340747698834,6.32908805717491
0.99296917252569,18.5355640806622,17.7880078444007,-0.747556236261477,-18.1617859625314,9.64156015846183,8.52022580406961
0.995132504056247,14.5378190575881,15.6787994676239,1.14098041003585,-15.108309262606,6.69841932377611,8.40988993882988
0.997295835586804,2.48345073800266,7.69488398070093,5.21143324269828,-5.0891673593518,-1.36399125234781,6.4531586116996
0.999459167117361,-1.23646439122947,-0.942444902286491,0.294019488942978,1.08945464675798,-0.765241940086223,-0.324212706671757
1.00162249864792,-1.10739491918295,-1.11964589247234,-0.0122509732893961,1.11352040582764,-0.547571972946775,-0.565948432880869
1.00378583017847,5.16734922714714,2.48573399037755,-2.68161523676959,-3.82654160876234,3.92448223195836,-0.0979406231960214
1.00594916170903,13.2231010085542,8.84044183229794,-4.38265917625623,-11.0317714204261,8.8028800924052,2.22889132802086
1.00811249323959,16.2239837190606,15.1313632848851,-1.09262043417546,-15.6776735019729,8.65830207661803,7.01937142535484
1.01027582477015,18.6194938612731,16.2034107110782,-2.41608315019492,-17.4114522861756,10.517788505734,6.89366378044162
1.0124391563007,18.8211724402901,16.6783729035377,-2.1427995367524,-17.7497726719139,10.4819859885212,7.26778668339263
1.01460248783126,7.6133014913918,10.3744642723923,2.76116278100053,-8.99388288189207,2.42606935519564,6.56781352669643
1.01676581936182,-1.0268606184688,1.66483653254735,2.69169715101615,-0.318987957039278,-1.85927888474248,2.17826684178175
1.01892915089237,-1.16808132178906,-1.09290190146192,0.0751794203271434,1.13049161162549,-0.621630371058103,-0.508861240567388
1.02109248242293,4.07743535373655,0.711492793674182,-3.36594256006237,-2.39446407370537,3.72168895689946,-1.32722488319409
1.02325581395349,13.6499463089693,8.54477966926802,-5.10516663970129,-11.0973629891187,9.3775564743353,1.71980651478336
1.02541914548405,15.9863930518504,13.2987361226818,-2.68765692916859,-14.6425645872661,9.33702499050949,5.3055395967566
1.0275824770146,19.4389919151821,16.9399114205277,-2.49908049465446,-18.1894516678549,10.9690362049183,7.2204154629366
1.02974580854516,19.1005272130049,16.8403967729924,-2.26013044001256,-17.9704619929986,10.6803288265087,7.2901331664899
1.03190914007572,11.967303796957,14.640024823745,2.67272102678802,-13.303664310351,4.64729138508449,8.65637292526652
1.03407247160627,0.831846690566585,5.10384431903971,4.27199762847312,-2.96784550480315,-1.72007546895327,4.68792097375642
1.03623580313683,-1.16613516260788,-1.00937019263736,0.156764969970529,1.08775267762262,-0.661450066289206,-0.426302611333413
1.03839913466739,0.630527100946497,-0.221008082953689,-0.851535183900185,-0.204759508996404,0.741031142423341,-0.536271633426937
1.04056246619794,9.28966826185716,5.8814424788829,-3.40822578297425,-7.58555537037003,6.3489470224157,1.23660834795432
1.0427257977285,14.1096598979093,11.4428817334964,-2.66677816441291,-12.7762708157028,8.38821903116111,4.38805178454173
1.04488912925906,20.2049728990854,16.8297928195231,-3.37518007956226,-18.5173828593043,11.7900764893238,6.72730636998044
1.04705246078962,20.1384210957188,17.7371283712497,-2.40129272446904,-18.9377747334843,11.2698569100939,7.66791782339035
1.04921579232017,15.522633828374,15.6911551080016,0.168521279627551,-15.6068944681878,7.67705627437323,7.92983819381455
1.05137912385073,5.10474973670049,9.34710440494117,4.24235466824067,-7.22592707082083,0.43119753422991,6.79472953659092
1.05354245538129,-1.10732339628194,-0.869173120156801,0.238150276125142,0.988248258219372,-0.672736836203543,-0.315511422015829
1.05570578691184,-1.16758948682179,-1.07834455004698,0.0892449367748145,1.12296701843439,-0.628417211798304,-0.494549806636082
1.0578691184424,6.5516980328503,4.06439369347581,-2.48730433937448,-5.30804586316306,4.51950118611239,0.788544677050666
1.06003244997296,13.8047154759311,11.1704773203484,-2.63423815558269,-12.4875963981398,8.21947681575691,4.26811958238288
1.06219578150352,18.5225317375373,14.2726486790279,-4.24988305850943,-16.3975902082826,11.3862073980234,5.01138281025925
1.06435911303407,18.7139151380383,16.1662024083816,-2.54771272965668,-17.44005877321,10.6308139338475,6.80924483936248
1.06652244456463,19.0303900776672,16.6890330046285,-2.34135707303869,-17.8597115411478,10.6858735753529,7.1738379657949
1.06868577609519,8.59512275159582,9.62944084431965,1.03431809272383,-9.11228179795773,3.78040232943599,5.33187946852174
1.07084910762574,-0.982417208835066,2.51573391800947,3.49815112684454,-0.766658354587204,-2.2402841678398,3.00694252242701
1.0730124391563,-1.29313048504747,-1.06338316767196,0.229747317375511,1.17825682635972,-0.761438901211491,-0.416817925148225
1.07517577068686,1.48572100058061,-0.0954541238185784,-1.58117512439919,-0.695133438381018,1.5334480624899,-0.838314624108886
1.07733910221741,11.9090132030878,6.12009707426874,-5.78891612881909,-9.01455513867829,8.84896466595346,0.165590472724825
1.07950243374797,15.1944111549309,12.4620822978372,-2.73232885709372,-13.8282467263841,8.96337000601232,4.86487672037174
1.08166576527853,17.999001489071,15.330756405271,-2.66824508380006,-16.664878947171,10.3336232864355,6.33125566073547
1.08382909680909,20.0843410726867,17.640167520953,-2.44417355173374,-18.8622542968198,11.2642573122102,7.59799698460961
1.08599242833964,12.0678126072212,11.4845822245556,-0.583230382665553,-11.7761974158884,6.32552149494338,5.45067592094505
1.0881557598702,-0.808438249584445,3.54290097625926,4.3513392258437,-1.36723136333741,-2.57988873771408,3.94712010105148
1.09031909140076,-1.32545048088457,-0.985589501363616,0.33986097952095,1.15551999112409,-0.832655730202757,-0.322864260921333
1.09248242293131,-1.1097756845084,-0.211375945769877,0.898399738738527,0.660575815139141,-1.00408771162347,0.343511896484325
1.09464575446187,6.86832797603431,4.28360788150281,-2.5847200945315,-5.57596792876856,4.7265240352829,0.849443893485654
1.09680908599243,13.4125486206749,9.03697147349012,-4.37557714718476,-11.2247600470825,8.89406288392982,2.33069716315268
1.09897241752299,17.185226447255,12.8339536578249,-4.35127278943011,-15.0095900525399,10.7682496183426,4.24134043419739
1.10113574905354,18.6518650577879,16.9283951019898,-1.72346995579817,-17.7901300798889,10.1876675067931,7.6024625730958
1.1032990805841,13.1123140275877,13.3067970423528,0.194483014765122,-13.2095555349703,6.4589155064113,6.75064002855898
1.10546241211466,1.79198117622132,6.18115028931224,4.38916911309092,-3.98656573276678,-1.2985939684348,5.28515970120158
1.10762574364521,-1.25090277773326,-0.848484554736304,0.402418222996953,1.04969366623478,-0.826660500365105,-0.223033165869676
1.10978907517577,-1.21552061669572,-1.05867138407369,0.156849232622035,1.13709600038471,-0.68618492465888,-0.450911075725827
1.11195240670633,5.0468777383314,2.48402381230333,-2.56285392602807,-3.76545077531737,3.80486583217973,-0.0394150568623655
1.11411573823688,11.5823645028881,7.98859855187004,-3.59376595101811,-9.78548152737909,7.58806522695313,2.19741630042597
1.11627906976744,13.8845198521477,11.8778277550036,-2.00669209714416,-12.8811738035757,7.94560597464595,4.93556782892971
1.118442401298,16.3347961745699,14.5632234378517,-1.7715727367182,-15.4490098062108,9.05318445564407,6.39582535056677
1.12060573282856,15.7211266713111,15.0855450284862,-0.635581642824917,-15.4033358498986,8.178354157068,7.22498169283063
1.12276906435911,3.64439040318368,8.82273159177889,5.17834118859521,-6.23356099748128,-0.76697539270577,7.00053639018705
1.12493239588967,-1.09508871515833,0.129759692545957,1.22484840770428,0.482664511306185,-1.15996856143131,0.67730405012512
1.12709572742023,-1.25517018849515,-1.05015734605134,0.205012842443809,1.15266376727325,-0.73009151546948,-0.422572251803767
1.12925905895078,0.860149258618233,-0.068880799733416,-0.929030058351649,-0.395634229442408,0.894589658484941,-0.498955429042532
1.13142239048134,10.5151093834482,5.35240733054551,-5.16270205290269,-7.93375835699685,7.83890571817545,0.0948526388214059
1.1335857220119,14.4953297615433,10.0913443161707,-4.40398544537259,-12.293337038857,9.44965760345794,2.84367943539905
1.13574905354246,16.3396845632832,15.3199139585959,-1.01977060468725,-15.8297992609395,8.67972758398521,7.15007167695433
1.13791238507301,16.7106969748491,16.8128385608203,0.102141585971268,-16.7617677678347,8.30427769443889,8.45749007339579
1.14007571660357,11.0755996630841,11.4435850030834,0.367985339999322,-11.2595923330838,5.3538071615424,5.90578517154139
1.14223904813413,-0.881432719499626,1.92915720285402,2.81058992235364,-0.523862241677195,-1.84601132092663,2.36987356260383
1.14440237966468,-1.22554927934583,-0.975195342289529,0.250353937056303,1.10037231081768,-0.737951608201068,-0.362420702616613
1.14656571119524,-0.897262330258887,-0.960375340162811,-0.0631130099039238,0.928818835210849,-0.417074660177482,-0.511744175033367
1.1487290427258,8.64899074897288,3.54599270541208,-5.1029980435608,-6.09749172719248,6.87599439626684,-0.778502669074362
1.15089237425635,15.0489266586535,9.86423892225661,-5.18468773639686,-12.456582790455,10.1168071975252,2.33977559292987
1.15305570578691,16.2621011665588,13.6112071882076,-2.65089397835118,-14.9366541773832,9.45649757245497,5.4801566049282
1.15521903731747,16.8420638193791,16.0716229669291,-0.770440852449919,-16.4568433931541,8.80625233591449,7.65059105723961
1.15738236884803,13.7367377842896,14.0306202105958,0.293882426306208,-13.8836789974427,6.72142767899171,7.16225131845102
1.15954570037858,1.78047445235608,4.56100863252067,2.7805341801646,-3.17074154243838,-0.500029863904259,3.67077140634263
1.16170903190914,-1.09951530407177,-0.815078686719517,0.28443661735225,0.957296995395642,-0.691975960712008,-0.265321034683634
1.1638723634397,-0.999855021970835,-0.977250174959315,0.02260484701152,0.988552598465075,-0.511229934491178,-0.477322663973898
1.16603569497025,5.98229616258215,0.973803392737825,-5.00849276984433,-3.47804977765999,5.49539446621324,-2.01734468855325
1.16819902650081,10.765169325959,8.01199394112958,-2.75317538482939,-9.38858163354427,6.75917235539418,2.6294092781501
1.17036235803137,15.3032105046274,11.8256739119231,-3.47753659270433,-13.5644422082753,9.39037354866589,4.17406865960939
1.17252568956193,16.1280202813881,15.2568964522531,-0.871123829134998,-15.6924583668206,8.49957205526156,7.19288631155906
1.17468902109248,16.4053346876667,14.2045795333596,-2.20075515430713,-15.3049571105131,9.3030449209869,6.00191218952621
1.17685235262304,5.28971300744375,8.81011529362207,3.52040228617831,-7.04991415053291,0.884655360632722,6.16525878990019
1.1790156841536,-0.90968506557528,-0.587389345893967,0.322295719681313,0.748537205734623,-0.615990392628297,-0.132546813106327
1.18117901568415,-1.06018859417172,-0.926877629075843,0.133310965095882,0.993533111623784,-0.596749779633803,-0.396783331989981
1.18334234721471,2.52796876227176,-0.772420128276611,-3.30038889054837,-0.877774316997575,2.91417882641007,-2.03640450941249
1.18550567874527,9.6326139133993,6.14123935513787,-3.49137455826143,-7.88692663426858,6.56199423583036,1.32493239843822
1.18766901027582,15.0916816700966,10.778227528087,-4.31345414200952,-12.9349545990918,9.70256790605304,3.23238669303876
1.18983234180638,16.9541432552815,13.585437407016,-3.36870584826553,-15.2697903311488,10.1614245517735,5.10836577937523
1.19199567333694,17.4586715083823,15.1376254324353,-2.32104607594702,-16.2981484704088,9.88985879216467,6.40828967824413
1.1941590048675,10.3991935742067,11.4804148896199,1.08122131541321,-10.9398042319133,4.65898612939673,6.28081810251655
1.19632233639805,-0.673233267022064,3.65891833636136,4.33215160338342,-1.49284253466965,-2.50269243520274,3.99553496987239
1.19848566792861,-1.06110304235643,-0.821594135307464,0.239508907048965,0.941348588831946,-0.650305974702697,-0.291042614129249
1.20064899945917,-0.0911480653311991,-0.896107793077639,-0.80495972774644,0.493627929204419,0.35690583120762,-0.85053376041204
1.20281233098972,6.90916586860669,4.27020295311358,-2.63896291549312,-5.58968441086013,4.7740643920499,0.81562001881023
1.20497566252028,11.6572381800213,8.90778807984034,-2.74945010018101,-10.2825131299308,7.20334414010117,3.07916898982967
1.20713899405084,16.1269317645658,14.256003709502,-1.87092805506373,-15.1914677370339,8.99892990981474,6.19253782721916
1.2093023255814,18.4602468000149,14.4453425552419,-4.01490424477304,-16.4527946776284,11.237575522394,5.21521915523442
1.21146565711195,13.9062800707034,14.1337045411909,0.227424470487531,-14.0199923059472,6.83942780010793,7.18056450583923
1.21362898864251,1.97816111477217,5.53426957583596,3.55610846106379,-3.75621534530406,-0.788973673145812,4.54518901844987
1.21579232017307,-0.999274003661006,-0.678376595366017,0.32089740829499,0.838825299513511,-0.660085705977998,-0.178739593535513
1.21795565170362,-1.05754875242571,-0.974378514964775,0.0831702374609401,1.01596363369524,-0.570359494943327,-0.445604138751917
1.22011898323418,5.01405276283689,0.83877715666676,-4.17527560617013,-2.92641495975182,4.59466418450351,-1.66824922475168
1.22228231476474,12.1772229777211,7.82589075330796,-4.35133222441314,-10.0015568655145,8.26427760106712,1.73727926444741
1.22444564629529,16.8221032562302,11.7103109748146,-5.11179228141554,-14.2662071155224,10.9669477688229,3.29925934669954
1.22660897782585,16.2045662464049,14.4956456476464,-1.70892059875847,-15.3501059470256,8.95674342258167,6.39336252444396
1.22877230935641,15.7839179485753,14.3676977147704,-1.41622023380492,-15.0758078316729,8.60006909119012,6.47573874048275
1.23093564088697,5.45101454731895,8.99801158097641,3.54699703365746,-7.22451306414768,0.952008756830746,6.27250430731693
1.23309897241752,-0.860566733346499,-0.498890112817071,0.361676620529428,0.679728423081785,-0.611121676937963,-0.0686067461438216
1.23526230394808,-1.15360737883968,-0.998563699958509,0.155043678881171,1.07608553939909,-0.654325528860426,-0.421760010538669
1.23742563547864,1.5574696171191,-0.960377603654324,-2.51784722077342,-0.298546006732387,2.03765841894626,-1.73911241221387
1.23958896700919,10.2793630837022,5.95861156140541,-4.32075152229681,-8.11898732255382,7.30005730299952,0.818930019554301
1.24175229853975,15.0642629050777,11.5154183267161,-3.5488445783616,-13.2898406158969,9.30655374171966,3.98328687417725
1.24391563007031,16.2688476212599,14.4875377035659,-1.781309917694,-15.3781926624129,9.02507876947697,6.35311389293596
1.24607896160087,17.6358154866149,16.1369663453794,-1.49884914123555,-16.8863909159972,9.56733231392525,7.31905860207192
1.24824229313142,8.94506775506388,11.6514829659205,2.70641521085662,-10.2982753604922,3.11932627210363,7.17894908838856
1.25040562466198,-0.66516982598445,2.89190027048737,3.55707009647182,-1.11336522225146,-2.11111996122813,3.22448518347959
1.25256895619254,-1.18551122303164,-0.956618166853668,0.228893056177971,1.07106469494265,-0.707202139604805,-0.363862555337849
1.25473228772309,-1.06549846065063,-0.316005585464757,0.749492875185868,0.690752023057691,-0.907495667918246,0.216743644860555
1.25689561925365,7.58065029406009,3.31650986620758,-4.26414042785251,-5.44858008013384,5.9223953609563,-0.473815280822464
1.25905895078421,12.4624207407073,9.69970529879874,-2.76271544190857,-11.081063019753,7.61256809130794,3.46849492844509
1.26122228231476,17.8525561380849,12.8267736823784,-5.02578245570646,-15.3396649102317,11.4391692968957,3.90049561333599
1.26338561384532,17.0505089277825,16.2574313544285,-0.793077573353987,-16.6539701411055,8.92179325056825,7.73217689053727
1.26554894537588,14.0195374958473,15.0730675657559,1.05353006990861,-14.5463025308016,6.48300371296937,8.06329881783228
1.26771227690644,3.54468494456585,6.29990551891959,2.75522057435374,-4.92229523174272,0.394732185106057,4.52756304663666
1.26987560843699,-1.14653375444689,-0.864744264654501,0.281789489792393,1.0056390095507,-0.714161622119644,-0.291477387431054
1.27203893996755,-1.24084521794714,-1.1999889873918,0.0408562305553435,1.22041710266947,-0.640850724251244,-0.579566378418229
1.27420227149811,4.90878428197469,1.5128004811939,-3.39598380078079,-3.2107923815843,4.15238404137774,-0.941591659793445
1.27636560302866,13.0107869388526,7.88858956421414,-5.12219737463847,-10.4496882515334,9.06649215674554,1.38319609478783
1.27852893455922,16.1887623058297,12.7117042483256,-3.4770580575041,-14.4502332770776,9.83291018166689,4.61732309541075
1.28069226608978,17.183182320488,15.509891443375,-1.673290877113,-16.3465368819315,9.4282365988005,6.918300283131
1.28285559762034,15.8766231807887,14.4600954640544,-1.4165277167343,-15.1683593224215,8.64657544876148,6.52178387366003
1.28501892915089,5.39306332949843,8.11023507981686,2.71717175031844,-6.75164920465764,1.33794578958999,5.41370341506765
1.28718226068145,-1.03419869448406,0.0755343180826884,1.10973301256675,0.479332188200684,-1.0719658535254,0.592633665324717
1.28934559221201,-1.3354360124995,-1.20712852146848,0.12830749103102,1.27128226698399,-0.73187175176526,-0.53941051521873
1.29150892374256,0.686971630252202,-1.02676634940892,-1.71373797966112,0.169897359578359,1.20035480495666,-1.37025216453502
1.29367225527312,10.3576423164823,7.6645197757381,-2.69312254074423,-9.01108104611021,6.52538242861328,2.48569861749693
1.29583558680368,14.4545702939673,10.9483590868987,-3.50621120706853,-12.701464690433,8.98039075051791,3.72107393991511
1.29799891833423,18.0321060290897,14.6843758552866,-3.34773017380312,-16.3582409421881,10.6899181014464,5.66832284074172
1.30016224986479,16.89485539933,15.3880143585941,-1.50684104073598,-16.1414348789621,9.20084822003301,6.94058665892904
1.30232558139535,9.63791524801792,11.5170360482635,1.87912080024558,-10.5774756481407,3.87939722388617,6.69807842425453
1.30448891292591,-0.856774510676635,1.86515705858257,2.72193156925921,-0.504191273952969,-1.78935303996792,2.29354431392089
1.30665224445646,-1.34549706253994,-1.14479322848143,0.200703834058507,1.24514514551069,-0.773100448299223,-0.472044697211464
1.30881557598702,-1.09209616063036,-1.13858397865456,-0.0464878180241994,1.11534006964246,-0.522804171303079,-0.592535898339378
1.31097890751758,6.91005577524325,3.46644283264973,-3.44361294259352,-5.18824930394649,5.17683435891839,0.0114149450281058
1.31314223904813,12.6577734658588,9.14270699194544,-3.51506647391337,-10.9002402289021,8.08641996988609,2.81382025901603
1.31530557057869,17.2004852948682,15.3881528240328,-1.81233247083537,-16.2943190594505,9.50640888285179,6.78791017659874
1.31746890210925,17.8425324163907,15.4707739229264,-2.37175849346435,-16.6566531696585,10.1071454549275,6.54950771473101
1.31963223363981,13.8728563971589,13.3178367915635,-0.555019605595362,-13.5953465943612,7.21393800137712,6.38140859298408
1.32179556517036,1.75943275232937,6.06458464640289,4.30515189407352,-3.91200869936613,-1.27285957087208,5.18486827023821
1.32395889670092,-1.2647068725505,-1.02451369011679,0.240193182433702,1.14461028133364,-0.752450027492099,-0.392160253841545
1.32612222823148,-1.20458977445712,-1.18893116651443,0.015658607942691,1.19676047048577,-0.610124191199904,-0.586636279285868
1.32828555976203,5.86803849117421,1.68544790574056,-4.18259058543365,-3.77674319845739,5.02531453830393,-1.24857133984654
1.33044889129259,11.608198764074,8.91030596064425,-2.6978928034297,-10.2592523623591,7.15304578375183,3.10620657860727
1.33261222282315,15.4839057162756,13.6493307338462,-1.83457498242933,-14.5666182250609,8.65924034935246,5.90737787570846
1.3347755543537,16.3269515175815,16.277649424079,-0.0493020935025754,-16.3023004708303,8.18812680554206,8.11417366528819
1.33693888588426,15.7036655538938,16.6644615019183,0.960795948024508,-16.1840635279061,7.37143480293465,8.81262872497141
1.33910221741482,6.01205861596732,7.88944515041837,1.87738653445105,-6.95075188319285,2.06733604075813,4.88341584243471
1.34126554894538,-1.10277454434852,-0.0506124247657178,1.0521621195828,0.576693484557117,-1.07746833196566,0.50077484740854
1.34342888047593,-1.25425066349178,-1.15997405440119,0.0942766090905949,1.20711235894648,-0.674263636291188,-0.532848722655296
1.34559221200649,1.66162379560505,-0.0422782497105145,-1.70390204531557,-0.80967277294727,1.68276292046031,-0.873090147513042
1.34775554353705,10.523977352594,5.49644728125222,-5.0275300713418,-8.01021231692312,7.77575371196791,0.23445860495521
1.3499188750676,13.7094748934873,11.8501018921906,-1.85937300129663,-12.779788392839,7.78442394739195,4.99536444544701
1.35208220659816,17.1412904796885,16.2040240937841,-0.937266385904383,-16.6726572867363,9.03927843279645,7.63337885393988
1.35424553812872,18.3013140376224,15.9753587153027,-2.3259553223197,-17.1383363764625,10.313634679971,6.82470169649149
1.35640886965928,10.274150134592,12.0939950080353,1.81984487344325,-11.1840725713137,4.22715263057439,6.95691994073926
1.35857220118983,-0.894884796334244,2.56992523119223,3.46481002752647,-0.837520217428992,-2.17984741193036,3.01736762935935
1.36073553272039,-1.23836653779365,-1.04542655036362,0.192939987430023,1.14189654407863,-0.715653262611835,-0.4262432814668
1.36289886425095,-0.90274527544285,-0.907075638391095,-0.00433036294824463,0.904910456916973,-0.449207456247303,-0.45570300066967
1.3650621957815,7.8606505834233,3.68706907047385,-4.17358151294945,-5.77385982694858,6.01711604818638,-0.243256221237802
1.36722552731206,12.6835798891339,9.2109256097438,-3.47265427939009,-10.9472527494388,8.07811708426199,2.86913566517686
1.36938885884262,16.2842113465897,12.8729816964924,-3.41122965009731,-14.578596521541,9.8477204983435,4.73087602319753
1.37155219037317,18.4409889868695,15.2169898989643,-3.22399908790528,-16.8289894429169,10.8324940373874,5.99649540552949
1.37371552190373,12.9280222539692,12.3044999028905,-0.623522351078762,-12.6162610784298,6.775772302524,5.84048877590585
1.37587885343429,2.5412380310113,3.63657812240498,1.09534009139368,-3.08890807670814,0.72294896980881,2.36595910689933
1.37804218496485,-1.13075764612042,-0.861334786078798,0.269422860041625,0.996046216099611,-0.700090253081024,-0.295955963018587
1.3802055164954,-1.00501038593254,-0.916383087641723,0.0886272982908207,0.960696736787134,-0.546818842111682,-0.413877894675451
1.38236884802596,3.63077474862106,1.89568454498707,-1.735090203634,-2.76322964680406,2.68293247612753,0.080297170676535
1.38453217955652,11.6128204081396,8.12929687146432,-3.48352353667529,-9.87105863980197,7.54817197240745,2.32288666739451
1.38669551108707,16.9293012643977,12.6603714281688,-4.26892983622899,-14.7948363462833,10.5991155503134,4.19572079596988
1.38885884261763,16.1161371891632,15.2013732735462,-0.914763915616994,-15.6587552313547,8.5154505523901,7.14330467896461
1.39102217414819,15.5517105604328,14.8841799907533,-0.667530569679467,-15.217945275593,8.10962056505611,7.10832471053691
1.39318550567875,6.01585228454217,7.91053863047365,1.89468634593148,-6.96319545750791,2.06058296930534,4.90261248820256
1.3953488372093,-0.938544044960527,0.964694829188617,1.90323887414914,-0.013075392114045,-1.42089145955484,1.43396685166888
1.39751216873986,-1.0244427916452,-0.878902855085989,0.145539936559211,0.951672823365595,-0.584991364102205,-0.366681459263389
1.39967550027042,1.81696149368392,-0.671469770446422,-2.48843126413034,-0.572745861618748,2.15269637890713,-1.57995051728838
1.40183883180097,9.7109662445943,5.44348933157444,-4.26747691301986,-7.57722778808437,6.98922157880708,0.588006209277287
1.40400216333153,14.3152630601845,11.6124281175088,-2.70283494267571,-12.9638455888466,8.5090490014301,4.45479658741653
1.40616549486209,15.3042300489658,14.3418787246776,-0.962351324288196,-14.8230543868217,8.133290686627,6.6897637001947
1.40832882639264,15.7645602284283,14.2501164461107,-1.51444378231757,-15.0073383372695,8.63950200537293,6.36783633189657
1.4104921579232,7.93505167567202,12.1799528363279,4.24490116065586,-10.0575022559999,1.84507525750808,8.21242699849187
1.41265548945376,0.119988708020073,1.23368479063695,1.11369608261688,-0.676836749328513,-0.496853687298403,1.17369043662692
1.41481882098432,-0.979050940747421,-0.786944250685987,0.192106690061434,0.882997595716704,-0.585578815404428,-0.297418780312276
1.41698215251487,-0.770909312180041,-0.806417448336239,-0.0355081361561977,0.78866338025814,-0.367700588011922,-0.420962792246218
1.41914548404543,6.98441809956751,3.56634662472119,-3.41807147484632,-5.27538236214435,5.20124478720692,0.0741375749374336
1.42130881557599,12.4374663004881,9.74057813157436,-2.69688816891373,-11.0890222160312,7.56717723470091,3.52184498133032
1.42347214710654,15.2345374074164,13.4270934034014,-1.80744400401498,-14.3308154054089,8.52099070571568,5.80982469969322
1.4256354786371,15.9578456037102,15.1545725057483,-0.803273097961881,-15.5562090547292,8.38055935083603,7.17564970389321
1.42779881016766,13.8445973870752,14.8428184553704,0.998221068295177,-14.3437079212228,6.42318815939002,7.92051976183278
1.42996214169822,1.22042545244195,5.49778036334165,4.27735491089969,-3.3591029078918,-1.52846472922887,4.88756763712067
1.43212547322877,-0.888540213701383,-0.645319824809259,0.243220388892124,0.766930019255321,-0.565880301296754,-0.201049717958567
1.43428880475933,-0.945284318263218,-0.89127428778798,0.0540100304752374,0.918279303025599,-0.499647174369228,-0.418632128656371
1.43645213628989,5.05408359470587,1.71703769439604,-3.33704590030984,-3.38556064455095,4.19556474750786,-0.810004102956901
1.43861546782044,10.5311640317473,7.86097511391055,-2.67018891783677,-9.19606957282893,6.60067647479204,2.59539309803689
1.440778799351,15.9127262126582,13.2645516954778,-2.64817451718043,-14.588638954068,9.28045036491934,5.30818858914869
1.44294213088156,16.9014387535508,15.2060781860211,-1.6953605675297,-16.0537584697859,9.29839966054024,6.75535880924569
1.44510546241211,16.5587167038908,15.0785749626105,-1.48014174128029,-15.8186458332507,9.01942922258556,6.79921661066513
1.44726879394267,5.5195008442528,8.96592262223908,3.44642177798627,-7.24271173324594,1.03653953313326,6.20617220011268
1.44943212547323,-0.747869536854221,0.334904299747225,1.08277383660145,0.206482618553498,-0.915321686727833,0.708839068174336
1.45159545700379,-1.06712964645681,-0.911258362602698,0.155871283854111,0.989194004529754,-0.61150046515546,-0.377693539374294
1.45375878853434,2.35783059327687,-0.0840944245877923,-2.44192501786466,-1.13686808434454,2.39987780557077,-1.26300972122623
1.4559221200649,9.40705516955034,7.57291036136778,-1.83414480818257,-8.48998276545906,5.62059998886645,2.86938277659261
1.45808545159546,14.1587668452248,13.0560597081745,-1.10270713705031,-13.6074132766996,7.63073699113755,5.97667628556208
1.46024878312601,16.1959430552007,15.1895408197984,-1.0064022354023,-15.6927419374996,8.6011726453015,7.09156929219805
1.46241211465657,18.4399486191411,16.853479266446,-1.58646935269513,-17.6467139427935,10.0132089859181,7.63350495687542
1.46457544618713,12.2037988274432,13.2263756107805,1.02257678333726,-12.7150872191118,5.59061102205296,7.12447619705886
1.46673877771769,0.226361692475955,6.12612658215087,5.89976488967492,-3.17624413731341,-2.83670159859948,6.01294573591289
1.46890210924824,-1.13149882624732,-0.866665561668889,0.264833264578435,0.999082193958106,-0.698166045412879,-0.300916148545227
1.4710654407788,2.09463176163747,0.547451009243232,-1.54718075239424,-1.32104138544035,1.82090625701586,-0.499864871575505
1.47322877230936,11.4764706401986,8.08933804367318,-3.38713259652539,-9.78290434193587,7.43180161836198,2.35110272357389
1.47539210383991,17.9326463576592,13.6084596720451,-4.32418668561403,-15.7705530148521,11.1284165216366,4.64213649321555
1.47755543537047,23.3606414992656,19.877576820914,-3.48306467835157,-21.6191091600898,13.4218530888086,8.19725607128121
1.47971876690103,24.215632326493,23.3305529280227,-0.885079398470261,-23.7730926272578,12.5503558624816,11.2227367647762
1.48188209843158,21.2441184112713,20.6290059738553,-0.61511243741603,-20.9365621925633,10.9296154243437,10.0069467682196
1.48404542996214,8.40433027709625,11.9390145776017,3.53468430050545,-10.171672427349,2.4348229882954,7.73684943905357
1.4862087614927,-1.08148245878786,3.23034789842134,4.3118303572092,-1.07443271981674,-2.69665640799853,3.77108912781527
1.48837209302326,-1.23333123596207,-0.306709764995518,0.926621470966555,0.770020500478795,-1.07997635346431,0.309955852985518
1.49053542455381,6.44174285314152,3.11509675749542,-3.3266460956461,-4.77841980531847,4.88419447439381,-0.105774669075338
1.49269875608437,11.3232937383605,9.3870904668322,-1.93620327152829,-10.3551921025963,6.62974850494439,3.72544359765195
1.49486208761493,14.5038514126462,13.3525241942322,-1.15132721841399,-13.9281878034392,7.82758931553009,6.1005984879091
1.49702541914548,16.3467193766808,14.5843698104866,-1.76234956619416,-15.4655445935837,9.05453447143748,6.41101012214624
1.49918875067604,14.3284563703785,13.6409475842496,-0.687508786128884,-13.984701977314,7.50798257825367,6.47671939906035
1.5013520822066,3.12067678753594,6.63083096081391,3.51015417327798,-4.87575387417492,-0.194738692871021,5.07049256704595
1.50351541373716,-0.908441007150786,-0.529761468176733,0.378679538974054,0.71910123766376,-0.64356027306242,-0.0755409646013394
1.50567874526771,-1.26894304104777,-1.05053778051574,0.218405260532037,1.15974041078175,-0.743674150789905,-0.41606625999185
1.50784207679827,0.645301432188112,-1.00664365367278,-1.65194508586089,0.180671110742334,1.1486232590245,-1.32929436976683
1.51000540832883,7.83976962691552,4.34670044378028,-3.49306918313524,-6.0932350353479,5.66641940502538,0.426815630322522
1.51216873985938,12.7153788635593,9.93158480811802,-2.78379405544124,-11.3234818358386,7.74958645950026,3.57389537633839
1.51433207138994,17.1651340244972,12.9261519645843,-4.23898205991282,-15.0456429945408,10.702058042205,4.34358495233576
1.5164954029205,18.5370948786501,14.5857106768944,-3.95138420175572,-16.5614027777723,11.2442395402029,5.31716323756935
1.51865873445105,8.9952445270247,11.683799969522,2.68855544249726,-10.3395222482733,3.15334454226372,7.18617770600961
1.52082206598161,-0.694662092636238,2.90467233224587,3.59933442488211,-1.10500511980482,-2.14699825875918,3.25200337856399
1.52298539751217,-1.27022176264525,-0.970405888949916,0.299815873695337,1.12031382579758,-0.785018818170295,-0.33529500762729
1.52514872904273,-1.15317686788834,-1.14486578411901,0.00831108376932543,1.14902132600368,-0.580743975828832,-0.568277350174844
1.52731206057328,5.95017295433298,3.27791654845147,-2.67225640588151,-4.61404475139223,4.31121468010725,0.302830071284981
1.52947539210384,11.691287443984,8.08831184351319,-3.60297560047078,-9.88979964374858,7.64713152222737,2.24266812152121
1.5316387236344,16.3330735058396,13.626782925397,-2.70629058044262,-14.9799282156183,9.51968204314111,5.46024617247718
1.53380205516495,16.3283810658308,14.7006617554576,-1.62771931037317,-15.5145214106442,8.97805018810199,6.53647122254224
1.53596538669551,12.4659072063019,15.115827313072,2.64992010677006,-13.7908672596869,4.90799354976593,8.88287370992101
1.53812871822607,0.351241864017722,5.5372877042454,5.18604584022768,-2.94426478413156,-2.41740198810498,5.36166677223654
1.54029204975663,-1.19881030138491,-0.862100464234979,0.33670983714993,1.03045538280994,-0.76776006926742,-0.262695313542524
1.54245538128718,-1.30116021664574,-1.23031738454535,0.0708428321003844,1.26573880059554,-0.68600152437306,-0.579737276222483
1.54461871281774,3.28020129064686,2.25721404007663,-1.02298725057023,-2.76870766536175,2.15159427060854,0.617113394753201
1.5467820443483,11.4223069086517,6.25734667121661,-5.16496023743507,-8.83982678993415,8.29363357304337,0.546193216890773
1.54894537587885,15.4352647114383,13.4972870611066,-1.93797765033169,-14.4662758862724,8.68662118088498,5.77965470538745
1.55110870740941,18.8310944311041,14.7487778022723,-4.08231662883176,-16.7899361166882,11.4567055299679,5.33323058672029
1.55327203893997,15.921165452121,15.3128250197203,-0.608340432400741,-15.6169952359206,8.26475294226087,7.35224229365976
1.55543537047052,5.40002575797862,8.16050934679416,2.76048358881553,-6.78026755238639,1.31977108458154,5.46049646780485
1.55759870200108,-1.06579734147174,0.881240355465317,1.94703769693705,0.0922784930032106,-1.5064175192044,1.41413902620119
1.55976203353164,-1.38724463486914,-1.24358157781885,0.143663057050287,1.315413106344,-0.765453845959714,-0.549959260384284
1.5619253650622,2.22965502916166,-1.09122977086527,-3.32088480002693,-0.569212629148193,2.77526991459429,-2.2060572854461
1.56408869659275,8.75123172374557,6.02201247423162,-2.72921924951396,-7.3866220989886,5.74022548662977,1.64639661235883
1.56625202812331,14.4757415247888,11.7325691408426,-2.74317238394619,-13.1041553328157,8.60945695436749,4.4946983784482
1.56841535965387,18.08295509082,14.7233744397234,-3.35958065109666,-16.4031647652717,10.7212678709583,5.68189689431335
1.57057869118442,16.9485925827668,15.452314857118,-1.49627772564873,-16.2004537199424,9.22243515420775,6.97801856573465
1.57274202271498,9.66482182245987,12.3633805742065,2.6985587517466,-11.0141011983332,3.48313153535664,7.53096966297654
1.57490535424554,-0.873262913929915,3.4628121583879,4.33607507231781,-1.29477462222899,-2.60466899312387,3.89944361535286
1.5770686857761,-1.39873117852016,-1.1837492023694,0.214981976150762,1.29124019044478,-0.806856577335461,-0.484383613109318
1.57923201730665,-1.15420300920183,-1.2004320975515,-0.0462290883496645,1.17731755337667,-0.553986960426085,-0.623330592950582
1.58139534883721,6.87410128654225,3.41974583436366,-3.45435545217858,-5.14692356045295,5.16422836936041,-0.0173048089074599
1.58355868036777,12.6707233137124,9.13763270082745,-3.53309061288499,-10.9041780072699,8.10190696329871,2.80227104397123
1.58572201189832,16.4647466406299,13.0433909141114,-3.4213557265185,-14.7540687773706,9.9430511835742,4.81101759379644
1.58788534342888,18.7104865354654,14.7356400723047,-3.9748464631607,-16.7230633038851,11.3426664993131,5.38039680457201
1.59004867495944,13.9179986183072,14.9498529102715,1.03185429196425,-14.4339257642894,6.44307216317149,7.99085360111788
1.59221200648999,0.952300467570873,5.26905497493593,4.31675450736505,-3.1106777212534,-1.68222701989709,4.79290474115049
1.59437533802055,-1.33138630491229,-1.06876102444284,0.262625280469459,1.20007366467756,-0.797005792690876,-0.403067871986688
1.59653866955111,-1.28924680761413,-1.24682258510791,0.0424242225062261,1.26803469636102,-0.66583551506018,-0.602199181300841
1.59870200108167,3.43275063022841,1.65034649493523,-1.78240413529318,-2.54154856258182,2.6075773827608,-0.066028820178976
1.60086533261222,11.6238020304616,8.12504929826815,-3.49875273219343,-9.87442566436486,7.5612773813275,2.31314828303736
1.60302866414278,17.1492017585927,14.4899856730853,-2.65921608550741,-15.819593715839,9.90420892205003,5.91538479378892
1.60519199567334,17.2118714786756,16.3306212867748,-0.881250191900861,-16.7712463827252,9.04656083528825,7.72468554743696
1.60735532720389,14.9594067407269,16.6913124764769,1.73190573575003,-15.8253596086019,6.61375050248844,9.21160910611348
1.60951865873445,5.19938665568894,9.46376626768259,4.26437961199365,-7.33157646168577,0.467503521847647,6.86407293983812
1.61168199026501,-1.17777811260293,1.4917496172349,2.66952772983784,-0.156985752315986,-1.92365292122038,2.08063867353637
1.61384532179557,-1.34373305103487,-1.20919044044062,0.134542610594247,1.27646174573774,-0.739137830814556,-0.537323914923186
1.61600865332612,0.813476938516249,-0.0622216350896346,-0.875698573605883,-0.375627651713307,0.844587756061066,-0.468960104347759
1.61817198485668,10.5369275671513,7.10679429737726,-3.43013326977403,-8.82186093226428,6.98353041846266,1.83833051380162
1.62033531638724,15.370474906292,12.6915027554075,-2.6789721508845,-14.0309888308497,9.02472352858824,5.00626530226149
1.62249864791779,16.437742123644,16.2458959220456,-0.191846201598356,-16.3418190228448,8.31479416262117,8.02702486022363
1.62466197944835,17.5674926446752,16.7821200091518,-0.785372635523352,-17.1748063269135,9.17643264009925,7.99837368681423
1.62682531097891,11.8597723054147,13.6597323817218,1.79996007630713,-12.7597523435682,5.02990611455377,7.72984622901447
1.62898864250946,-0.169831623292214,4.11439215763387,4.28422378092608,-1.97228026717083,-2.22702770210915,4.19930796927997
1.63115197404002,-1.33928550692651,-1.08401937864954,0.255266128276971,1.21165244278802,-0.797275817601739,-0.414376625186283
1.63331530557058,-0.978091412130609,-0.121754480183419,0.85633693194719,0.549922946157014,-0.917214172038899,0.367291225881885
1.63547863710114,7.85798488934584,5.30063794504009,-2.55734694430575,-6.57931141719297,5.2076659168258,1.37164550036717
1.63764196863169,12.7610808758133,10.0467958568576,-2.71428501895574,-11.4039383663355,7.73768294738454,3.66625541895094
1.63980530016225,18.7832118213075,16.8757842706013,-1.90742755070621,-17.8294980459544,10.3453196860069,7.48417835994755
1.64196863169281,18.5264379449823,16.0131872616012,-2.51325068338112,-17.2698126032918,10.5198443141817,6.74996828911005
1.64413196322336,12.9299463199743,13.8691691568472,0.939222836872892,-13.3995577384108,5.99536174155072,7.40419599686006
1.64629529475392,1.661307631662,5.19520089546527,3.53389326380327,-3.42825426356363,-0.936292816070639,4.36454707963427
1.64845862628448,-1.25639844199722,-0.877627416394204,0.378771025603013,1.06701292919571,-0.817584733800115,-0.249428195395595
1.65062195781504,-1.09847957880064,-0.910970311563979,0.187509267236663,1.00472494518231,-0.642994423018653,-0.361730522163658
1.65278528934559,6.00721789062288,2.70840205759128,-3.2988158330316,-4.35780997410708,4.65301686182724,-0.295206887720161
1.65494862087615,14.8749658040328,8.93740937554112,-5.93755642849167,-11.906187589787,10.4062611162622,1.49992647352472
1.65711195240671,17.0598191703084,12.6593955950943,-4.40042357521405,-14.8596073827014,10.7301213727612,4.12948600994014
1.65927528393726,17.8118702734233,15.191399546758,-2.62047072666537,-16.5016349100907,10.2161705000444,6.2854644100463
1.66143861546782,17.9577367787878,16.4670434992011,-1.49069327958663,-17.2123901389945,9.7242150291872,7.48817510980726
1.66360194699838,7.52382375314201,10.2974735616529,2.7736498085109,-8.91064865739747,2.37508697231556,6.53556168508191
1.66576527852893,-1.08346720213513,0.179254930391232,1.26272213252636,0.452106135871948,-1.17309466733074,0.720988531458796
1.66792861005949,-1.1515633727096,-0.873035784777147,0.278527587932458,1.01229957874338,-0.715045480321032,-0.297254098422344
1.67009194159005,2.57927898612691,0.912750052577941,-1.66652893354897,-1.74601451935242,2.12290395983794,-0.376889440485513
1.67225527312061,12.1808099243103,6.22186645865418,-5.9589434656561,-9.20133819148223,9.06987669498318,0.13146149649904
1.67441860465116,15.2690423709224,12.3898001111681,-2.87924225975425,-13.8294212410453,9.07414231533832,4.75527892570694
1.67658193618172,20.209556103775,15.1341684652702,-5.07538763850488,-17.6718622845226,12.64247187114,5.02939041338264
1.67874526771228,18.1796857514876,16.6522751137181,-1.52741063776946,-17.4159804326029,9.85354819462853,7.56243223797434
1.68090859924283,9.42434665785399,13.0037271394168,3.57938048156281,-11.2140368986354,2.92248308814559,8.29155381048981
1.68307193077339,-0.846132283905154,3.63494171961342,4.48107400351857,-1.39440471785413,-2.66360314371186,4.058007861566
1.68523526230395,-1.11651634470791,-0.796061395975065,0.320454948732848,0.956288870341488,-0.71848564672038,-0.237803223621109
1.68739859383451,0.00612225001468802,-0.838980976498847,-0.845103226513535,0.41642936324208,0.425612738264112,-0.842042101506191
1.68956192536506,9.47974981121718,5.1207948508014,-4.35895496041578,-7.30027233100929,6.91935238581648,0.380919945192808
1.69172525689562,14.196777050096,10.5226203123686,-3.6741567377273,-12.3596986812323,8.93546689391163,3.42423178732067
1.69388858842618,16.9468635215546,16.6232840591916,-0.32357946236306,-16.7850737903731,8.63522149195885,8.14985229841426
1.69605191995673,18.3425493925021,18.3687630456862,0.0262136531840653,-18.3556562190941,9.15816786965901,9.19748834943511
1.69821525148729,14.5188944213947,14.8736162296497,0.354721808255057,-14.6962553255222,7.08208630656981,7.6141690189524
1.70037858301785,2.6426200394307,6.30009629560662,3.65747625617592,-4.47135816751866,-0.50742810837261,4.97878627589127
1.7025419145484,-0.997825665307602,-0.662554558328647,0.335271106978956,0.830190111818124,-0.666548386143279,-0.163641725674845
1.70470524607896,-0.928817524430963,-0.922536980697245,0.00628054373371811,0.925677252564104,-0.467549034082341,-0.458128218481764
1.70686857760952,5.18683389026487,3.27745214864632,-1.90938174161856,-4.23214301945559,3.54810781594171,0.68403520351388
1.70903190914008,14.6663491565242,9.43705981719737,-5.2292893393268,-12.0517044868608,9.94781924792549,2.10388523893528
1.71119524067063,16.000083030876,14.0668438107825,-1.93323922009344,-15.0334634208292,8.96666112548469,6.06680229534454
1.71335857220119,17.6520021569622,16.0258957872947,-1.62610636966753,-16.8389489721284,9.63905426331486,7.19989470881357
1.71552190373175,15.6211985929801,15.9047462915823,0.283547698602224,-15.7629724422812,7.66882544718892,8.09414699509225
1.7176852352623,6.95897475840241,9.78238889061191,2.8234141322095,-8.37068182450716,2.06778031309645,6.30290151141071
1.71984856679286,-0.809180562884682,0.334616401764929,1.14379696464961,0.237282080559877,-0.976488763767147,0.739206683207271
1.72201189832342,-1.00321163593768,-0.935235745152921,0.0679758907847592,0.969223690545301,-0.53559376336122,-0.433629927184081
1.72417522985398,1.71210152461665,-0.119951296499974,-1.83205282111662,-0.796075114058336,1.77207717286663,-0.976002058808296
1.72633856138453,10.3403268821852,5.9566679997835,-4.3836588824017,-8.14849744098435,7.36199288229345,0.786504558690896
1.72850189291509,14.9921058397428,10.6723635799336,-4.31974225980916,-12.8322347098382,9.65592404977596,3.17631066006222
1.73066522444565,18.4892533760461,16.0118014313281,-2.47745194471805,-17.2505274036871,10.4833526603821,6.767174743305
1.7328285559762,17.4823976929935,16.8897970043519,-0.592600688641539,-17.1860973486727,9.0374991908175,8.14859815785519
1.73499188750676,10.487129339181,11.6573633192978,1.17023398011682,-11.0722463292394,4.65844767953208,6.41379864970731
1.73715521903732,-0.570972375936309,2.14881872885218,2.71979110478848,-0.788923176457933,-1.6453817403624,2.43430491682033
1.73931855056787,-1.00374332178844,-0.888802071049336,0.114941250739105,0.946272696418889,-0.559342286263773,-0.386930410155116
1.74148188209843,-0.906838886077642,-1.06592736271989,-0.159088476642244,0.986383124398764,-0.373875204717699,-0.612507919681065
1.74364521362899,6.82033271752183,4.10403541571919,-2.71629730180264,-5.46218406662051,4.76831500966223,0.693869056958276
1.74580854515955,11.5501266149671,10.4367468545845,-1.11337976038266,-10.9934367347758,6.3317531876749,4.66168354710091
1.7479718766901,15.2676489625912,12.7504894475828,-2.51715951500837,-14.009069205087,8.89240423879978,5.11666496628722
1.75013520822066,15.3004428890154,14.6206023947916,-0.67984049422374,-14.9605226419035,7.99014169161955,6.97038095028394
1.75229853975122,11.6191764569091,13.4981541069285,1.87897765001941,-12.5586652819188,4.87009940344482,7.68856587847394
1.75446187128177,0.511067814556538,3.98879837531724,3.47773056076071,-2.24993309493689,-1.48333137310208,3.73326446803897
1.75662520281233,-0.926994698591559,-0.77817525210382,0.148819446487739,0.852584975347689,-0.537907072539649,-0.31467790280804
1.75878853434289,-1.08553500529158,-1.1569706358505,-0.0714356305589157,1.12125282057104,-0.507049687366332,-0.614203133204706
1.76095186587345,3.30778582381726,0.685633480001727,-2.62215234381553,-1.99670965190949,2.9649690838164,-0.968259431906903
1.763115197404,8.8650588350941,6.21069763940051,-2.65436119569359,-7.5378782372473,5.75971001539385,1.77816822185346
1.76527852893456,14.3758306206959,11.8304560071997,-2.5453746134962,-13.1031433139478,8.46060261709606,4.64254069685176
1.76744186046512,16.2558728343535,14.6883751984729,-1.56749763588062,-15.4721240164132,8.91168523511706,6.56043878129612
1.76960519199567,15.1225489037826,13.7163786643176,-1.40617023946498,-14.4194637840501,8.2643595716238,6.15510421242632
1.77176852352623,5.58020919301929,7.41179054879,1.83158135577071,-6.49599987090464,1.87431391862429,4.62168595228036
1.77393185505679,-0.817457129280726,-0.63931940826504,0.178137721015686,0.728388268772883,-0.497797425148206,-0.230590843624677
1.77609518658734,-1.22345069709076,-1.19521322542415,0.0282374716666181,1.20933196125745,-0.625844084378691,-0.583487876878764
1.7782585181179,-0.167552920847345,-1.09044722164237,-0.922894300795022,0.629000071244856,0.377670689973838,-1.00667076121869
1.78042184964846,8.57735636771125,5.18438232963638,-3.39297403807488,-6.88086934867381,5.98516520289307,0.89570414578075
1.78258518117902,14.2519358528719,9.29447288368025,-4.95746296919168,-11.7732043682761,9.6046994110318,2.16850495724429
1.78474851270957,15.5595305954467,13.1048486331777,-2.45468196226905,-14.3321896143122,9.00710627885788,5.3250833354543
1.78691184424013,16.1769507020439,15.4613584470753,-0.715592254968579,-15.8191545745596,8.44627147850624,7.37288309605337
1.78907517577069,8.24162654838588,9.21930636494306,0.977679816557185,-8.73046645666447,3.63197336591435,5.09849309075012
1.79123850730124,-0.669728156248774,0.318447151429588,0.988175307678362,0.175640502409593,-0.828951731963568,0.653311229553975
1.7934018388318,-1.28037368753225,-1.17005270184252,0.110320985689724,1.22521319468738,-0.695347336610985,-0.529865858076398
1.79556517036236,-1.18785822809761,-1.21201861769734,-0.0241603895997293,1.19993842289748,-0.581848919248943,-0.618089503648537
1.79772850189291,7.50998485850028,1.80627284550763,-5.70371201299265,-4.65812885200395,6.60684843574646,-1.94871958374251
1.79989183342347,11.6938890249171,9.91459620098351,-1.77929282393356,-10.8042426129503,6.73659092442532,4.06765168852497
1.80205516495403,16.3692706360714,13.8379571428454,-2.53131349322599,-15.1036138894584,9.45029206464869,5.65332182480971
1.80421849648459,17.1672756444905,14.7477278970658,-2.41954774742474,-15.9575017707781,9.79341169595763,6.16409007482052
1.80638182801514,13.2767682835998,11.7857595547637,-1.4910087288361,-12.5312639191818,7.38388850621796,5.14737541296382
1.8085451595457,0.321320893662321,3.68859824092391,3.36727734726159,-2.00495956729311,-1.52297822679963,3.52793779409275
1.81070849107626,-1.25819582508277,-1.06845041186434,0.189745413218437,1.16332311847356,-0.723970619150605,-0.43935249932295
1.81287182260681,-1.34787245700725,-1.25513222437848,0.0927402326287667,1.30150234069286,-0.720306344818007,-0.581195995874857
1.81503515413737,4.87098334964666,0.843742103130514,-4.02724124651615,-2.85736272638859,4.44911229808141,-1.59174957169282
1.81719848566793,9.88876947130324,8.91072053435973,-0.978048936943514,-9.39974500283149,5.43340920412338,3.96633579870811
1.81936181719849,17.0992314361704,12.9015763717292,-4.19765506444119,-15.0004039039498,10.6484432503058,4.35196065364401
1.82152514872904,17.2868528501272,17.1339498618482,-0.152902988278964,-17.2104013559877,8.71987791920307,8.49052343678462
1.8236884802596,15.1069981971939,15.1144236046009,0.00742540740704101,-15.1107109008974,7.54978639489343,7.56092450600399
1.82585181179016,4.52984300002449,7.88362190330223,3.35377890327773,-6.20673245166336,0.58803204837338,5.61870040328998
1.82801514332071,-1.15240602396071,-0.888096943705214,0.264309080255492,1.02025148383296,-0.708357552108099,-0.311893931724861
1.83017847485127,-1.4293697591973,-1.21238690955743,0.216982849639875,1.32087833437736,-0.823176304418588,-0.497702029958775
1.83234180638183,0.674762656338285,-0.0735386498006705,-0.748301306138955,-0.300612003268807,0.71153198123862,-0.410919977969813
1.83450513791239,9.64000415608686,6.29498412954154,-3.34502002654532,-7.9674941428142,6.49251209131609,1.47498205149811
1.83666846944294,16.9545138465154,11.8826478277812,-5.07186601873426,-14.4185808371483,11.0131899326248,3.40539090452345
1.8388318009735,16.5272293279858,14.6570568606037,-1.8701724673821,-15.5921430942948,9.19870089768397,6.39344219661082
1.84099513250406,17.690159147168,15.2127513162402,-2.47740783092777,-16.4514552317041,10.0837834890479,6.36767174265624
1.84315846403461,10.3519655687391,12.1022379800963,1.75027241135723,-11.2271017744177,4.30084657869094,6.92625519572678
1.84532179556517,-0.968485974804286,4.13809038184556,5.10657635664985,-1.58480220352064,-3.03753116572707,4.62233336924771
1.84748512709573,-1.41965738462882,-1.08752834312183,0.332129041506994,1.25359286387532,-0.875893213067907,-0.377699650807416
1.84964845862628,-0.289872237620989,-0.950110021178648,-0.660237783557659,0.619991129399819,0.185182772968335,-0.805173902368154
1.85181179015684,9.37441893129532,3.66764653572143,-5.70677239557389,-6.52103273350838,7.5405956634346,-1.01956292992623
1.8539751216874,15.1412018542812,10.022482065258,-5.11871978902316,-12.5818419597696,10.1299608216522,2.45188113811743
1.85613845321796,16.4651467564825,13.713740057912,-2.75140669857047,-15.0894434071972,9.60827672752647,5.48116667967077
1.85830178474851,17.8323567961956,15.2685663412516,-2.56379045494396,-16.5504615687236,10.1980736255698,6.35238794315383
1.86046511627907,13.8077727662728,12.3336902812317,-1.47408248504109,-13.0707315237522,7.64092762565692,5.42980389809529
1.86262844780963,2.47412712672902,4.41998411482277,1.94585698809374,-3.4470556207759,0.264135069317641,3.18292055145825
1.86479177934018,-1.31707155227732,-0.910256727338289,0.406814824939036,1.11366413980781,-0.86194318860818,-0.251720951199627
1.86695511087074,-1.20666833367837,-0.979052282735389,0.227616050942983,1.09286030820688,-0.717142192310677,-0.375718115896203
1.8691184424013,4.32444939410854,2.64813812028077,-1.67631127382776,-3.48629375719465,3.00038033396815,0.485913423226504
1.87128177393186,13.2631094555271,8.13393568673213,-5.12917376879497,-10.6985225711296,9.19614161216103,1.50238095896858
1.87344510546241,18.7109551709161,13.5076846983673,-5.20327047254886,-16.1093199346417,11.9571128217325,4.15220711290921
1.87560843699297,18.7155581879703,16.8644898870513,-1.85106830091902,-17.7900240375108,10.2833132444447,7.50671079306614
1.87777176852353,16.4615063494763,17.3195530020331,0.858046652556851,-16.8905296757547,7.8017298484597,9.08879982729498
1.87993510005408,7.54994680822067,8.70166153305788,1.15171472483721,-8.12580417063928,3.19911604169173,4.92668812894754
1.88209843158464,-1.13582696086629,2.49371401519429,3.62954097606058,-0.678943527164003,-2.38268396846343,3.06162749562744
1.8842617631152,-1.2532883092023,-0.961042596730348,0.29224571247195,1.10716545296632,-0.772767010837124,-0.334398442129199
1.88642509464575,3.27683347406589,0.0677315619318599,-3.20910191213403,-1.67228251799888,3.24296769309996,-1.57068517510109
1.88858842617631,11.346049392742,7.83183336096308,-3.51421603177896,-9.58894137685256,7.4301327122605,2.15880866459206
1.89075175770687,16.1018261715159,12.4694601416875,-3.63236602982834,-14.2856431566017,9.86709610067211,4.4185470559296
1.89291508923743,17.9262254865461,16.0147716145544,-1.91145387199165,-16.9704985505502,9.91883967926886,7.05165887128138
1.89507842076798,19.0847110775879,17.4835558188927,-1.60115525869517,-18.2841334482403,10.3429331681415,7.94120028009877
1.89724175229854,11.0729203374561,12.1739972311352,1.10107689367915,-11.6234587842957,4.98592172188847,6.6375370624072
1.8994050838291,0.711619456643431,3.5526204868644,2.84100103022097,-2.13211997175392,-1.06469078678877,3.19681075854269
1.90156841535965,-1.22704904593751,-0.870889657392735,0.356159388544774,1.04896935166512,-0.791604217241142,-0.25736513442398
1.90373174689021,-0.122790983232854,-0.0657602048029859,0.0570307784298681,0.0942755940179199,-0.089910880831361,-0.0043647131865589
1.90589507842077,9.40900314815166,5.95682671796911,-3.45217643018255,-7.68291493306038,6.4305897891671,1.25232514389328
1.90805840995133,13.4360830178087,11.3905579929589,-2.04552502484973,-12.4133205053838,7.74080402132921,4.67251648405461
1.91022174148188,18.6589838906697,15.0935993076172,-3.5653845830525,-16.8762915991434,11.1121842368611,5.76410736228233
1.91238507301244,18.4853575887739,17.5873122832935,-0.898045305480345,-18.0363349360337,9.6917014471271,8.34463348890658
1.914548404543,16.1844869359118,14.8382806384677,-1.34620629744407,-15.5113837871898,8.76534661667794,6.74603717051184
1.91671173607355,3.39852528048527,6.24015346164699,2.84162818116172,-4.81933937106613,0.278448549661777,4.54089082140436
1.91887506760411,-1.13334072913401,0.875107320161604,2.00844804929561,0.129116704486201,-1.57089438921481,1.44177768472861
1.92103839913467,-1.08302143222781,-0.9394469806526,0.143574451575205,1.0112342064402,-0.613297941901505,-0.397936264538698
1.92320173066522,5.89999725561236,4.09523358005604,-1.80476367555632,-4.9976154178342,3.85238046558434,1.14523495224986
1.92536506219578,13.9149015636979,11.0745167284614,-2.8403848352365,-12.4947091460796,8.37764319946718,4.11706594661244
1.92752839372634,16.9408739340736,14.9082152427492,-2.03265869132439,-15.9245445884114,9.48676631269898,6.43777827571239
1.9296917252569,17.8187231594982,16.8429338226566,-0.975789336841636,-17.3308284910774,9.39725624816993,7.93357224290748
1.93185505678745,17.2973127799274,16.689647564574,-0.607665215353396,-16.9934801722507,8.9524889976404,8.0409911746103
1.93401838831801,9.29226863810899,10.5427304507605,1.25046181265152,-9.91749954443475,4.02090341272874,5.89659613170602
1.93618171984857,-0.973481863428455,1.88129811963404,2.8547799830625,-0.453908128102793,-1.91413092324547,2.36803905134827
1.93834505137912,-1.18573179332483,-0.966957093962883,0.218774699361951,1.07634444364386,-0.702253246343392,-0.374091197300466
1.94050838290968,3.21189633024176,-0.126870921623881,-3.33876725186564,-1.54251270430894,3.2753317910537,-1.73281908674476
1.94267171444024,11.9907323302143,7.56661311739485,-4.42411921281948,-9.77867272380459,8.2074257715169,1.57124695228769
1.9448350459708,17.5543883079476,13.0932768411283,-4.46111146681926,-15.323832574538,11.0077498873834,4.31608268715454
1.94699837750135,17.8890028030431,16.8421688086062,-1.04683399443685,-17.3655858058246,9.46791839873995,7.89766740708468
1.94916170903191,19.9606810032188,17.7039862417515,-2.25669476146727,-18.8323336224851,11.108687882343,7.72364574014212
1.95132504056247,12.0105149939621,13.2426445200387,1.23212952607656,-12.6265797570004,5.38919273394277,7.23738702305762
1.95348837209302,-0.766300243443995,6.09198630273031,6.8582865461743,-2.66284302964316,-3.81229339480915,6.4751364244523
1.95565170362358,-1.21714233631676,-0.140538475475377,1.07660386084139,0.67884040589607,-1.14687309857908,0.468032692683005
1.95781503515414,0.577800331656982,-0.31319339084743,-0.890993722504412,-0.132303470404776,0.734397027080697,-0.602093556675921
1.95997836668469,9.27397694504334,5.68146945207913,-3.59250749296421,-7.47772319856124,6.43324221900377,1.04448097955746
1.96214169821525,15.7297242397586,12.8497977140105,-2.87992652574807,-14.2897609768845,9.30482538275331,4.98493559413121
1.96430502974581,18.6708133169938,15.9858162378458,-2.68499707914801,-17.3283147774198,10.6779051980709,6.65040957934887
1.96646836127637,20.9713766661896,18.6459953617213,-2.32538130446828,-19.8086860139554,11.6483789853289,8.16030702862651
1.96863169280692,16.3106023187283,15.8987596526406,-0.411842666087747,-16.1046809856844,8.36122249240803,7.74345849327641
1.97079502433748,2.67370325717227,7.92995634075768,5.25625308358541,-5.30182979896497,-1.29127491320657,6.59310471217154
1.97295835586804,-1.16116076699043,-0.046464491016474,1.11469627597395,0.603812629003451,-1.13792852148219,0.53411589247874
1.97512168739859,-1.18806521221304,0.37376595087309,1.56183116308613,0.407149630669974,-1.37494818764958,0.967798556979608
1.97728501892915,7.37261394937758,3.04942808649222,-4.32318586288536,-5.2110210179349,5.84789990613147,-0.636878888196569
1.97944835045971,14.6530088369744,8.62289227743299,-6.03011655954136,-11.6379505572037,10.3415626982579,1.29638785894581
1.98161168199026,17.7722148437719,14.2732970728416,-3.49891777093029,-16.0227559583067,10.6355663073511,5.38718965095565
1.98377501352082,21.8948059372395,17.9222880322801,-3.97251790495944,-19.9085469847598,12.9336619210995,6.97488506366033
1.98593834505138,18.1952896950802,18.5033068745691,0.308017179488903,-18.3492982848246,8.94363625779565,9.405662027029
1.98810167658194,6.95164894854934,10.5620894364328,3.61044048788347,-8.75686919249108,1.67060423033294,7.08626496215814
1.99026500811249,-1.00925142418617,0.892109929197499,1.90136135338366,0.0585707474943331,-1.45530638878491,1.39673564129058
1.99242833964305,-1.27311222391134,-1.24501481582278,0.0280974080885634,1.25906351986706,-0.650604815999951,-0.608458703867106
1.99459167117361,3.91744414480105,0.486590317513983,-3.43085382728707,-2.20201723115752,3.67414898604406,-1.47213175488654
1.99675500270416,12.7412112548111,6.80191262595099,-5.93929862886009,-9.77156194038104,9.34025494183559,0.431306998545451
1.99891833423472,16.7814754632359,14.1039986220242,-2.67747684121164,-15.4427370426301,9.72947615222376,5.71326089040629
2.00108166576528,19.5498305388103,16.3079889686709,-3.24184157013941,-17.9289097537406,11.3958360544748,6.53307369926572
2.00324499729584,19.2483114858655,17.8404498950155,-1.40786159085003,-18.5443806904405,10.3280865383578,8.21629415208273
2.00540832882639,12.8531351736199,12.3769361770003,-0.476198996619638,-12.6150356753101,6.66466708511977,5.95036859019031
2.00757166035695,0.81229079118217,4.27550583485724,3.46321504367507,-2.5438983130197,-1.32546212624645,3.86936043926615
2.00973499188751,-1.27893672492308,-1.16870971901591,0.110227005907172,1.22382322196949,-0.694581865415125,-0.529241356554367
2.01189832341806,-1.08704446458165,-1.19854826302255,-0.111503798440898,1.1427963638021,-0.487770333070376,-0.655026030731723
2.01406165494862,9.2283339900463,4.197639221799,-5.0306947682473,-6.71298660592265,7.1295143791468,-0.416527773224153
2.01622498647918,15.7373840298292,10.6955784607502,-5.04180556907894,-13.2164812452897,10.3895947994541,2.82688644583564
2.01838831800973,17.9273538643733,14.601634145137,-3.32571971923631,-16.2644940047551,10.6265367918048,5.63795721295033
2.02055164954029,17.8574648564056,17.1075503801928,-0.749914476212833,-17.4825076182992,9.30368966630921,8.17881795198996
2.02271498107085,13.9714164516873,15.7645871457106,1.79317069402327,-14.8680017986989,6.08912287883201,8.77887891986692
2.02487831260141,2.67631987220944,7.69854319406055,5.02222332185111,-5.18743153313499,-1.17295172482084,6.36038325795583
2.02704164413196,-1.20279835854569,-1.02026155966207,0.182536798883618,1.11152995910388,-0.692667578714654,-0.418862380389226
2.02920497566252,-1.2535453590002,-1.22541645825459,0.0281289007456105,1.23948090862739,-0.640837129872903,-0.598643778754487
2.03136830719308,4.93764672332177,1.62790077169749,-3.30974595162427,-3.28277374750963,4.12369633747302,-0.84092258996339
2.03353163872363,13.8533345198343,9.65337128159976,-4.19996323823451,-11.753352900717,9.02664887903439,2.72670402168263
2.03569497025419,17.0240813312106,15.2155473946228,-1.80853393658778,-16.1198143629167,9.41630763389918,6.70350672901752
2.03785830178475,19.5825159237803,17.0886036030996,-2.49391232068078,-18.3355597634399,11.0382141222306,7.29734564120939
2.04002163331531,18.2480199999542,16.7160399593814,-1.53198004057285,-17.4820299796678,9.89000002026354,7.59202995940426
2.04218496484586,6.95210393327462,8.75034522528565,1.79824129201103,-7.85122457928014,2.5769313206318,5.27429325864834
2.04434829637642,-1.06400293459776,0.792582197670304,1.85658513226807,0.135710368463731,-1.46029403343292,1.32458366496919
2.04651162790698,-1.34959452167038,-1.15909635276564,0.190498168904745,1.25434543721801,-0.770046345287564,-0.484299091930447
2.04867495943753,2.28063704377383,-0.0975499302131793,-2.37818697398701,-1.09154355678032,2.32941200888042,-1.23786845210009
2.05083829096809,11.9609526350804,5.40852974096899,-6.55242289411145,-8.68474118802471,9.25668776459594,-0.571946576571229
2.05300162249865,16.8495806860495,10.9828580405446,-5.8667226455049,-13.916219363297,11.3581516657772,2.55806769751983
2.0551649540292,17.2439279126482,15.3990477249731,-1.84488018767516,-16.3214878188107,9.5444040501617,6.77708376864896
2.05732828555976,18.4896561304701,17.6299932935845,-0.859662836885605,-18.0598247120273,9.67465948367786,8.38516522834945
2.05949161709032,11.2349723499053,11.4092553630584,0.174283013153083,-11.3221138564819,5.53034466837611,5.79176918810574
2.06165494862088,-0.852082248094057,4.24805444944196,5.10013669753601,-1.69798610067395,-2.97610947281504,4.67409557348899
2.06381828015143,-1.351865696127,-1.03434389219317,0.317521803933833,1.19310479416008,-0.834693750030416,-0.358411044129667
2.06598161168199,-0.317824848665965,-0.988333596892692,-0.670508748226727,0.653079222779328,0.176341949780381,-0.829421172559709
2.06814494321255,10.0586476815338,5.93919738598133,-4.11945029555247,-7.99892253375756,7.08904898854313,0.909873545214428
2.0703082747431,14.2231756836605,10.6952557636953,-3.5279199199652,-12.4592157236779,8.87554780181286,3.58366792186507
2.07247160627366,17.9970184772164,15.24530597601,-2.75171250120635,-16.6211622266132,10.3743654892113,6.24679673740183
2.07463493780422,18.6752610243014,18.4922517363575,-0.183009287943829,-18.5837563803295,9.4291351561226,9.15462122420686
2.07679826933478,13.9336053132718,14.8420080563488,0.908402743077001,-14.3878066848103,6.5126012850974,7.8752053997129
2.07896160086533,3.39415901642627,5.34568831709156,1.95152930066528,-4.36992366675891,0.721314857880496,3.64860880887842
2.08112493239589,-1.2712938340839,-0.850027811731008,0.421266022352895,1.06066082290746,-0.846279928218399,-0.214380894689056
2.08328826392645,-1.27167001460778,-1.02689471802394,0.244775296583838,1.14928236631586,-0.758222655595809,-0.391059710720051
2.085451595457,6.56905518822882,3.31103586789649,-3.25801932033234,-4.94004552806265,4.91353725428058,0.0265082737820741
2.08761492698756,14.7227579439851,9.58039811081773,-5.14235983316738,-12.1515780274014,9.93255888857625,2.21901913882518
2.08977825851812,16.2911906101592,13.4371550560831,-2.85403555407607,-14.8641728331211,9.57261308211763,5.29155975100352
2.09194159004868,19.5963433183375,17.7056291536436,-1.89071416469397,-18.6509862359905,10.7435287415157,7.90745749447479
2.09410492157923,17.4153192564174,16.6683286911739,-0.746990565243475,-17.0418239737957,9.08115491083044,7.96066906296523
2.09626825310979,6.88622662291711,9.6548726927469,2.76864606982979,-8.270549657832,2.05879027654366,6.21175938128834
2.09843158464035,-1.11998422179732,0.984509829154601,2.10449405095192,0.0677371963213604,-1.61223913637462,1.54450194005326
2.1005949161709,-1.36694365937278,-1.01318274672561,0.353760912647171,1.19006320304919,-0.860352286009974,-0.329710917039217
2.10275824770146,3.89585212218375,2.28953555898079,-1.60631656320296,-3.09269384058227,2.75108434269336,0.341609497888916
2.10492157923202,12.0134155417976,6.06314856450198,-5.95026697729561,-9.03828205314979,8.9818412595466,0.0564407936031861
2.10708491076257,16.1071344485716,13.1763287315877,-2.93080571698394,-14.6417315900796,9.51897008277777,5.12276150730186
2.10924824229313,18.8608849834382,16.8751781317167,-1.98570685172149,-17.8680315575774,10.4232959175798,7.44473563999759
2.11141157382369,17.6877520131224,17.6707734872622,-0.0169785258602104,-17.6792627501923,8.85236526949129,8.82689748070097
2.11357490535425,11.1961222786728,12.3729686321253,1.17684635345246,-11.7845454553991,5.00963796261019,6.77490749278887
2.1157382368848,0.683440410852974,3.64012416083004,2.95668374997707,-2.16178228584151,-1.13662166956205,3.29840395540356
2.11790156841536,-1.39722337135508,-0.955809178020293,0.441414193334786,1.17651627468769,-0.919318782344932,-0.257197492342754
2.12006489994592,0.461046082092365,-1.07326403370421,-1.53431011579658,0.306108975805922,0.99767809894447,-1.30378707475039
