t,leadI,leadII,leadIII,aVR,aVL,aVF
0,524,466,-258.20941125331,52.6116296186387,167.351243630663,-219.962873249302
0.00214822771213749,525,472,-233.771483589575,35.5050802540249,157.576072565169,-193.081152819194
0.00429645542427497,528,481,-204.445970393094,6.17956705754374,150.244694266049,-156.424261323592
0.00644468313641246,533,488,-194.6707993276,-23.1459461389372,157.576072565169,-134.430126426232
0.00859291084854995,536,493,-184.895628262107,-42.6962882699244,160.019865331542,-117.323577061618
0.0107411385606874,535,499,-150.682529532879,-54.9152521017915,140.469523200555,-85.5542710987636
0.0128893662728249,538,500,-160.457700598373,-64.6904231672851,152.688487032422,-87.998063865137
0.0150375939849624,536,502,-140.907358467385,-64.6904231672851,138.025730434182,-73.3353072668965
0.0171858216970999,535,503,-131.132187401892,-64.6904231672851,130.694352135061,-66.0039289677763
0.0193340494092374,534,503,-126.244601869145,-62.2466304009117,125.806766602315,-63.5601362014029
0.0214822771213749,536,509,-106.694259738158,-81.796972531899,120.919181069568,-39.1222085376688
0.0236305048335124,533,511,-82.2563320744236,-79.3531797655256,101.368838938581,-22.0156591730549
0.0257787325456498,535,515,-72.48116100893,-94.015936363766,101.36883893858,-7.35290257481446
0.0279269602577873,535,516,-67.5935754761831,-96.4597291301394,98.9250461722071,-2.46531704206764
0.0300751879699248,534,517,-57.8184044106895,-96.4597291301394,91.5936678730869,4.86606125705258
0.0322234156820623,533,515,-62.7059899434364,-89.1283508310192,91.5936678730869,-2.46531704206765
0.0343716433941998,534,516,-62.7059899434363,-94.015936363766,94.0374606394603,-0.0215242756942331
0.0365198711063373,534,516,-62.7059899434363,-94.015936363766,94.0374606394603,-0.0215242756942331
0.0386680988184748,535,519,-52.9308188779427,-103.79110742926,91.5936678730869,12.1974395561728
0.0408163265306122,535,520,-48.0432333451959,-106.234900195633,89.1498751067134,17.0850250889196
0.0429645542427497,534,522,-33.3804767469554,-108.678692962006,79.3747040412198,29.3039889207867
0.0451127819548872,530,521,-18.717720148715,-96.4597291301394,62.268154676606,34.1915744535335
0.0472610096670247,531,522,-18.717720148715,-101.347314662886,64.7119474429794,36.6353672199069
0.0494092373791622,528,519,-18.717720148715,-86.6845580646458,57.3805691438591,29.3039889207867
0.0515574650912997,529,516,-38.2680622797022,-81.796972531899,69.5995329757262,12.1974395561728
0.0537056928034372,522,514,-13.8301346159681,-59.8028376345383,40.2740197792453,19.528817855293
0.0558539205155747,524,514,-23.6053056814618,-64.6904231672851,50.0491908447389,14.6412323225462
0.0580021482277121,520,515,0.832621982272293,-57.3590448681649,28.0550559473782,29.3039889207867
0.0601503759398496,517,516,20.3829641132596,-52.4714593354181,10.9485065827644,41.5229527526537
0.0622986036519871,520,517,10.6077930477659,-62.2466304009117,23.1674704146314,39.0791599862803
0.0644468313641246,521,517,5.72020751501911,-64.6904231672851,28.0550559473782,36.6353672199069
0.0665950590762621,522,517,0.8326219822723,-67.1342159336585,32.942641480125,34.1915744535335
0.0687432867883996,523,516,-8.94254908322134,-67.1342159336585,40.2740197792453,26.8601961544133
0.0708915145005371,522,513,-18.717720148715,-57.3590448681649,42.7178125456187,14.6412323225462
0.0730397422126745,523,514,-18.717720148715,-62.2466304009117,45.1616053119921,17.0850250889196
0.075187969924812,523,516,-8.94254908322134,-67.1342159336585,40.2740197792453,26.8601961544133
0.0773361976369495,517,515,15.4953785805127,-50.0276665690447,13.3922993491378,36.6353672199069
0.079484425349087,514,515,30.1581351787532,-42.6962882699244,-1.27045724910268,43.9667455190271
0.0816326530612245,508,511,39.9333062442468,-18.2583606061903,-20.82079938009,39.0791599862803
0.083780880773362,507,510,39.9333062442469,-13.3707750734435,-23.2645921464634,36.6353672199069
0.0859291084854995,508,507,20.3829641132596,-8.48318954069671,-11.0456283145963,19.528817855293
0.088077336197637,507,504,10.6077930477659,1.29198152479693,-8.60183554822291,7.30985402342599
0.0902255639097744,503,501,15.4953785805128,18.3985308894108,-20.82079938009,2.42226849067917
0.0923737916219119,501,502,30.1581351787532,20.8423236557842,-33.039763211957,12.1974395561728
0.0945220193340494,501,503,35.0457207115,18.3985308894108,-35.4835559783304,17.0850250889196
0.0966702470461869,501,502,30.1581351787532,20.8423236557842,-33.039763211957,12.1974395561728
0.0988184747583244,498,503,49.7084773097405,25.729909188531,-50.1463125765709,24.4164033880399
0.100966702470462,495,501,54.5960628424873,37.9488730203981,-59.9214836420645,21.9726106216664
0.103114930182599,498,498,25.2705496460064,37.9488730203981,-37.9273487447038,-0.0215242756942402
0.105263157894737,500,497,10.6077930477659,35.5050802540247,-25.7083849128368,-9.79669534118788
0.107411385606874,500,496,5.72020751501912,37.9488730203981,-23.2645921464634,-14.6842808739347
0.109559613319012,502,496,-4.05496355047452,33.0612874876512,-13.4894210809697,-19.5718664066815
0.111707841031149,498,496,15.4953785805128,42.8364585531449,-33.039763211957,-9.79669534118787
0.113856068743287,496,497,30.1581351787532,45.2802513195183,-45.2587270438241,-0.0215242756942402
0.116004296455424,494,496,35.0457207115,52.6116296186385,-52.5901053429443,-0.0215242756942331
0.118152524167562,489,494,49.7084773097405,69.7181789832524,-72.1404474739316,2.42226849067917
0.120300751879699,487,492,49.7084773097405,79.493350048746,-77.0280330066784,-2.46531704206765
0.122448979591837,485,487,35.0457207115,96.5998994133599,-74.584240240305,-22.0156591730549
0.124597207303974,482,485,39.9333062442469,108.818863245227,-84.3594113057986,-24.4594519394283
0.126745435016112,487,485,15.4953785805127,96.5998994133599,-59.9214836420645,-36.6784157712954
0.128893662728249,494,489,0.8326219822723,69.7181789832524,-35.4835559783304,-34.234623004922
0.131041890440387,501,497,5.72020751501912,33.0612874876512,-20.82079938009,-12.2404881075613
0.133190118152524,503,496,-8.94254908322134,30.6174947212778,-8.60183554822292,-22.0156591730549
0.135338345864662,507,496,-28.4928912142086,20.8423236557842,10.9485065827644,-31.7908302385486
0.137486573576799,506,498,-13.8301346159682,18.3985308894108,1.17333551727072,-19.5718664066815
0.139634801288937,506,495,-28.4928912142086,25.729909188531,8.50471381639095,-34.234623004922
0.141783029001074,503,493,-23.6053056814618,37.9488730203981,-1.27045724910268,-36.6784157712954
0.143931256713212,505,493,-33.3804767469554,33.0612874876512,8.50471381639095,-41.5660013040422
0.146079484425349,505,496,-18.717720148715,25.729909188531,1.17333551727072,-26.9032447058017
0.148227712137487,504,497,-8.94254908322134,25.729909188531,-6.1580427818495,-19.5718664066815
0.150375939849624,503,495,-13.8301346159682,33.0612874876512,-6.1580427818495,-26.9032447058017
0.152524167561762,500,496,5.72020751501912,37.9488730203981,-23.2645921464634,-14.6842808739347
0.154672395273899,500,497,10.6077930477659,35.5050802540247,-25.7083849128368,-9.79669534118788
0.156820622986037,502,495,-8.94254908322134,35.5050802540247,-11.0456283145963,-24.4594519394283
0.158968850698174,500,493,-8.94254908322134,45.2802513195183,-15.9332138473431,-29.3470374721752
0.161117078410312,503,493,-23.6053056814618,37.9488730203981,-1.27045724910268,-36.6784157712954
0.163265306122449,502,495,-8.94254908322134,35.5050802540247,-11.0456283145963,-24.4594519394283
0.165413533834586,503,498,0.832621982272297,25.729909188531,-13.4894210809697,-12.2404881075613
0.167561761546724,504,498,-4.05496355047452,23.2861164221576,-8.60183554822291,-14.6842808739347
0.169709989258861,505,499,-4.05496355047452,18.3985308894108,-6.1580427818495,-12.2404881075613
0.171858216970999,505,500,0.832621982272297,15.9547381230374,-8.60183554822291,-7.35290257481447
0.174006444683136,503,499,5.72020751501912,23.2861164221576,-15.9332138473431,-7.35290257481447
0.176154672395274,505,495,-23.6053056814618,28.1737019549044,3.61712828364413,-31.7908302385486
0.178302900107411,505,495,-23.6053056814618,28.1737019549044,3.61712828364413,-31.7908302385486
0.180451127819549,502,496,-4.05496355047452,33.0612874876512,-13.4894210809697,-19.5718664066815
0.182599355531686,502,497,0.832621982272297,30.6174947212778,-15.9332138473431,-14.6842808739347
0.184747583243824,501,498,10.6077930477659,30.6174947212778,-23.2645921464634,-7.35290257481447
0.186895810955961,502,497,0.832621982272297,30.6174947212778,-15.9332138473431,-14.6842808739347
0.189044038668099,498,497,20.3829641132596,40.3926657867715,-35.4835559783304,-4.90910980844106
0.191192266380236,495,495,25.2705496460064,52.6116296186385,-45.2587270438241,-7.35290257481447
0.193340494092374,494,493,20.3829641132596,59.9430079177588,-45.2587270438241,-14.6842808739347
0.195488721804511,495,488,-8.94254908322134,69.7181789832524,-28.1521776792102,-41.5660013040422
0.197636949516649,501,493,-13.8301346159682,42.8364585531449,-11.0456283145963,-31.7908302385486
0.199785177228786,509,496,-38.2680622797022,15.9547381230374,20.723677648258,-36.6784157712954
0.201933404940924,515,502,-38.2680622797022,-13.3707750734435,35.3864342464985,-22.0156591730549
0.204081632653061,518,504,-43.1556478124491,-25.5897389053106,45.1616053119921,-19.5718664066815
0.206229860365199,520,504,-52.9308188779427,-30.4773244380574,54.9367763774857,-24.4594519394283
0.208378088077336,518,507,-28.4928912142086,-32.9211172044308,37.8302270128719,-4.90910980844106
0.210526315789474,514,506,-13.8301346159682,-20.7021533725638,20.723677648258,-0.0215242756942402
0.212674543501611,516,501,-48.0432333451959,-13.3707750734435,42.7178125456187,-29.3470374721752
0.214822771213749,517,502,-48.0432333451959,-18.2583606061904,45.1616053119921,-26.9032447058017
0.216970998925886,518,503,-48.0432333451959,-23.1459461389372,47.6053980783655,-24.4594519394283
0.219119226638024,517,506,-28.4928912142086,-28.033531671684,35.3864342464985,-7.35290257481447
0.221267454350161,512,505,-8.94254908322134,-13.3707750734435,13.3922993491378,-0.0215242756942402
0.223415682062299,511,506,0.832621982272297,-13.3707750734435,6.06092105001754,7.30985402342599
0.225563909774436,508,506,15.4953785805128,-6.0393967743233,-8.60183554822291,14.6412323225462
0.227712137486574,507,505,15.4953785805128,-1.15181124157648,-11.0456283145963,12.1974395561728
0.229860365198711,511,503,-13.8301346159682,-6.0393967743233,13.3922993491378,-7.35290257481447
0.232008592910849,516,502,-43.1556478124491,-15.8145678398169,40.2740197792453,-24.4594519394283
0.234156820622986,517,504,-38.2680622797022,-23.1459461389372,40.2740197792453,-17.1280736403081
0.236305048335124,521,509,-33.3804767469554,-45.1400810362979,47.6053980783655,-2.46531704206765
0.238453276047261,520,509,-28.4928912142086,-42.6962882699244,42.7178125456187,-0.0215242756942402
0.240601503759398,512,510,15.4953785805128,-25.5897389053106,1.17333551727072,24.4164033880399
0.242749731471536,512,509,10.6077930477659,-23.1459461389372,3.61712828364413,19.528817855293
0.244897959183673,515,511,5.72020751501911,-35.3649099708042,13.3922993491378,21.9726106216664
0.247046186895811,520,509,-28.4928912142086,-42.6962882699244,42.7178125456187,-0.0215242756942402
0.249194414607948,522,507,-48.0432333451959,-42.6962882699244,57.3805691438591,-14.6842808739347
0.251342642320086,524,510,-43.1556478124491,-54.9152521017915,59.8243619102326,-4.90910980844106
0.253490870032223,520,514,-4.05496355047452,-54.9152521017915,30.4988487137516,24.4164033880399
0.255639097744361,520,512,-13.8301346159682,-50.0276665690447,35.3864342464985,14.6412323225462
0.257787325456498,514,512,15.4953785805128,-35.3649099708042,6.06092105001754,29.3039889207867
0.259935553168636,516,512,5.72020751501912,-40.252495503551,15.8360921155112,24.4164033880399
0.262083780880773,517,514,10.6077930477659,-47.5838738026713,15.8360921155112,31.7477816871601
0.264232008592911,516,510,-4.05496355047452,-35.3649099708042,20.723677648258,14.6412323225462
0.266380236305048,516,506,-23.6053056814618,-25.5897389053106,30.4988487137516,-4.90910980844106
0.268528464017186,511,503,-13.8301346159682,-6.0393967743233,13.3922993491378,-7.35290257481447
0.270676691729323,509,504,0.832621982272297,-3.59560400794989,1.17333551727072,2.42226849067917
0.272824919441461,506,506,25.2705496460064,-1.15181124157648,-18.3770066137166,19.528817855293
0.274973147153598,503,504,30.1581351787532,11.0671525902906,-28.1521776792102,17.0850250889196
0.277121374865736,501,502,30.1581351787532,20.8423236557842,-33.039763211957,12.1974395561728
0.279269602577873,500,502,35.0457207115,23.2861164221576,-37.9273487447038,14.6412323225462
0.281417830290011,494,497,39.9333062442469,50.1678368522651,-55.0338981093177,4.86606125705258
0.283566058002148,491,495,44.8208917769937,62.3868006841322,-64.8090691748113,2.42226849067917
0.285714285714286,498,494,5.72020751501912,47.7240440858917,-28.1521776792102,-19.5718664066815
0.287862513426423,500,497,10.6077930477659,35.5050802540247,-25.7083849128368,-9.79669534118788
0.290010741138561,503,497,-4.05496355047452,28.1737019549044,-11.0456283145963,-17.1280736403081
0.292158968850698,499,497,15.4953785805128,37.9488730203981,-30.5959704455836,-7.35290257481447
0.294307196562836,496,494,15.4953785805128,52.6116296186385,-37.9273487447038,-14.6842808739347
0.296455424274973,492,495,39.9333062442468,59.9430079177587,-59.9214836420645,-0.0215242756942473
0.298603651987111,488,494,54.5960628424873,72.1619717496258,-77.0280330066784,4.86606125705258
0.300751879699248,489,490,30.1581351787532,79.493350048746,-62.3652764084379,-17.1280736403081
0.302900107411386,491,486,0.8326219822723,84.3809355814928,-42.8149342774506,-41.5660013040422
0.305048335123523,492,486,-4.05496355047453,81.9371428151194,-37.9273487447038,-44.0097940704156
0.307196562835661,495,489,-4.05496355047453,67.274386216879,-30.5959704455836,-36.6784157712954
0.309344790547798,496,493,10.6077930477659,55.0554223850119,-35.4835559783304,-19.5718664066815
0.311493018259936,495,493,15.4953785805127,57.4992151513853,-40.3711415110772,-17.1280736403081
0.313641245972073,496,493,10.6077930477659,55.0554223850119,-35.4835559783304,-19.5718664066815
0.315789473684211,497,496,20.3829641132596,45.2802513195183,-37.9273487447038,-7.35290257481446
0.317937701396348,497,491,-4.05496355047453,57.4992151513853,-25.7083849128368,-31.7908302385486
0.320085929108485,494,489,0.8326219822723,69.7181789832524,-35.4835559783304,-34.234623004922
0.322234156820623,491,487,5.72020751501911,81.9371428151194,-45.2587270438241,-36.6784157712954
0.32438238453276,491,489,15.4953785805127,77.0495572823726,-50.1463125765709,-26.9032447058017
0.326530612244898,494,490,5.72020751501913,67.274386216879,-37.9273487447038,-29.3470374721751
0.328678839957035,493,490,10.6077930477659,69.7181789832524,-42.8149342774506,-26.9032447058017
0.330827067669173,493,490,10.6077930477659,69.7181789832524,-42.8149342774506,-26.9032447058017
0.33297529538131,489,491,35.0457207115,77.0495572823726,-64.8090691748113,-12.2404881075613
0.335123523093448,488,488,25.2705496460064,86.8247283478663,-62.3652764084379,-24.4594519394283
0.337271750805585,485,483,15.4953785805127,106.375070478854,-64.8090691748113,-41.5660013040422
0.339419978517723,485,481,5.72020751501911,111.2626560116,-59.9214836420645,-51.3411723695358
0.34156820622986,486,481,0.8326219822723,108.818863245227,-55.0338981093177,-53.7849651359092
0.343716433941998,486,482,5.72020751501913,106.375070478854,-57.4776908756911,-48.8973796031624
0.345864661654135,482,482,25.2705496460064,116.150241544347,-77.0280330066784,-39.1222085376688
0.348012889366273,484,483,20.3829641132596,108.818863245227,-69.6966547075581,-39.1222085376688
0.35016111707841,489,486,10.6077930477659,89.2685211142397,-52.5901053429443,-36.6784157712954
0.352309344790548,491,486,0.8326219822723,84.3809355814928,-42.8149342774506,-41.5660013040422
0.354457572502685,504,490,-43.1556478124491,42.8364585531449,10.9485065827644,-53.7849651359092
0.356605800214823,522,496,-101.806674205411,-15.8145678398169,84.2622895739666,-68.4477217341497
0.35875402792696,541,507,-140.907358467385,-89.1283508310192,150.244694266049,-61.1163434350295
0.360902255639098,559,517,-180.00804272936,-157.554548289475,213.783306191757,-56.2287579022827
0.363050483351235,581,530,-223.996312524082,-243.087295112544,289.540881949333,-46.4535868367892
0.365198711063373,600,542,-258.20941125331,-318.84487087012,353.079493875042,-34.2346230049222
0.36734693877551,618,556,-277.759753384297,-397.046239394069,406.842934735257,-9.79669534118813
0.369495166487648,630,566,-287.53492444979,-450.809680254284,441.056033464485,9.75364678979918
0.371643394199785,635,572,-282.647338917044,-477.691400684392,450.831204529979,26.860196154413
0.373791621911923,635,575,-267.984582318803,-485.022778983512,443.499826230858,41.5229527526535
0.37593984962406,621,572,-214.221141458588,-443.478301955164,382.405007071523,61.0732948836408
0.378088077336198,601,570,-126.244601869145,-389.714861094949,289.540881949333,100.173979145615
0.380236305048335,575,563,-33.3804767469554,-309.069699804626,179.57020746253,129.499492342096
0.382384532760473,552,557,49.7084773097405,-238.199709579797,81.8184968075932,156.381212772204
0.38453276047261,529,549,123.022260300943,-162.442133822222,-11.0456283145963,173.487762136818
0.386680988184748,507,536,167.010530095664,-76.9093869991522,-86.803204072172,163.712591071324
0.388829215896885,491,526,196.336043292145,-13.3707750734435,-140.566644932387,153.937420005831
0.390977443609023,482,517,196.336043292145,30.6174947212778,-162.560779829748,131.94328510847
0.39312567132116,479,513,191.448457759399,47.7240440858919,-167.448365362495,119.724321276603
0.395273899033298,485,508,137.685016899183,45.2802513195183,-125.903888334147,80.6236370146283
0.397422126745435,492,511,118.134674768196,20.8423236557842,-99.0221679040391,78.1798442482549
0.399570354457572,500,511,79.0339905062214,1.29198152479693,-59.9214836420645,58.6295021172676
0.40171858216971,505,514,69.2588194407278,-18.2583606061904,-42.8149342774506,61.073294883641
0.403866809881847,510,515,49.7084773097405,-32.9211172044308,-20.82079938009,53.7419165845208
0.406015037593985,512,514,35.0457207115,-35.3649099708042,-8.60183554822292,43.9667455190271
0.408163265306122,512,512,25.2705496460064,-30.4773244380574,-3.7142500154761,34.1915744535335
0.41031149301826,513,509,5.72020751501912,-25.5897389053106,8.50471381639095,17.0850250889196
0.412459720730397,508,507,20.3829641132596,-8.48318954069671,-11.0456283145963,19.528817855293
0.414607948442535,506,506,25.2705496460064,-1.15181124157648,-18.3770066137166,19.528817855293
0.416756176154672,497,505,64.3712339079809,23.2861164221576,-59.9214836420645,36.6353672199069
0.41890440386681,491,502,79.0339905062214,45.2802513195183,-81.9156185394252,36.6353672199069
0.421052631578947,488,498,74.1464049734746,62.3868006841322,-86.803204072172,24.4164033880398
0.423200859291085,482,496,93.6967471044619,81.9371428151194,-111.241131735906,29.3039889207867
0.425349087003222,482,491,69.2588194407278,94.1561066469865,-99.0221679040391,4.86606125705258
0.42749731471536,486,490,44.8208917769937,86.8247283478663,-77.0280330066784,-9.79669534118787
0.429645542427497,487,490,39.9333062442469,84.3809355814928,-72.1404474739316,-12.2404881075613
0.431793770139635,490,490,25.2705496460064,77.0495572823726,-57.4776908756911,-19.5718664066815
0.433941997851772,494,493,20.3829641132596,59.9430079177588,-45.2587270438241,-14.6842808739347
0.43609022556391,495,493,15.4953785805127,57.4992151513853,-40.3711415110772,-17.1280736403081
0.438238453276047,495,493,15.4953785805127,57.4992151513853,-40.3711415110772,-17.1280736403081
0.440386680988185,493,493,25.2705496460064,62.3868006841322,-50.1463125765709,-12.2404881075613
0.442534908700322,493,492,20.3829641132596,64.8305934505056,-47.7025198101975,-17.1280736403081
0.44468313641246,493,491,15.4953785805127,67.274386216879,-45.2587270438241,-22.0156591730549
0.446831364124597,496,491,0.832621982272293,59.9430079177587,-30.5959704455836,-29.3470374721752
0.448979591836735,497,490,-8.94254908322134,59.9430079177587,-23.2645921464634,-36.6784157712954
0.451127819548872,496,491,0.832621982272293,59.9430079177587,-30.5959704455836,-29.3470374721752
0.45327604726101,492,493,30.1581351787532,64.8305934505056,-55.0338981093177,-9.79669534118788
0.455424274973147,490,494,44.8208917769937,67.274386216879,-67.2528619411847,-0.0215242756942331
0.457572502685285,493,491,15.4953785805127,67.274386216879,-45.2587270438241,-22.0156591730549
0.459720730397422,493,491,15.4953785805127,67.274386216879,-45.2587270438241,-22.0156591730549
0.46186895810956,492,488,5.72020751501911,77.0495572823726,-42.8149342774506,-34.234623004922
0.464017185821697,491,487,5.72020751501911,81.9371428151194,-45.2587270438241,-36.6784157712954
0.466165413533835,494,485,-18.717720148715,79.493350048746,-25.7083849128368,-53.7849651359092
0.468313641245972,498,490,-13.8301346159682,57.4992151513853,-18.3770066137166,-39.1222085376688
0.47046186895811,505,494,-28.4928912142086,30.6174947212778,6.06092105001754,-36.6784157712954
0.472610096670247,506,496,-23.6053056814618,23.2861164221576,6.06092105001754,-29.3470374721751
0.474758324382385,509,498,-28.4928912142086,11.0671525902906,15.8360921155112,-26.9032447058017
0.476906552094522,506,497,-18.717720148715,20.8423236557842,3.61712828364413,-24.4594519394283
0.47905477980666,506,497,-18.717720148715,20.8423236557842,3.61712828364413,-24.4594519394283
0.481203007518797,507,497,-23.6053056814618,18.3985308894108,8.50471381639095,-26.9032447058017
0.483351235230934,506,493,-38.2680622797023,30.6174947212778,13.3922993491378,-44.0097940704156
0.485499462943072,507,495,-33.3804767469554,23.2861164221576,13.3922993491378,-36.6784157712954
0.487647690655209,506,496,-23.6053056814618,23.2861164221576,6.06092105001754,-29.3470374721751
0.489795918367347,503,497,-4.05496355047452,28.1737019549044,-11.0456283145963,-17.1280736403081
0.491944146079484,502,498,5.72020751501912,28.1737019549044,-18.3770066137166,-9.79669534118788
0.494092373791622,502,498,5.72020751501912,28.1737019549044,-18.3770066137166,-9.79669534118788
0.496240601503759,503,497,-4.05496355047452,28.1737019549044,-11.0456283145963,-17.1280736403081
0.498388829215897,505,497,-13.8301346159682,23.2861164221576,-1.27045724910269,-22.0156591730549
0.500537056928034,507,496,-28.4928912142086,20.8423236557842,10.9485065827644,-31.7908302385486
0.502685284640172,507,496,-28.4928912142086,20.8423236557842,10.9485065827644,-31.7908302385486
0.504833512352309,504,498,-4.05496355047452,23.2861164221576,-8.60183554822291,-14.6842808739347
0.506981740064447,501,498,10.6077930477659,30.6174947212778,-23.2645921464634,-7.35290257481447
0.509129967776584,507,500,-8.94254908322134,11.0671525902906,1.17333551727072,-12.2404881075613
0.511278195488722,511,501,-23.6053056814618,-1.15181124157648,18.2798848818846,-17.1280736403081
0.513426423200859,517,504,-38.2680622797022,-23.1459461389372,40.2740197792453,-17.1280736403081
0.515574650912997,516,505,-28.4928912142086,-23.1459461389372,32.942641480125,-9.79669534118788
0.517722878625134,517,504,-38.2680622797022,-23.1459461389372,40.2740197792453,-17.1280736403081
0.519871106337272,516,504,-33.3804767469554,-20.7021533725638,35.3864342464985,-14.6842808739347
0.522019334049409,516,506,-23.6053056814618,-25.5897389053106,30.4988487137516,-4.90910980844106
0.524167561761547,517,509,-13.8301346159682,-35.3649099708042,28.0550559473782,7.30985402342599
0.526315789473684,519,509,-23.6053056814618,-40.252495503551,37.8302270128719,2.42226849067917
0.528464017185822,519,510,-18.717720148715,-42.6962882699244,35.3864342464985,7.30985402342599
0.530612244897959,517,511,-4.05496355047453,-40.252495503551,23.1674704146314,17.0850250889196
0.532760472610097,517,507,-23.6053056814618,-30.4773244380574,32.942641480125,-2.46531704206765
0.534908700322234,515,508,-8.94254908322134,-28.033531671684,20.723677648258,7.30985402342599
0.537056928034372,519,505,-43.1556478124491,-30.4773244380574,47.6053980783655,-17.1280736403081
0.539205155746509,520,508,-33.3804767469554,-40.252495503551,45.1616053119921,-4.90910980844106
0.541353383458647,520,511,-18.717720148715,-47.5838738026713,37.8302270128719,9.75364678979939
0.543501611170784,523,516,-8.94254908322134,-67.1342159336585,40.2740197792453,26.8601961544133
0.545649838882922,525,514,-28.4928912142086,-67.1342159336585,54.9367763774857,12.1974395561728
0.547798066595059,525,516,-18.717720148715,-72.0218014664053,50.0491908447389,21.9726106216664
0.549946294307197,526,516,-23.6053056814618,-74.4655942327788,54.9367763774857,19.528817855293
0.552094522019334,530,517,-38.2680622797022,-86.6845580646458,72.0433257420996,14.6412323225462
0.554242749731472,531,515,-52.9308188779427,-84.2407652982724,81.8184968075932,2.42226849067917
0.556390977443609,527,515,-33.3804767469554,-74.4655942327788,62.268154676606,12.1974395561728
0.558539205155747,528,516,-33.3804767469554,-79.3531797655256,64.7119474429794,14.6412323225462
0.560687432867884,524,519,0.832621982272286,-76.9093869991522,37.8302270128719,39.0791599862803
0.562835660580021,524,520,5.72020751501911,-79.3531797655256,35.3864342464985,43.9667455190271
0.564983888292159,526,521,0.8326219822723,-86.6845580646458,42.7178125456187,43.9667455190271
0.567132116004296,534,523,-28.4928912142086,-111.12248572838,76.9309112748464,34.1915744535335
0.569280343716434,539,525,-43.1556478124491,-128.229035092994,96.4812534058337,31.7477816871601
0.571428571428571,542,525,-57.8184044106895,-135.560413392114,111.144010004074,24.4164033880399
0.573576799140709,545,528,-57.8184044106895,-150.223169990354,118.475388303194,31.7477816871601
0.575725026852846,542,530,-33.3804767469554,-147.779377223981,98.9250461722071,48.854331051774
0.577873254564984,542,531,-28.4928912142086,-150.223169990354,96.4812534058337,53.7419165845208
0.580021482277121,537,530,-8.94254908322134,-135.560413392114,74.487118508473,61.073294883641
0.582169709989259,535,529,-4.05496355047451,-128.229035092994,67.1557402093528,61.073294883641
0.584317937701396,537,531,-4.05496355047453,-138.004206158487,72.0433257420996,65.9608804163878
0.586466165413534,538,529,-18.717720148715,-135.560413392114,81.8184968075932,53.7419165845208
0.588614393125671,540,526,-43.1556478124491,-133.116620625741,98.9250461722071,34.1915744535335
0.590762620837809,539,526,-38.2680622797023,-130.672827859367,94.0374606394603,36.6353672199069
0.592910848549946,539,526,-38.2680622797023,-130.672827859367,94.0374606394603,36.6353672199069
0.595059076262084,537,530,-8.94254908322134,-135.560413392114,74.487118508473,61.073294883641
0.597207303974221,534,529,0.8326219822723,-125.78524232662,62.268154676606,63.5170876500144
0.599355531686359,529,529,25.2705496460064,-113.566278494753,37.8302270128719,75.7360514818814
0.601503759398496,531,528,10.6077930477659,-116.010071261127,50.0491908447389,65.9608804163878
0.603651987110634,532,528,5.72020751501911,-118.4538640275,54.9367763774857,63.5170876500144
0.605800214822771,530,526,5.72020751501913,-108.678692962006,50.0491908447389,58.6295021172676
0.607948442534909,531,522,-18.717720148715,-101.347314662886,64.7119474429794,36.6353672199069
0.610096670247046,527,521,-4.05496355047453,-89.1283508310192,47.6053980783655,41.5229527526537
0.612244897959184,524,523,20.3829641132596,-86.6845580646458,28.0550559473782,58.6295021172676
0.614393125671321,523,523,25.2705496460064,-84.2407652982724,23.1674704146314,61.073294883641
0.616541353383459,526,526,25.2705496460064,-98.9035218965129,30.4988487137516,68.4046731827612
0.618689581095596,528,525,10.6077930477659,-101.347314662886,42.7178125456187,58.6295021172676
0.620837808807734,525,525,25.2705496460064,-94.015936363766,28.0550559473782,65.9608804163878
0.622986036519871,523,522,20.3829641132596,-81.796972531899,25.6112631810048,56.1857093508942
0.625134264232009,519,517,15.4953785805127,-59.8028376345383,18.2798848818846,41.5229527526537
0.627282491944146,516,515,20.3829641132596,-47.5838738026713,8.50471381639095,39.0791599862803
0.629430719656284,513,517,44.8208917769937,-45.1400810362979,-11.0456283145963,56.1857093508942
0.631578947368421,509,515,54.5960628424873,-30.4773244380574,-25.7083849128368,56.1857093508942
0.633727175080559,504,511,59.4836483752341,-8.48318954069671,-40.3711415110772,48.8543310517739
0.635875402792696,508,512,44.8208917769937,-20.7021533725638,-23.2645921464634,43.9667455190271
0.638023630504833,514,515,30.1581351787532,-42.6962882699244,-1.27045724910268,43.9667455190271
0.640171858216971,515,515,25.2705496460064,-45.1400810362979,3.61712828364413,41.5229527526537
0.642320085929108,515,508,-8.94254908322134,-28.033531671684,20.723677648258,7.30985402342599
0.644468313641246,513,508,0.832621982272297,-23.1459461389372,10.9485065827644,12.1974395561728
0.646616541353383,510,508,15.4953785805128,-15.8145678398169,-3.71425001547609,19.528817855293
0.648764769065521,510,510,25.2705496460064,-20.7021533725638,-8.60183554822292,29.3039889207867
0.650912996777658,508,509,30.1581351787532,-13.3707750734435,-15.9332138473431,29.3039889207867
0.653061224489796,508,508,25.2705496460064,-10.9269823070701,-13.4894210809697,24.4164033880399
0.655209452201933,505,508,39.9333062442469,-3.59560400794989,-28.1521776792102,31.7477816871601
0.657357679914071,502,506,44.8208917769937,8.62335982391715,-37.9273487447038,29.3039889207867
0.659505907626208,499,501,35.0457207115,28.1737019549044,-40.3711415110772,12.1974395561728
0.661654135338346,496,498,35.0457207115,42.8364585531449,-47.7025198101975,4.86606125705258
0.663802363050483,494,496,35.0457207115,52.6116296186385,-52.5901053429443,-0.0215242756942331
0.665950590762621,488,498,74.1464049734746,62.3868006841322,-86.803204072172,24.4164033880398
0.668098818474758,490,497,59.4836483752341,59.9430079177588,-74.584240240305,14.6412323225462
0.670247046186896,494,498,44.8208917769937,47.7240440858917,-57.4776908756911,9.7536467897994
0.672395273899033,497,499,35.0457207115,37.9488730203981,-45.2587270438241,7.30985402342599
0.674543501611171,498,501,39.9333062442469,30.6174947212778,-45.2587270438241,14.6412323225462
0.676691729323308,498,496,15.4953785805128,42.8364585531449,-33.039763211957,-9.79669534118787
0.678839957035446,500,495,0.832621982272293,40.3926657867715,-20.82079938009,-19.5718664066815
0.680988184747583,497,493,5.72020751501911,52.6116296186385,-30.5959704455836,-22.0156591730549
0.683136412459721,493,494,30.1581351787532,59.9430079177587,-52.5901053429443,-7.35290257481446
0.685284640171858,488,492,44.8208917769937,77.0495572823726,-72.1404474739315,-4.90910980844106
0.687432867883996,491,493,35.0457207115,67.274386216879,-59.9214836420645,-7.35290257481447
0.689581095596133,490,493,39.9333062442469,69.7181789832524,-64.8090691748113,-4.90910980844106
0.691729323308271,493,494,30.1581351787532,59.9430079177587,-52.5901053429443,-7.35290257481446
0.693877551020408,494,492,15.4953785805128,62.3868006841322,-42.8149342774507,-19.5718664066815
0.696025778732546,498,490,-13.8301346159682,57.4992151513853,-18.3770066137166,-39.1222085376688
0.698174006444683,503,491,-33.3804767469554,42.8364585531449,3.61712828364413,-46.453586836789
0.700322234156821,506,496,-23.6053056814618,23.2861164221576,6.06092105001754,-29.3470374721751
0.702470461868958,506,495,-28.4928912142086,25.729909188531,8.50471381639095,-34.234623004922
0.704618689581096,504,497,-8.94254908322134,25.729909188531,-6.1580427818495,-19.5718664066815
0.706766917293233,503,497,-4.05496355047452,28.1737019549044,-11.0456283145963,-17.1280736403081
0.708915145005371,498,499,30.1581351787532,35.5050802540247,-40.3711415110772,4.86606125705258
0.711063372717508,497,493,5.72020751501911,52.6116296186385,-30.5959704455836,-22.0156591730549
0.713211600429645,493,491,15.4953785805127,67.274386216879,-45.2587270438241,-22.0156591730549
0.715359828141783,496,491,0.832621982272293,59.9430079177587,-30.5959704455836,-29.3470374721752
0.717508055853921,498,494,5.72020751501912,47.7240440858917,-28.1521776792102,-19.5718664066815
0.719656283566058,502,496,-4.05496355047452,33.0612874876512,-13.4894210809697,-19.5718664066815
0.721804511278195,501,494,-8.94254908322134,40.3926657867715,-13.4894210809697,-26.9032447058017
0.723952738990333,500,496,5.72020751501912,37.9488730203981,-23.2645921464634,-14.6842808739347
0.72610096670247,496,497,30.1581351787532,45.2802513195183,-45.2587270438241,-0.0215242756942402
0.728249194414608,495,495,25.2705496460064,52.6116296186385,-45.2587270438241,-7.35290257481447
0.730397422126745,495,491,5.72020751501911,62.3868006841322,-35.4835559783304,-26.9032447058017
0.732545649838883,497,489,-13.8301346159682,62.3868006841322,-20.82079938009,-41.5660013040422
0.73469387755102,501,491,-23.6053056814618,47.7240440858917,-6.1580427818495,-41.5660013040422
0.736842105263158,504,497,-8.94254908322134,25.729909188531,-6.1580427818495,-19.5718664066815
0.738990332975295,508,498,-23.6053056814618,13.510945356664,10.9485065827644,-24.4594519394283
0.741138560687433,509,499,-23.6053056814618,8.62335982391715,13.3922993491378,-22.0156591730549
0.74328678839957,508,499,-18.717720148715,11.0671525902906,8.50471381639095,-19.5718664066815
0.745435016111708,507,501,-4.05496355047452,8.62335982391715,-1.27045724910269,-7.35290257481447
0.747583243823845,507,499,-13.8301346159682,13.510945356664,3.61712828364413,-17.1280736403081
0.749731471535983,512,499,-38.2680622797022,1.29198152479693,28.0550559473782,-29.3470374721752
0.75187969924812,514,497,-57.8184044106895,1.29198152479693,42.7178125456187,-44.0097940704156
0.754027926960258,512,502,-23.6053056814618,-6.0393967743233,20.723677648258,-14.6842808739347
0.756176154672395,511,501,-23.6053056814618,-1.15181124157648,18.2798848818846,-17.1280736403081
0.758324382384533,510,502,-13.8301346159682,-1.15181124157648,10.9485065827644,-9.79669534118788
0.76047261009667,508,502,-4.05496355047452,3.73577429117034,1.17333551727072,-4.90910980844106
0.762620837808808,501,500,20.3829641132596,25.729909188531,-28.1521776792102,2.42226849067917
0.764769065520945,503,498,0.832621982272297,25.729909188531,-13.4894210809697,-12.2404881075613
0.766917293233083,504,497,-8.94254908322134,25.729909188531,-6.1580427818495,-19.5718664066815
0.76906552094522,509,498,-28.4928912142086,11.0671525902906,15.8360921155112,-26.9032447058017
0.771213748657358,516,503,-38.2680622797022,-18.2583606061904,37.8302270128719,-19.5718664066815
0.773361976369495,516,505,-28.4928912142086,-23.1459461389372,32.942641480125,-9.79669534118788
0.775510204081633,513,506,-8.94254908322134,-18.2583606061904,15.8360921155112,2.42226849067917
0.77765843179377,516,508,-13.8301346159682,-30.4773244380574,25.6112631810048,4.86606125705258
0.779806659505908,510,508,15.4953785805128,-15.8145678398169,-3.71425001547609,19.528817855293
0.781954887218045,510,505,0.832621982272297,-8.48318954069671,3.61712828364413,4.86606125705258
0.784103114930183,508,503,0.832621982272297,1.29198152479693,-1.27045724910269,-0.0215242756942402
0.78625134264232,512,502,-23.6053056814618,-6.0393967743233,20.723677648258,-14.6842808739347
0.788399570354458,515,505,-23.6053056814618,-20.7021533725638,28.0550559473782,-7.35290257481447
0.790547798066595,517,508,-18.717720148715,-32.9211172044308,30.4988487137516,2.42226849067917
0.792696025778733,517,509,-13.8301346159682,-35.3649099708042,28.0550559473782,7.30985402342599
0.79484425349087,518,509,-18.717720148715,-37.8087027371776,32.942641480125,4.86606125705258
0.796992481203007,518,512,-4.05496355047452,-45.1400810362979,25.6112631810048,19.528817855293
0.799140708915145,516,510,-4.05496355047452,-35.3649099708042,20.723677648258,14.6412323225462
0.801288936627283,515,507,-13.8301346159682,-25.5897389053106,23.1674704146314,2.42226849067917
0.80343716433942,514,505,-18.717720148715,-18.2583606061904,23.1674704146314,-4.90910980844106
0.805585392051557,515,506,-18.717720148715,-23.1459461389372,25.6112631810048,-2.46531704206765
0.807733619763695,517,509,-13.8301346159682,-35.3649099708042,28.0550559473782,7.30985402342599
0.809881847475832,518,512,-4.05496355047452,-45.1400810362979,25.6112631810048,19.528817855293
0.81203007518797,518,512,-4.05496355047452,-45.1400810362979,25.6112631810048,19.528817855293
0.814178302900107,515,512,10.6077930477659,-37.8087027371776,10.9485065827644,26.8601961544133
0.816326530612245,514,511,10.6077930477659,-32.9211172044308,8.50471381639095,24.4164033880398
0.818474758324382,511,507,5.72020751501912,-15.8145678398169,3.61712828364413,12.1974395561728
0.82062298603652,512,506,-4.05496355047452,-15.8145678398169,10.9485065827644,4.86606125705258
0.822771213748657,510,506,5.72020751501912,-10.9269823070701,1.17333551727072,9.7536467897994
0.824919441460795,508,505,10.6077930477659,-3.59560400794989,-6.1580427818495,9.7536467897994
0.827067669172932,506,505,20.3829641132596,1.29198152479693,-15.9332138473431,14.6412323225462
0.82921589688507,508,506,15.4953785805128,-6.0393967743233,-8.60183554822291,14.6412323225462
0.831364124597207,505,505,25.2705496460064,3.73577429117034,-20.82079938009,17.0850250889196
0.833512352309345,506,507,30.1581351787532,-3.59560400794989,-20.82079938009,24.4164033880399
0.835660580021482,505,505,25.2705496460064,3.73577429117034,-20.82079938009,17.0850250889196
0.83780880773362,505,503,15.4953785805128,8.62335982391715,-15.9332138473431,7.30985402342599
0.839957035445757,501,499,15.4953785805128,28.1737019549044,-25.7083849128368,-2.46531704206765
0.842105263157895,499,499,25.2705496460064,33.0612874876512,-35.4835559783304,2.42226849067917
0.844253490870032,496,497,30.1581351787532,45.2802513195183,-45.2587270438241,-0.0215242756942402
0.84640171858217,497,500,39.9333062442469,35.5050802540247,-47.7025198101975,12.1974395561728
0.848549946294307,498,499,30.1581351787532,35.5050802540247,-40.3711415110772,4.86606125705258
0.850698174006445,497,498,30.1581351787532,40.3926657867715,-42.8149342774506,2.42226849067917
0.852846401718582,496,497,30.1581351787532,45.2802513195183,-45.2587270438241,-0.0215242756942402
0.85499462943072,494,495,30.1581351787532,55.0554223850119,-50.1463125765709,-4.90910980844106
0.857142857142857,492,491,20.3829641132596,69.7181789832524,-50.1463125765709,-19.5718664066815
0.859291084854995,492,490,15.4953785805127,72.1619717496258,-47.7025198101975,-24.4594519394283
0.861439312567132,491,489,15.4953785805127,77.0495572823726,-50.1463125765709,-26.9032447058017
0.86358754027927,491,492,30.1581351787532,69.7181789832524,-57.4776908756911,-12.2404881075613
0.865735767991407,494,493,20.3829641132596,59.9430079177588,-45.2587270438241,-14.6842808739347
0.867883995703545,492,496,44.8208917769937,57.4992151513853,-62.3652764084379,4.86606125705258
0.870032223415682,494,495,30.1581351787532,55.0554223850119,-50.1463125765709,-4.90910980844106
0.87218045112782,492,491,20.3829641132596,69.7181789832524,-50.1463125765709,-19.5718664066815
0.874328678839957,492,489,10.6077930477659,74.6057645159992,-45.258727043824,-29.3470374721752
0.876476906552095,490,488,15.4953785805128,81.9371428151194,-52.5901053429443,-29.3470374721751
0.878625134264232,490,486,5.72020751501913,86.8247283478663,-47.7025198101975,-39.1222085376688
0.880773361976369,490,489,20.3829641132596,79.493350048746,-55.0338981093177,-24.4594519394283
0.882921589688507,490,488,15.4953785805128,81.9371428151194,-52.5901053429443,-29.3470374721751
0.885069817400644,490,491,30.1581351787532,74.6057645159992,-59.9214836420645,-14.6842808739347
0.887218045112782,488,490,35.0457207115,81.9371428151194,-67.2528619411847,-14.6842808739347
0.889366272824919,487,488,30.1581351787532,89.2685211142397,-67.2528619411847,-22.0156591730549
0.891514500537057,486,485,20.3829641132596,99.0436921797333,-64.8090691748113,-34.234623004922
0.893662728249194,484,482,15.4953785805127,111.2626560116,-67.2528619411847,-44.0097940704156
0.895810955961332,484,479,0.832621982271846,118.594034310721,-59.9214836420643,-58.6725506686565
0.897959183673469,485,482,10.6077930477659,108.818863245227,-62.3652764084379,-46.453586836789
0.900107411385607,483,484,30.1581351787532,108.818863245227,-77.0280330066784,-31.7908302385486
0.902255639097744,483,482,20.3829641132596,113.706448777974,-72.1404474739316,-41.5660013040422
0.904403866809882,479,482,39.9333062442473,123.481619843468,-91.6907896049193,-31.7908302385483
0.906552094522019,480,482,35.0457207115,121.037827077094,-86.803204072172,-34.234623004922
0.908700322234157,490,482,-13.8301346159681,96.5998994133599,-37.9273487447038,-58.6725506686561
0.910848549946294,506,488,-62.7059899434363,42.8364585531449,25.6112631810048,-68.4477217341497
0.912996777658432,525,495,-121.357016336398,-20.7021533725638,101.368838938581,-80.6666855660168
0.915145005370569,546,508,-160.457700598373,-103.79110742926,172.238829163409,-68.4477217341497
0.917293233082707,564,520,-189.783213794854,-177.104890420462,230.889855556371,-53.7849651359092
0.919441460794844,581,531,-219.108726991335,-245.531087878918,287.09708918296,-41.5660013040424
0.921589688506982,598,542,-248.434240187816,-313.957285337373,343.304322809548,-29.3470374721754
0.923737916219119,614,553,-272.87216785155,-379.939690029455,394.62397090339,-14.6842808739349
0.925886143931257,622,562,-267.984582318803,-421.484167057803,411.730520268004,9.75364678979918
0.928034371643394,625,567,-258.209411253309,-441.03450918879,414.174313034377,26.8601961544131
0.930182599355532,619,566,-233.771483589575,-423.927959824177,387.29259260427,36.6353672199066
0.932330827067669,602,566,-150.68252953288,-382.383482795829,304.203638547574,78.1798442482546
0.934479054779807,586,563,-87.1439176071709,-335.951420234734,233.333648322745,102.617771911989
0.936627282491944,565,558,-8.94254908322137,-272.412808309025,142.913315966928,129.499492342096
0.938775510204082,543,551,64.371233907981,-201.542818084196,52.4929836111123,149.049834473084
0.940923737916219,521,541,123.022260300943,-123.341449560247,-30.5959704455836,153.937420005831
0.943071965628357,501,530,167.010530095664,-47.5838738026713,-101.465960670412,149.049834473084
0.945220193340494,494,520,152.347773497424,-6.0393967743233,-111.241131735906,117.280528510229
0.947368421052632,489,514,147.460187964677,20.8423236557842,-121.0163028014,100.173979145616
0.949516648764769,488,509,127.90984583369,35.5050802540247,-113.68492450228,78.1798442482549
0.951664876476907,490,510,123.022260300943,28.1737019549044,-106.353546203159,78.1798442482549
0.953813104189044,496,512,103.471918169956,8.62335982391715,-81.9156185394252,73.292258715508
0.955961331901181,498,512,93.6967471044618,3.73577429117033,-72.1404474739316,68.4046731827612
0.958109559613319,499,511,83.9215760389682,3.73577429117034,-64.8090691748113,61.073294883641
0.960257787325457,507,511,44.8208917769937,-15.8145678398169,-25.7083849128368,41.5229527526537
0.962406015037594,509,509,25.2705496460064,-15.8145678398169,-11.0456283145963,26.8601961544133
0.964554242749731,506,509,39.9333062442469,-8.48318954069671,-25.7083849128368,34.1915744535335
0.966702470461869,501,504,39.9333062442469,15.9547381230374,-37.9273487447038,21.9726106216664
0.968850698174006,498,501,39.9333062442469,30.6174947212778,-45.2587270438241,14.6412323225462
0.970998925886144,494,500,54.5960628424873,42.8364585531449,-62.3652764084379,19.528817855293
0.973147153598281,490,500,74.1464049734746,52.6116296186385,-81.9156185394252,29.3039889207867
0.975295381310419,492,499,59.4836483752341,50.1678368522651,-69.6966547075581,19.528817855293
0.977443609022556,493,499,54.5960628424873,47.7240440858917,-64.8090691748113,17.0850250889196
0.979591836734694,494,497,39.9333062442469,50.1678368522651,-55.0338981093177,4.86606125705258
0.981740064446831,491,493,35.0457207115,67.274386216879,-59.9214836420645,-7.35290257481447
0.983888292158969,489,492,39.9333062442469,74.6057645159992,-67.2528619411847,-7.35290257481446
0.986036519871106,490,490,25.2705496460064,77.0495572823726,-57.4776908756911,-19.5718664066815
0.988184747583244,491,491,25.2705496460064,72.1619717496258,-55.0338981093177,-17.1280736403081
0.990332975295381,495,497,35.0457207115,47.7240440858917,-50.1463125765709,2.42226849067917
0.992481203007519,494,496,35.0457207115,52.6116296186385,-52.5901053429443,-0.0215242756942331
0.994629430719656,493,495,35.0457207115,57.4992151513853,-55.0338981093177,-2.46531704206765
0.996777658431794,492,493,30.1581351787532,64.8305934505056,-55.0338981093177,-9.79669534118788
0.998925886143931,493,491,15.4953785805127,67.274386216879,-45.2587270438241,-22.0156591730549
1.00107411385607,492,488,5.72020751501911,77.0495572823726,-42.8149342774506,-34.234623004922
1.00322234156821,490,488,15.4953785805128,81.9371428151194,-52.5901053429443,-29.3470374721751
1.00537056928034,488,489,30.1581351787532,84.3809355814928,-64.8090691748113,-19.5718664066815
1.00751879699248,484,486,35.0457207115,101.487484946107,-77.0280330066784,-24.4594519394283
1.00966702470462,487,488,30.1581351787532,89.2685211142397,-67.2528619411847,-22.0156591730549
1.01181525241676,493,491,15.4953785805127,67.274386216879,-45.2587270438241,-22.0156591730549
1.01396348012889,496,491,0.832621982272293,59.9430079177587,-30.5959704455836,-29.3470374721752
1.01611170784103,497,492,0.8326219822723,55.0554223850119,-28.1521776792102,-26.9032447058017
1.01825993555317,494,488,-4.05496355047451,72.1619717496258,-33.039763211957,-39.1222085376688
1.02040816326531,492,485,-8.94254908322135,84.3809355814928,-35.4835559783304,-48.8973796031624
1.02255639097744,491,486,0.8326219822723,84.3809355814928,-42.8149342774506,-41.5660013040422
1.02470461868958,490,489,20.3829641132596,79.493350048746,-55.0338981093177,-24.4594519394283
1.02685284640172,493,489,5.72020751501911,72.1619717496258,-40.3711415110772,-31.7908302385486
1.02900107411386,501,492,-18.717720148715,45.2802513195183,-8.60183554822292,-36.6784157712954
1.03114930182599,506,496,-23.6053056814618,23.2861164221576,6.06092105001754,-29.3470374721751
1.03329752953813,508,497,-28.4928912142086,15.9547381230374,13.3922993491378,-29.3470374721752
1.03544575725027,504,494,-23.6053056814618,33.0612874876512,1.17333551727072,-34.234623004922
1.03759398496241,502,491,-28.4928912142086,45.2802513195183,-1.27045724910268,-44.0097940704156
1.03974221267454,498,492,-4.05496355047452,52.6116296186385,-23.2645921464634,-29.3470374721751
1.04189044038668,499,494,0.8326219822723,45.2802513195183,-23.2645921464634,-22.0156591730549
1.04403866809882,500,496,5.72020751501912,37.9488730203981,-23.2645921464634,-14.6842808739347
1.04618689581096,503,496,-8.94254908322134,30.6174947212778,-8.60183554822292,-22.0156591730549
1.04833512352309,506,499,-8.94254908322134,15.9547381230374,-1.27045724910269,-14.6842808739347
1.05048335123523,503,499,5.72020751501912,23.2861164221576,-15.9332138473431,-7.35290257481447
1.05263157894737,504,495,-18.717720148715,30.6174947212778,-1.27045724910268,-29.3470374721752
1.05477980665951,506,495,-28.4928912142086,25.729909188531,8.50471381639095,-34.234623004922
1.05692803437164,509,496,-38.2680622797022,15.9547381230374,20.723677648258,-36.6784157712954
1.05907626208378,507,501,-4.05496355047452,8.62335982391715,-1.27045724910269,-7.35290257481447
1.06122448979592,509,501,-13.8301346159682,3.73577429117034,8.50471381639095,-12.2404881075613
1.06337271750806,506,501,0.832621982272297,11.0671525902906,-6.1580427818495,-4.90910980844106
1.06552094522019,509,504,0.832621982272297,-3.59560400794989,1.17333551727072,2.42226849067917
1.06766917293233,511,506,0.832621982272297,-13.3707750734435,6.06092105001754,7.30985402342599
1.06981740064447,513,503,-23.6053056814618,-10.9269823070701,23.1674704146314,-12.2404881075613
1.07196562835661,514,500,-43.1556478124491,-6.0393967743233,35.3864342464985,-29.3470374721752
1.07411385606874,510,500,-23.6053056814618,3.73577429117034,15.8360921155112,-19.5718664066815
1.07626208378088,508,501,-8.94254908322134,6.17956705754374,3.61712828364413,-9.79669534118788
1.07841031149302,510,502,-13.8301346159682,-1.15181124157648,10.9485065827644,-9.79669534118788
1.08055853920516,510,503,-8.94254908322134,-3.59560400794989,8.50471381639095,-4.90910980844106
1.08270676691729,517,505,-33.3804767469554,-25.5897389053106,37.8302270128719,-12.2404881075613
1.08485499462943,520,511,-18.717720148715,-47.5838738026713,37.8302270128719,9.75364678979939
1.08700322234157,519,510,-18.717720148715,-42.6962882699244,35.3864342464985,7.30985402342599
1.08915145005371,523,508,-48.0432333451959,-47.5838738026713,59.8243619102325,-12.2404881075613
1.09129967776584,523,509,-43.1556478124491,-50.0276665690447,57.3805691438591,-7.35290257481447
1.09344790547798,521,510,-28.4928912142086,-47.5838738026713,45.1616053119921,2.42226849067917
1.09559613319012,520,511,-18.717720148715,-47.5838738026713,37.8302270128719,9.75364678979939
1.09774436090226,518,511,-8.94254908322134,-42.6962882699244,28.0550559473782,14.6412323225462
1.09989258861439,521,512,-18.717720148715,-52.4714593354181,40.2740197792453,12.1974395561728
1.10204081632653,519,516,10.6077930477659,-57.3590448681649,20.723677648258,36.6353672199069
1.10418904403867,521,513,-13.8301346159682,-54.9152521017915,37.8302270128719,17.0850250889196
1.10633727175081,524,514,-23.6053056814618,-64.6904231672851,50.0491908447389,14.6412323225462
1.10848549946294,527,511,-52.9308188779427,-64.6904231672851,72.0433257420996,-7.35290257481447
1.11063372717508,528,513,-48.0432333451959,-72.0218014664053,72.0433257420996,-0.0215242756942473
1.11278195488722,528,516,-33.3804767469554,-79.3531797655256,64.7119474429794,14.6412323225462
1.11493018259936,524,516,-13.8301346159682,-69.5780087000319,45.1616053119921,24.4164033880399
1.11707841031149,526,518,-13.8301346159681,-79.3531797655256,50.0491908447389,29.3039889207867
1.11922663802363,523,519,5.72020751501911,-74.4655942327788,32.942641480125,41.5229527526537
1.12137486573577,524,520,5.72020751501911,-79.3531797655256,35.3864342464985,43.9667455190271
1.12352309344791,526,518,-13.8301346159681,-79.3531797655256,50.0491908447389,29.3039889207867
1.12567132116004,527,516,-28.4928912142086,-76.9093869991522,59.8243619102325,17.0850250889196
1.12781954887218,528,517,-28.4928912142086,-81.796972531899,62.268154676606,19.528817855293
1.12996777658432,525,516,-18.717720148715,-72.0218014664053,50.0491908447389,21.9726106216664
1.13211600429646,526,519,-8.94254908322134,-81.796972531899,47.6053980783655,34.1915744535335
1.13426423200859,529,521,-13.8301346159682,-94.015936363766,57.3805691438591,36.6353672199069
1.13641245972073,532,526,-4.05496355047453,-113.566278494753,59.8243619102326,53.7419165845208
1.13856068743287,538,524,-43.1556478124491,-123.341449560247,94.0374606394603,29.3039889207867
1.14070891514501,538,525,-38.2680622797022,-125.78524232662,91.5936678730869,34.1915744535335
1.14285714285714,536,522,-43.1556478124491,-113.566278494753,89.1498751067135,24.4164033880399
1.14500537056928,537,524,-38.2680622797022,-120.897656793874,89.1498751067135,31.7477816871601
1.14715359828142,536,523,-38.2680622797023,-116.010071261127,86.7060823403401,29.3039889207867
1.14930182599356,536,526,-23.6053056814618,-123.341449560247,79.3747040412198,43.9667455190271
1.15145005370569,539,527,-33.3804767469555,-133.116620625741,91.5936678730869,41.5229527526537
1.15359828141783,537,529,-13.8301346159682,-133.116620625741,76.9309112748464,56.1857093508942
1.15574650912997,533,528,0.8326219822723,-120.897656793874,59.8243619102325,61.073294883641
1.15789473684211,531,527,5.72020751501911,-113.566278494753,52.4929836111123,61.073294883641
1.16004296455424,527,525,15.4953785805127,-98.9035218965129,37.8302270128719,61.073294883641
1.16219119226638,530,522,-13.8301346159681,-98.9035218965129,59.8243619102325,39.0791599862803
1.16433941997852,531,521,-23.6053056814618,-98.9035218965129,67.1557402093528,31.7477816871601
1.16648764769066,532,524,-13.8301346159682,-108.678692962006,64.7119474429794,43.9667455190271
1.16863587540279,527,524,10.6077930477659,-96.4597291301395,40.2740197792453,56.1857093508942
1.17078410311493,529,524,0.8326219822723,-101.347314662886,50.0491908447389,51.2981238181474
1.17293233082707,524,526,35.0457207115,-94.015936363766,20.723677648258,73.292258715508
1.17508055853921,520,524,44.8208917769937,-79.3531797655256,6.06092105001754,73.292258715508
1.17722878625134,520,520,25.2705496460064,-69.5780087000319,15.8360921155112,53.7419165845208
1.17937701396348,515,514,20.3829641132596,-42.6962882699244,6.06092105001754,36.6353672199069
1.18152524167562,515,515,25.2705496460064,-45.1400810362979,3.61712828364413,41.5229527526537
1.18367346938776,511,513,35.0457207115,-30.4773244380574,-11.0456283145963,41.5229527526537
1.18582169709989,513,514,30.1581351787532,-37.8087027371776,-3.7142500154761,41.5229527526537
1.18796992481203,513,514,30.1581351787532,-37.8087027371776,-3.7142500154761,41.5229527526537
1.19011815252417,514,516,35.0457207115,-45.1400810362979,-3.7142500154761,48.854331051774
1.19226638023631,510,514,44.8208917769937,-30.4773244380574,-18.3770066137166,48.854331051774
1.19441460794844,508,511,39.9333062442468,-18.2583606061903,-20.82079938009,39.0791599862803
1.19656283566058,507,509,35.0457207115,-10.9269823070701,-20.82079938009,31.7477816871601
1.19871106337272,507,508,30.1581351787532,-8.48318954069671,-18.3770066137166,26.8601961544133
1.20085929108486,506,506,25.2705496460064,-1.15181124157648,-18.3770066137166,19.528817855293
1.20300751879699,503,507,44.8208917769937,3.73577429117034,-35.4835559783304,31.7477816871601
1.20515574650913,502,506,44.8208917769937,8.62335982391715,-37.9273487447038,29.3039889207867
1.20730397422127,501,506,49.7084773097405,11.0671525902906,-42.8149342774506,31.7477816871601
1.2094522019334,501,505,44.8208917769937,13.510945356664,-40.3711415110772,26.8601961544133
1.21160042964554,498,503,49.7084773097405,25.729909188531,-50.1463125765709,24.4164033880399
1.21374865735768,498,501,39.9333062442469,30.6174947212778,-45.2587270438241,14.6412323225462
1.21589688506982,498,500,35.0457207115,33.0612874876512,-42.8149342774506,9.7536467897994
1.21804511278195,496,496,25.2705496460064,47.7240440858917,-42.8149342774506,-4.90910980844106
1.22019334049409,492,498,54.5960628424873,52.6116296186385,-67.2528619411847,14.6412323225462
1.22234156820623,495,498,39.9333062442469,45.2802513195183,-52.5901053429443,7.30985402342599
1.22448979591837,495,500,49.7084773097405,40.3926657867715,-57.4776908756911,17.0850250889196
1.2266380236305,494,497,39.9333062442469,50.1678368522651,-55.0338981093177,4.86606125705258
1.22878625134264,493,497,44.8208917769937,52.6116296186385,-59.9214836420645,7.30985402342599
1.23093447905478,492,493,30.1581351787532,64.8305934505056,-55.0338981093177,-9.79669534118788
1.23308270676692,492,490,15.4953785805127,72.1619717496258,-47.7025198101975,-24.4594519394283
1.23523093447905,491,491,25.2705496460064,72.1619717496258,-55.0338981093177,-17.1280736403081
1.23737916219119,489,491,35.0457207115,77.0495572823726,-64.8090691748113,-12.2404881075613
1.23952738990333,488,491,39.9333062442468,79.493350048746,-69.6966547075581,-9.79669534118788
1.24167561761547,488,491,39.9333062442468,79.493350048746,-69.6966547075581,-9.79669534118788
1.2438238453276,491,493,35.0457207115,67.274386216879,-59.9214836420645,-7.35290257481447
1.24597207303974,496,493,10.6077930477659,55.0554223850119,-35.4835559783304,-19.5718664066815
1.24812030075188,499,494,0.8326219822723,45.2802513195183,-23.2645921464634,-22.0156591730549
1.25026852846402,497,492,0.8326219822723,55.0554223850119,-28.1521776792102,-26.9032447058017
1.25241675617615,498,490,-13.8301346159682,57.4992151513853,-18.3770066137166,-39.1222085376688
1.25456498388829,498,492,-4.05496355047452,52.6116296186385,-23.2645921464634,-29.3470374721751
1.25671321160043,499,493,-4.05496355047453,47.7240440858917,-20.82079938009,-26.9032447058017
1.25886143931257,502,497,0.832621982272297,30.6174947212778,-15.9332138473431,-14.6842808739347
1.2610096670247,502,497,0.832621982272297,30.6174947212778,-15.9332138473431,-14.6842808739347
1.26315789473684,503,499,5.72020751501912,23.2861164221576,-15.9332138473431,-7.35290257481447
1.26530612244898,505,499,-4.05496355047452,18.3985308894108,-6.1580427818495,-12.2404881075613
1.26745435016112,503,497,-4.05496355047452,28.1737019549044,-11.0456283145963,-17.1280736403081
1.26960257787325,498,494,5.72020751501912,47.7240440858917,-28.1521776792102,-19.5718664066815
1.27175080558539,496,492,5.72020751501912,57.4992151513853,-33.039763211957,-24.4594519394283
1.27389903329753,497,495,15.4953785805127,47.7240440858917,-35.4835559783304,-12.2404881075613
1.27604726100967,497,495,15.4953785805127,47.7240440858917,-35.4835559783304,-12.2404881075613
1.2781954887218,497,494,10.6077930477659,50.1678368522651,-33.039763211957,-17.1280736403081
1.28034371643394,494,495,30.1581351787532,55.0554223850119,-50.1463125765709,-4.90910980844106
1.28249194414608,496,494,15.4953785805128,52.6116296186385,-37.9273487447038,-14.6842808739347
1.28464017185822,498,494,5.72020751501912,47.7240440858917,-28.1521776792102,-19.5718664066815
1.28678839957035,498,492,-4.05496355047452,52.6116296186385,-23.2645921464634,-29.3470374721751
1.28893662728249,499,493,-4.05496355047453,47.7240440858917,-20.82079938009,-26.9032447058017
1.29108485499463,500,492,-13.8301346159682,47.7240440858917,-13.4894210809697,-34.234623004922
1.29323308270677,500,494,-4.05496355047452,42.8364585531449,-18.3770066137166,-24.4594519394283
1.2953813104189,500,496,5.72020751501912,37.9488730203981,-23.2645921464634,-14.6842808739347
1.29752953813104,499,496,10.6077930477659,40.3926657867715,-28.1521776792102,-12.2404881075613
1.29967776584318,498,498,25.2705496460064,37.9488730203981,-37.9273487447038,-0.0215242756942402
1.30182599355532,499,495,5.72020751501911,42.8364585531449,-25.7083849128368,-17.1280736403081
1.30397422126745,498,495,10.6077930477659,45.2802513195183,-30.5959704455836,-14.6842808739347
1.30612244897959,501,493,-13.8301346159682,42.8364585531449,-11.0456283145963,-31.7908302385486
1.30827067669173,500,494,-4.05496355047452,42.8364585531449,-18.3770066137166,-24.4594519394283
1.31041890440387,501,496,0.8326219822723,35.5050802540247,-18.3770066137166,-17.1280736403081
1.312567132116,502,500,15.4953785805128,23.2861164221576,-23.2645921464634,-0.0215242756942402
1.31471535982814,504,499,0.832621982272297,20.8423236557842,-11.0456283145963,-9.79669534118788
1.31686358754028,502,500,15.4953785805128,23.2861164221576,-23.2645921464634,-0.0215242756942402
1.31901181525242,504,498,-4.05496355047452,23.2861164221576,-8.60183554822291,-14.6842808739347
1.32116004296455,496,497,30.1581351787532,45.2802513195183,-45.2587270438241,-0.0215242756942402
1.32330827067669,496,491,0.832621982272293,59.9430079177587,-30.5959704455836,-29.3470374721752
1.32545649838883,496,494,15.4953785805128,52.6116296186385,-37.9273487447038,-14.6842808739347
1.32760472610097,503,496,-8.94254908322134,30.6174947212778,-8.60183554822292,-22.0156591730549
1.3297529538131,509,501,-13.8301346159682,3.73577429117034,8.50471381639095,-12.2404881075613
1.33190118152524,514,502,-33.3804767469554,-10.9269823070701,30.4988487137516,-19.5718664066815
1.33404940923738,514,504,-23.6053056814618,-15.8145678398169,25.6112631810048,-9.79669534118788
1.33619763694952,510,505,0.832621982272297,-8.48318954069671,3.61712828364413,4.86606125705258
1.33834586466165,509,501,-13.8301346159682,3.73577429117034,8.50471381639095,-12.2404881075613
1.34049409237379,506,499,-8.94254908322134,15.9547381230374,-1.27045724910269,-14.6842808739347
1.34264232008593,506,497,-18.717720148715,20.8423236557842,3.61712828364413,-24.4594519394283
1.34479054779807,504,497,-8.94254908322134,25.729909188531,-6.1580427818495,-19.5718664066815
1.3469387755102,504,501,10.6077930477659,15.9547381230374,-15.9332138473431,-0.0215242756942402
1.34908700322234,506,501,0.832621982272297,11.0671525902906,-6.1580427818495,-4.90910980844106
1.35123523093448,503,501,15.4953785805128,18.3985308894108,-20.82079938009,2.42226849067917
1.35338345864662,503,500,10.6077930477659,20.8423236557842,-18.3770066137166,-2.46531704206765
1.35553168635875,505,502,10.6077930477659,11.0671525902906,-13.4894210809697,2.42226849067917
1.35767991407089,509,499,-23.6053056814618,8.62335982391715,13.3922993491378,-22.0156591730549
1.35982814178303,515,501,-43.1556478124491,-10.9269823070701,37.8302270128719,-26.9032447058017
1.36197636949517,521,504,-57.8184044106895,-32.9211172044308,59.8243619102325,-26.9032447058017
1.3641245972073,524,506,-62.7059899434364,-45.1400810362979,69.5995329757262,-24.4594519394283
1.36627282491944,523,509,-43.1556478124491,-50.0276665690447,57.3805691438591,-7.35290257481447
1.36842105263158,523,510,-38.2680622797022,-52.4714593354181,54.9367763774857,-2.46531704206765
1.37056928034372,517,511,-4.05496355047453,-40.252495503551,23.1674704146314,17.0850250889196
1.37271750805585,514,509,0.832621982272297,-28.033531671684,13.3922993491378,14.6412323225462
1.37486573576799,512,507,0.832621982272297,-18.2583606061904,8.50471381639095,9.7536467897994
1.37701396348013,509,502,-8.94254908322134,1.29198152479693,6.06092105001754,-7.35290257481447
1.37916219119227,512,501,-28.4928912142086,-3.59560400794989,23.1674704146314,-19.5718664066815
1.3813104189044,513,505,-13.8301346159682,-15.8145678398169,18.2798848818846,-2.46531704206765
1.38345864661654,509,505,5.72020751501912,-6.0393967743233,-1.27045724910269,7.30985402342599
1.38560687432868,507,503,5.72020751501912,3.73577429117034,-6.1580427818495,2.42226849067917
1.38775510204082,508,504,5.72020751501912,-1.15181124157648,-3.71425001547609,4.86606125705258
1.38990332975295,506,504,15.4953785805128,3.73577429117034,-13.4894210809697,9.7536467897994
1.39205155746509,507,502,0.832621982272297,6.17956705754374,-3.71425001547609,-2.46531704206765
1.39419978517723,509,497,-33.3804767469554,13.510945356664,18.2798848818846,-31.7908302385486
1.39634801288937,507,498,-18.717720148715,15.9547381230374,6.06092105001754,-22.0156591730549
1.3984962406015,508,500,-13.8301346159682,8.62335982391715,6.06092105001754,-14.6842808739347
1.40064446831364,507,501,-4.05496355047452,8.62335982391715,-1.27045724910269,-7.35290257481447
1.40279269602578,504,499,0.832621982272297,20.8423236557842,-11.0456283145963,-9.79669534118788
1.40494092373792,506,499,-8.94254908322134,15.9547381230374,-1.27045724910269,-14.6842808739347
1.40708915145005,503,499,5.72020751501912,23.2861164221576,-15.9332138473431,-7.35290257481447
1.40923737916219,505,498,-8.94254908322134,20.8423236557842,-3.71425001547609,-17.1280736403081
1.41138560687433,503,496,-8.94254908322134,30.6174947212778,-8.60183554822292,-22.0156591730549
1.41353383458647,499,493,-4.05496355047453,47.7240440858917,-20.82079938009,-26.9032447058017
1.4156820622986,496,491,0.832621982272293,59.9430079177587,-30.5959704455836,-29.3470374721752
1.41783029001074,493,493,25.2705496460064,62.3868006841322,-50.1463125765709,-12.2404881075613
1.41997851772288,495,493,15.4953785805127,57.4992151513853,-40.3711415110772,-17.1280736403081
1.42212674543502,497,492,0.8326219822723,55.0554223850119,-28.1521776792102,-26.9032447058017
1.42427497314715,496,491,0.832621982272293,59.9430079177587,-30.5959704455836,-29.3470374721752
1.42642320085929,489,492,39.9333062442469,74.6057645159992,-67.2528619411847,-7.35290257481446
1.42857142857143,490,487,10.6077930477659,84.3809355814928,-50.1463125765709,-34.234623004922
1.43071965628357,494,486,-13.8301346159681,77.0495572823726,-28.1521776792102,-48.8973796031624
1.4328678839957,493,486,-8.94254908322134,79.493350048746,-33.039763211957,-46.453586836789
1.43501611170784,490,488,15.4953785805128,81.9371428151194,-52.5901053429443,-29.3470374721751
1.43716433941998,491,487,5.72020751501911,81.9371428151194,-45.2587270438241,-36.6784157712954
1.43931256713212,489,486,10.6077930477659,89.2685211142397,-52.5901053429443,-36.6784157712954
1.44146079484425,488,487,20.3829641132596,89.2685211142397,-59.9214836420645,-29.3470374721752
1.44360902255639,486,486,25.2705496460064,96.5998994133599,-67.2528619411847,-29.3470374721751
1.44575725026853,488,483,0.832621982272286,99.0436921797333,-50.1463125765709,-48.8973796031624
1.44790547798067,483,478,0.832621982271846,123.481619843468,-62.3652764084377,-61.1163434350299
1.4500537056928,483,477,-4.05496355047497,125.925412609841,-59.9214836420643,-66.0039289677767
1.45220193340494,483,480,10.6077930477659,118.594034310721,-67.2528619411847,-51.3411723695358
1.45435016111708,484,480,5.72020751501911,116.150241544347,-62.3652764084379,-53.7849651359092
1.45649838882922,489,482,-8.94254908322134,99.0436921797333,-42.8149342774506,-56.2287579022827
1.45864661654135,489,483,-4.05496355047453,96.5998994133599,-45.2587270438241,-51.3411723695358
1.46079484425349,483,480,10.6077930477659,118.594034310721,-67.2528619411847,-51.3411723695358
1.46294307196563,480,477,10.6077930477655,133.256790908961,-74.5842402403047,-58.6725506686565
1.46509129967777,481,476,0.83262198227186,133.256790908961,-67.2528619411845,-66.0039289677767
1.4672395273899,484,475,-18.7177201487154,128.369205376214,-50.1463125765706,-78.2228927996438
1.46938775510204,488,479,-18.7177201487154,108.818863245227,-40.371141511077,-68.4477217341502
1.47153598281418,490,481,-18.717720148715,99.0436921797333,-35.4835559783304,-63.5601362014029
1.47368421052632,492,482,-23.6053056814618,91.7123138806131,-28.1521776792102,-63.5601362014029
1.47583243823845,496,483,-38.2680622797023,79.493350048746,-11.0456283145963,-68.4477217341497
1.47798066595059,495,486,-18.717720148715,74.6057645159992,-23.2645921464634,-51.3411723695358
1.48012889366273,504,490,-43.1556478124491,42.8364585531449,10.9485065827644,-53.7849651359092
1.48227712137487,517,495,-82.2563320744236,-1.15181124157648,62.268154676606,-61.1163434350295
1.484425349087,532,499,-136.019772934639,-47.5838738026713,125.806766602315,-78.2228927996433
1.48657357679914,549,506,-184.895628262107,-106.234900195633,191.789171294397,-85.5542710987636
1.48872180451128,563,518,-194.6707993276,-169.773512121342,230.889855556371,-61.1163434350295
1.49087003222342,585,532,-233.771483589575,-257.750051710785,304.203638547574,-46.4535868367892
1.49301825993555,602,544,-258.20941125331,-328.620041935614,357.967079407789,-29.3470374721754
1.49516648764769,615,554,-272.87216785155,-384.827275562202,397.067763669764,-12.2404881075615
1.49731471535983,619,563,-248.434240187816,-416.596581525056,394.62397090339,21.9726106216662
1.49946294307197,614,563,-223.996312524082,-404.377617693189,370.186043239656,34.1915744535333
1.5016111707841,604,558,-199.558384860348,-367.720726197588,333.529151744055,34.1915744535332
1.50375939849624,587,553,-140.907358467386,-313.957285337373,262.659161519226,51.2981238181471
1.50590762620838,563,550,-38.2680622797023,-247.974880645291,152.688487032422,95.2863936128687
1.50805585392052,540,540,25.2705496460064,-167.329719354968,64.7119474429794,102.617771911989
1.51020408163265,521,535,93.6967471044618,-108.678692962006,-15.9332138473431,124.61190680935
1.51235230934479,507,525,113.247089235449,-50.0276665690447,-59.9214836420645,109.949150211109
1.51450053705693,496,520,142.57260243193,-10.9269823070701,-101.465960670412,112.392942977483
1.51664876476907,483,510,157.235359030171,45.2802513195183,-140.566644932387,95.2863936128687
1.5187969924812,478,499,127.90984583369,84.3809355814931,-138.122852166014,53.741916584521
1.52094522019334,480,499,118.134674768196,79.493350048746,-128.34768110052,48.8543310517739
1.52309344790548,486,500,93.6967471044619,62.3868006841322,-101.465960670412,39.0791599862803
1.52524167561762,492,500,64.3712339079809,47.7240440858917,-72.1404474739315,24.4164033880398
1.52738990332975,496,502,54.5960628424873,33.0612874876512,-57.4776908756911,24.4164033880399
1.52953813104189,504,503,20.3829641132596,11.0671525902906,-20.82079938009,9.7536467897994
1.53168635875403,504,505,30.1581351787532,6.17956705754374,-25.7083849128368,19.528817855293
1.53383458646617,503,501,15.4953785805128,18.3985308894108,-20.82079938009,2.42226849067917
1.5359828141783,501,499,15.4953785805128,28.1737019549044,-25.7083849128368,-2.46531704206765
1.53813104189044,495,492,10.6077930477659,59.9430079177587,-37.9273487447038,-22.0156591730549
1.54027926960258,491,492,30.1581351787532,69.7181789832524,-57.4776908756911,-12.2404881075613
1.54242749731472,491,492,30.1581351787532,69.7181789832524,-57.4776908756911,-12.2404881075613
1.54457572502685,492,492,25.2705496460064,67.274386216879,-52.5901053429443,-14.6842808739347
1.54672395273899,488,491,39.9333062442468,79.493350048746,-69.6966547075581,-9.79669534118788
1.54887218045113,490,494,44.8208917769937,67.274386216879,-67.2528619411847,-0.0215242756942331
1.55102040816327,489,492,39.9333062442469,74.6057645159992,-67.2528619411847,-7.35290257481446
1.5531686358754,489,488,20.3829641132596,84.3809355814928,-57.4776908756911,-26.9032447058017
1.55531686358754,489,485,5.72020751501911,91.7123138806131,-50.1463125765709,-41.5660013040422
1.55746509129968,488,485,10.6077930477659,94.1561066469865,-55.0338981093177,-39.1222085376688
1.55961331901182,489,486,10.6077930477659,89.2685211142397,-52.5901053429443,-36.6784157712954
1.56176154672395,491,488,10.6077930477659,79.493350048746,-47.7025198101975,-31.7908302385486
1.56390977443609,492,488,5.72020751501911,77.0495572823726,-42.8149342774506,-34.234623004922
1.56605800214823,492,491,20.3829641132596,69.7181789832524,-50.1463125765709,-19.5718664066815
1.56820622986037,490,490,25.2705496460064,77.0495572823726,-57.4776908756911,-19.5718664066815
1.5703544575725,490,487,10.6077930477659,84.3809355814928,-50.1463125765709,-34.234623004922
1.57250268528464,486,482,5.72020751501913,106.375070478854,-57.4776908756911,-48.8973796031624
1.57465091299678,480,481,30.1581351787532,123.481619843467,-84.3594113057986,-39.1222085376688
1.57679914070892,484,481,10.6077930477659,113.706448777974,-64.8090691748113,-48.8973796031624
1.57894736842105,486,483,10.6077930477659,103.93127771248,-59.9214836420645,-44.0097940704156
1.58109559613319,496,486,-23.6053056814618,72.1619717496258,-18.3770066137166,-53.7849651359092
1.58324382384533,499,490,-18.717720148715,55.0554223850119,-13.4894210809697,-41.5660013040422
1.58539205155747,498,491,-8.94254908322134,55.0554223850119,-20.82079938009,-34.234623004922
1.5875402792696,498,490,-13.8301346159682,57.4992151513853,-18.3770066137166,-39.1222085376688
1.58968850698174,499,488,-28.4928912142086,59.9430079177587,-8.60183554822292,-51.3411723695358
1.59183673469388,500,487,-38.2680622797023,59.9430079177587,-1.27045724910268,-58.6725506686561
1.59398496240601,499,488,-28.4928912142086,59.9430079177587,-8.60183554822292,-51.3411723695358
1.59613319011815,499,488,-28.4928912142086,59.9430079177587,-8.60183554822292,-51.3411723695358
1.59828141783029,498,491,-8.94254908322134,55.0554223850119,-20.82079938009,-34.234623004922
1.60042964554243,505,494,-28.4928912142086,30.6174947212778,6.06092105001754,-36.6784157712954
1.60257787325457,506,497,-18.717720148715,20.8423236557842,3.61712828364413,-24.4594519394283
1.6047261009667,505,496,-18.717720148715,25.729909188531,1.17333551727072,-26.9032447058017
1.60687432867884,505,495,-23.6053056814618,28.1737019549044,3.61712828364413,-31.7908302385486
1.60902255639098,506,492,-43.1556478124491,33.0612874876512,15.8360921155112,-48.8973796031624
1.61117078410311,507,493,-43.1556478124491,28.1737019549044,18.2798848818846,-46.453586836789
1.61331901181525,507,495,-33.3804767469554,23.2861164221576,13.3922993491378,-36.6784157712954
1.61546723952739,505,495,-23.6053056814618,28.1737019549044,3.61712828364413,-31.7908302385486
1.61761546723953,503,497,-4.05496355047452,28.1737019549044,-11.0456283145963,-17.1280736403081
1.61976369495166,504,497,-8.94254908322134,25.729909188531,-6.1580427818495,-19.5718664066815
1.6219119226638,505,497,-13.8301346159682,23.2861164221576,-1.27045724910269,-22.0156591730549
1.62406015037594,504,495,-18.717720148715,30.6174947212778,-1.27045724910268,-29.3470374721752
1.62620837808808,503,495,-13.8301346159682,33.0612874876512,-6.1580427818495,-26.9032447058017
1.62835660580021,502,494,-13.8301346159682,37.9488730203981,-8.60183554822292,-29.3470374721751
1.63050483351235,502,494,-13.8301346159682,37.9488730203981,-8.60183554822292,-29.3470374721751
1.63265306122449,503,495,-13.8301346159682,33.0612874876512,-6.1580427818495,-26.9032447058017
1.63480128893663,502,499,10.6077930477659,25.729909188531,-20.82079938009,-4.90910980844106
1.63694951664876,506,501,0.832621982272297,11.0671525902906,-6.1580427818495,-4.90910980844106
1.6390977443609,507,500,-8.94254908322134,11.0671525902906,1.17333551727072,-12.2404881075613
1.64124597207304,508,500,-13.8301346159682,8.62335982391715,6.06092105001754,-14.6842808739347
1.64339419978518,514,501,-38.2680622797022,-8.48318954069671,32.942641480125,-24.4594519394283
1.64554242749731,513,502,-28.4928912142086,-8.48318954069671,25.6112631810048,-17.1280736403081
1.64769065520945,514,501,-38.2680622797022,-8.48318954069671,32.942641480125,-24.4594519394283
1.64983888292159,516,504,-33.3804767469554,-20.7021533725638,35.3864342464985,-14.6842808739347
1.65198711063373,515,506,-18.717720148715,-23.1459461389372,25.6112631810048,-2.46531704206765
1.65413533834586,514,507,-8.94254908322134,-23.1459461389372,18.2798848818846,4.86606125705258
1.656283566058,517,506,-28.4928912142086,-28.033531671684,35.3864342464985,-7.35290257481447
1.65843179377014,516,508,-13.8301346159682,-30.4773244380574,25.6112631810048,4.86606125705258
1.66058002148228,516,506,-23.6053056814618,-25.5897389053106,30.4988487137516,-4.90910980844106
1.66272824919441,519,504,-48.0432333451959,-28.033531671684,50.0491908447389,-22.0156591730549
1.66487647690655,520,505,-48.0432333451959,-32.9211172044308,52.4929836111123,-19.5718664066815
1.66702470461869,520,508,-33.3804767469554,-40.252495503551,45.1616053119921,-4.90910980844106
1.66917293233083,521,509,-33.3804767469554,-45.1400810362979,47.6053980783655,-2.46531704206765
1.67132116004296,519,512,-8.94254908322134,-47.5838738026713,30.4988487137516,17.0850250889196
1.6734693877551,517,509,-13.8301346159682,-35.3649099708042,28.0550559473782,7.30985402342599
1.67561761546724,515,508,-8.94254908322134,-28.033531671684,20.723677648258,7.30985402342599
1.67776584317938,517,510,-8.94254908322134,-37.8087027371776,25.6112631810048,12.1974395561728
1.67991407089151,521,511,-23.6053056814618,-50.0276665690447,42.7178125456187,7.30985402342598
1.68206229860365,526,512,-43.1556478124491,-64.6904231672851,64.7119474429794,-0.0215242756942331
1.68421052631579,531,513,-62.7059899434364,-79.3531797655256,86.7060823403401,-7.35290257481447
1.68635875402793,534,517,-57.8184044106895,-96.4597291301394,91.5936678730869,4.86606125705258
1.68850698174006,533,519,-43.1556478124491,-98.9035218965129,81.8184968075932,17.0850250889196
1.6906552094522,532,521,-28.4928912142086,-101.347314662886,72.0433257420996,29.3039889207867
1.69280343716434,533,523,-23.6053056814618,-108.678692962006,72.0433257420996,36.6353672199069
1.69495166487648,536,524,-33.3804767469554,-118.4538640275,84.2622895739667,34.1915744535335
1.69709989258861,534,523,-28.4928912142086,-111.12248572838,76.9309112748464,34.1915744535335
1.69924812030075,531,521,-23.6053056814618,-98.9035218965129,67.1557402093528,31.7477816871601
1.70139634801289,532,518,-43.1556478124491,-94.015936363766,79.3747040412198,14.6412323225462
1.70354457572503,532,521,-28.4928912142086,-101.347314662886,72.0433257420996,29.3039889207867
1.70569280343716,528,523,0.832621982272286,-96.4597291301395,47.6053980783655,48.8543310517739
1.7078410311493,531,524,-8.94254908322134,-106.234900195633,59.8243619102325,46.4105382854005
1.70998925886144,533,526,-8.94254908322134,-116.010071261127,64.7119474429794,51.2981238181474
1.71213748657358,534,526,-13.8301346159681,-118.4538640275,69.5995329757262,48.854331051774
1.71428571428571,533,524,-18.717720148715,-111.12248572838,69.5995329757262,41.5229527526537
1.71643394199785,532,521,-28.4928912142086,-101.347314662886,72.0433257420996,29.3039889207867
1.71858216970999,530,519,-28.4928912142086,-91.5721435973926,67.1557402093528,24.4164033880399
1.72073039742213,529,522,-8.94254908322134,-96.4597291301395,54.9367763774857,41.5229527526537
1.72287862513426,530,522,-13.8301346159681,-98.9035218965129,59.8243619102325,39.0791599862803
1.7250268528464,531,526,0.8326219822723,-111.12248572838,54.9367763774857,56.1857093508942
1.72717508055854,531,526,0.8326219822723,-111.12248572838,54.9367763774857,56.1857093508942
1.72932330827068,534,527,-8.94254908322134,-120.897656793874,67.1557402093528,53.7419165845208
1.73147153598281,533,525,-13.8301346159682,-113.566278494753,67.1557402093528,46.4105382854005
1.73361976369495,533,523,-23.6053056814618,-108.678692962006,72.0433257420996,36.6353672199069
1.73576799140709,533,521,-33.3804767469554,-103.79110742926,76.9309112748464,26.8601961544133
1.73791621911923,531,522,-18.717720148715,-101.347314662886,64.7119474429794,36.6353672199069
1.74006444683136,524,522,15.4953785805127,-84.2407652982724,30.4988487137516,53.7419165845208
1.7422126745435,524,524,25.2705496460064,-89.1283508310192,25.6112631810048,63.5170876500144
1.74436090225564,522,522,25.2705496460064,-79.3531797655256,20.723677648258,58.6295021172676
1.74650912996778,521,522,30.1581351787532,-76.9093869991522,15.8360921155112,61.073294883641
1.74865735767991,521,523,35.0457207115,-79.3531797655256,13.3922993491378,65.9608804163878
1.75080558539205,522,520,15.4953785805128,-74.4655942327788,25.6112631810048,48.854331051774
1.75295381310419,521,516,0.8326219822723,-62.2466304009117,30.4988487137516,31.7477816871601
1.75510204081633,517,515,15.4953785805127,-50.0276665690447,13.3922993491378,36.6353672199069
1.75725026852846,513,514,30.1581351787532,-37.8087027371776,-3.7142500154761,41.5229527526537
1.7593984962406,512,515,39.9333062442468,-37.8087027371776,-11.0456283145963,48.8543310517739
1.76154672395274,513,514,30.1581351787532,-37.8087027371776,-3.7142500154761,41.5229527526537
1.76369495166488,509,514,49.7084773097405,-28.033531671684,-23.2645921464634,51.2981238181474
1.76584317937701,510,512,35.0457207115,-25.5897389053106,-13.4894210809697,39.0791599862803
1.76799140708915,506,507,30.1581351787532,-3.59560400794989,-20.82079938009,24.4164033880399
1.77013963480129,502,503,30.1581351787532,15.9547381230374,-30.5959704455836,14.6412323225462
1.77228786251343,497,499,35.0457207115,37.9488730203981,-45.2587270438241,7.30985402342599
1.77443609022556,493,499,54.5960628424873,47.7240440858917,-64.8090691748113,17.0850250889196
1.7765843179377,496,499,39.9333062442469,40.3926657867715,-50.1463125765709,9.7536467897994
1.77873254564984,497,500,39.9333062442469,35.5050802540247,-47.7025198101975,12.1974395561728
1.78088077336198,499,501,35.0457207115,28.1737019549044,-40.3711415110772,12.1974395561728
1.78302900107411,500,500,25.2705496460064,28.1737019549044,-33.039763211957,4.86606125705258
1.78517722878625,499,501,35.0457207115,28.1737019549044,-40.3711415110772,12.1974395561728
1.78732545649839,500,497,10.6077930477659,35.5050802540247,-25.7083849128368,-9.79669534118788
1.78947368421053,499,492,-8.94254908322134,50.1678368522651,-18.3770066137166,-31.7908302385486
1.79162191192266,497,493,5.72020751501911,52.6116296186385,-30.5959704455836,-22.0156591730549
1.7937701396348,496,494,15.4953785805128,52.6116296186385,-37.9273487447038,-14.6842808739347
1.79591836734694,492,494,35.0457207115,62.3868006841322,-57.4776908756911,-4.90910980844106
1.79806659505908,494,493,20.3829641132596,59.9430079177588,-45.2587270438241,-14.6842808739347
1.80021482277121,498,493,0.832621982272293,50.1678368522651,-25.7083849128368,-24.4594519394283
1.80236305048335,497,493,5.72020751501911,52.6116296186385,-30.5959704455836,-22.0156591730549
1.80451127819549,499,492,-8.94254908322134,50.1678368522651,-18.3770066137166,-31.7908302385486
1.80665950590763,500,490,-23.6053056814618,52.6116296186385,-8.60183554822292,-44.0097940704156
1.80880773361976,504,491,-38.2680622797023,40.3926657867715,8.50471381639095,-48.8973796031624
1.8109559613319,503,493,-23.6053056814618,37.9488730203981,-1.27045724910268,-36.6784157712954
1.81310418904404,505,493,-33.3804767469554,33.0612874876512,8.50471381639095,-41.5660013040422
1.81525241675618,502,491,-28.4928912142086,45.2802513195183,-1.27045724910268,-44.0097940704156
1.81740064446831,498,491,-8.94254908322134,55.0554223850119,-20.82079938009,-34.234623004922
1.81954887218045,497,489,-13.8301346159682,62.3868006841322,-20.82079938009,-41.5660013040422
1.82169709989259,490,487,10.6077930477659,84.3809355814928,-50.1463125765709,-34.234623004922
1.82384532760473,485,480,0.8326219822723,113.706448777974,-57.4776908756911,-56.2287579022827
1.82599355531686,484,478,-4.05496355047498,121.037827077094,-57.4776908756909,-63.5601362014033
1.828141783029,490,481,-18.717720148715,99.0436921797333,-35.4835559783304,-63.5601362014029
1.83029001074114,496,486,-23.6053056814618,72.1619717496258,-18.3770066137166,-53.7849651359092
1.83243823845328,500,489,-28.4928912142086,55.0554223850119,-6.1580427818495,-48.8973796031624
1.83458646616541,498,489,-18.717720148715,59.9430079177587,-15.9332138473431,-44.0097940704156
1.83673469387755,495,488,-8.94254908322134,69.7181789832524,-28.1521776792102,-41.5660013040422
1.83888292158969,493,489,5.72020751501911,72.1619717496258,-40.3711415110772,-31.7908302385486
1.84103114930183,494,485,-18.717720148715,79.493350048746,-25.7083849128368,-53.7849651359092
1.84317937701396,500,485,-48.0432333451959,64.8305934505056,3.61712828364413,-68.4477217341497
1.8453276047261,500,489,-28.4928912142086,55.0554223850119,-6.1580427818495,-48.8973796031624
1.84747583243824,504,492,-33.3804767469554,37.9488730203981,6.06092105001754,-44.0097940704156
1.84962406015038,501,491,-23.6053056814618,47.7240440858917,-6.1580427818495,-41.5660013040422
1.85177228786251,496,491,0.832621982272293,59.9430079177587,-30.5959704455836,-29.3470374721752
1.85392051557465,493,491,15.4953785805127,67.274386216879,-45.2587270438241,-22.0156591730549
1.85606874328679,492,489,10.6077930477659,74.6057645159992,-45.258727043824,-29.3470374721752
1.85821697099893,492,488,5.72020751501911,77.0495572823726,-42.8149342774506,-34.234623004922
1.86036519871106,493,484,-18.717720148715,84.3809355814928,-28.1521776792102,-56.2287579022827
1.8625134264232,496,486,-23.6053056814618,72.1619717496258,-18.3770066137166,-53.7849651359092
1.86466165413534,493,489,5.72020751501911,72.1619717496258,-40.3711415110772,-31.7908302385486
1.86680988184748,495,490,0.8326219822723,64.8305934505056,-33.039763211957,-31.7908302385486
1.86895810955961,499,491,-13.8301346159682,52.6116296186385,-15.9332138473431,-36.6784157712954
1.87110633727175,499,494,0.8326219822723,45.2802513195183,-23.2645921464634,-22.0156591730549
1.87325456498389,499,494,0.8326219822723,45.2802513195183,-23.2645921464634,-22.0156591730549
1.87540279269603,497,489,-13.8301346159682,62.3868006841322,-20.82079938009,-41.5660013040422
1.87755102040816,494,488,-4.05496355047451,72.1619717496258,-33.039763211957,-39.1222085376688
1.8796992481203,494,485,-18.717720148715,79.493350048746,-25.7083849128368,-53.7849651359092
1.88184747583244,496,488,-13.8301346159682,67.274386216879,-23.2645921464634,-44.0097940704156
1.88399570354458,497,490,-8.94254908322134,59.9430079177587,-23.2645921464634,-36.6784157712954
1.88614393125671,498,493,0.832621982272293,50.1678368522651,-25.7083849128368,-24.4594519394283
1.88829215896885,500,494,-4.05496355047452,42.8364585531449,-18.3770066137166,-24.4594519394283
1.89044038668099,502,497,0.832621982272297,30.6174947212778,-15.9332138473431,-14.6842808739347
1.89258861439313,501,494,-8.94254908322134,40.3926657867715,-13.4894210809697,-26.9032447058017
1.89473684210526,501,492,-18.717720148715,45.2802513195183,-8.60183554822292,-36.6784157712954
1.8968850698174,499,491,-13.8301346159682,52.6116296186385,-15.9332138473431,-36.6784157712954
1.89903329752954,501,490,-28.4928912142086,50.1678368522651,-3.7142500154761,-46.453586836789
1.90118152524168,499,491,-13.8301346159682,52.6116296186385,-15.9332138473431,-36.6784157712954
1.90332975295381,498,494,5.72020751501912,47.7240440858917,-28.1521776792102,-19.5718664066815
1.90547798066595,499,493,-4.05496355047453,47.7240440858917,-20.82079938009,-26.9032447058017
1.90762620837809,502,496,-4.05496355047452,33.0612874876512,-13.4894210809697,-19.5718664066815
1.90977443609023,509,499,-23.6053056814618,8.62335982391715,13.3922993491378,-22.0156591730549
1.91192266380236,510,498,-33.3804767469554,8.62335982391715,20.723677648258,-29.3470374721752
1.9140708915145,512,497,-48.0432333451959,6.17956705754374,32.942641480125,-39.1222085376688
1.91621911922664,512,498,-43.1556478124491,3.73577429117034,30.4988487137516,-34.234623004922
1.91836734693878,512,499,-38.2680622797022,1.29198152479693,28.0550559473782,-29.3470374721752
1.92051557465091,511,501,-23.6053056814618,-1.15181124157648,18.2798848818846,-17.1280736403081
1.92266380236305,509,502,-8.94254908322134,1.29198152479693,6.06092105001754,-7.35290257481447
1.92481203007519,508,501,-8.94254908322134,6.17956705754374,3.61712828364413,-9.79669534118788
1.92696025778733,506,502,5.72020751501912,8.62335982391715,-8.60183554822291,-0.0215242756942402
1.92910848549946,508,500,-13.8301346159682,8.62335982391715,6.06092105001754,-14.6842808739347
1.9312567132116,509,498,-28.4928912142086,11.0671525902906,15.8360921155112,-26.9032447058017
1.93340494092374,510,500,-23.6053056814618,3.73577429117034,15.8360921155112,-19.5718664066815
1.93555316863588,512,501,-28.4928912142086,-3.59560400794989,23.1674704146314,-19.5718664066815
1.93770139634801,515,502,-38.2680622797022,-13.3707750734435,35.3864342464985,-22.0156591730549
1.93984962406015,513,505,-13.8301346159682,-15.8145678398169,18.2798848818846,-2.46531704206765
1.94199785177229,515,507,-13.8301346159682,-25.5897389053106,23.1674704146314,2.42226849067917
1.94414607948443,517,509,-13.8301346159682,-35.3649099708042,28.0550559473782,7.30985402342599
1.94629430719656,517,506,-28.4928912142086,-28.033531671684,35.3864342464985,-7.35290257481447
1.9484425349087,515,505,-23.6053056814618,-20.7021533725638,28.0550559473782,-7.35290257481447
1.95059076262084,512,503,-18.717720148715,-8.48318954069671,18.2798848818846,-9.79669534118788
1.95273899033298,511,505,-4.05496355047452,-10.9269823070701,8.50471381639095,2.42226849067917
1.95488721804511,506,502,5.72020751501912,8.62335982391715,-8.60183554822291,-0.0215242756942402
1.95703544575725,504,503,20.3829641132596,11.0671525902906,-20.82079938009,9.7536467897994
1.95918367346939,502,503,30.1581351787532,15.9547381230374,-30.5959704455836,14.6412323225462
1.96133190118153,502,504,35.0457207115,13.510945356664,-33.039763211957,19.528817855293
1.96348012889366,506,504,15.4953785805128,3.73577429117034,-13.4894210809697,9.7536467897994
1.9656283566058,508,502,-4.05496355047452,3.73577429117034,1.17333551727072,-4.90910980844106
1.96777658431794,507,500,-8.94254908322134,11.0671525902906,1.17333551727072,-12.2404881075613
1.96992481203008,507,501,-4.05496355047452,8.62335982391715,-1.27045724910269,-7.35290257481447
1.97207303974221,505,502,10.6077930477659,11.0671525902906,-13.4894210809697,2.42226849067917
1.97422126745435,505,501,5.72020751501912,13.510945356664,-11.0456283145963,-2.46531704206765
1.97636949516649,509,501,-13.8301346159682,3.73577429117034,8.50471381639095,-12.2404881075613
1.97851772287863,505,504,20.3829641132596,6.17956705754374,-18.3770066137166,12.1974395561728
1.98066595059076,503,502,20.3829641132596,15.9547381230374,-23.2645921464634,7.30985402342599
1.9828141783029,501,498,10.6077930477659,30.6174947212778,-23.2645921464634,-7.35290257481447
1.98496240601504,498,494,5.72020751501912,47.7240440858917,-28.1521776792102,-19.5718664066815
1.98711063372718,495,493,15.4953785805127,57.4992151513853,-40.3711415110772,-17.1280736403081
1.98925886143931,494,493,20.3829641132596,59.9430079177588,-45.2587270438241,-14.6842808739347
1.99140708915145,491,492,30.1581351787532,69.7181789832524,-57.4776908756911,-12.2404881075613
1.99355531686359,492,492,25.2705496460064,67.274386216879,-52.5901053429443,-14.6842808739347
1.99570354457572,492,496,44.8208917769937,57.4992151513853,-62.3652764084379,4.86606125705258
1.99785177228786,493,493,25.2705496460064,62.3868006841322,-50.1463125765709,-12.2404881075613
2,493,492,20.3829641132596,64.8305934505056,-47.7025198101975,-17.1280736403081
2.00214822771214,493,490,10.6077930477659,69.7181789832524,-42.8149342774506,-26.9032447058017
2.00429645542427,489,489,25.2705496460064,81.9371428151194,-59.9214836420645,-22.0156591730549
2.00644468313641,488,486,15.4953785805127,91.7123138806131,-57.4776908756911,-34.234623004922
2.00859291084855,488,488,25.2705496460064,86.8247283478663,-62.3652764084379,-24.4594519394283
2.01074113856069,491,489,15.4953785805127,77.0495572823726,-50.1463125765709,-26.9032447058017
2.01288936627282,494,490,5.72020751501913,67.274386216879,-37.9273487447038,-29.3470374721751
2.01503759398496,495,492,10.6077930477659,59.9430079177587,-37.9273487447038,-22.0156591730549
2.0171858216971,494,491,10.6077930477659,64.8305934505056,-40.3711415110772,-24.4594519394283
2.01933404940924,491,485,-4.05496355047453,86.8247283478663,-40.3711415110772,-46.453586836789
2.02148227712137,485,484,20.3829641132596,103.93127771248,-67.2528619411847,-36.6784157712954
2.02363050483351,485,481,5.72020751501911,111.2626560116,-59.9214836420645,-51.3411723695358
2.02577873254565,485,482,10.6077930477659,108.818863245227,-62.3652764084379,-46.453586836789
2.02792696025779,487,486,20.3829641132596,94.1561066469865,-62.3652764084379,-31.7908302385486
2.03007518796993,488,485,10.6077930477659,94.1561066469865,-55.0338981093177,-39.1222085376688
2.03222341568206,489,489,25.2705496460064,81.9371428151194,-59.9214836420645,-22.0156591730549
2.0343716433942,488,488,25.2705496460064,86.8247283478663,-62.3652764084379,-24.4594519394283
2.03651987110634,486,485,20.3829641132596,99.0436921797333,-64.8090691748113,-34.234623004922
2.03866809881847,483,479,5.72020751501867,121.037827077094,-64.8090691748111,-56.2287579022831
2.04081632653061,477,477,25.2705496460064,140.588169208082,-89.2469968385457,-51.3411723695361
2.04296455424275,479,478,20.3829641132596,133.256790908961,-81.9156185394254,-51.3411723695361
2.04511278195489,481,479,15.4953785805123,125.925412609841,-74.5842402403048,-51.3411723695363
2.04726100966702,485,480,0.8326219822723,113.706448777974,-57.4776908756911,-56.2287579022827
2.04940923737916,486,481,0.8326219822723,108.818863245227,-55.0338981093177,-53.7849651359092
2.0515574650913,485,482,10.6077930477659,108.818863245227,-62.3652764084379,-46.453586836789
2.05370569280344,486,482,5.72020751501913,106.375070478854,-57.4776908756911,-48.8973796031624
2.05585392051557,491,481,-23.6053056814618,96.5998994133599,-30.5959704455836,-66.0039289677763
2.05800214822771,502,487,-48.0432333451959,55.0554223850119,8.50471381639095,-63.5601362014029
2.06015037593985,521,495,-101.806674205411,-10.9269823070701,81.8184968075932,-70.8915145005231
2.06229860365199,540,504,-150.682529532879,-79.3531797655256,152.688487032422,-73.3353072668965
2.06444683136412,561,518,-184.895628262107,-164.885926588595,221.114684490878,-56.2287579022826
2.06659505907626,581,529,-228.883898056829,-240.643502346171,291.984674715707,-51.3411723695361
2.0687432867884,598,542,-248.434240187816,-313.957285337373,343.304322809548,-29.3470374721754
2.07089151450054,611,553,-258.20941125331,-372.608311730335,379.96121430515,-7.35290257481469
2.07303974221267,619,558,-272.87216785155,-404.377617693189,406.842934735257,-2.46531704206791
2.07518796992481,616,562,-238.659069122322,-406.821410459563,382.405007071523,24.4164033880396
2.07733619763695,605,560,-194.670799327601,-375.052104496708,333.529151744055,41.5229527526535
2.07948442534909,586,559,-106.694259738158,-326.17624916924,243.108819388239,83.0674297810015
2.08163265306122,563,552,-28.4928912142086,-252.862466178038,147.800901499675,105.061564678362
2.08378088077336,539,545,54.5960628424873,-177.104890420462,47.6053980783655,129.499492342096
2.0859291084855,519,535,103.471918169955,-103.79110742926,-25.7083849128368,129.499492342096
2.08807733619764,501,527,152.347773497424,-40.252495503551,-94.1345823712922,134.387077874843
2.09022556390977,487,515,162.122944562917,23.2861164221576,-133.235266633267,109.949150211109
2.09237379162191,476,508,181.673286693905,67.2743862168792,-169.892158128868,102.617771911989
2.09452201933405,477,500,137.685016899184,84.3809355814931,-145.454230465134,61.0732948836412
2.09667024704619,478,500,132.797431366437,81.9371428151197,-140.566644932387,58.6295021172678
2.09881847475832,480,499,118.134674768196,79.493350048746,-128.34768110052,48.8543310517739
2.10096670247046,484,501,108.359503702702,64.8305934505056,-113.68492450228,48.8543310517739
2.1031149301826,492,500,64.3712339079809,47.7240440858917,-72.1404474739315,24.4164033880398
2.10526315789474,496,500,44.8208917769937,37.9488730203981,-52.5901053429443,14.6412323225462
2.10741138560687,496,499,39.9333062442469,40.3926657867715,-50.1463125765709,9.7536467897994
2.10955961331901,496,499,39.9333062442469,40.3926657867715,-50.1463125765709,9.7536467897994
2.11170784103115,493,493,25.2705496460064,62.3868006841322,-50.1463125765709,-12.2404881075613
2.11385606874329,494,494,25.2705496460064,57.4992151513853,-47.7025198101975,-9.79669534118787
2.11600429645542,493,495,35.0457207115,57.4992151513853,-55.0338981093177,-2.46531704206765
2.11815252416756,491,495,44.8208917769937,62.3868006841322,-64.8090691748113,2.42226849067917
2.1203007518797,492,495,39.9333062442468,59.9430079177587,-59.9214836420645,-0.0215242756942473
2.12244897959184,493,496,39.9333062442469,55.0554223850119,-57.4776908756911,2.42226849067917
2.12459720730397,494,495,30.1581351787532,55.0554223850119,-50.1463125765709,-4.90910980844106
2.12674543501611,492,493,30.1581351787532,64.8305934505056,-55.0338981093177,-9.79669534118788
2.12889366272825,494,490,5.72020751501913,67.274386216879,-37.9273487447038,-29.3470374721751
2.13104189044039,490,487,10.6077930477659,84.3809355814928,-50.1463125765709,-34.234623004922
2.13319011815252,486,489,39.9333062442469,89.2685211142397,-74.584240240305,-14.6842808739347
2.13533834586466,488,490,35.0457207115,81.9371428151194,-67.2528619411847,-14.6842808739347
2.1374865735768,492,490,15.4953785805127,72.1619717496258,-47.7025198101975,-24.4594519394283
2.13963480128894,491,490,20.3829641132596,74.6057645159992,-52.5901053429443,-22.0156591730549
2.14178302900107,492,490,15.4953785805127,72.1619717496258,-47.7025198101975,-24.4594519394283
2.14393125671321,491,491,25.2705496460064,72.1619717496258,-55.0338981093177,-17.1280736403081
2.14607948442535,490,485,0.8326219822723,89.2685211142397,-45.2587270438241,-44.0097940704156
2.14822771213749,488,483,0.832621982272286,99.0436921797333,-50.1463125765709,-48.8973796031624
2.15037593984962,488,485,10.6077930477659,94.1561066469865,-55.0338981093177,-39.1222085376688
2.15252416756176,488,486,15.4953785805127,91.7123138806131,-57.4776908756911,-34.234623004922
2.1546723952739,492,486,-4.05496355047453,81.9371428151194,-37.9273487447038,-44.0097940704156
2.15682062298604,495,492,10.6077930477659,59.9430079177587,-37.9273487447038,-22.0156591730549
2.15896885069817,498,491,-8.94254908322134,55.0554223850119,-20.82079938009,-34.234623004922
2.16111707841031,501,492,-18.717720148715,45.2802513195183,-8.60183554822292,-36.6784157712954
2.16326530612245,497,490,-8.94254908322134,59.9430079177587,-23.2645921464634,-36.6784157712954
2.16541353383459,489,486,10.6077930477659,89.2685211142397,-52.5901053429443,-36.6784157712954
2.16756176154672,491,486,0.8326219822723,84.3809355814928,-42.8149342774506,-41.5660013040422
2.16970998925886,494,489,0.8326219822723,69.7181789832524,-35.4835559783304,-34.234623004922
2.171858216971,498,490,-13.8301346159682,57.4992151513853,-18.3770066137166,-39.1222085376688
2.17400644468314,499,494,0.8326219822723,45.2802513195183,-23.2645921464634,-22.0156591730549
2.17615467239527,502,493,-18.717720148715,40.3926657867715,-6.1580427818495,-34.234623004922
2.17830290010741,505,498,-8.94254908322134,20.8423236557842,-3.71425001547609,-17.1280736403081
2.18045112781955,504,495,-18.717720148715,30.6174947212778,-1.27045724910268,-29.3470374721752
2.18259935553169,506,494,-33.3804767469554,28.1737019549044,10.9485065827644,-39.1222085376688
2.18474758324382,502,492,-23.6053056814618,42.8364585531449,-3.7142500154761,-39.1222085376688
2.18689581095596,500,495,0.832621982272293,40.3926657867715,-20.82079938009,-19.5718664066815
2.1890440386681,497,494,10.6077930477659,50.1678368522651,-33.039763211957,-17.1280736403081
2.19119226638024,497,494,10.6077930477659,50.1678368522651,-33.039763211957,-17.1280736403081
2.19334049409237,503,496,-8.94254908322134,30.6174947212778,-8.60183554822292,-22.0156591730549
2.19548872180451,506,498,-13.8301346159682,18.3985308894108,1.17333551727072,-19.5718664066815
2.19763694951665,511,499,-33.3804767469554,3.73577429117034,23.1674704146314,-26.9032447058017
2.19978517722879,512,497,-48.0432333451959,6.17956705754374,32.942641480125,-39.1222085376688
2.20193340494092,510,498,-33.3804767469554,8.62335982391715,20.723677648258,-29.3470374721752
2.20408163265306,514,501,-38.2680622797022,-8.48318954069671,32.942641480125,-24.4594519394283
2.2062298603652,511,501,-23.6053056814618,-1.15181124157648,18.2798848818846,-17.1280736403081
2.20837808807734,510,502,-13.8301346159682,-1.15181124157648,10.9485065827644,-9.79669534118788
2.21052631578947,509,503,-4.05496355047452,-1.15181124157648,3.61712828364413,-2.46531704206765
2.21267454350161,509,504,0.832621982272297,-3.59560400794989,1.17333551727072,2.42226849067917
2.21482277121375,509,503,-4.05496355047452,-1.15181124157648,3.61712828364413,-2.46531704206765
2.21697099892589,510,500,-23.6053056814618,3.73577429117034,15.8360921155112,-19.5718664066815
2.21911922663802,508,499,-18.717720148715,11.0671525902906,8.50471381639095,-19.5718664066815
2.22126745435016,507,499,-13.8301346159682,13.510945356664,3.61712828364413,-17.1280736403081
2.2234156820623,505,500,0.832621982272297,15.9547381230374,-8.60183554822291,-7.35290257481447
2.22556390977444,504,500,5.72020751501912,18.3985308894108,-13.4894210809697,-4.90910980844106
2.22771213748657,502,499,10.6077930477659,25.729909188531,-20.82079938009,-4.90910980844106
2.22986036519871,501,500,20.3829641132596,25.729909188531,-28.1521776792102,2.42226849067917
2.23200859291085,507,504,10.6077930477659,1.29198152479693,-8.60183554822291,7.30985402342599
2.23415682062299,514,504,-23.6053056814618,-15.8145678398169,25.6112631810048,-9.79669534118788
2.23630504833512,518,504,-43.1556478124491,-25.5897389053106,45.1616053119921,-19.5718664066815
2.23845327604726,521,505,-52.9308188779427,-35.3649099708042,57.3805691438591,-22.0156591730549
2.2406015037594,523,511,-33.3804767469554,-54.9152521017915,52.4929836111123,2.42226849067917
2.24274973147154,521,510,-28.4928912142086,-47.5838738026713,45.1616053119921,2.42226849067917
2.24489795918367,519,511,-13.8301346159682,-45.1400810362979,32.942641480125,12.1974395561728
2.24704618689581,524,514,-23.6053056814618,-64.6904231672851,50.0491908447389,14.6412323225462
2.24919441460795,525,516,-18.717720148715,-72.0218014664053,50.0491908447389,21.9726106216664
2.25134264232009,526,513,-38.2680622797022,-67.1342159336585,62.268154676606,4.86606125705258
2.25349087003222,527,512,-48.0432333451959,-67.1342159336585,69.5995329757262,-2.46531704206765
2.25563909774436,525,513,-33.3804767469554,-64.6904231672851,57.3805691438591,7.30985402342598
2.2577873254565,528,515,-38.2680622797023,-76.9093869991522,67.1557402093528,9.75364678979939
2.25993555316864,529,516,-38.2680622797022,-81.796972531899,69.5995329757262,12.1974395561728
2.26208378088077,526,518,-13.8301346159681,-79.3531797655256,50.0491908447389,29.3039889207867
2.26423200859291,526,519,-8.94254908322134,-81.796972531899,47.6053980783655,34.1915744535335
2.26638023630505,524,519,0.832621982272286,-76.9093869991522,37.8302270128719,39.0791599862803
2.26852846401719,523,515,-13.8301346159682,-64.6904231672851,42.7178125456187,21.9726106216664
2.27067669172932,523,515,-13.8301346159682,-64.6904231672851,42.7178125456187,21.9726106216664
2.27282491944146,524,516,-13.8301346159682,-69.5780087000319,45.1616053119921,24.4164033880399
2.2749731471536,528,518,-23.6053056814618,-84.2407652982724,59.8243619102326,24.4164033880399
2.27712137486574,531,520,-28.4928912142086,-96.4597291301395,69.5995329757262,26.8601961544133
2.27926960257787,536,522,-43.1556478124491,-113.566278494753,89.1498751067135,24.4164033880399
2.28141783029001,536,523,-38.2680622797023,-116.010071261127,86.7060823403401,29.3039889207867
2.28356605800215,534,527,-8.94254908322134,-120.897656793874,67.1557402093528,53.7419165845208
2.28571428571429,533,526,-8.94254908322134,-116.010071261127,64.7119474429794,51.2981238181474
2.28786251342642,536,525,-28.4928912142086,-120.897656793874,81.8184968075932,39.0791599862803
2.29001074113856,535,523,-33.3804767469554,-113.566278494753,81.8184968075932,31.7477816871601
2.2921589688507,533,524,-18.717720148715,-111.12248572838,69.5995329757262,41.5229527526537
2.29430719656284,532,524,-13.8301346159682,-108.678692962006,64.7119474429794,43.9667455190271
2.29645542427497,530,524,-4.05496355047451,-103.79110742926,54.9367763774857,48.854331051774
2.29860365198711,528,525,10.6077930477659,-101.347314662886,42.7178125456187,58.6295021172676
2.30075187969925,526,525,20.3829641132596,-96.4597291301394,32.942641480125,63.5170876500144
2.30290010741139,527,524,10.6077930477659,-96.4597291301395,40.2740197792453,56.1857093508942
2.30504833512352,529,524,0.8326219822723,-101.347314662886,50.0491908447389,51.2981238181474
2.30719656283566,532,523,-18.717720148715,-106.234900195633,67.1557402093528,39.0791599862803
2.3093447905478,530,523,-8.94254908322134,-101.347314662886,57.3805691438591,43.9667455190271
2.31149301825994,530,522,-13.8301346159681,-98.9035218965129,59.8243619102325,39.0791599862803
2.31364124597207,529,522,-8.94254908322134,-96.4597291301395,54.9367763774857,41.5229527526537
2.31578947368421,531,525,-4.05496355047453,-108.678692962006,57.3805691438591,51.2981238181474
2.31793770139635,526,525,20.3829641132596,-96.4597291301394,32.942641480125,63.5170876500144
2.32008592910849,525,523,15.4953785805127,-89.1283508310192,32.942641480125,56.1857093508942
2.32223415682062,520,520,25.2705496460064,-69.5780087000319,15.8360921155112,53.7419165845208
2.32438238453276,517,517,25.2705496460064,-54.9152521017915,8.50471381639095,46.4105382854005
2.3265306122449,516,515,20.3829641132596,-47.5838738026713,8.50471381639095,39.0791599862803
2.32867883995704,514,515,30.1581351787532,-42.6962882699244,-1.27045724910268,43.9667455190271
2.33082706766917,515,515,25.2705496460064,-45.1400810362979,3.61712828364413,41.5229527526537
2.33297529538131,516,515,20.3829641132596,-47.5838738026713,8.50471381639095,39.0791599862803
2.33512352309345,514,516,35.0457207115,-45.1400810362979,-3.7142500154761,48.854331051774
2.33727175080559,514,517,39.9333062442468,-47.5838738026713,-6.1580427818495,53.7419165845208
2.33941997851772,516,515,20.3829641132596,-47.5838738026713,8.50471381639095,39.0791599862803
2.34156820622986,516,513,10.6077930477659,-42.6962882699244,13.3922993491378,29.3039889207867
2.343716433942,514,510,5.72020751501912,-30.4773244380574,10.9485065827644,19.528817855293
2.34586466165414,511,509,15.4953785805128,-20.7021533725638,-1.27045724910269,21.9726106216664
2.34801288936627,507,508,30.1581351787532,-8.48318954069671,-18.3770066137166,26.8601961544133
2.35016111707841,503,508,49.7084773097405,1.29198152479693,-37.9273487447038,36.6353672199069
2.35230934479055,501,506,49.7084773097405,11.0671525902906,-42.8149342774506,31.7477816871601
2.35445757250269,499,506,59.4836483752341,15.9547381230374,-52.5901053429443,36.6353672199069
2.35660580021482,498,504,54.5960628424873,23.2861164221576,-52.5901053429443,29.3039889207867
2.35875402792696,500,502,35.0457207115,23.2861164221576,-37.9273487447038,14.6412323225462
2.3609022556391,502,500,15.4953785805128,23.2861164221576,-23.2645921464634,-0.0215242756942402
2.36305048335124,500,499,20.3829641132596,30.6174947212778,-30.5959704455836,-0.0215242756942402
2.36519871106337,496,497,30.1581351787532,45.2802513195183,-45.2587270438241,-0.0215242756942402
2.36734693877551,499,498,20.3829641132596,35.5050802540247,-33.039763211957,-2.46531704206765
2.36949516648765,498,499,30.1581351787532,35.5050802540247,-40.3711415110772,4.86606125705258
2.37164339419978,495,499,44.8208917769937,42.8364585531449,-55.0338981093177,12.1974395561728
2.37379162191192,495,496,30.1581351787532,50.1678368522651,-47.7025198101975,-2.46531704206765
2.37593984962406,494,495,30.1581351787532,55.0554223850119,-50.1463125765709,-4.90910980844106
2.3780880773362,494,494,25.2705496460064,57.4992151513853,-47.7025198101975,-9.79669534118787
2.38023630504834,496,494,15.4953785805128,52.6116296186385,-37.9273487447038,-14.6842808739347
2.38238453276047,497,492,0.8326219822723,55.0554223850119,-28.1521776792102,-26.9032447058017
2.38453276047261,495,493,15.4953785805127,57.4992151513853,-40.3711415110772,-17.1280736403081
2.38668098818475,493,493,25.2705496460064,62.3868006841322,-50.1463125765709,-12.2404881075613
2.38882921589689,490,492,35.0457207115,72.1619717496258,-62.3652764084379,-9.79669534118787
2.39097744360902,490,493,39.9333062442469,69.7181789832524,-64.8090691748113,-4.90910980844106
2.39312567132116,490,492,35.0457207115,72.1619717496258,-62.3652764084379,-9.79669534118787
2.3952738990333,489,489,25.2705496460064,81.9371428151194,-59.9214836420645,-22.0156591730549
2.39742212674544,491,487,5.72020751501911,81.9371428151194,-45.2587270438241,-36.6784157712954
2.39957035445757,490,488,15.4953785805128,81.9371428151194,-52.5901053429443,-29.3470374721751
2.40171858216971,491,490,20.3829641132596,74.6057645159992,-52.5901053429443,-22.0156591730549
2.40386680988185,494,490,5.72020751501913,67.274386216879,-37.9273487447038,-29.3470374721751
2.40601503759398,497,493,5.72020751501911,52.6116296186385,-30.5959704455836,-22.0156591730549
2.40816326530612,504,494,-23.6053056814618,33.0612874876512,1.17333551727072,-34.234623004922
2.41031149301826,505,498,-8.94254908322134,20.8423236557842,-3.71425001547609,-17.1280736403081
2.4124597207304,507,497,-23.6053056814618,18.3985308894108,8.50471381639095,-26.9032447058017
2.41460794844253,506,495,-28.4928912142086,25.729909188531,8.50471381639095,-34.234623004922
2.41675617615467,504,492,-33.3804767469554,37.9488730203981,6.06092105001754,-44.0097940704156
2.41890440386681,500,492,-13.8301346159682,47.7240440858917,-13.4894210809697,-34.234623004922
2.42105263157895,493,492,20.3829641132596,64.8305934505056,-47.7025198101975,-17.1280736403081
2.42320085929108,492,492,25.2705496460064,67.274386216879,-52.5901053429443,-14.6842808739347
2.42534908700322,491,491,25.2705496460064,72.1619717496258,-55.0338981093177,-17.1280736403081
2.42749731471536,492,494,35.0457207115,62.3868006841322,-57.4776908756911,-4.90910980844106
2.4296455424275,497,495,15.4953785805127,47.7240440858917,-35.4835559783304,-12.2404881075613
2.43179377013963,500,494,-4.05496355047452,42.8364585531449,-18.3770066137166,-24.4594519394283
2.43394199785177,501,493,-13.8301346159682,42.8364585531449,-11.0456283145963,-31.7908302385486
2.43609022556391,501,494,-8.94254908322134,40.3926657867715,-13.4894210809697,-26.9032447058017
2.43823845327605,496,494,15.4953785805128,52.6116296186385,-37.9273487447038,-14.6842808739347
2.44038668098818,491,492,30.1581351787532,69.7181789832524,-57.4776908756911,-12.2404881075613
2.44253490870032,491,493,35.0457207115,67.274386216879,-59.9214836420645,-7.35290257481447
2.44468313641246,492,492,25.2705496460064,67.274386216879,-52.5901053429443,-14.6842808739347
2.4468313641246,493,494,30.1581351787532,59.9430079177587,-52.5901053429443,-7.35290257481446
2.44897959183673,494,492,15.4953785805128,62.3868006841322,-42.8149342774507,-19.5718664066815
2.45112781954887,499,491,-13.8301346159682,52.6116296186385,-15.9332138473431,-36.6784157712954
2.45327604726101,495,491,5.72020751501911,62.3868006841322,-35.4835559783304,-26.9032447058017
2.45542427497315,499,492,-8.94254908322134,50.1678368522651,-18.3770066137166,-31.7908302385486
2.45757250268528,498,493,0.832621982272293,50.1678368522651,-25.7083849128368,-24.4594519394283
2.45972073039742,499,496,10.6077930477659,40.3926657867715,-28.1521776792102,-12.2404881075613
2.46186895810956,501,496,0.8326219822723,35.5050802540247,-18.3770066137166,-17.1280736403081
2.4640171858217,500,496,5.72020751501912,37.9488730203981,-23.2645921464634,-14.6842808739347
2.46616541353383,497,492,0.8326219822723,55.0554223850119,-28.1521776792102,-26.9032447058017
2.46831364124597,494,489,0.8326219822723,69.7181789832524,-35.4835559783304,-34.234623004922
2.47046186895811,497,488,-18.717720148715,64.8305934505056,-18.3770066137166,-46.453586836789
2.47261009667025,495,490,0.8326219822723,64.8305934505056,-33.039763211957,-31.7908302385486
2.47475832438238,496,493,10.6077930477659,55.0554223850119,-35.4835559783304,-19.5718664066815
2.47690655209452,497,494,10.6077930477659,50.1678368522651,-33.039763211957,-17.1280736403081
2.47905477980666,500,496,5.72020751501912,37.9488730203981,-23.2645921464634,-14.6842808739347
2.4812030075188,498,495,10.6077930477659,45.2802513195183,-30.5959704455836,-14.6842808739347
2.48335123523093,494,494,25.2705496460064,57.4992151513853,-47.7025198101975,-9.79669534118787
2.48549946294307,493,492,20.3829641132596,64.8305934505056,-47.7025198101975,-17.1280736403081
2.48764769065521,496,488,-13.8301346159682,67.274386216879,-23.2645921464634,-44.0097940704156
2.48979591836735,495,490,0.8326219822723,64.8305934505056,-33.039763211957,-31.7908302385486
2.49194414607948,501,492,-18.717720148715,45.2802513195183,-8.60183554822292,-36.6784157712954
2.49409237379162,506,499,-8.94254908322134,15.9547381230374,-1.27045724910269,-14.6842808739347
2.49624060150376,508,499,-18.717720148715,11.0671525902906,8.50471381639095,-19.5718664066815
2.4983888292159,507,500,-8.94254908322134,11.0671525902906,1.17333551727072,-12.2404881075613
2.50053705692803,508,501,-8.94254908322134,6.17956705754374,3.61712828364413,-9.79669534118788
2.50268528464017,505,500,0.832621982272297,15.9547381230374,-8.60183554822291,-7.35290257481447
2.50483351235231,506,497,-18.717720148715,20.8423236557842,3.61712828364413,-24.4594519394283
2.50698174006445,507,499,-13.8301346159682,13.510945356664,3.61712828364413,-17.1280736403081
2.50912996777658,509,501,-13.8301346159682,3.73577429117034,8.50471381639095,-12.2404881075613
2.51127819548872,515,507,-13.8301346159682,-25.5897389053106,23.1674704146314,2.42226849067917
2.51342642320086,515,505,-23.6053056814618,-20.7021533725638,28.0550559473782,-7.35290257481447
2.515574650913,512,505,-8.94254908322134,-13.3707750734435,13.3922993491378,-0.0215242756942402
2.51772287862513,512,507,0.832621982272297,-18.2583606061904,8.50471381639095,9.7536467897994
2.51987110633727,510,506,5.72020751501912,-10.9269823070701,1.17333551727072,9.7536467897994
2.52201933404941,513,503,-23.6053056814618,-10.9269823070701,23.1674704146314,-12.2404881075613
2.52416756176155,514,503,-28.4928912142086,-13.3707750734435,28.0550559473782,-14.6842808739347
2.52631578947368,516,504,-33.3804767469554,-20.7021533725638,35.3864342464985,-14.6842808739347
2.52846401718582,512,505,-8.94254908322134,-13.3707750734435,13.3922993491378,-0.0215242756942402
2.53061224489796,511,506,0.832621982272297,-13.3707750734435,6.06092105001754,7.30985402342599
2.5327604726101,512,507,0.832621982272297,-18.2583606061904,8.50471381639095,9.7536467897994
2.53490870032223,513,509,5.72020751501912,-25.5897389053106,8.50471381639095,17.0850250889196
2.53705692803437,509,507,15.4953785805128,-10.9269823070701,-6.1580427818495,17.0850250889196
2.53920515574651,507,503,5.72020751501912,3.73577429117034,-6.1580427818495,2.42226849067917
2.54135338345865,511,501,-23.6053056814618,-1.15181124157648,18.2798848818846,-17.1280736403081
2.54350161117078,513,504,-18.717720148715,-13.3707750734435,20.723677648258,-7.35290257481447
2.54564983888292,518,509,-18.717720148715,-37.8087027371776,32.942641480125,4.86606125705258
2.54779806659506,518,510,-13.8301346159682,-40.252495503551,30.4988487137516,9.7536467897994
2.5499462943072,517,510,-8.94254908322134,-37.8087027371776,25.6112631810048,12.1974395561728
2.55209452201933,511,511,25.2705496460064,-25.5897389053106,-6.1580427818495,31.7477816871601
2.55424274973147,505,508,39.9333062442469,-3.59560400794989,-28.1521776792102,31.7477816871601
2.55639097744361,500,504,44.8208917769937,18.3985308894108,-42.8149342774506,24.4164033880399
2.55853920515575,496,500,44.8208917769937,37.9488730203981,-52.5901053429443,14.6412323225462
2.56068743286788,491,497,54.5960628424873,57.4992151513853,-69.6966547075582,12.1974395561728
2.56283566058002,491,496,49.7084773097405,59.9430079177587,-67.2528619411847,7.30985402342599
2.56498388829216,490,497,59.4836483752341,59.9430079177588,-74.584240240305,14.6412323225462
2.5671321160043,493,497,44.8208917769937,52.6116296186385,-59.9214836420645,7.30985402342599
2.56928034371643,499,500,30.1581351787532,30.6174947212778,-37.9273487447038,7.30985402342599
2.57142857142857,499,500,30.1581351787532,30.6174947212778,-37.9273487447038,7.30985402342599
2.57357679914071,498,498,25.2705496460064,37.9488730203981,-37.9273487447038,-0.0215242756942402
2.57572502685285,493,494,30.1581351787532,59.9430079177587,-52.5901053429443,-7.35290257481446
2.57787325456498,486,490,44.8208917769937,86.8247283478663,-77.0280330066784,-9.79669534118787
2.58002148227712,483,488,49.7084773097405,99.0436921797333,-86.803204072172,-12.2404881075613
2.58216970998926,484,490,54.5960628424873,91.7123138806131,-86.803204072172,-4.90910980844106
2.5843179377014,488,491,39.9333062442468,79.493350048746,-69.6966547075581,-9.79669534118788
2.58646616541353,493,495,35.0457207115,57.4992151513853,-55.0338981093177,-2.46531704206765
2.58861439312567,496,496,25.2705496460064,47.7240440858917,-42.8149342774506,-4.90910980844106
2.59076262083781,498,496,15.4953785805128,42.8364585531449,-33.039763211957,-9.79669534118787
2.59291084854995,492,491,20.3829641132596,69.7181789832524,-50.1463125765709,-19.5718664066815
2.59505907626208,492,489,10.6077930477659,74.6057645159992,-45.258727043824,-29.3470374721752
2.59720730397422,487,489,35.0457207115,86.8247283478663,-69.6966547075581,-17.1280736403081
2.59935553168636,489,490,30.1581351787532,79.493350048746,-62.3652764084379,-17.1280736403081
2.6015037593985,486,490,44.8208917769937,86.8247283478663,-77.0280330066784,-9.79669534118787
2.60365198711063,484,488,44.8208917769937,96.5998994133599,-81.9156185394252,-14.6842808739347
2.60580021482277,482,489,59.4836483752341,99.0436921797333,-94.1345823712923,-4.90910980844106
2.60794844253491,484,490,54.5960628424873,91.7123138806131,-86.803204072172,-4.90910980844106
2.61009667024705,486,485,20.3829641132596,99.0436921797333,-64.8090691748113,-34.234623004922
2.61224489795918,487,483,5.72020751501911,101.487484946107,-55.0338981093177,-46.453586836789
2.61439312567132,482,482,25.2705496460064,116.150241544347,-77.0280330066784,-39.1222085376688
2.61654135338346,486,485,20.3829641132596,99.0436921797333,-64.8090691748113,-34.234623004922
2.6186895810956,487,487,25.2705496460064,91.7123138806131,-64.8090691748113,-26.9032447058017
2.62083780880773,487,486,20.3829641132596,94.1561066469865,-62.3652764084379,-31.7908302385486
2.62298603651987,486,487,30.1581351787532,94.1561066469865,-69.6966547075582,-24.4594519394283
2.62513426423201,482,489,59.4836483752341,99.0436921797333,-94.1345823712923,-4.90910980844106
2.62728249194415,485,484,20.3829641132596,103.93127771248,-67.2528619411847,-36.6784157712954
2.62943071965628,487,484,10.6077930477659,99.0436921797333,-57.4776908756911,-41.5660013040422
2.63157894736842,491,483,-13.8301346159682,91.7123138806131,-35.4835559783304,-56.2287579022827
2.63372717508056,492,486,-4.05496355047453,81.9371428151194,-37.9273487447038,-44.0097940704156
2.6358754027927,495,487,-13.8301346159682,72.1619717496258,-25.7083849128368,-46.453586836789
2.63802363050483,500,490,-23.6053056814618,52.6116296186385,-8.60183554822292,-44.0097940704156
2.64017185821697,509,495,-43.1556478124491,18.3985308894108,23.1674704146314,-41.5660013040422
2.64232008592911,521,502,-67.5935754761832,-28.033531671684,64.7119474429794,-36.6784157712954
2.64446831364125,536,507,-116.469430803651,-76.9093869991522,125.806766602315,-48.8973796031624
2.64661654135338,555,514,-175.120457196613,-140.447998924861,201.56434235989,-61.1163434350295
2.64876476906552,574,524,-219.108726991335,-211.31798914969,269.990539818346,-58.6725506686561
2.65091299677766,593,538,-243.546654655069,-291.963150440012,328.641566211308,-36.6784157712956
2.6530612244898,607,549,-258.20941125331,-353.057969599348,370.186043239656,-17.1280736403083
2.65520945220193,616,559,-253.321825720563,-399.490032160442,389.736385370643,9.75364678979918
2.65735767991407,611,563,-209.333555925841,-397.046239394069,355.523286641416,41.5229527526535
2.65950590762621,601,565,-150.68252953288,-377.495897263082,301.759845781201,75.7360514818812
2.66165413533835,584,561,-87.1439176071709,-326.17624916924,228.446062789998,97.7301863792419
2.66380236305048,561,550,-28.4928912142086,-243.087295112544,142.913315966928,100.173979145616
2.66595059076262,539,542,39.9333062442468,-169.773512121342,54.9367763774857,114.836735743856
2.66809881847476,519,534,98.5843326372087,-101.347314662886,-23.2645921464634,124.61190680935
2.6702470461869,503,528,147.460187964677,-47.5838738026713,-86.803204072172,134.387077874843
2.67239527389903,491,520,167.010530095664,1.29198152479692,-125.903888334147,124.61190680935
2.67454350161117,480,513,186.560872226651,45.2802513195183,-162.560779829748,117.280528510229
2.67669172932331,476,509,186.560872226652,64.8305934505058,-172.335950895242,107.505357444736
2.67883995703545,477,505,162.122944562918,72.161971749626,-157.673194297001,85.5112225473753
2.68098818474758,478,502,142.57260243193,77.0495572823728,-145.454230465134,68.4046731827614
2.68313641245972,484,499,98.5843326372087,69.7181789832524,-108.797338969533,39.0791599862803
2.68528464017186,490,500,74.1464049734746,52.6116296186385,-81.9156185394252,29.3039889207867
2.687432867884,496,502,54.5960628424873,33.0612874876512,-57.4776908756911,24.4164033880399
2.68958109559613,500,500,25.2705496460064,28.1737019549044,-33.039763211957,4.86606125705258
2.69172932330827,502,503,30.1581351787532,15.9547381230374,-30.5959704455836,14.6412323225462
2.69387755102041,499,502,39.9333062442469,25.729909188531,-42.8149342774506,17.0850250889196
2.69602577873255,496,500,44.8208917769937,37.9488730203981,-52.5901053429443,14.6412323225462
2.69817400644468,495,496,30.1581351787532,50.1678368522651,-47.7025198101975,-2.46531704206765
2.70032223415682,492,492,25.2705496460064,67.274386216879,-52.5901053429443,-14.6842808739347
2.70247046186896,487,488,30.1581351787532,89.2685211142397,-67.2528619411847,-22.0156591730549
2.7046186895811,482,485,39.9333062442469,108.818863245227,-84.3594113057986,-24.4594519394283
2.70676691729323,476,483,59.4836483752346,128.369205376214,-108.797338969533,-19.5718664066813
2.70891514500537,478,484,54.5960628424877,121.037827077094,-101.465960670413,-19.5718664066813
2.71106337271751,481,483,35.0457207115,116.150241544347,-84.3594113057986,-31.7908302385486
2.71321160042965,486,488,35.0457207115,91.7123138806131,-72.1404474739316,-19.5718664066815
