t,leadI,leadII,leadIII,aVR,aVL,aVF
0,-0.0755966921794879,-0.540267586402479,-0.464670894222991,0.307932139290983,0.194537101021751,-0.502469240312735
0.00470256289677874,-148.295408052321,-57.8694235145267,90.425984537794,103.082415783424,-119.360696295057,16.2782805116336
0.00940512579355749,-242.591639175393,-83.8281351487649,158.763504026628,163.209887162079,-200.677571601011,37.4676844389316
0.0141076886903362,-286.638872421482,-87.5993831480719,199.03948927341,187.119127784777,-242.839180847446,55.7200530626693
0.018810251587115,-313.051626871972,-93.9292839629015,219.122342909071,203.490455417437,-266.086984890522,62.5965294730846
0.0235128144838937,-343.083606912987,-115.742863300557,227.340743612429,229.413235106772,-285.212175262708,55.7989401559358
0.0282153773806725,-378.55676378777,-149.336731601303,229.220032186468,263.946747694537,-303.888397987119,39.9416502925825
0.0329179402774512,-406.714371153161,-175.703586786339,231.010784366822,291.20897896975,-318.862577759991,27.6535987902415
0.03762050317423,-413.060850058009,-173.334906187382,239.725943870627,293.197878122696,-326.393396964318,33.1955188416224
0.0423230660710087,-393.356212043242,-135.651867595555,257.704344447687,264.504039819398,-325.530278245465,61.0262384260662
0.0470256289677874,-352.9297971152,-73.9022692500521,279.027527865148,213.416033182626,-315.978662490174,102.562629307548
0.0517281918645662,-298.833290843634,-2.84096788599163,295.992322957643,150.837129364813,-297.412806900638,146.575677535825
0.0564307547613449,-235.020243743783,73.786744603939,308.806988347722,80.6167495699218,-271.913616045752,191.29686647583
0.0611333176581237,-159.926682140484,164.178202659976,324.10488480046,-2.12576025974579,-242.015783470472,244.141543730218
0.0658358805549024,-66.6205510909238,279.462674962185,346.083226053109,-106.421061935631,-206.351888572016,312.772950507647
0.0705384434516812,51.4606414031633,423.846605664585,372.385964261421,-237.653623533874,-160.462661429129,398.116284963003
0.0752410063484599,193.997037279535,591.334337759036,397.337300479501,-392.665687519285,-101.670131599983,494.335819119269
0.0799435692452387,354.078361406354,771.259391374525,417.181029968172,-562.66887639044,-31.5513342809089,594.220210671348
0.0846461321420174,521.820682259914,951.789505820653,429.968823560739,-736.805094040283,45.9259293495878,690.879164690696
0.0893486950387961,683.040013807557,1114.30740088712,431.26738707956,-898.673707347337,125.886313363998,772.787393983338
0.0940512579355749,816.619720794957,1230.71450797463,414.094787179677,-1023.6671143848,201.26246680764,822.404647577156
0.0987538208323536,899.934769043782,1275.07716337978,375.142394335997,-1087.50596621178,262.396187353893,825.109778857888
0.103456383729132,919.863285072038,1239.46711047303,319.603825400992,-1079.66519777253,300.129729835523,779.535467937011
0.108158946625911,878.581769671326,1136.57929204179,257.997522370462,-1007.58053085656,310.292123650432,697.288407206125
0.11286150952269,789.466982005852,990.271493191755,200.804511185903,-889.869237598803,294.331235409975,595.538002188829
0.117564072419469,670.070399428617,827.061074898194,156.990675469577,-748.565737163406,256.53986197952,492.025875183886
0.122266635316247,539.403439989353,672.078566739607,132.675126750254,-605.74100336448,203.364156619549,402.376846744931
0.126969198213026,414.987542229677,542.530109092688,127.542566863011,-478.758825661182,143.722487683333,335.03633797785
0.131671761109805,307.17038162159,440.956762794532,133.786381172942,-374.063572208061,86.6920002243242,287.371571983737
0.136374324006584,218.815901140542,361.748576630781,142.932675490239,-290.282238885661,37.9416128251514,252.34062606051
0.141076886903362,151.645698540053,304.25080808021,152.605109540157,-227.948253310131,-0.479705500052034,228.427958810183
0.145779449800141,108.852012650456,272.805820189904,163.953807539448,-190.82891642018,-27.5508974444961,218.379813864676
0.15048201269692,89.9725929410192,266.131178609649,176.15858566863,-178.051885775334,-43.0929963638054,221.14488213914
0.155184575593699,86.8999647374994,272.475130415283,185.575165677783,-179.687547576391,-49.3376004701418,229.025148046533
0.159887138490477,87.5704758232246,277.217859500224,189.647383676999,-182.394167661724,-51.0384539268874,233.432621588612
0.164589701387256,82.8130003064089,271.532618425364,188.719618118955,-177.172809365886,-52.953308906273,230.126118272159
0.169292264284035,69.1210845436212,251.166356218383,182.045271674761,-160.143720381002,-56.4620935655701,216.605813946572
0.173994827180814,46.7799770646261,214.719118604922,167.939141540296,-130.749547834774,-60.5795822378348,191.329130072609
0.178697390077592,17.8064510097897,168.365711268159,150.559260258369,-93.0860811389741,-66.3764046242895,159.462485763264
0.183399952974371,-14.2598944043507,124.887954124935,139.147848529286,-55.3140298602921,-76.7038714668182,132.01790132711
0.18810251587115,-44.4687036686546,93.4564725966279,137.925176265283,-24.4938844639867,-91.1969399669686,115.690824430955
0.192805078767929,-68.3502249183516,74.773326042166,143.123550960518,-3.21155056190719,-105.736887939435,108.948438501342
0.197507641664707,-84.7754420023898,64.9475028995985,149.722944901988,9.91396955139567,-117.249193452189,107.335223900793
0.202210204561486,-96.443627818096,58.7586621698347,155.202289987931,18.8424828241307,-125.822958903013,106.980476078883
0.206912767458265,-107.107279625447,50.8481147407808,157.955394366227,28.1295824423329,-132.531336995837,104.401754553504
0.211615330355043,-119.386716073427,37.2190004939625,156.605716567389,41.0838577897321,-137.996216320408,96.9123585306759
0.216317893251822,-134.321603480357,17.0241598872772,151.345763367634,58.64872179654,-142.833683423996,84.1849616274558
0.221020456148601,-151.245439367248,-7.68768405439778,143.55775531285,79.4665617108228,-147.401597340049,67.9350356292261
0.22572301904538,-168.615798377617,-34.1016989592927,134.514099418324,101.358748668455,-151.564948897971,50.2062002295158
0.230425581942158,-184.047763991806,-57.2138747138738,126.833889277932,120.63081935284,-155.440826634869,34.8100072820291
0.235128144838937,-193.547497781989,-69.281982911509,124.26551487048,131.414740346749,-158.906506326235,27.4917659794855
0.239830707735716,-194.733211214209,-68.2202543452313,126.512956868978,131.47673277972,-160.623084041593,29.1463512618732
0.244533270632495,-191.342156180928,-63.1600190190604,128.182137161868,127.251087599994,-159.762146671398,32.5110590714038
0.249235833529273,-190.471913507,-64.1096163530926,126.362297153907,127.290764930046,-158.417105330453,31.1263404004072
0.253938396426052,-195.293349765656,-70.4565390268335,124.836810738823,132.874944396245,-160.06508025224,27.1901358559946
0.258640959322831,-202.831909325581,-75.4902924224306,127.341616903151,139.161100874006,-165.086763114366,25.9256622403601
0.26334352221961,-207.935624865854,-75.4095609185041,132.52606394735,141.672592892179,-170.230844406602,28.5582515144231
0.268046085116388,-207.118252107337,-69.1360049304387,137.982247176898,138.127128518888,-172.550249642117,34.4231211232295
0.272748648013167,-198.579423671593,-56.5639689694563,142.015454702136,127.571696320524,-170.297439186864,42.7257428663401
0.277451210909946,-182.606755288268,-40.3560827516395,142.250672536629,111.481419019954,-162.428713912449,50.9472948924947
0.282153773806725,-163.301742813723,-24.4591384756646,138.842604338058,93.8804406446937,-151.07217357589,57.1917329311967
0.286856336703503,-147.014284536727,-12.3320675968264,134.6822169399,79.6731760667765,-140.848250738313,61.1750746715369
0.291558899600282,-139.249525988649,-9.66428253985623,129.585243448793,74.4569042642527,-134.417384718721,59.9604804544683
0.296261462497061,-142.017045832196,-20.6481365078421,121.368909324354,81.3325911700189,-131.692977578275,50.3603864082557
0.30096402539384,-152.035843065013,-39.9750152258633,112.06082783915,96.0054291454383,-132.048335452082,36.0429063066433
0.305666588290618,-163.313627646635,-56.9826422079011,106.330985438734,110.148134927268,-134.822306542685,24.6741716154166
0.310369151187397,-171.219095239522,-65.1247324292478,106.094362810274,118.171913834385,-138.656729024898,20.4848151905132
0.315071714084176,-173.067544223764,-63.9826966371237,109.084847586641,118.525120430444,-141.076195905203,22.5510754747585
0.319774276980955,-167.689878693586,-56.9279163510597,110.761962342526,112.308897522323,-139.225920518056,26.9170229957333
0.324476839877733,-155.965759490345,-47.0856183239714,108.880141166373,101.525688907158,-132.422950328359,30.8972614212009
0.329179402774512,-139.911044450269,-34.6479968350383,105.26304761523,87.2795206426535,-122.58704603275,35.3075253900961
0.333881965671291,-120.858051313822,-18.9616615770867,101.896389736735,69.9098564454543,-111.377220525279,41.4673640798242
0.33858452856807,-101.044811407881,-2.09318414436837,98.9516272635125,51.5689977761246,-99.9982193356967,48.4292215595721
0.343287091464848,-86.1935064540942,10.0280885727982,96.2215950268924,38.082708940648,-91.2075507404933,53.1248417998453
0.347989654361627,-82.2324389346189,11.0263617481996,93.2588006828186,35.6030385932096,-87.7456198087187,52.1425812155091
0.352692217258406,-89.2043962454355,-0.644015667929807,88.5603805775057,44.9242059566827,-88.8823884114706,43.958182454788
0.357394780155185,-100.999817092793,-19.3993413377425,81.600475755051,60.199579215268,-91.3001464239222,31.1005672086542
0.362097343051963,-111.164294728046,-34.684075352631,76.4802193754153,72.9241850403387,-93.8222570517308,20.8980720113922
0.366799905948742,-116.988057460833,-38.8168386518375,78.171218808995,77.902448056335,-97.5796381349138,19.6771900785787
0.371502468845521,-118.836635577337,-35.1173748270812,83.7192607502557,76.9770052022091,-101.277948163796,24.3009429615873
0.3762050317423,-119.429249788036,-34.7409536384714,84.6882961495647,77.0851017132537,-102.0587729688,24.9736712555466
0.380907594639078,-122.319495720198,-42.6687803742999,79.6507153458983,82.4941380472491,-100.985105533048,18.4909674857992
0.385610157535857,-125.447406652118,-48.9142954855985,76.5331111665193,87.1808510688581,-100.990258909319,13.8094078404604
0.390312720432636,-118.707775894906,-37.294879218485,81.4128966764212,78.0013275566956,-100.060336285664,22.0590087289681
0.395015283329415,-94.850833387735,-3.66270735466469,91.1881260330703,49.2567703711998,-93.0194797104026,43.7627093392028
0.399717846226193,-60.7097481532657,36.9900811832703,97.699829336536,11.8598334849977,-79.2047887449009,67.3449552599031
0.404420409122972,-32.6919633323924,62.8598279942496,95.551791326642,-15.0839323309286,-64.1218773295172,79.2058096604458
0.409122972019751,-22.2927405142699,63.7369647979687,86.0297053122386,-20.7221121418494,-54.1612229132542,74.8833350551036
0.41382553491653,-27.3904006503172,47.3334087430981,74.7238093934152,-9.97150404639045,-51.0571050218662,61.0286090682566
0.418528097813308,-37.3851382585523,29.2796880275384,66.6648262860907,4.05272511550693,-52.0249822723215,47.9722571568146
0.423230660710087,-45.2374402590871,18.4662392187317,63.7036794778189,13.3856005201777,-54.470559868453,41.0849593482753
0.427933223606866,-50.7946231457492,12.5835694395552,63.3781925853044,19.105526853097,-57.0864078655268,37.9808810124298
0.432635786503644,-54.1055550307803,6.63445462449886,60.7400096552791,23.7355502031407,-57.4227823430297,33.687232139889
0.437338349400423,-52.7813129702043,2.64016700670697,55.4214799769112,25.0705729817486,-54.1013964735577,29.0308234918091
0.442040912297202,-46.0431758100961,7.7865333633423,53.8297091734384,19.1283212233769,-49.9364424917672,30.8081212683903
0.446743475193981,-35.9797095202139,23.7963095403406,59.7760190605545,6.09169998993661,-47.8778642903842,41.7861643004476
0.451446038090759,-25.5344085805727,41.3872853760463,66.921693956619,-7.92643839773681,-46.2280512685958,54.1544896663326
0.456148600987538,-18.3931269404577,46.7607718128711,65.1538987533288,-14.1838224362067,-41.7735128468933,55.9573352831
0.460851163884317,-18.0792199962728,35.6223863561755,53.7016063524484,-8.77158317995135,-35.8904131743606,44.6619963543119
0.465553726781096,-23.5113006019604,19.1750992499036,42.686399851864,2.16810067602837,-33.0988502269122,30.9307495508838
0.470256289677874,-28.1309976838182,12.5228729615444,40.6538706453626,7.80406236113691,-34.3924341645904,26.5883718034535
0.474958852574653,-24.9771187335848,22.0820470613291,47.0591657949139,1.4475358361278,-36.0181422642493,34.5706064281215
0.479661415471432,-11.2663378100712,45.4196631479335,56.6860009580047,-17.0766626689312,-33.9761693840379,51.0528320529691
0.484363978368211,9.14407604053034,74.3533507947019,65.2092747541716,-41.7487134176161,-28.0325993568206,69.7813127744367
0.489066541264989,27.8479825009047,97.1234487070381,69.2754662061334,-62.4857156039714,-20.7137418526144,83.1994574565857
0.493769104161768,38.5638258203329,104.371613314369,65.8077874940359,-71.4677195673509,-13.6219808368515,85.0897004042023
0.498471667058547,39.8420011401462,95.2035466560138,55.3615455158677,-67.52277389808,-7.75977218786076,75.2825460859408
0.503174229955326,33.7413806236885,77.2627929545199,43.5214123308314,-55.5020867891042,-4.89001585357147,60.3921026426757
0.507876792852104,25.9601079564101,63.002758459987,37.042650503577,-44.4814332081986,-5.54127127358343,50.022704481782
0.512579355748883,24.3216448625271,63.2320684752667,38.9104236127397,-43.7768566688969,-7.29438937510631,51.0712460440032
0.517281918645662,33.2268803638655,78.9593926828843,45.7325123190188,-56.0931365233749,-6.2528159775766,62.3459525009515
0.521984481542441,50.2554845750829,101.396591031903,51.1411064568203,-75.8260378034931,-0.442810940868668,76.2688487443617
0.526687044439219,69.1577753639226,120.658440026817,51.500664662894,-94.9081076953696,8.82855535051428,86.0795523448553
0.531389607335998,84.380362923105,131.303572857838,46.9232099347329,-107.841967890471,18.728576494186,89.1133913962854
0.536092170232777,92.9747069590851,133.814175292877,40.8394683337917,-113.394441125981,26.0676193126467,87.3268218133343
0.540794733129556,96.1574338434269,134.572828619538,38.415394776111,-115.365131231482,28.871019533658,86.4941116978244
0.545497296026334,99.7205655638551,140.792331092368,41.0717655285131,-120.256448328112,29.324400017671,90.9320483104406
0.550199858923113,108.848466712599,154.159806342875,45.3113396302758,-131.504136527737,31.7685635411615,99.7355729865752
0.554902421819892,121.98441838003,168.902923919987,46.9185055399577,-145.443671150009,37.532956420036,107.910714729973
0.559604984716671,132.781820242052,176.464888860416,43.6830686183639,-154.623354551234,44.5493758118442,110.07397873939
0.564307547613449,137.595527490854,175.118335014685,37.5228075238307,-156.356931252769,50.0363599835117,106.320571269258
0.569010110510228,139.844231661218,173.184147320401,33.3399156591831,-156.514189490809,53.2521580010172,103.262031489792
0.573712673407007,146.116123563405,178.921052522405,32.8049289589991,-162.518588042905,56.6555973022032,105.862990740702
0.578415236303786,156.753363165684,188.90855791061,32.1551947449266,-172.830960538147,62.2990842103785,110.531876327768
0.583117799200564,164.67400292706,192.832196521751,28.1581935946911,-178.753099724406,68.2579046661845,110.495195058221
0.587820362097343,165.480866920593,188.400267810772,22.9194008901787,-176.940567365683,71.2807330152074,105.659834350475
0.592522924994122,162.306692596768,182.279325547488,19.9726329507196,-172.293009072128,71.1670298230244,101.125979249104
0.597225487890901,159.980946994147,179.309049960411,19.3281029662641,-169.644998477279,70.3264220139413,99.3185764633374
0.601928050787679,160.834934349636,180.078255857538,19.2433215079019,-170.456595103587,70.7958064208671,99.6607886827199
0.606630613684458,165.579872556462,184.768250348432,19.18837779197,-175.174061452447,73.1957473822461,101.978314070201
0.611333176581237,172.896777829974,191.909012698615,19.0122348686415,-182.402895264295,76.9422714806661,105.460623783628
0.616035739478015,179.592436433456,197.158056662533,17.5656202290761,-188.375246547994,81.0134081021902,107.361838445804
0.620738302374794,183.703662994778,197.501199503306,13.7975365085288,-190.602431249042,84.9530632431245,105.649368005918
0.625440865271573,185.176551321471,193.064110369566,7.88755904809477,-189.120330845518,88.6444961366881,100.47583470883
0.630143428168352,182.763689374758,183.220946920123,0.457257545365337,-182.99231814744,91.1532159146961,91.8391022327442
0.634845991065131,173.007527292484,165.029584363798,-7.97794292868662,-169.018555828141,90.4927351105855,78.5258207175556
0.639548553961909,155.08491872321,139.257005224818,-15.8279134983925,-147.170961974014,85.4564161108015,61.7145458632127
0.644251116858688,135.257436727512,115.614833833998,-19.6426028935143,-125.436135280755,77.4500198105131,47.9861154702417
0.648953679755467,123.14874580726,105.865773488651,-17.2829723186087,-114.507259647956,70.2158590629344,44.2914005850214
0.653656242652245,123.670341011319,112.647098063585,-11.0232429477339,-118.158719537452,67.3467919795266,50.8119275579257
0.658358805549024,133.473158324246,128.612480903776,-4.86067742046998,-131.042819614011,69.1669178723582,61.8759017416533
0.663061368445803,144.281127548314,142.642528640403,-1.63859890791082,-143.461828094358,72.9598632281122,70.501964866246
0.667763931342582,147.823742002819,144.048726063075,-3.77501593974375,-145.936234032947,75.7993789712812,70.1368550616655
0.67246649423936,138.168103329232,125.698452995097,-12.4696503341345,-131.933278162165,75.3188768316832,56.6144013304814
0.677169057136139,113.853573409399,88.8979838850337,-24.9555895243652,-101.375778647216,69.4045814668821,31.9711971803342
0.681871620032918,80.4227348036407,45.3179843206171,-35.1047504830235,-62.8703595621289,57.7637426433321,5.10661691879682
0.686574182929697,48.2182588037244,10.0330091886844,-38.18524961504,-29.1256339962044,43.2017542093822,-14.0761202131778
0.691276745826475,24.3803268337347,-10.6177027550052,-34.9980295887399,-6.88131203936473,29.6891782112373,-22.8078661718725
0.695979308723254,7.54847532731037,-22.6772362817687,-30.2257116090791,7.56438047722918,18.8870934681947,-26.4514739454239
0.700681871620033,-7.13732902882157,-33.0826978776417,-25.9453688488202,20.1100134532317,9.40401990999931,-29.514033363231
0.705384434516812,-19.1005682588675,-38.6388723218206,-19.5383040629531,28.869720290344,0.218867902042803,-29.0885881923869
0.71008699741359,-23.0882848698379,-32.8275949548961,-9.73931008505815,27.957939912367,-6.67448739238989,-21.2834525199771
0.714789560310369,-18.5193715144783,-20.1067516666199,-1.58738015214158,19.3130615905491,-8.46599568116835,-10.8470659093807
0.719492123207148,-12.6801323068632,-14.0769095640471,-1.39677725718389,13.3785209354552,-5.64167752483968,-7.73684341061551
0.724194686103927,-14.1786426660512,-22.2892779065392,-8.11063524048791,18.2339602862952,-3.03400371278167,-15.1999565735135
0.728897249000705,-26.3366807511334,-41.5806189460495,-15.2439381949162,33.9586498485914,-5.54637127810861,-28.4122785704828
0.733599811897484,-46.9020012648268,-66.5069821334473,-19.6049808686205,56.7044916991371,-13.6485101981032,-43.0559815010339
0.738302374794263,-71.4377985023045,-93.5822789677768,-22.1444804654723,82.5100387350407,-24.6466590184161,-57.8633797166245
0.743004937691042,-94.5691071940803,-117.838897663515,-23.2697904694344,106.204002428797,-35.649658362323,-70.5543440664745
0.74770750058782,-109.390276820942,-131.344552129334,-21.9542753083922,120.367414475138,-43.7180007562749,-76.6494137188632
0.752410063484599,-110.207837976307,-128.224699023321,-18.0168610470141,119.216268499814,-46.0954884646462,-73.1207800351674
0.757112626381378,-98.5416647762536,-111.772871153334,-13.2312063770801,105.157267964794,-42.6552291995868,-62.5020387652069
0.761815189278157,-84.8290742894121,-94.2858631544132,-9.45678886500104,89.5574687219126,-37.6861427122055,-51.8713260097071
0.766517752174935,-80.4363760964093,-87.6686339427579,-7.2322578463486,84.0525050195836,-36.6020591250303,-47.4504458945532
0.771220315071714,-87.4408865639973,-94.8716295641916,-7.4307430001943,91.1562580640945,-40.0050717819015,-51.151186282193
0.775922877968493,-99.7308974200025,-110.545467694455,-10.8145702744525,105.138182557229,-44.458163572775,-60.6800189844538
0.780625440865272,-112.536782937708,-127.953364183144,-15.4165812454364,120.245073560426,-48.5601008461356,-71.6849727142902
0.78532800376205,-124.480468798125,-142.48192825475,-18.0014594566242,133.481198526438,-53.2395046707506,-80.2416938556869
0.790030566658829,-132.999877939921,-150.209874327661,-17.2099963877401,141.604876133791,-57.8949407760904,-83.7099353577006
0.794733129555608,-135.163085878032,-149.011301216362,-13.8482153383304,142.087193547197,-60.6574352698508,-81.4297582773464
0.799435692452387,-131.524466444853,-141.372146739434,-9.84768029458132,136.448306592143,-60.8383930751356,-75.6099135170076
0.804138255349165,-124.410704422214,-131.205259020209,-6.79455459799487,127.807981721211,-58.8080749121095,-68.9999068091018
0.808840818245944,-113.864517706098,-118.83256725918,-4.96804955308198,116.348542482639,-54.4482340765078,-61.9003084061308
0.813543381142723,-100.114631277971,-104.922754369014,-4.80812309104385,102.518692823493,-47.6532540934634,-54.8654387300292
0.818245944039501,-88.3635192698489,-96.4899771674318,-8.1264578975829,92.4267482186403,-40.118530686133,-52.3082175325073
0.82294850693628,-86.5329804514643,-102.84165035902,-16.3086699075559,94.6873154052422,-35.1121552719542,-59.575160133288
0.827651069833059,-99.7442896706277,-126.938389531937,-27.1940998613088,113.341339601282,-36.2750949046595,-77.0662446966227
0.832353632729838,-125.866451653639,-160.272046061964,-34.4055944083245,143.069248857802,-45.7304286226574,-97.3388202351442
0.837056195626616,-152.825270350889,-185.258301129434,-32.433030778545,169.041785740161,-60.1961197861719,-108.845665953989
0.841758758523395,-165.177729754789,-187.293695587216,-22.1159658324273,176.235712671002,-71.5308819611806,-104.704830709822
0.846461321420174,-157.014253707121,-166.212191292485,-9.19793758536423,161.613222499803,-73.9081580608783,-87.7050644389247
0.851163884316953,-135.092826644486,-134.744305024138,0.348521620348038,134.918565834312,-67.720674132417,-67.1978917018949
0.855866447213732,-111.396587159681,-108.035831469891,3.36075568978913,109.716209314786,-57.3786714247349,-52.3375378900512
0.86056901011051,-95.7884804224789,-96.200358810516,-0.411878388037167,95.9944196164975,-47.6883010172209,-48.3061185992766
0.865271573007289,-92.1893823724758,-102.407339201112,-10.217956828636,97.2983607867939,-40.9857127719199,-56.312648014874
0.869974135904068,-98.4899168594542,-121.167060893492,-22.6771440340377,109.828488876473,-37.9063864127082,-71.9221024637648
0.874676698800846,-108.0943457364,-138.818900685647,-30.7245549492469,123.456623211024,-38.6848953935768,-84.7717278174471
0.879379261697625,-112.513333986809,-142.58017139128,-30.0668374044707,127.546752689044,-41.2232482911692,-86.3235043978752
0.884081824594404,-107.459914925321,-130.486058251396,-23.026143326075,118.972986588359,-42.216885799623,-76.7561007887356
0.888784387491183,-96.4512608047303,-111.108642633336,-14.657381828606,103.779951719033,-40.8969394880621,-62.8830122309712
0.893486950387961,-85.5497419402391,-95.3351851566531,-9.78544321641397,90.4424635484461,-37.8821493619126,-52.5603141865335
0.89818951328474,-76.6836049522196,-87.2879887732572,-10.6043838210376,81.9857968627384,-33.039610565591,-48.9461862971474
0.902892076181519,-68.632467564398,-82.9460363318758,-14.3135687674778,75.7892519481369,-27.1594493984601,-48.6298025496768
0.907594639078298,-61.764549841394,-78.7079213038883,-16.9433714624943,70.2362355726411,-22.4105891894499,-47.8256463831913
0.912297201975076,-59.3777460168715,-76.9633775264783,-17.5856315096069,68.1705617716749,-20.8960572536323,-47.2745045180426
0.916999764871855,-65.24268512677,-82.5903821836555,-17.3476970568855,73.9165336552127,-23.9474940349422,-49.9690396202705
0.921702327768634,-79.2416535167614,-98.3414661892202,-19.0998126724588,88.7915598529908,-30.0709204221513,-58.7206394308395
0.926404890665413,-95.90829910463,-121.432293668465,-25.5239945638352,108.670296386548,-35.1921522703974,-73.4781441161502
0.931107453562191,-108.912116634643,-141.220406154755,-32.3082895201117,125.066261394699,-38.3019135572658,-86.7643478374333
0.93581001645897,-114.608816963404,-145.871929683229,-31.2631127198253,130.240373323317,-41.6728521217893,-88.5675212015273
0.940512579355749,-112.023227110852,-135.196395002824,-23.1731678919725,123.609811056838,-44.4250296094397,-79.1847814473984
0.945215142252528,-103.142618975563,-119.09869783758,-15.9560788620171,111.120658406571,-43.5932700567728,-67.5273883497984
0.949917705149306,-90.936640989062,-103.435364110863,-12.4987231218011,97.1860025499625,-39.2189589336304,-57.967043616332
0.954620268046085,-76.5859618186638,-88.1766753067395,-11.5907134880757,82.3813185627017,-32.497624165294,-49.8836943974076
0.959322830942864,-61.4169713110192,-74.7358783142864,-13.3189070032672,68.0764248126528,-24.049032153876,-44.0273926587768
0.964025393839643,-49.4848505744213,-65.6677866929472,-16.1829361185259,57.5763186336842,-16.6509572279477,-40.9253614057365
0.968727956736421,-45.5034073281713,-62.8951049186828,-17.3916975905115,54.1992561234271,-14.0558548688299,-40.1434012545972
0.9734305196332,-49.9009908960424,-68.1191243775839,-18.2181334815415,59.0100576368132,-15.8414287072504,-43.1686289295627
0.978133082529979,-57.3013419631578,-78.3857358375116,-21.0843938743538,67.8435389003347,-18.108474044402,-49.7350648559327
0.982835645426758,-62.4978578188646,-85.4402887715817,-22.9424309527171,73.9690732952231,-19.7777134330737,-54.1913598621494
0.987538208323536,-65.5905700259204,-85.7313820729634,-20.140812047043,75.6609760494419,-22.7248789894387,-52.9360970600032
0.992240771220315,-67.8658975057023,-83.7506824845465,-15.8847849788441,75.8082899951244,-25.9905562634291,-49.8177337316953
0.996943334117094,-67.6030546267482,-83.154930480719,-15.5518758539708,75.3789925537336,-26.0255893863887,-49.3534031673449
1.00164589701387,-63.6169411335773,-83.2874027668239,-19.6704616332466,73.4521719502006,-21.9732397501654,-51.4789322000352
1.00634845991065,-59.1516474190822,-84.2284939053201,-25.0768464862379,71.6900706622011,-17.0374004664221,-54.652670195779
1.01105102280743,-60.0199065512432,-89.8038426535291,-29.7839361022859,74.9118746023861,-15.1179852244786,-59.7938893779075
1.01575358570421,-69.779273570779,-103.521531965659,-33.7422583948803,86.6504027682191,-18.0185075879494,-68.6318951802697
1.02045614860099,-86.8329906226359,-121.701740479021,-34.868749856385,104.267365550828,-25.9821203831255,-78.285245167703
1.02515871149777,-104.498745920279,-134.988745651393,-30.4899997311142,119.743745785836,-37.0043730945823,-82.7393726912536
1.02986127439455,-114.133040760647,-137.037018133719,-22.9039773730722,125.585029447183,-45.6145316937873,-79.9704977533956
1.03456383729132,-110.930257193598,-127.644605938274,-16.7143487446767,119.287431565936,-47.1079542244605,-72.1794773414755
1.0392664001881,-97.1917179207106,-110.640980905765,-13.449262985054,103.916349413238,-41.8712274678283,-62.0451219454093
1.04396896308488,-80.032219137198,-93.0064789917043,-12.9742598545063,86.5193490644512,-33.5289796413458,-52.9903694231053
1.04867152598166,-66.9656850615553,-82.078390572963,-15.1127055114077,74.5220378172592,-25.9264897750738,-48.5955480421854
1.05337408887844,-62.7198495330265,-81.5795355003563,-18.8596859673298,72.1496925166914,-21.9300817828483,-50.2196107338431
1.05807665177522,-67.1771226785346,-90.2164327214136,-23.039310042879,78.6967776999741,-22.0689063178278,-56.6278713821463
1.062779214672,-74.4861044765709,-99.8948325066882,-25.4087280301173,87.1904684916296,-24.5386882232268,-62.6517802684028
1.06748177756878,-76.3994874370957,-99.2583991090087,-22.858911671913,87.8289432730522,-26.7702878825914,-61.0586553904609
1.07218434046555,-70.1681045776073,-85.2236844841204,-15.0555799065131,77.6958945308639,-27.5562623355471,-50.1396321953168
1.07688690336233,-61.1775378525178,-66.3887239576095,-5.21118610509161,63.7831309050637,-27.9831758737131,-35.7999550313505
1.08158946625911,-54.4472983680396,-53.0334144251306,1.41388394290894,53.7403563965851,-27.9305911554743,-25.8097652411109
1.08629202915589,-49.0363153365178,-48.5802211525729,0.456094183944899,48.8082682445453,-24.7462047602313,-24.062063484314
1.09099459205267,-44.0872741861619,-51.1206365384041,-7.03336235224215,47.603955362283,-18.5269559169599,-29.0769994453231
1.09569715494945,-42.9879677380964,-58.8879070077342,-15.8999392696378,50.9379373729153,-13.5440142342293,-37.393923138686
1.10039971784623,-48.3467990611924,-71.7379705101319,-23.3911714489394,60.0423847856622,-12.4778138061265,-47.5645709795357
1.105102280743,-58.3602500257858,-88.0439845016208,-29.683734475835,73.2021172637033,-14.3382577749754,-58.8638594887279
1.10980484363978,-69.8086338047287,-103.107075686423,-33.2984418816939,86.4578547455757,-18.2550959615174,-68.2027587840583
1.11450740653656,-79.6797514828954,-112.256617813158,-32.5768663302625,95.9681846480267,-23.5514425763164,-72.4167420717102
1.11920996943334,-83.6657339788336,-112.439129842462,-28.7733958636283,98.0524319106477,-27.4461690576027,-70.6062628530451
1.12391253233012,-78.1330197803497,-101.175935006258,-23.0429152259078,89.6544773933036,-27.545052277221,-62.1094251160827
1.1286150952269,-63.7863306475618,-79.7565887301213,-15.9702580825594,71.7714596888416,-23.9080362825012,-47.8634234063404
1.13331765812368,-45.2468264837609,-55.6898652553763,-10.4430387716155,50.4683458695686,-17.4018938560727,-33.0664520134959
1.13802022102046,-28.4313026007062,-37.0405822482176,-8.60927964751141,32.7359424244619,-9.91101147659739,-22.8249309478645
1.14272278391723,-18.365196618307,-27.3564311447661,-8.99123452645915,22.8608138815366,-4.68698104592391,-18.1738328356126
1.14742534681401,-16.9467208674662,-27.6742695854059,-10.7275487179397,22.310495226436,-3.10958607476326,-19.2009091516728
1.15212790971079,-23.3049120303814,-38.5213504062275,-15.2164383758461,30.9131312183044,-4.04423682726764,-26.8688943910368
1.15683047260757,-35.319097823624,-57.3513616343828,-22.0322638107588,46.3352297290034,-6.6434170064326,-39.6918127225708
1.16153303550435,-48.5820134892906,-76.6347002894884,-28.0526868001978,62.6083568893895,-10.2646633445464,-52.3436935448431
1.16623559840113,-58.0612977918155,-88.558111192712,-30.4968134008965,73.3097044922637,-13.7822421954595,-59.5274622968042
1.17093816129791,-62.9099199824656,-92.8801765451284,-29.9702565626629,77.895048263797,-16.4698317099013,-61.4252165538957
1.17564072419469,-66.7789577494798,-96.2901494755577,-29.5111917260779,81.5345536125187,-18.633883011701,-62.9006706008178
1.18034328709146,-73.0361828785231,-102.407057539554,-29.3708746610305,87.7216202090383,-21.8326541087463,-65.888966100292
1.18504584998824,-80.565307585108,-108.266990867829,-27.7016832827212,94.4161492264686,-26.4318121511934,-67.9843370752752
1.18974841288502,-85.7648687189424,-111.350584018913,-25.585715299971,98.5577263689278,-30.0895767094857,-68.4681496594421
1.1944509757818,-87.7923226881933,-112.796746817412,-25.0044241292189,100.294534752803,-31.3939492794872,-68.9005854733156
1.19915353867858,-87.5067054768238,-111.900922187459,-24.3942167106355,99.7038138321415,-31.5562443830941,-68.1475694490474
1.20385610157536,-83.684791466309,-104.184301534053,-20.499510067744,93.934546500181,-31.5926406992825,-62.3419058008985
1.20855866447214,-75.6429912029396,-89.7717275166883,-14.1287363137487,82.7073593598139,-30.7571274445954,-51.9502319152185
1.21326122736892,-67.1858133809444,-77.4418308310925,-10.2560174501481,72.3138221060184,-28.4648979653982,-43.8489241406203
1.21796379026569,-63.6391331426375,-74.6845197955603,-11.0453866529227,69.1618264690989,-26.2968732448574,-42.8649532242415
1.22266635316247,-64.8123079158952,-78.87606800449,-14.0637600885948,71.8441879601926,-25.3742739136502,-46.4699140465424
1.22736891605925,-65.3388354848478,-81.7922676683614,-16.4534321835137,73.5655515766046,-24.4427016506671,-49.1228499259375
1.23207147895603,-63.2054496749661,-79.5175787124255,-16.3121290374594,71.3615141936958,-23.4466603187533,-47.9148538749424
1.23677404185281,-61.5581060900179,-75.1695080950014,-13.6114020049836,68.3638070925097,-23.9733520425171,-44.3904550499925
1.24147660474959,-62.6028612202601,-73.7642818777563,-11.1614206574961,68.1835715490082,-25.720720281382,-42.4628512676262
1.24617916764637,-66.2417328553795,-78.2986019347742,-12.0568690793947,72.2701673950768,-27.0924318879924,-45.1777355070844
1.25088173054315,-71.9768257991327,-88.8522564818695,-16.8754306827368,80.4145411405011,-27.550697558198,-52.8638435823032
1.25558429343992,-77.0906520240865,-99.8154098684249,-22.7247578443385,88.4530309462557,-27.182947089874,-61.2700838563817
1.2602868563367,-76.3817671557813,-101.103884033242,-24.7221168774608,88.7428255945117,-25.8298251391602,-62.9130004553515
1.26498941923348,-66.8566411670888,-88.268283931332,-21.4116427642432,77.5624625492104,-22.7224992014228,-54.8399633477876
1.26969198213026,-51.1034426618653,-67.1591006419694,-16.0556579801041,59.1312716519174,-17.5238923408806,-41.6073793110368
1.27439454502704,-36.2238217376305,-46.5476380199261,-10.3238162822956,41.3857298787783,-12.9500027276674,-28.4357271511109
1.27909710792382,-29.3840080725895,-33.9528114001939,-4.56880332760443,31.6684097363917,-12.4076023724925,-19.2608073638992
1.2837996708206,-33.4148414499402,-37.3663425222576,-3.95150107231734,35.3905919860989,-14.7316701888114,-20.6589217972875
1.28850223371738,-46.4399605015844,-59.9171138529218,-13.4771533513374,53.1785371772531,-16.4814035751235,-36.6971336021296
1.29320479661415,-63.4758793298265,-91.3810436544111,-27.9051643245846,77.4284614921188,-17.785357502621,-59.6431039894978
1.29790735951093,-77.1873382050105,-112.433338758463,-35.2460005534524,94.8103384817367,-20.9706688257791,-73.8396696559577
1.30260992240771,-80.1589106955219,-110.997351378084,-30.8384406825619,95.5781310368028,-24.66023500648,-70.9178960303228
1.30731248530449,-71.1171633469392,-92.862635458147,-21.7454721112078,81.9898994025431,-24.6858456178657,-57.3040537846774
1.31201504820127,-58.5309791229349,-74.3034338119305,-15.7724546889956,66.4172064674327,-21.3792622169697,-45.0379442504631
1.31671761109805,-52.2019661533784,-65.0815697853711,-12.8796036319927,58.6417679693748,-19.6611812606928,-38.9805867086819
1.32142017399483,-52.0035440118882,-62.0874117267699,-10.0838677148818,57.045477869329,-20.9598381485032,-36.0856397208258
1.32612273689161,-51.1566381838006,-59.057519545906,-7.90088136210534,55.1070788648533,-21.6278784108476,-33.4792004540056
1.33082529978838,-46.8409487363876,-54.7724699682917,-7.93152123190407,50.8067093523397,-19.4547137522418,-31.3519956000979
1.33552786268516,-40.9218986759533,-49.9037166705812,-8.98181799462782,45.4128076732673,-15.9700403406628,-29.4427673326045
1.34023042558194,-35.4665288639274,-44.5479252606303,-9.08139639670298,40.0072270622788,-13.1925662336122,-26.8146608286667
1.34493298847872,-32.1091984656816,-41.1670904394805,-9.05789197379886,36.6381444525811,-11.5256532459414,-25.1124912066397
1.3496355513755,-31.6139180585701,-42.4913907186565,-10.8774726600864,37.0526543886133,-10.3682226992419,-26.6844316893714
1.35433811427228,-32.3833632299595,-45.5902943023937,-13.2069310724341,38.9868287661766,-9.58821607876268,-29.3986126874139
1.35904067716906,-31.086218601052,-44.0252996087097,-12.9390810076577,37.5557591048808,-9.07356879669715,-28.4821903081837
1.36374324006584,-25.5215741445713,-35.6596068377528,-10.1380326931815,30.5905904911621,-7.69177072569494,-22.8988197654671
1.36844580296261,-17.3640706430992,-24.9210566413731,-7.55698599827383,21.1425636422362,-4.9035423224127,-16.2390213198235
1.37314836585939,-10.4837512444085,-17.2575381148495,-6.77378687044097,13.870644679629,-1.85498218698376,-12.0156624926452
1.37785092875617,-5.93792996370121,-12.8407711302521,-6.90284116655084,9.38935054697663,0.482455601424817,-9.87180614840145
1.38255349165295,-1.39631411528103,-8.09827469238962,-6.70196057710859,4.74729440383533,2.65282323091378,-7.40011763474911
1.38725605454973,4.59059136209657,-1.79471718676405,-6.38530854886062,-1.39793708766626,5.4879499554786,-4.09001286781233
1.39195861744651,9.50200358251914,2.7415919424916,-6.76041164002754,-6.12179776250537,8.13120761127334,-2.00940984876797
1.39666118034329,9.2848765457145,0.641845055250315,-8.64303149046418,-4.96336080048241,8.96395401808934,-4.00059321760693
1.40136374324007,4.8062306078682,-7.24568054473889,-12.0519111526071,1.21972496843534,8.42907088023765,-9.64879584867299
1.40606630613684,1.52470345503616,-12.6549176820765,-14.1796211371127,5.56510711352018,7.85216229607443,-13.4172694095946
1.41076886903362,1.38682804124232,-10.5538553365484,-11.9406833777907,4.58351364765304,6.66375570951652,-11.2472693571696
1.4154714319304,1.05262803629716,-6.33513385479023,-7.38776189108739,2.64125290924653,4.22019496369228,-6.86144787293881
1.42017399482718,-1.45845989746795,-7.13811106875914,-5.6796511712912,4.29828548311355,2.11059563691163,-6.40888112002517
1.42487655772396,-3.7993398461781,-11.5656103582626,-7.76627051208447,7.68247510222034,1.98346533295319,-9.66594043517352
1.42957912062074,-3.61168403967099,-13.6520826440699,-10.0403986043989,8.63188334187043,3.21435728236395,-11.8462406242344
1.43428168351752,-1.74147475564723,-12.2977678426791,-10.5562930870319,7.01962129916319,4.40740916569234,-11.4270304648555
1.4389842464143,-0.598429002434841,-11.5726056140495,-10.9741766116147,6.08551730824217,5.18787380458991,-11.2733911128321
1.44368680931107,-3.16387701209192,-16.6346627158298,-13.4707857037379,9.89926986396085,5.15345434582298,-15.0527242097838
1.44838937220785,-13.2816028919722,-32.8289177971651,-19.5473149051929,23.0552603445686,3.13285600661038,-26.188116351179
1.45309193510463,-33.119230556669,-62.23144339537,-29.112212838701,47.6753369760195,-2.00350885898399,-45.6718281170355
1.45779449800141,-59.967911523607,-97.9811470329246,-38.0132355093176,78.9745292782658,-10.9773380071447,-67.9971912711211
1.46249706089819,-86.6011261650081,-126.512126444033,-39.9110002790251,106.556626304521,-23.3450629429915,-83.2115633615291
1.46719962379497,-104.611293685608,-136.619205929095,-32.007912243487,120.615249807351,-36.3016907210604,-84.3135590862909
1.47190218669175,-108.326684682975,-126.64035883981,-18.3136741568353,117.483521761393,-45.0065052630699,-72.4770164983229
1.47660474958853,-99.9319200987095,-106.900336913247,-6.96841681453793,103.416128505978,-46.4817516420858,-56.9343768638927
1.4813073124853,-90.1437730582966,-93.6974552510183,-3.55368219272168,91.9206141546574,-43.2950454327874,-48.62556872187
1.48600987538208,-87.1664224115771,-94.4648689977544,-7.29844658617731,90.8156457046657,-39.9339879126999,-50.8816577919658
1.49071243827886,-88.6831729209689,-101.39769034469,-12.714517423721,95.0404316328294,-37.984327748624,-57.0561038842054
1.49541500117564,-89.3028198319512,-103.396454704951,-14.0936348729997,96.349637268451,-37.6045924794757,-58.7450447889753
1.50011756407242,-88.4495474910091,-99.1591952496833,-10.7096477586742,93.8043713703462,-38.8699498661674,-54.9344215041788
1.5048201269692,-88.6093546121597,-95.6715047786784,-7.06215016651868,92.140429695419,-40.7736022228205,-51.3668274725985
1.50952268986598,-90.8834197614415,-97.4522876228802,-6.56886786143878,94.1678536921609,-42.1572759500013,-52.0105777421595
1.51422525276276,-93.7107166402543,-102.657411230341,-8.94669459008628,98.1840639352974,-42.382011025084,-55.8020529102134
1.51892781565953,-96.0015257307455,-109.087881187311,-13.0863554565653,102.544703459028,-41.4575851370901,-61.0871183219381
1.52363037855631,-100.558991175776,-118.157238087598,-17.5982469118226,109.358114631687,-41.4803721319765,-67.8777424997104
1.52833294145309,-111.293023154999,-132.425442176668,-21.1324190216687,121.859232665833,-45.0803020666651,-76.7789305991682
1.53303550434987,-127.046180176225,-150.300555323066,-23.2543751468406,138.673367749645,-51.8959025146921,-86.7774652349531
1.53773806724665,-142.03781037497,-164.725670396313,-22.6878600213431,153.381740385642,-59.6749751768136,-93.7067652088283
1.54244063014343,-151.385520187175,-170.124236657296,-18.7387164701208,160.754878422236,-66.3234018585272,-94.4314765637084
1.54714319304021,-152.673106374309,-166.800778442276,-14.1276720679671,159.736942408292,-69.2727171531708,-90.4642252551214
1.55184575593699,-146.13611407419,-157.87255920009,-11.7364451259,152.00433663714,-67.1998344741448,-84.8045021629948
1.55654831883376,-136.270923571968,-148.320249397457,-12.0493258254892,142.295586484713,-62.1107988732394,-80.1847876114732
1.56125088173054,-129.760093189776,-144.144580767778,-14.3844875780019,136.952336978777,-57.6878028058873,-79.2645341728901
1.56595344462732,-130.369944865335,-147.05030688953,-16.6803620241953,138.710125877433,-56.8447914205699,-81.8653344568629
1.5706560075241,-135.418823144405,-152.067031133479,-16.6482079890734,143.742927138942,-59.385307577666,-84.3576195612761
1.57535857042088,-136.735906832568,-150.846808941808,-14.1109021092402,143.791357887188,-61.3125023616637,-82.4788555255241
1.58006113331766,-127.775705779212,-137.988308291886,-10.2126025126736,132.882007035549,-58.7815516332694,-74.1004554022797
1.58476369621444,-111.048085581132,-117.623485597377,-6.57540001624557,114.335785589254,-52.236342782443,-62.0994428068113
1.58946625911122,-97.0046107813573,-102.737380360647,-5.7327695792892,99.8709955710019,-45.6359206010341,-54.2350749699679
1.59416882200799,-95.7032979842447,-104.593358231455,-8.89006024721039,100.14832810785,-43.4066188685172,-56.7417092393327
1.59887138490477,-109.923450786208,-123.711079399868,-13.7876286136598,116.817265093038,-48.0679110862741,-68.7493540067637
1.60357394780155,-134.337633453186,-151.476949255072,-17.1393158018859,142.907291354129,-58.59915882565,-84.3081325284788
1.60827651069833,-158.648189858607,-175.770704675045,-17.1225148164376,167.209447266826,-70.7628375210847,-96.4466097457412
1.61297907359511,-173.167163238344,-187.118785181036,-13.9516219426923,180.14297420969,-79.6077706478256,-100.535203561864
1.61768163649189,-176.158119328033,-186.241262871023,-10.0831435429895,181.199691099528,-83.0374878925218,-98.1622032070061
1.62238419938867,-174.428817734478,-182.876850314673,-8.44803258019465,178.652834024575,-82.9903925771416,-95.6624414474336
1.62708676228545,-174.572747979762,-184.061228178985,-9.48848019922252,179.316988079374,-82.54213389027,-96.7748541891037
1.63178932518222,-177.953241836059,-188.464706736786,-10.5114649007273,183.208974286422,-83.7208884676656,-99.4880858187566
1.636491888079,-182.578555006008,-192.017260416491,-9.43870541048273,187.29790771125,-86.5699247977627,-100.727982913487
1.64119445097578,-181.957956068116,-188.171922476231,-6.21396640811508,185.064939272173,-87.8719948300004,-97.192944442173
1.64589701387256,-162.104196384674,-159.589677405356,2.51451897931793,160.846936895015,-82.3093576819958,-78.5375792130189
1.65059957676934,-105.598903937795,-81.3550805395494,24.2438233982457,93.4769922386722,-64.9213636680204,-28.5556285706518
1.65530213966612,-1.8019352995002,60.166640005968,61.9685753054682,-29.1823523532339,-31.8852553024842,61.0676076557181
1.6600047025629,146.563194627225,255.343236968135,108.78004234091,-200.95321579768,18.8915761431572,182.061639654523
1.66470726545968,325.505612353813,478.623051122663,153.11743876885,-402.064331738238,86.1940867924814,315.870244945757
1.66940982835645,516.885574124552,702.652023716836,185.766449592285,-609.768798920694,165.559562266134,444.20923665456
1.67411239125323,704.760630999784,906.983345559437,202.222714559653,-805.87198827961,251.268958220065,554.603030059545
1.67881495415001,875.883738581016,1077.9558991336,202.07216055258,-976.919818857305,336.905789014218,640.014029843087
1.68351751704679,1014.63971517604,1199.88943247825,185.249717302217,-1107.26457382714,414.69499893691,692.569574890235
1.68822007994357,1101.09356436615,1250.01459497289,148.921030606747,-1175.55407966952,476.0862668797,699.467812789821
1.69292264284035,1118.79547514387,1211.26173077905,92.4662556351821,-1165.02860296146,513.164609754342,651.863993207115
1.69762520573713,1066.77552978345,1092.42820227907,25.652672495622,-1079.60186603126,520.561428643912,559.040437387345
1.70232776863391,961.864127670815,927.779833151815,-34.0842945189995,-944.821980411315,497.974211094907,446.847769316408
1.70703033153068,827.578062144406,753.641117309172,-73.9369448352343,-790.609589726789,450.75750348982,339.852086236969
1.71173289442746,683.621506596851,590.894174152942,-92.7273324439091,-637.257840374897,388.17441952038,249.083420854517
1.71643545732424,546.177738316373,449.102535702669,-97.0752026137042,-497.640137009521,321.626470465039,176.013666544482
1.72113802022102,430.366267488662,337.814919533965,-92.551347954697,-384.090593511314,261.45880772168,122.631785789634
1.7258405831178,346.089208013919,266.481634657184,-79.6075733567354,-306.285421335552,212.848390685327,93.4370306502243
1.73054314601458,293.997419084149,235.220577551859,-58.7768415322907,-264.608998318004,176.38713030822,88.2218680097839
1.73524570891136,267.437246009047,231.217662355089,-36.2195836539584,-249.327454182068,151.828414831503,97.4990393505651
1.73994827180814,256.880049904145,236.860420931719,-20.0196289724262,-246.870235417932,138.449839438286,108.420395979646
1.74465083470491,254.62815898877,242.562204901317,-12.0659540874533,-248.595181945044,133.347056538112,115.248125406932
1.74935339760169,256.765032870152,248.369944776355,-8.39508809379777,-252.567488823253,132.580060481975,119.987428341278
1.75405596049847,259.899507355638,252.512120491756,-7.38738686388206,-256.205813923697,133.64344710976,122.562366813937
1.75875852339525,257.72803505526,246.839970381378,-10.8880646738825,-252.284002718319,134.308049864571,117.975952853748
1.76346108629203,242.900903244888,225.134799089668,-17.7661041552194,-234.017851167278,130.333503700053,103.684347467224
1.76816364918881,213.753459438478,189.757718774543,-23.9957406639352,-201.755589106511,118.874600051207,82.8809890553039
1.77286621208559,178.478505165488,150.338032053377,-28.1404731121112,-164.408268609433,103.3094891388,61.0987794706329
1.77756877498237,148.364651842508,117.250290196126,-31.1143616463827,-132.807471019317,89.7395067444455,43.0679642748715
1.78227133787914,126.970798007392,93.5367155385443,-33.4340824688475,-110.253756772968,80.2024402381196,30.0513165348484
1.78697390077592,109.798992537028,74.5790607085187,-35.2199318285088,-92.1890266227731,72.5094621827682,19.6795644400049
1.7916764636727,92.0494794426545,56.7678706864929,-35.2816087561616,-74.4086750645737,63.6655440994081,10.7431309651656
1.79637902656948,73.0494639914618,41.2786276816187,-31.7708363098432,-57.1640458365403,52.4101501506525,4.75389568588776
1.80108158946626,55.0915733538086,28.5240458774899,-26.5675274763187,-41.8078096156493,40.8295504150636,0.978259200585626
1.80578415236304,39.9634520553482,14.756950835784,-25.2065012195642,-27.3602014455661,32.5849766374562,-5.2247751918901
1.81048671525982,26.6530665838538,-2.54420932349399,-29.1972759073478,-12.0544286301799,27.9251712456008,-15.8707426154209
1.8151892781566,12.6450075543044,-20.6514467888567,-33.296454343161,4.00321961727616,22.9707309487327,-26.9739505660089
1.81989184105337,-3.46858464439902,-37.2512155332261,-33.782630888827,20.3599000888125,15.157023122214,-35.5169232110266
1.82459440395015,-21.3834237133556,-53.4523611983709,-32.0689374850153,37.4178924558632,5.34275688582989,-42.7606493416931
1.82929696684693,-39.2584045698184,-68.2063829598928,-28.9479783900745,53.7323937648556,-5.15521308987195,-48.5771806749837
1.83399952974371,-54.4328280371917,-78.1695414202106,-23.7367133830189,66.3011847287012,-15.3480573270864,-50.9531274016148
1.83870209264049,-66.0879648952698,-85.8733198489915,-19.7853549537217,75.9806423721307,-23.151304970774,-52.8293374013566
1.84340465553727,-77.6160946546072,-100.504423516445,-22.8883288618374,89.0602590855259,-27.3638828963849,-61.696376189141
1.84810721843405,-92.9237338715725,-124.553512605273,-31.629778733701,108.738623238423,-30.6469775689358,-78.0916456694872
1.85280978133083,-107.645957690074,-144.199998423356,-36.5540407332824,125.922978056715,-35.5459584783956,-90.3770195783192
1.8575123442276,-110.358530829022,-140.13271179781,-29.7741809687884,125.245621313416,-40.2921749301167,-84.9534463832994
1.86221490712438,-96.2957306621909,-108.384044103634,-12.088313441443,102.339887382912,-42.1037086103739,-60.2361787725384
1.86691747002116,-73.9110136644116,-68.0692997586291,5.84171390578251,70.9901567115203,-39.8763637850971,-31.1137929264233
1.87162003291794,-56.7231104632992,-44.8491280265213,11.873982436778,50.7861192449103,-34.2985464500386,-16.4875727948717
1.87632259581472,-51.6446547238161,-46.3900680327982,5.25458669101783,49.0173613783072,-28.449620707417,-20.5677406708902
1.8810251587115,-55.3510846871309,-59.6281889506116,-4.27710426348074,57.4896368188712,-25.5369902118251,-31.9526466070462
1.88572772160828,-60.7241108872145,-70.3010864001195,-9.57697551290505,65.512598643667,-25.5735676871547,-39.9390309565123
1.89043028450506,-64.6263768563282,-76.0012473837154,-11.3748705273872,70.3138121200218,-26.6257531644705,-43.6880589555513
1.89513284740183,-69.1509442307638,-81.2384032801355,-12.0874590493717,75.1946737554496,-28.5317425906961,-46.6629311647536
1.89983541029861,-76.4449535310447,-88.863919808246,-12.4189662772013,82.6544366696453,-32.0129936269217,-50.6414430427237
1.90453797319539,-84.1756155553334,-97.2165101665908,-13.0408946112574,90.6960628609621,-35.567360472038,-55.1287023889241
1.90924053609217,-87.7051600318754,-100.314523325331,-12.6093632934557,94.0098416786032,-37.5478983692099,-56.4619433093933
1.91394309898895,-84.211857187385,-91.9624683692051,-7.75061118182009,88.0871627782951,-38.2306230027825,-49.8565397755126
1.91864566188573,-74.1508867733954,-74.1825418728142,-0.0316550994187992,74.1667143231048,-37.0596158369883,-37.1070984861165
1.92334822478251,-61.4048418820485,-57.3112117813295,4.093630100719,59.358026831689,-32.7492359913837,-26.6087908403052
1.92805078767929,-49.9774889802786,-47.241071849292,2.73641713098664,48.6092804147853,-26.3569530556326,-22.2523273591527
1.93275335057606,-39.5515999996516,-38.6218001494556,0.929799850195991,39.0867000745536,-20.2406999249238,-18.8460001496298
1.93745591347284,-28.1316420147535,-24.4811786645511,3.65046335020247,26.3064103396523,-15.891052682478,-10.4153576571743
1.94215847636962,-17.4705196308901,-8.18839193988538,9.28212769100469,12.8294557853877,-13.3763236609474,0.546867875559656
1.9468610392664,-12.065973609664,-1.55927316803024,10.5067004416337,6.8126233888471,-11.2863370256488,4.47371363680173
1.95156360216318,-14.8377805104809,-10.8403515944735,3.99742891600738,12.8390660524772,-9.41760471324415,-3.42146133923308
1.95626616505996,-24.7218242433647,-28.8539660532407,-4.13214180987598,26.7878951483027,-10.2948412167444,-16.4930539315583
1.96096872795674,-36.6316853561339,-43.4984572318488,-6.8667718757149,40.0650712939913,-14.8824567402095,-25.1826145537818
1.96567129085352,-44.2189938673936,-50.0209219346357,-5.8019280672421,47.1199579010146,-19.2085329000757,-27.9114250009389
1.97037385375029,-45.3630950934311,-52.6347408351177,-7.2716457416866,48.9989179642744,-19.0457246758722,-29.9531932884021
1.97507641664707,-45.1963934419192,-56.8758108448365,-11.6794174029172,51.0361021433778,-16.758488019501,-34.2776141238768
1.97977897954385,-48.6560384474378,-61.5621529795048,-12.906114532067,55.1090957134713,-17.8749619576854,-37.2341337557859
1.98448154244063,-51.1556508072684,-59.494983962304,-8.3393331550356,55.3253173847862,-21.4081588261164,-33.9171585586698
1.98918410533741,-45.2408319637811,-47.4205720382298,-2.17974007444866,46.3307020010055,-21.5305459446662,-24.8001560563392
1.99388666823419,-32.7431712441768,-30.7601536363533,1.98301760782346,31.7516624402651,-17.3630944260001,-14.3885680142649
1.99858923113097,-20.9645242896418,-17.2665222824691,3.6980020071727,19.1155232860554,-12.3312631484072,-6.78426013764818
2.00329179402775,-12.7026150132406,-10.6610575358652,2.04155747737548,11.6818362745529,-7.37208624530805,-4.30975002924484
2.00799435692452,-6.70614918194201,-8.58875166910246,-1.88260248716045,7.64745042552224,-2.41177334739078,-5.23567707813146
2.0126969198213,-1.57471936185681,-4.36821298699977,-2.79349362514296,2.97146617442829,0.609387131643075,-3.58085330607136
2.01739948271808,5.1816968476324,6.91492446600188,1.73322761836948,-6.04831065681714,1.72423461463146,4.32407604218568
2.02210204561486,16.5173090418496,23.9048436384689,7.38753459661933,-20.2110763401593,4.56488722261514,15.6461891175441
2.02680460851164,29.6931334413313,39.6944186575949,10.0012852162636,-34.6937760494631,9.84592411253382,24.8478519369293
2.03150717140842,36.235333075414,47.1444370830033,10.9091040075893,-41.6898850792087,12.6631145339124,29.0267705452963
2.0362097343052,32.7271057422146,45.266884747523,12.5397790053084,-38.9969952448688,10.0936633684531,28.9033318764157
2.04091229720198,24.6220677836723,38.3968578656225,13.7747900819502,-31.5094628246474,5.42363885086104,26.0858239737863
2.04561486009875,17.3247969194141,29.4504647881062,12.1256678686921,-23.3876308537601,2.59956452536102,20.7880663283991
2.05031742299553,11.3124352857972,17.732383683117,6.41994839731979,-14.5224094844571,2.44624344423869,12.0761660402184
2.05501998589231,5.74123589312683,3.02690049222076,-2.71433540090607,-4.38406819267379,4.22778564701645,0.156282545657348
2.05972254878909,0.568483691852521,-10.8695226872768,-11.4380063791293,5.15051949771214,6.00324503549092,-11.1537645332031
2.06442511168587,-3.50430072674237,-16.5892531025071,-13.0849523757647,10.0467769146247,4.79032582451117,-14.8371027391359
2.06912767458265,-2.39816249225316,-6.57627527716204,-4.17811278490888,4.4872188847076,0.889975146327856,-5.37719403103546
2.07383023747943,10.553296421404,21.1257167187338,10.5724202973298,-15.8395065700689,-0.00956193796292837,15.8490685080318
2.0785328003762,35.7051289137811,57.1863885544689,21.4812596406878,-46.445758734125,7.11193463654666,39.3338240975783
2.08323536327298,62.9576870174974,85.0674300091287,22.1097429916313,-74.012558513313,20.4239720129331,53.58858650038
2.08793792616976,81.711653634258,96.0716891745653,14.3600355403073,-88.8916714044117,33.6758090469754,55.2158623574363
2.09264048906654,90.8300433402442,95.2789444241795,4.44890108393531,-93.0544938822118,43.1905711281544,49.8639227540574
2.09734305196332,94.222974086498,90.775103647265,-3.44787043923293,-92.4990388668815,48.8354222628654,43.6636166040161
2.1020456148601,92.4565491688811,84.8312067263822,-7.62534244249889,-88.6438779476317,50.04094580569,38.6029321419417
2.10674817775688,84.9325308254569,77.7231579271956,-7.20937289826122,-81.3278443763263,46.070951861859,35.2568925144672
2.11145074065366,76.7005930703148,74.8125432915859,-1.88804977872883,-75.7565681809504,39.2943214245218,36.4622467564286
2.11615330355043,76.8141002988586,83.5449878602008,6.73088756134212,-80.1795440795297,35.0416063687583,45.1379377107714
2.12085586644721,89.2343887652024,103.958712119792,14.7243233545896,-96.5965504424972,37.2550327053064,59.3415177371908
2.12555842934399,108.77258537854,127.493576863133,18.7209914845934,-118.133081120837,45.0257969469733,73.1072841738633
2.13026099224077,125.97867667046,142.480750436454,16.5020737659936,-134.229713553457,54.7383014522334,79.4914121012238
2.13496355513755,132.845293248983,139.749582797509,6.90428954852621,-136.297438023246,62.9705018502283,73.3269361730177
2.13966611803433,126.311639247545,120.360502555529,-5.95113669201658,-123.336070901537,66.131387969781,57.2046829317561
2.14436868093111,111.284121265247,96.6666067872873,-14.6175144779602,-103.975364026267,62.9508178716038,41.0245461546635
2.14907124382789,99.1352739138979,83.3459210323949,-15.789352881503,-91.2405974731464,57.4623133977004,33.778284075446
2.15377380672467,100.518219518388,91.6501854141652,-8.86803410422294,-96.0842024662767,54.6931268113055,41.3910756549711
2.15847636962144,118.829926077469,124.384612914058,5.5546868365891,-121.607269495764,56.6376196204401,64.9696498753237
2.16317893251822,148.502014219839,169.106521477843,20.6045072580043,-158.804267848841,63.9487534809173,94.8555143679238
2.167881495415,177.973468332086,205.558847750558,27.5853794184716,-191.766158041322,75.1940444568074,116.572113584515
2.17258405831178,196.660931982113,222.626777326753,25.9658453446391,-209.643854654433,85.3475433187372,124.296311335696
2.17728662120856,201.924472929154,222.31263966876,20.3881667396058,-212.118556298957,90.768153094774,121.350403204183
2.18198918410534,198.752249832034,212.733377591967,13.9811277599333,-205.742813712,92.3855610360503,113.35725267595
2.18669174700212,193.873795023873,203.796497821069,9.9227027971956,-198.835146422471,91.9755461133387,106.859600309132
2.19139430989889,191.94559366348,202.317059940466,10.371466276986,-197.131326801973,90.787063693247,106.344263108726
2.19609687279567,193.434467600488,205.755242082331,12.320774481843,-199.594854841409,90.5568465593223,109.038008282087
2.20079943569245,194.502066420647,205.857129241988,11.3550628213409,-200.179597831317,91.5735017996531,108.606096031664
2.20550199858923,191.754143418347,199.116817049413,7.3626736310664,-195.43548023388,92.1957348936403,103.23974534024
2.21020456148601,185.920228423545,189.250574702182,3.33034627863663,-187.585401562864,91.2949410724544,96.2904604904094
2.21490712438279,179.611626083991,180.297661338295,0.686035254303988,-179.954643711143,89.4627954148434,90.4918482962994
2.21960968727957,174.207347965341,171.824096082406,-2.38325188293516,-173.015722023874,88.2952999241381,84.7204220997354
2.22431225017635,170.3998114524,164.053687381983,-6.34612407041686,-167.226749417191,88.3729677614083,78.853781655783
2.22901481307312,169.701203472666,163.237413442462,-6.46379003020365,-166.469308457564,88.0824967514347,78.3868117061293
2.2337173759699,173.114973480362,174.008777271323,0.893803790960646,-173.561875375842,86.1105848447007,87.4512905311417
2.23841993886668,178.793018572933,189.404834192004,10.6118156190705,-184.098926382469,84.0906014769314,100.008324905537
2.24312250176346,182.382502091912,195.724999503814,13.3424974119025,-189.053750797863,84.5200023400046,104.533748457858
2.24782506466024,179.637979542184,185.549689148175,5.91170960599084,-182.59383434518,86.8631349680968,95.7306993770831
2.25252762755702,167.990743203867,161.332029410054,-6.6587137938136,-164.66138630696,87.3247284988404,77.33665780812
2.2572301904538,145.674625111839,127.316341687875,-18.3582834239637,-136.495483399857,82.0164542679013,54.4790291319557
2.26193275335058,112.248135044872,84.5174400534574,-27.730694991415,-98.382787549165,69.9894150181437,28.3933725310212
2.26663531624735,71.9853834416044,36.362508148974,-35.6228752926304,-54.1739457952892,53.8041293671174,0.369816428171816
2.27133787914413,33.5852829317737,-6.74256694047835,-40.327849872252,-13.4213579956477,36.9565664020129,-23.5352084063652
2.27604044204091,5.80732840113615,-31.7977476410933,-37.6050760422295,12.9952096199786,21.7062022216828,-34.7014118416614
2.28074300493769,-5.49010782889172,-31.5031006694312,-26.0129928405395,18.4966042491615,10.2614425058239,-28.7580467549853
2.28544556783447,-0.156029549960749,-10.4594703211565,-10.3034407711957,5.3077499355586,5.07370561061748,-10.3814555461761
2.29014813073125,14.8814424396428,16.7815505314175,1.90010809177465,-15.8314964855301,6.49066717393407,9.34082931159605
2.29485069362803,29.4761566390744,34.8147663876116,5.33860974853724,-32.145461513343,12.0687734452686,20.0766880680744
2.29955325652481,35.4927391738665,35.0458508583715,-0.446888315495016,-35.269295016119,17.9698137446808,17.2994812714383
2.30425581942158,29.6843236836335,19.0123773759519,-10.6719463076815,-24.3483505297927,20.1781349956575,4.1702155341352
2.30895838231836,13.9819309652225,-3.8591651176971,-17.8410960829196,-5.06138292376272,15.9115135240711,-10.8501306003084
2.31366094521514,-7.47773494748799,-25.7592914793663,-18.2815565318783,16.6185132134271,5.40191079219517,-22.0204240056223
2.31836350811192,-31.6277428142789,-47.5202720839598,-15.8925292696808,39.5740074491193,-7.86760677229904,-31.7064006768203
2.3230660710087,-56.8599782969263,-73.3955019674504,-16.5355236705241,65.1277401321884,-20.1622273132011,-44.9655128189872
2.32776863390548,-81.6035690031058,-102.384237127202,-20.7806681240963,91.993903065154,-30.4114504395047,-61.5824526256492
2.33247119680226,-101.65183825435,-126.250588034831,-24.5987497804817,113.95121314459,-38.5265442369339,-75.4246689076565
2.33717375969904,-110.725108128203,-133.994549723746,-23.269441595543,122.359828925975,-43.7278332663302,-78.6319956596446
2.34187632259581,-107.245467993284,-122.216159046165,-14.9706910528812,114.730813519725,-46.1373884702014,-68.5934250495231
2.34657888549259,-97.1055362298639,-101.376603747931,-4.27106751806696,99.2410699888974,-46.4172343558985,-52.8238356329989
2.35128144838937,-88.0626917990803,-85.7483252305442,2.31436656853612,86.9055085148123,-45.1885291838082,-41.716979331004
2.35598401128615,-84.6163543025232,-80.3488477393607,4.26750656316244,82.482601020942,-44.4419304328428,-38.0406705880991
2.36068657418293,-86.8084697376084,-82.6079235172501,4.20054622035832,84.7081966274293,-45.5045079789834,-39.2036886484459
2.36538913707971,-92.42116768814,-89.9426514630491,2.47851622509097,91.1819095755945,-47.4498419566155,-43.732067618979
2.37009169997649,-101.072946455531,-101.048009514696,0.0249369408343227,101.060477985113,-50.5489416981825,-50.511536286931
2.37479426287327,-114.136460121866,-115.774027747783,-1.63756762591674,114.955243934824,-56.2494462479747,-58.7057976868498
2.37949682577004,-130.784091463992,-135.531317220117,-4.74722575612486,133.157704342055,-63.0184328539337,-70.139271488121
2.38419938866682,-146.649366491803,-157.819694364385,-11.1703278725813,152.234530428094,-67.7395193096111,-84.495011118483
2.3889019515636,-155.897763074987,-171.748236321546,-15.8504732465594,163.822999698267,-70.0236449142137,-93.7993547840529
2.39360451446038,-154.943000137131,-167.741360498564,-12.7983603614334,161.342180317847,-71.0723198878486,-90.2698604299987
2.39830707735716,-146.026469574125,-150.479018227624,-4.45254865349852,148.252743900874,-70.7869604603133,-77.465783440561
2.40300964025394,-135.654125651594,-133.287390173519,2.3667354780755,134.470757912557,-69.0104305648349,-65.4603273477217
2.40771220315072,-128.163398615615,-122.040509139431,6.1228894761839,125.101953877523,-67.1431440458994,-57.9588098316235
2.4124147660475,-122.821123587593,-114.377849830222,8.44327375737134,118.599486708908,-65.6321986724823,-52.9672880364253
2.41711732894427,-118.189654176432,-111.197344631504,6.99230954492759,114.693499403968,-62.5909818606796,-52.1025175432882
2.42181989184105,-116.647139134514,-116.966011053823,-0.318871919309004,116.806575094168,-58.1641336076024,-58.6424414865659
2.42652245473783,-121.200531134127,-130.038132622425,-8.83760148829788,125.619331878276,-56.1814648229146,-69.4378670553614
2.43122501763461,-129.038109722933,-140.961468857515,-11.9233591345824,134.999789290224,-58.5573752941751,-76.4424139960487
2.43592758053139,-132.16413211302,-139.792764116679,-7.62863200365882,135.97844811485,-62.2677500546807,-73.710698060169
2.44063014342817,-125.208848832506,-124.126628643927,1.08222018857828,124.667738738217,-63.145534510542,-61.5222042276746
2.44533270632495,-110.85124276127,-102.180404654072,8.67083810719782,106.515823707671,-59.7610404342338,-46.7547832734371
2.45003526922173,-96.8100093576541,-85.9159645983029,10.8940447593511,91.3629869779785,-53.8520270585026,-37.5109599194759
2.4547378321185,-89.4021691682281,-81.1629923967464,8.23917677148165,85.2825807824872,-48.8206729698549,-36.4619078126324
2.45944039501528,-90.5413813664334,-86.3098403585918,4.23154100784154,88.4256108625126,-47.3864611871375,-41.0391496753751
2.46414295791206,-97.7654190039514,-96.5619781023299,1.20344090162143,97.1636985531406,-49.4844299527864,-47.6792686003542
2.46884552080884,-105.48528543954,-106.703231833906,-1.21794639436598,106.094258636723,-52.1336695225868,-53.9605891141358
2.47354808370562,-108.951866727464,-113.10423406464,-4.15236733717552,111.028050396052,-52.3997496951442,-58.6283007009075
2.4782506466024,-108.973972770008,-115.470611365841,-6.49663859583325,112.222292067925,-51.2386670870874,-60.9836249808372
2.48295320949918,-109.922529036342,-115.896069302197,-5.97354026585526,112.909299169269,-51.9744943852432,-60.9348047840261
2.48765577239596,-113.196290598826,-116.465422557601,-3.2691319587741,114.830856578213,-54.9635793200262,-59.8672772581873
2.49235833529273,-116.242440567248,-117.178015761983,-0.935575194735065,116.710228164616,-57.6534326862565,-59.056795478359
2.49706089818951,-115.652453156588,-115.554183070778,0.0982700858098724,115.603318113683,-57.875361621199,-57.7279564924842
2.50176346108629,-109.676143747198,-110.016762030301,-0.340618283103254,109.846452888749,-54.6677627320473,-55.1786901567021
2.50646602398307,-100.808464916713,-102.600204708328,-1.79173979161578,101.704334812521,-49.5083625625484,-52.1959722499721
2.51116858687985,-94.7653451935946,-97.4773000062635,-2.71195481266886,96.121322599929,-46.0266951904629,-50.0946274094662
2.51587114977663,-94.7482533500379,-97.545335895926,-2.79708254588809,96.1467946229819,-45.9755854020749,-50.171209220907
2.52057371267341,-98.1391661897128,-100.014535938893,-1.87536974917987,99.0768510643027,-48.1318982202665,-50.9449528440363
2.52527627557019,-98.9063156093457,-97.3245049443643,1.58181066498139,98.115410276855,-50.2440631371636,-47.8713471396915
2.52997883846696,-92.9383505800824,-86.9496047291835,5.98874585089891,89.943977654633,-49.4635482154907,-40.4804294391423
2.53468140136374,-83.6351494936322,-77.5162327870175,6.11891670661464,80.5756911403249,-44.8770331001234,-35.6986580402015
2.53938396426052,-80.6084612260097,-80.8839422388737,-0.27548101286402,80.7462017324417,-40.1664901065728,-40.5797116258689
2.5440865271573,-88.447810439559,-97.5071121453867,-9.05930170582769,92.9774612924729,-39.6942543668657,-53.2832069256072
2.54878909005408,-99.487176605778,-112.522850822911,-13.0356742171325,106.005013714344,-43.2257511943228,-62.7792625200215
2.55349165295086,-101.046154585845,-109.002421032006,-7.95626644616152,105.024287808925,-46.5449440698415,-58.4793437390838
2.55819421584764,-88.2845069443929,-84.220316988115,4.06418995627791,86.2524119662539,-46.1743484503354,-40.0780635159185
2.56289677874442,-68.9406120446038,-53.6807909351503,15.2598211094535,61.310701489877,-42.1002165770286,-19.2104849128484
2.56759934164119,-56.5967609178541,-38.9966721780378,17.6000887398163,47.7967165479459,-37.0984248288352,-10.6982917191107
2.57230190453797,-59.6868748043244,-50.6080834395806,9.07879136474378,55.1474791219525,-34.3828330845341,-20.7646460374184
2.57700446743475,-75.9484979183105,-81.6926337816195,-5.744135863309,78.820565849965,-35.1021810275008,-43.7183848224643
2.58170703033153,-95.38070279,-112.707307396077,-17.3266046060774,104.044005093039,-39.0270490919613,-65.0169560010773
2.58640959322831,-106.493529375365,-123.073689525563,-16.5801601501984,114.783609450464,-44.9566846125834,-69.8269248378809
2.59111215612509,-102.729907588796,-107.591045926495,-4.86113833769923,105.160476757646,-48.9343846255485,-56.2260921320974
2.59581471902187,-86.3946205838573,-78.9671590768259,7.42746150703141,82.6808898303416,-46.9110410454444,-35.7698487848972
2.60051728191865,-65.1861339686172,-52.3149469448928,12.8711870237244,58.750540456755,-39.0286604961708,-19.7218799605842
2.60521984481542,-46.3430571383349,-35.0788909990104,11.2641661393245,40.7109740686726,-28.8036116388297,-11.907362429843
2.6099224077122,-36.0997664869324,-30.8472998893006,5.25246659763178,33.4735331881165,-20.6761165422821,-12.7974166458344
2.61462497060898,-39.9425664639234,-42.257961126947,-2.3153946630236,41.1002637954352,-18.8135859004499,-22.2866778949853
2.61932753350576,-57.5276708429313,-66.1614257416642,-8.63375489873292,61.8445482922977,-24.4469579720992,-37.3975903201986
2.62403009640254,-79.1115377614151,-90.9439454611799,-11.8324076997648,85.0277416112975,-33.6395650308251,-51.3881765804724
2.62873265929932,-93.0725897450995,-104.538922683539,-11.4663329384397,98.8057562143194,-40.8031284033299,-58.0026278109895
2.6334352221961,-96.695582177749,-104.73894085072,-8.04335867297135,100.717261514235,-44.3261117523888,-56.3911497618459
2.63813778509288,-95.0021676216695,-98.3645496392288,-3.36238201755928,96.6833586304492,-45.8198928020551,-50.863465828394
2.64284034798965,-92.2395311059003,-92.1485522672755,0.0909788386247925,92.1940416865879,-46.1652549722626,-46.0287867143254
2.64754291088643,-90.2351170647903,-88.0976532068616,2.13746385792875,89.1663851358259,-46.1862904613595,-42.9800946744664
2.65224547378321,-90.4318166890557,-85.6175971219555,4.81421956710021,88.0247069055056,-47.6230181280779,-40.4016887774276
2.65694803667999,-92.195713626117,-83.1952141202241,9.00049950589299,87.6954638731706,-50.598106566005,-37.0973573071655
2.66165059957677,-92.2253320775441,-78.1160845204006,14.1092475571434,85.1707082989724,-53.1672898173437,-32.0034184816286
2.66635316247355,-86.6968056771417,-68.466694570673,18.2301111064686,77.5817501239073,-52.4634583918052,-25.1182917321022
2.67105572537033,-73.8990318009096,-56.2078482136776,17.6911835872319,65.0534400072936,-45.7951076940708,-19.2583323132229
2.67575828826711,-57.3513112307822,-45.8379658674868,11.5133453632954,51.5946385491345,-34.4323282970388,-17.1623102520957
2.68046085116388,-44.1256427464425,-40.1120786064481,4.0135641399944,42.1188606764453,-24.0696034432184,-18.0492572332268
2.68516341406066,-38.6541899049713,-38.7750100944099,-0.120820189438625,38.7145999996906,-19.2666848577663,-19.4479151419243
2.68986597695744,-40.9932740538018,-41.9913124049643,-0.998038351162521,41.4922932293831,-19.9976178513196,-21.4946753780634
2.69456853985422,-50.6905948246477,-53.7346198019611,-3.04402497731343,52.2126073133044,-23.8232849236671,-28.3893223896373
2.699271102751,-68.5730859307081,-77.038602618085,-8.46551668737686,72.8058442743966,-30.0537846216656,-42.7520596527309
2.70397366564778,-92.0871047315038,-105.916385115227,-13.8292803837236,99.0017449233656,-39.1289121738901,-59.8728327494755
2.70867622854456,-112.241031682182,-127.196934856895,-14.9559031747134,119.718983269538,-48.6425642537341,-71.0764190158042
2.71337879144134,-119.666413936967,-130.288878340031,-10.622464403064,124.977646138499,-54.5219747669516,-70.4556713715477
2.71808135433811,-112.789216786044,-114.988563385919,-2.19934659987499,113.888890085982,-55.2949350930846,-58.5939549928971
2.72278391723489,-98.4501551048212,-92.067060645685,6.38309445913623,95.2586078752531,-52.4166247819787,-42.8419830932744
2.72748648013167,-85.0430533236361,-75.587299212264,9.45575411137202,80.3151762679501,-47.249403717504,-33.065772550446
2.73218904302845,-77.0718119511901,-72.3690818576715,4.70273009351854,74.7204469044308,-40.8872710223543,-33.8331758820765
2.73689160592523,-74.9293401501565,-77.2404947905707,-2.31115464041414,76.0849174703636,-36.3090927548712,-39.7758247154924
2.74159416882201,-75.7035786100692,-80.1902635841581,-4.48668497408886,77.9469210971136,-35.6084468179902,-42.3384742791235
2.74629673171879,-76.0449236805817,-78.106778815272,-2.06185513469035,77.0758512479269,-36.9915342729457,-40.0843169749812
2.75099929461557,-76.0047747737279,-75.1700128251557,0.834761948572236,75.5873937994418,-38.4197683611501,-37.1676254382917
2.75570185751234,-77.1048746770232,-74.6429499837592,2.46192469326405,75.8739123303912,-39.7833996851436,-36.0905126452476
2.76040442040912,-78.6615058037975,-75.6741738339676,2.98733196982988,77.1678398188826,-40.8244188868137,-36.3434209320689
2.7651069833059,-78.8767052021994,-74.9672836756957,3.90942152650371,76.9219944389476,-41.3930633643516,-35.528931074596
2.76980954620268,-76.2949774315102,-69.3479594454037,6.94701798610652,72.821468438457,-41.6209977088084,-31.2004707296486
2.77451210909946,-70.3625713481736,-59.5246947280536,10.8378766201199,64.9436330381136,-40.6002239841467,-24.3434090539669
2.77921467199624,-63.2788701819641,-51.0813218288581,12.197548353106,57.1800960054111,-37.738209267535,-19.4418867378761
2.78391723489302,-58.9455820581491,-50.3362448405362,8.60933721761285,54.6409134493426,-33.777459637881,-20.8634538114617
2.7886197977898,-59.4849655004364,-59.6236722689587,-0.138706768522297,59.5543188846975,-29.673129365957,-29.8811895187405
2.79332236068657,-64.9565085222015,-75.4504740969243,-10.4939655747228,70.2034913095629,-27.2312714737394,-42.9722198358235
2.79802492358335,-75.128504336598,-91.5002988301241,-16.3717944935261,83.314401583361,-29.378354921536,-53.9360466618251
2.80272748648013,-89.2103004412318,-104.354817400973,-15.1445169597416,96.7825589211026,-37.0328917407451,-59.7496671803575
2.80743004937691,-103.716636486606,-113.222646494267,-9.50601000766073,108.469641490437,-47.1053132394728,-61.3643282509639
2.81213261227369,-112.574904440221,-114.975296558651,-2.4003921184302,113.775100499436,-55.0872561608954,-58.6878443385407
2.81683517517047,-111.217986018806,-105.525910261703,5.69207575710311,108.371948140254,-58.4550308879544,-49.9169172522998
2.82153773806725,-99.8599589308965,-85.891982336169,13.9679765947275,92.8759706335327,-56.913967762812,-35.9620028707208
2.82624030096403,-83.0837154800041,-63.5366816046535,19.5470338753506,73.3101985423288,-51.3153746776774,-21.9948238646514
2.8309428638608,-67.3080748656283,-47.7063983368685,19.6016765287599,57.5072366012484,-43.4548756971941,-14.0523609040543
2.83564542675758,-56.4051552280641,-41.5569554044014,14.8481998236628,48.9810553162328,-35.6266775258634,-13.3543777903693
2.84034798965436,-48.9937918804877,-39.0804753566229,9.91331652386486,44.0371336185553,-29.4535542021763,-14.583579416379
2.84505055255114,-42.0724235064448,-33.820559025809,8.25186448063585,37.9464912661269,-25.1621439935403,-12.7843472725866
2.84975311544792,-36.5188763670053,-28.1960918812881,8.32278448571719,32.3574841241467,-22.4208304263612,-9.93665369778546
2.8544556783447,-37.7163608398637,-31.8023586719801,5.91400216788361,34.7593597559219,-21.8151815038736,-12.9441782520482
2.85915824124148,-50.5611359447148,-51.8117672487494,-1.25063130403464,51.1864515967321,-24.6552523203401,-26.531199276392
2.86386080413826,-71.9421794289988,-81.7902627834794,-9.84808335448065,76.8662211062391,-31.0470480372591,-45.81917306898
2.86856336703503,-89.9866165829917,-103.569989536624,-13.5833729536323,96.7783030598079,-38.2016218146797,-58.5766812451282
2.87326592993181,-95.9173853939089,-106.746899051464,-10.829513657555,101.332142222686,-42.543935868177,-58.7882063545095
2.87796849282859,-93.2869375841801,-98.4443961707855,-5.15745858660534,95.8656668774828,-44.0647394987874,-51.8009273786954
2.88267105572537,-90.4245317786404,-91.0676132732485,-0.643081494608168,90.7460725259444,-44.8907251420161,-45.8553473839283
2.88737361862215,-90.4315766282857,-89.7052906782949,0.726285949990825,90.0684336532903,-45.5789312891383,-44.489502364152
2.89207618151893,-91.9453023359922,-91.7067581029646,0.238544233027596,91.8260302194784,-46.0919232845099,-45.7341069349685
2.89677874441571,-92.493987193877,-93.0145455443997,-0.520558350522606,92.7542663691383,-45.9867144216772,-46.7675519474611
2.90148130731249,-90.2969012470101,-91.7146498233415,-1.41774857633141,91.0057755351758,-44.4395763353393,-46.5661991998364
2.90618387020926,-85.2879226935772,-85.822354801699,-0.534432108121791,85.5551387476381,-42.3767452927277,-43.1783934549104
2.91088643310604,-77.0765351781581,-73.9535710572407,3.12296412091746,75.5150531176994,-40.0997496495378,-35.4153034681616
2.91558899600282,-65.8772012944339,-59.9320600871811,5.94514120725285,62.9046306908075,-35.9111712508434,-26.9934594399641
2.9202915588996,-56.9369270712757,-52.435628190723,4.50129888055267,54.6862776309994,-30.7191129759142,-23.9671646550852
2.92499412179638,-58.0595275041001,-59.745160518446,-1.68563301434597,58.902344011273,-28.186947244877,-30.715396766396
2.92969668469316,-71.8442785160521,-82.4151301495936,-10.5708516335415,77.1297043328228,-30.6367134412553,-46.4929908915675
2.93439924758994,-91.066034363784,-106.589638073301,-15.5236037095167,98.8278362185423,-37.7712153271336,-61.0566208914087
2.93910181048672,-101.44140048127,-111.772154399172,-10.3307539179018,106.606777440221,-45.555323281684,-61.0514541585367
2.94380437338349,-93.2691489180495,-91.4992298849686,1.7699190330809,92.384189401509,-47.5195339755652,-44.8646554259439
2.94850693628027,-71.6034557843166,-60.030739080061,11.5727167042555,65.8170974321888,-41.588086244286,-24.2290111879028
2.95320949917705,-51.8981332639312,-38.5432412832824,13.3548919806487,45.2206872736068,-32.62651262229,-12.5941746513168
2.95791206207383,-45.7590430249463,-38.0407706970641,7.71827232788223,41.8999068610052,-26.7386576764143,-15.1612491845909
2.96261462497061,-51.5585892652427,-50.7275874594241,0.831001805818687,51.1430883623334,-26.1947955355307,-24.9482928268027
2.96731718786739,-57.0442457363952,-56.7142680902991,0.32997764609604,56.8792569133471,-28.6871116912456,-28.1921452221015
2.97201975076417,-50.6944207492922,-42.9293612859042,7.76505946338807,46.8118910175982,-29.2297401063402,-17.5821509112581
2.97672231366095,-32.1334990918356,-15.1897780353013,16.9437210565343,23.6616385635684,-24.5386100741849,0.876971510616499
2.98142487655772,-11.3131701613629,9.80763332650986,21.1208034878728,0.752768417426523,-16.2169868246178,15.4642184071913
2.9861274394545,1.47970180315451,20.2945107447708,18.8148089416163,-10.8871062739627,-8.6675535692309,19.5546598431936
2.99083000235128,1.83108896604176,13.9026713076978,12.071582341656,-7.86688013686978,-5.12024668780714,12.9871268246769
2.99553256524806,-9.4887648091983,-6.97223134476008,2.51653346443823,8.23049807697919,-6.00264913681826,-2.22784894016092
3.00023512814484,-28.9224610893082,-37.4088274574801,-8.48636636817196,33.1656442733942,-10.2180473605681,-22.947596912826
3.00493769104162,-52.1981370460762,-69.7952031510627,-17.5970661049864,60.9966700985694,-17.3005354705449,-43.6961346280245
3.0096402539384,-73.0216479675437,-93.9190569572315,-20.8974089896878,83.4703524623876,-26.0621194889279,-57.4082329734597
3.01434281683518,-81.7019325707911,-98.7025544163546,-17.0006218455635,90.2022434935728,-32.3506553626138,-57.851588130959
3.01904537973195,-71.503627990938,-79.0691570371966,-7.56552904625869,75.2863925140673,-31.9690494723396,-43.3173430417277
3.02374794262873,-44.7732297744708,-41.2826566957133,3.49057307875751,43.027943235092,-24.1319014266141,-18.8960418084779
3.02845050552551,-9.87592621548242,2.26623918307109,12.1421653985535,3.80484351620566,-11.009045807018,7.2042022908123
3.03315306842229,23.5745890936801,40.6652078819825,17.0906187883024,-32.1198984878313,3.24198515268881,28.8779133351425
3.03785563131907,46.6601379838935,65.5002296623163,18.8400916784228,-56.0801838231049,13.9100231527353,42.1701606703696
3.04255819421585,53.5136722176233,70.7487124311917,17.2350402135685,-62.1311923244075,18.1393160020274,43.9918763223801
3.04726075711263,44.2120945609081,56.0330350351524,11.8209404742443,-50.1225647980302,16.1955770433319,33.9269877546983
3.0519633200094,25.271856289939,28.6519536232913,3.3800973333523,-26.9619049566152,10.9458794782934,16.0160254783218
3.05666588290618,5.32406059249638,-0.496092510810286,-5.82015310330667,-2.41398404084305,5.57210684790152,-3.15812280705848
3.06136844580296,-10.8316108116835,-23.8907080362146,-13.0590972245311,17.3611594239491,1.11374320642381,-18.4749026303729
3.06607100869974,-23.5790555861336,-40.0006693942858,-16.4216138081522,31.7898624902097,-3.57872088899069,-28.211141601219
3.07077357159652,-34.7715778147663,-50.076798435141,-15.3052206203747,42.4241881249536,-9.73317859719577,-32.6910095277578
3.0754761344933,-44.5211465811153,-54.2287249001915,-9.70757831907622,49.3749357406534,-17.4067841310195,-31.9681516096339
3.08017869739008,-50.4074663597389,-51.9804884640866,-1.57302210434773,51.1939774119128,-24.4172221276956,-26.7767552842172
3.08488126028686,-48.3214602532596,-43.935463185898,4.38599706736159,46.1284617195788,-26.3537286603106,-19.7747330592682
3.08958382318363,-37.6561110527277,-31.9683928081431,5.68771824458463,34.8122519304354,-21.6719146486562,-13.1403372817792
3.09428638608041,-25.7894939497282,-22.3872361890874,3.40225776064085,24.0883650694078,-14.5958758551845,-9.49248921422327
3.09898894897719,-22.703730317189,-24.5823293474607,-1.87859903027174,23.6430298323248,-10.4125656434586,-13.2304641888662
3.10369151187397,-31.2761140291218,-40.2140702639695,-8.93795623484766,35.7450921465456,-11.1690788971371,-24.5760132494086
3.10839407477075,-45.741273555192,-59.9951506838427,-14.2538771286506,52.8682121195174,-15.7436982132707,-37.1245139062466
3.11309663766753,-59.2771456047758,-75.9504121492714,-16.6732665444956,67.6137788770236,-21.3019395301401,-46.3118393468835
3.11779920056431,-71.2123226104279,-90.6685320377605,-19.4562094273326,80.9404273240942,-25.8780565915476,-55.0623707325466
3.12250176346109,-85.2214938798015,-108.088543304674,-22.8670494248722,96.6550185922376,-31.1772222274647,-65.477796364773
3.12720432635787,-100.308331578316,-121.729317077236,-21.4209854989208,111.018824327776,-39.4436730396974,-71.5751512880786
3.13190688925464,-109.004176036943,-122.497777281038,-13.4936012440944,115.75097665899,-47.7552873964244,-67.995689262566
3.13660945215142,-107.749948211761,-112.641001189436,-4.89105297767446,110.195474700599,-51.4294476170435,-58.7660270835552
3.1413120150482,-102.751393804211,-103.024490139757,-0.273096335546143,102.887941971984,-51.2391487343323,-51.6487932376515
3.14601457794498,-102.391985329592,-101.794434247279,0.597551082313203,102.093209788435,-51.4947682059526,-50.5984415824828
3.15071714084176,-108.482416652892,-109.974914866356,-1.49249821346484,109.228665759624,-53.4949592197133,-55.7337065399106
3.15541970373854,-116.962085740602,-122.354661241206,-5.39257550060393,119.658373490904,-55.7847551199991,-63.873618370905
3.16012226663532,-123.259471393521,-130.632737067614,-7.37326567409355,126.946104230568,-57.9431028597137,-69.003001370854
3.16482482953209,-124.562708163341,-130.115203379268,-5.55249521592759,127.338955771304,-59.5051064737065,-67.8338492975979
3.16952739242887,-121.393614819439,-124.236276714618,-2.84266189517894,122.814945767028,-59.27547646213,-63.5394693048984
3.17422995532565,-118.09543285962,-120.341433178261,-2.24600031864065,119.218433018941,-57.9247162704899,-61.2937167484508
3.17893251822243,-117.901997903526,-121.422280015071,-3.52028211154447,119.662138959298,-57.1908578959908,-62.4712810633075
3.18363508111921,-119.815879597371,-124.859417318866,-5.04353772149443,122.337648458119,-57.3861709379385,-64.9514775201801
3.18833764401599,-122.587250252524,-129.236866273701,-6.64961602117728,125.912058263112,-57.9688171156731,-67.943241147439
3.19304020691277,-128.312822961669,-137.401039444655,-9.0882164829859,132.856931203162,-59.6123032393414,-73.2446279638202
3.19774276980955,-139.330123610837,-150.58996798579,-11.2598443749525,144.960045798314,-64.0351396179424,-80.9249061803712
3.20244533270632,-151.901525835432,-162.04810644778,-10.1465806123483,156.974816141606,-70.8774726115419,-86.0973435300643
3.2071478956031,-156.222389325636,-160.223931951818,-4.00154262618253,158.223160638727,-76.1104233497265,-82.1127372890003
3.21185045849988,-146.054434379602,-141.2574841028,4.79695027680191,143.655959241201,-75.4256923282021,-68.2302669129992
3.21655302139666,-126.69254853658,-115.414147050673,11.2784014859067,121.053347793626,-68.9854750112431,-52.0678727823831
3.22125558429344,-110.118286999564,-97.7603568825321,12.3579301170321,103.939321941048,-61.2381085582981,-42.70121338275
3.22595814719022,-104.362435710543,-95.8998227162851,8.4626129942576,100.131129213414,-56.4125243524002,-43.7186048610138
3.230660710087,-110.393651870254,-108.628885747172,1.7647661230817,109.511268808713,-56.0792089966676,-53.4320598120451
3.23536327298378,-125.788900975485,-131.14294427609,-5.35404330060419,128.465922625787,-60.2174288374406,-68.2484937883469
3.24006583588055,-146.994653835284,-158.190783404516,-11.1961295692317,152.5927186199,-67.8992621330262,-84.6934564868739
3.24476839877733,-169.432171145371,-184.636409558287,-15.2042384129159,177.034290351829,-77.1139663662275,-99.9203239856013
3.24947096167411,-187.365915594959,-203.611105570512,-16.2451899755529,195.488510582736,-85.5603628097033,-109.928147773033
3.25417352457089,-195.271741299679,-207.723722067439,-12.4519807677598,201.497731683559,-91.4098802659596,-110.087851417599
3.25887608746767,-192.603470901163,-198.337550879575,-5.73407997841196,195.470510890369,-93.4346954613757,-102.035815428994
3.26357865036445,-185.626833703579,-186.709644307898,-1.08281060431909,186.168239005738,-92.2720115496297,-93.8962274561084
3.26828121326123,-180.568250371501,-179.632471742259,0.935778629241668,180.10036105688,-90.7520145003712,-89.3483465565087
3.27298377615801,-175.312003797734,-171.308644843455,4.00335895427861,173.310324320594,-89.6576813760062,-83.6526429445883
3.27768633905478,-159.711274717772,-149.057665210466,10.6536095073061,154.384469964119,-85.1824421125389,-69.2020278515797
3.28238890195156,-123.259826558387,-99.7151285384657,23.5446980199213,111.487477548426,-73.4022622891541,-38.0852152592722
3.28709146484834,-60.0023754237786,-13.2303787729438,46.7719966508348,36.6163770983612,-53.3871860373067,16.7708089389455
3.29179402774512,33.2470443101179,114.248157886221,81.0011135761029,-73.7476010981693,-23.8770346329925,97.6246357311618
3.2964965906419,158.683856920272,278.881107032367,120.197250112095,-218.78248197632,19.2433034040887,199.539178572231
3.30119915353868,314.995439583288,470.761224360483,155.765784777195,-392.878331971885,79.6148274030463,313.263504568839
3.30590171643546,494.559781762294,678.480632205421,183.920850443127,-586.520206983857,155.319465659583,431.200741324274
3.31060427933224,683.576910973316,888.516752961297,204.939841987981,-786.046831967307,239.318534492667,546.728297474639
3.31530684222901,863.369671624342,1076.64736597285,213.277694348508,-970.008518798596,325.045988637917,644.962530160679
3.32000940512579,1011.26649669361,1208.62689684825,197.360400154637,-1109.94669677093,406.953048269488,702.993648501443
3.32471196802257,1104.7064566107,1258.07358074004,153.367124129337,-1181.39001867537,475.669666240681,705.720352434686
3.32941453091935,1130.28549859149,1222.35877863686,92.0732800453682,-1176.32213861417,519.106109273061,657.216029341113
3.33411709381613,1088.6375285292,1118.60003718307,29.962508653874,-1103.61878285613,529.337509937661,574.281272918472
3.33881965671291,990.082487468674,966.400218145352,-23.6822693233223,-978.241352807013,506.882378395998,471.358974411015
3.34352221960969,850.732724036908,782.81072247987,-67.9220015570382,-816.771723258389,459.327362796973,357.444360461416
3.34822478250647,693.660202082224,594.557023413331,-99.1031786688928,-644.108612747777,396.381690375558,247.726922372219
3.35292734540324,545.140164589032,436.378312432224,-108.761852156808,-490.759238510628,326.95100837292,163.808230137708
3.35762990830002,423.540732258616,327.136787398461,-96.4039448601543,-375.338759828539,259.972338559385,115.366421269154
3.3623324711968,334.169730273145,260.639711552623,-73.5300187205211,-297.404720912884,203.849874496833,93.5548464160512
3.36703503409358,275.309465588234,224.453168548414,-50.85629703982,-249.881317068324,163.082881314027,86.7984357542968
3.37173759699036,243.90679156132,213.065748756592,-30.8410428047281,-228.486270158956,137.373917183024,91.112352975932
3.37644015988714,233.763636961079,220.628536097806,-13.1351008632731,-227.196086529443,123.449368912176,103.746717617266
3.38114272278392,234.907373061339,235.561064935907,0.653691874567471,-235.234218998623,117.126840593386,118.107378405237
3.3858452856807,239.129082471918,246.740156896676,7.6110744247581,-242.934619684297,115.75900402358,127.175615660717
3.39054784857747,241.64903697405,249.00380869781,7.35477172376,-245.32642283593,117.147132625145,128.179290210785
3.39525041147425,238.148812921692,240.916981391701,2.7681684700093,-239.532897156697,117.690322225841,121.842574930855
3.39995297437103,225.57523669214,220.854171330686,-4.72106536145373,-223.214704011413,115.148151026797,108.066552984616
3.40465553726781,202.628573445843,187.210407105251,-15.4181663405922,-194.919490275547,109.023369893218,85.8961203823295
3.40935810016459,169.280719326357,142.710933298951,-26.5697860274061,-155.995826312654,97.9252526768818,58.0705736357727
3.41406066306137,131.636122633458,99.5710624450362,-32.0650601884217,-115.603592539247,81.8505914109398,33.7530011283072
3.41876322595815,102.552932183186,73.9452596720814,-28.607672511105,-88.2490959276339,65.5803023471457,22.6687935804882
3.42346578885493,89.3856867762581,69.3059989107926,-20.0796878654655,-79.3458428435254,54.7326873208618,24.6131555226635
3.4281683517517,85.2251903584511,71.1493912550425,-14.0757991034086,-78.1872908067468,49.6504947309298,28.5367960758169
3.43287091464848,77.6765414285192,62.1907794122058,-15.4857620163134,-69.9336604203625,46.5811517224163,23.3525086979462
3.43757347754526,62.3134339895289,39.5929811141075,-22.7204528754214,-50.9532075518182,42.5169434324752,8.43626411934304
3.44227604044204,43.9818265722163,14.6850609855483,-29.296765586668,-29.3334437788823,36.6392960794421,-7.30585230055988
3.44697860333882,28.4945754278672,-1.87885915159836,-30.3734345794655,-13.3078581381344,29.4340050036664,-16.126146865532
3.4516811662356,17.5363883766881,-9.66580608314393,-27.2021944598321,-3.9352911467721,22.3692914182601,-18.434000271488
3.45638372913238,9.68961201731145,-14.4943896116733,-24.1840016289848,2.40238879718095,16.9368068231481,-19.3391956203291
3.46108629202916,1.8942829562834,-21.2939958909606,-23.188278847244,9.69985646733858,12.5412809017637,-22.2411373691023
3.46578885492593,-9.33633876343265,-32.5601755160224,-23.2238367525897,20.9482571397275,6.94374899457853,-27.892006134306
3.47049141782271,-25.4370341579311,-49.6826744174627,-24.2456402595317,37.5598542876969,-0.595696949199692,-36.9641573384972
3.47519398071949,-45.0499226335642,-72.1024071124484,-27.0524844788843,58.5761648730063,-8.99871907733996,-49.5774457956663
3.47989654361627,-65.4705872577192,-94.9988796897273,-29.5282924320081,80.2347334737233,-17.9711474128555,-62.2635860608677
3.48459910651305,-82.3461429805552,-110.045577712287,-27.6994347317313,96.1958603464209,-27.3233541244119,-68.872506222009
3.48930166940983,-90.263246023153,-111.958755606796,-21.6955095836429,101.111000814974,-34.283868219755,-66.8271325952194
3.49400423230661,-88.3223011561331,-104.597748552783,-16.2754473966502,96.4600248544582,-36.0234268797415,-60.4365979747167
3.49870679520339,-83.7802427061738,-97.880301259424,-14.1000585532502,90.8302719827989,-34.8400920764618,-55.9901799063371
3.50340935810016,-85.7032462667293,-99.1563672510422,-13.4531209843129,92.4298067588857,-36.1250626412082,-56.3047441176776
3.50811192099694,-94.213673727285,-107.908236735023,-13.6945630077378,101.060955231154,-40.2595553597736,-60.8013998713803
3.51281448389372,-100.015349317981,-115.374355578752,-15.3590062607708,107.694852448366,-42.328171528605,-65.3666809197612
3.5175170467905,-96.0836397882092,-110.926583817129,-14.8429440289201,103.505111802669,-40.6203478796446,-62.8847639230247
3.52221960968728,-85.3852350034842,-94.2049423378212,-8.81970733433695,89.7950886706527,-38.2827638345736,-51.5123248360791
3.52692217258406,-75.0444099386018,-76.5610473026395,-1.51663736403771,75.8027286206207,-36.763886287282,-39.0388423333386
3.53162473548084,-67.3568425228391,-66.8887244095363,0.468118113302808,67.1227834661877,-33.9124803180709,-33.2103031481167
3.53632729837762,-60.2431788457881,-62.2979851248319,-2.05480627904387,61.27058198531,-29.0941862833721,-32.1763957019379
3.54102986127439,-52.2241314948623,-54.4980913050321,-2.2739598101698,53.3611113999472,-24.9750858423462,-28.3860255576009
3.54573242417117,-43.5240050881675,-42.1163406250099,1.40766446315763,42.8201728565887,-22.4658347756626,-20.3543380809261
3.55043498706795,-36.3833706196864,-32.5239577372669,3.85941288241952,34.4536641784766,-20.121391751053,-14.3322724274237
3.55513754996473,-34.3681470397295,-31.1038308109004,3.2643162288291,32.7359889253149,-18.8162316342793,-13.9197572910356
3.55984011286151,-38.2163042183255,-35.3894839786951,2.82682023963036,36.8028940985103,-20.5215622289779,-16.2813318695324
3.56454267575829,-44.0521297000153,-39.8956864502225,4.1564432497928,41.9739080751189,-24.104286474904,-17.8696216002148
3.56924523865507,-47.6032626625695,-42.8704317094129,4.73283095315662,45.2368471859912,-26.168046807863,-19.0688003781281
3.57394780155185,-50.0782409968141,-49.774022670216,0.304218326598061,49.9261318335151,-25.1912296617061,-24.734902171809
3.57865036444862,-57.8033875529451,-67.8262812104001,-10.022893657455,62.8148343816726,-23.890246947745,-38.9245874339276
3.5833529273454,-72.2362710513792,-92.0121492250958,-19.7758781737166,82.1242101382375,-26.2301964388313,-55.8940136994062
3.58805549024218,-83.2102029479837,-103.184562337621,-19.974359389637,93.1973826428022,-31.6179217791733,-61.5794608636289
3.59275805313896,-79.347131897355,-88.9548051137269,-9.60767321637195,84.150968505541,-34.8697293404915,-49.2812391650494
3.59746061603574,-61.8848802578566,-58.3028854187031,3.58199483915348,60.0938828382799,-32.733437548505,-27.3604452897748
3.60216317893252,-41.2101246991936,-29.1702067547385,12.0399179444551,35.190165726966,-26.6250213218243,-8.56514440514172
3.6068657418293,-24.6162622867021,-10.8454262981455,13.7708359885565,17.7308442924238,-19.1935491376293,1.46270484520551
3.61156830472608,-13.2780942986623,-1.8669427621785,11.4111515364838,7.57251853042038,-12.344622917573,4.77210438715264
3.61627086762285,-6.34819402066603,1.87973991396404,8.22793393463007,2.23422705335099,-7.28806397764805,5.05383692429706
3.62097343051963,-2.88589420617541,1.47726978076707,4.36316398694248,0.704312212704167,-3.62452909655894,2.92021688385478
3.62567599341641,-1.19401537884448,-2.59185147536198,-1.39783609651749,1.89293342710323,0.101910358836506,-1.99484378593974
3.63037855631319,1.13953663487075,-5.93380443110391,-7.07334106597466,2.39713389811658,4.10643885042271,-6.50357274853928
3.63508111920997,5.33317459699617,-3.29071766878224,-8.62389226577841,-1.02122846410697,6.97853343138729,-5.95730496728032
3.63978368210675,9.49646253884691,3.85983992488752,-5.63662261395939,-6.67815123186722,7.56654257640315,-0.888391344535933
3.64448624500353,9.28840222017084,5.97047817537157,-3.31792404479927,-7.6294401977712,6.30316313248505,1.32627706528615
3.64918880790031,1.19561533707997,-5.63504434980848,-6.83065968688845,2.21971450636426,4.01313751198421,-6.23285201834847
3.65389137079708,-13.460797319477,-27.4415825060153,-13.9807851865382,20.4511899127461,0.259993933530609,-20.7111838462768
3.65859393369386,-27.2153386956254,-44.144679983792,-16.9293412881666,35.6800093397087,-5.1429987037294,-30.5370106359793
3.66329649659064,-30.6421092387947,-42.1983518634451,-11.5562426246504,36.4202305511199,-9.54293330707213,-26.8772972440477
3.66799905948742,-19.1086692949483,-20.7517687831203,-1.64309948817197,19.9302190390343,-8.73278490338816,-11.1974341356461
3.6727016223842,3.94807871965293,9.74463142842058,5.79655270876765,-6.84635507403675,-0.924236994557361,7.77059206859411
3.67740418528098,28.3664710095522,34.8728629823327,6.50639197278042,-31.6196669959425,10.9300395183859,20.6896274775565
3.68210674817776,42.4009119127379,44.5325948724162,2.1316829596783,-43.4667533925771,20.1346144765298,23.3321389160473
3.68680931107454,41.2207306734226,39.8117965615111,-1.40893411191155,-40.5162636174668,21.3148323926671,19.2014312247998
3.69151187397131,31.622035643529,31.6203673562555,-0.00166828727344637,-31.6212014998923,15.8118519654012,15.809349534491
3.69621443686809,26.4838858418932,31.7015574054216,5.21767156352837,-29.0927216236574,10.6331071391824,18.459614484475
3.70091699976487,33.8705744663541,44.3993659787097,10.5287915123556,-39.1349702225319,11.6708914769993,27.4640787455327
3.70561956266165,51.3718222879452,65.1937974200857,13.8219751321406,-58.2828098540155,18.7749235779023,39.5078862761131
3.71032212555843,70.6178671058558,85.449969534,14.8321024281443,-78.0339183199279,27.8928823388558,50.1410359810722
3.71502468845521,85.0398620190282,97.6289782799377,12.5891162609095,-91.3344201494829,36.2253728790594,55.1090472704236
3.71972725135199,92.3349722896523,98.8656448188522,6.53067252919982,-95.6003085542523,42.9021498802263,52.698158674026
3.72442981424877,92.6314351904576,91.7715180800732,-0.859917110384458,-92.2014766352654,46.745676150421,45.4558004848444
3.72913237714554,86.8048878593944,80.1241711770039,-6.68071668239054,-83.4645295181991,46.7428022708925,36.7217272473067
3.73383494004232,76.8802838265913,66.3629048248114,-10.5173790017799,-71.6215943257013,43.6988314141856,27.9227629115157
3.7385375029391,67.3009766180518,55.5240467393489,-11.7769298787028,-61.4125116787004,39.5389532483773,21.873558430323
3.74324006583588,64.0839868139949,55.6507778920537,-8.43320892194117,-59.8673823530243,36.258597867968,23.6087844850563
3.74794262873266,71.7814255075158,70.6147242616917,-1.16670124582413,-71.1980748846037,36.47406337667,34.7240115079338
3.75264519162944,90.214382039145,96.283846058357,6.06946401921198,-93.249114048751,42.0724590099665,51.1766550387845
3.75734775452622,113.875003936003,124.652443389783,10.7774394537799,-119.263723662893,51.5487822411115,67.7149414217814
3.762050317423,136.037842905685,148.459911690634,12.4220687849496,-142.24887729816,61.8078870603676,80.440990237792
3.76675288031977,152.869668432821,162.609445424183,9.73977699136208,-157.739556928502,71.5649457207294,86.1746112077725
3.77145544321655,162.820263722578,165.776215248382,2.95595152580449,-164.29823948548,79.9321560983867,84.3660833870935
3.77615800611333,164.889222853578,161.367989122518,-3.52123373106042,-163.128605988048,84.2052282923194,78.9233776957287
3.78086056901011,159.719679221897,153.689983031338,-6.02969619055943,-156.704831126618,82.8746877062284,73.8301434203893
3.78556313190689,150.703983216162,145.119822603881,-5.58416061228149,-147.911902910021,78.1440719142219,69.7678309957996
3.79026569480367,142.750951904079,139.568455974475,-3.18249592960365,-141.159703939277,72.9667239168414,68.1929800224359
3.79496825770045,141.062858550852,143.056926346914,1.99406779606193,-142.059892448883,69.5343953773952,72.5254970714881
3.79967082059723,148.37953061928,156.096649240434,7.71711862115353,-152.238089929857,70.3312059990634,81.9068839307937
3.804373383494,159.675968566564,168.327066581527,8.6510980149626,-164.001517574045,75.5124352758007,88.4890822982446
3.80907594639078,163.01866233178,165.211407463296,2.19274513151663,-164.115034897538,80.4129586001316,83.7020762974065
3.81377850928756,150.473326654446,142.429625430397,-8.04370122404885,-146.451476042421,79.2585139392473,67.1929621031741
3.81848107218434,128.38177440258,113.795599350971,-14.5861750516094,-121.088686876776,71.4839747270948,49.6047121496807
3.82318363508112,113.971949668229,102.177739155899,-11.7942105123293,-108.074844412064,62.883080090279,45.1917643217851
3.8278861979779,119.90893385456,120.741783420509,0.832849565948663,-120.325358637534,59.5380421443057,60.7873164932287
3.83258876087468,144.862999308686,163.542005067043,18.6790057583567,-154.202502187865,63.0919967751648,91.1105054126998
3.83729132377146,178.483055737315,211.757200394342,33.2741446570276,-195.120128065829,72.6044555401436,122.515672525685
3.84199388666823,210.466469019172,246.783182811494,36.3167137923222,-228.624825915333,87.0748776134251,141.549948301908
3.84669644956501,234.588160102384,260.125550425056,25.5373903226719,-247.35685526372,104.525384889856,142.831470373864
3.85139901246179,245.982418553418,253.00092256505,7.01850401163119,-249.491670559234,119.481957270894,130.00971328834
3.85610157535857,238.758605056233,229.169346076898,-9.58925897933523,-233.963975566566,124.173932017784,109.790043548781
3.86080413825535,211.790524702125,192.981948114487,-18.8085765876376,-202.386236408306,115.299550644881,87.0866857634248
3.86550670115213,174.350604900187,152.676939203946,-21.6736656962412,-163.513772052067,98.0121352982142,65.5016367538524
3.87020926404891,140.652183411121,119.612297018145,-21.0398863929754,-130.132240214633,80.8460349020481,49.286205312585
3.87491182694569,119.559159435624,102.133196389279,-17.4259630463453,-110.846177912451,68.4925612409845,42.3536166714666
3.87961438984246,110.50998995936,99.0298029509913,-11.4801870083684,-104.769896455176,60.995088483864,43.7748079713115
3.88431695273924,107.200534700424,101.112237290733,-6.08829740969122,-104.156385995578,56.6444160550575,47.5119699405207
3.88901951563602,105.512076709438,103.440506477801,-2.07157023163745,-104.476291593619,53.7918234705378,50.6844681230816
3.8937220785328,107.880919150658,110.295530570695,2.41461142003709,-109.088224860677,52.7331538653104,56.3550709953661
3.89842464142958,117.060582908422,123.231315742856,6.17073283443415,-120.145949325639,55.4449250369939,64.7010242886452
3.90312720432636,127.673010452685,132.927687320966,5.25467686828142,-130.300348886825,61.2091667922016,69.0911820946237
3.90782976722314,129.227357760112,128.061984605081,-1.16537315503138,-128.644671182597,65.1963654575718,63.4483057250247
3.91253233011992,116.251042325081,106.570569680456,-9.68047264462484,-111.410806002768,62.9657574848527,48.4450485179154
3.91723489301669,91.4245372729542,75.0189671428639,-16.4055701300904,-83.221752207909,53.9150537015223,29.3066985063867
3.92193745591347,61.3532381899704,41.4227101777456,-19.9305280122248,-51.387974183858,40.6418831010976,10.7460910827604
3.92664001881025,33.170030091454,12.3298964512255,-20.8401336402285,-22.7499632713398,27.0050818658412,-4.25511859450148
3.93134258170703,12.1317462188358,-7.58052709080903,-19.7122733096448,-2.27560956401339,15.9220097642403,-13.6464002002269
3.93604514460381,-1.53116056666477,-18.6618001359634,-17.1306395692986,10.0964803513141,7.79973950131694,-17.896219852631
3.94074770750059,-12.4515824921832,-26.6687328469188,-14.2171503547356,19.560157669551,0.882783931276208,-20.4429416008272
3.94545027039737,-25.1165972070758,-36.5926259477951,-11.4760287407194,30.8546115774354,-6.8202842331782,-24.0343273442572
3.95015283329415,-39.8251752346414,-49.1425365399905,-9.3173613053491,44.4838558873159,-15.2539069646461,-29.2299489226698
3.95485539619092,-54.4993249851245,-63.5471061073895,-9.04778112226495,59.023215546257,-22.7257719314298,-36.2974436148272
3.9595579590877,-68.3703317312529,-79.5381341693119,-11.167802438059,73.9542329502824,-28.601264646597,-45.3529683036854
3.96426052198448,-81.6562178263002,-96.2622494188308,-14.6060315925306,88.9592336225655,-33.5250931168848,-55.4341405056807
3.96896308488126,-93.6301804470663,-110.269690221279,-16.6395097742125,101.949935334173,-38.4953353364269,-63.4545999977456
3.97366564777804,-102.679980001393,-116.685232901624,-14.0052529002314,109.682606451508,-44.3373635505807,-65.3452429009278
3.97836821067482,-107.01547499427,-115.345914878225,-8.33043988395502,111.180694936247,-49.3425175551574,-61.83817738109
3.9830707735716,-106.855192961547,-112.855191683091,-5.99999872154422,109.855192322319,-50.4275971200013,-59.4275952023177
3.98777333646838,-106.609619646232,-115.868854404609,-9.25923475837681,111.23923702542,-48.6751924439275,-62.5640445814927
3.99247589936515,-111.227532514496,-124.9225382129,-13.6950056984033,118.075035363698,-48.7662634080466,-69.3087719556515
3.99717846226193,-121.265746951541,-136.468468846207,-15.202721894666,128.867107898874,-53.0315125284374,-75.8355953704363
4.00188102515871,-133.923344900786,-147.454351126809,-13.5310062260228,140.688848013797,-60.1961693373817,-80.4926786764158
4.00658358805549,-145.6663598664,-154.436142368047,-8.76978250164711,150.051251117224,-68.4482886823764,-81.6029624348471
4.01128615095227,-153.834270829326,-154.661616514698,-0.827345685372165,154.247943672012,-76.5034625719768,-77.744481100035
4.01598871384905,-157.862398809588,-151.012179188366,6.8502196212221,154.437288998977,-82.3563092154052,-72.080979783572
4.02069127674583,-157.475912926632,-147.931028957896,9.54488396873603,152.703470942264,-83.5103984476839,-69.1930724945798
4.02539383964261,-151.727059202466,-145.02831874005,6.69874046241603,148.377688971258,-79.2128998324411,-69.164789138817
4.03009640253938,-141.653477383919,-140.426479433519,1.22699795039944,141.039978408719,-71.4402376671592,-69.59974074156
4.03479896543616,-130.726244346679,-134.103426632943,-3.37718228626409,132.414835489811,-63.6745310302076,-68.7403044596037
4.03950152833294,-122.174674061242,-126.079012968882,-3.90433890763984,124.126843515062,-59.135167576801,-64.9916759382608
4.04420409122972,-117.274493952873,-117.402983148145,-0.128489195271868,117.338738550509,-58.5730023788005,-58.7657361717083
4.0489066541265,-115.667967701595,-111.786303454351,3.88166424724341,113.727135577973,-59.7748159744191,-53.952319603554
4.05360921702328,-116.366104234287,-111.439050086278,4.92705414800844,113.902577160283,-60.6465791911477,-53.255997969135
4.05831177992006,-118.221163083501,-114.147246854915,4.07391622858586,116.184204969208,-61.1475396560436,-55.0366653131648
4.06301434281684,-120.203086455575,-116.891227799488,3.31185865608722,118.547157127532,-61.7574725558313,-56.7896845717005
4.06771690571361,-121.702320395764,-118.99957402162,2.70274637414354,120.350947208692,-62.2025333849537,-58.1484138237383
4.07241946861039,-122.745050056737,-121.297496560553,1.44755349618481,122.021273308645,-62.0963017764611,-59.9249715321839
4.07712203150717,-123.829816745077,-124.111583465299,-0.281766720221867,123.970700105188,-61.7740250124277,-62.1966750927605
4.08182459440395,-123.97763864836,-125.483215474507,-1.50557682614681,124.730427061433,-61.2360309111066,-63.4943961503268
4.08652715730073,-119.902864907731,-121.937547651141,-2.03468274341003,120.920206279436,-58.9340910821604,-61.9861151972755
4.09122972019751,-111.484045995881,-114.222488605657,-2.7384426097758,112.853267300769,-54.3728016930525,-58.4804656077162
4.09593228309429,-105.999099282054,-109.82485399394,-3.82575471188602,107.911976637997,-51.086672285084,-56.825304352913
4.10063484599107,-110.280679488126,-113.848272863693,-3.56759337556741,112.06447617591,-53.3565430562793,-58.7079331196304
4.10533740888784,-120.676573559412,-120.88128215543,-0.204708596017326,120.778927857421,-60.2359324816974,-60.5429953757234
4.11003997178462,-127.129837194497,-122.12520357262,5.00463362187747,124.627520383558,-66.0672354081873,-58.5602849753711
4.1147425346814,-125.08804541564,-116.430221472809,8.6578239428311,120.759133444225,-66.8729346792358,-53.8861987649891
4.11944509757818,-117.635342249022,-108.711455097432,8.9238871515895,113.173398673227,-63.2796147003056,-49.8937839729214
4.12414766047496,-108.818134660353,-101.594824697601,7.22330996275218,105.206479678977,-58.0207223115525,-47.1857573674242
4.12885022337174,-100.95594032168,-94.5624364608127,6.39350386086699,97.7591883912462,-53.6747220912733,-44.0844662999729
4.13355278626852,-96.2296060502026,-88.9345010643419,7.29510498586069,92.5820535572723,-51.7623555180317,-40.8196980392406
4.13825534916529,-96.0429649425807,-88.6343767330129,7.40858820956782,92.3386708377968,-51.7257765760743,-40.6128942617225
4.14295791206207,-99.6840093452786,-95.4553972120817,4.22861213319686,97.5697032786802,-51.9563107392377,-45.6133925394424
4.14766047495885,-105.95931564493,-106.085845344699,-0.126529699769321,106.022580494815,-52.9163929725804,-53.1061875222344
4.15236303785563,-114.304198985311,-115.768526556773,-1.46432757146238,115.036362771042,-56.4199357069242,-58.6164270641178
4.15706560075241,-123.026027101731,-122.779139125005,0.24688797672593,122.902583113368,-61.6364575392287,-61.2661255741398
4.16176816364919,-129.266191545308,-127.381280890416,1.88491065489222,128.323736217862,-65.5755511001,-62.7481851177617
4.16647072654597,-130.377045277188,-127.949647300509,2.42739797667844,129.163346288848,-66.402221626933,-62.7611246619153
4.17117328944275,-124.367943372144,-120.358561660908,4.00938171123653,122.363252516526,-64.1886625416905,-58.1745899748357
4.17587585233952,-111.688810064518,-103.272275092072,8.4165349724459,107.480542578295,-60.0526725184821,-47.4278700598132
4.1805784152363,-95.5811873632865,-81.8501383716334,13.7310489916531,88.71566286746,-54.6561181774698,-34.0595446899902
4.18528097813308,-79.3749397310315,-62.8397315600444,16.5352081709872,71.1073356455379,-47.9550739510094,-23.1522616945286
4.18998354102986,-65.441543753775,-49.2900038184877,16.1515399352874,57.3657737861313,-40.7965418445312,-16.5692319416002
4.19468610392664,-56.5017870340145,-42.6880819129968,13.8137051210176,49.5949344735056,-35.157746077516,-14.4371883959896
4.19938866682342,-56.1502124057056,-46.5355376802623,9.61467472544325,51.342875042984,-32.8824435655744,-18.4604314774095
4.2040912297202,-66.398482543402,-64.3169193556691,2.08156318773285,65.3577009495356,-34.2400228655674,-31.1176780839681
4.20879379261698,-84.1532346054375,-91.8813420373635,-7.72810743192599,88.0172883214005,-38.2125635867558,-49.8047247346448
4.21349635551375,-100.901163919886,-113.370458595783,-12.469294675897,107.135811257834,-44.2159346219944,-62.91987663584
4.21819891841053,-106.909795957885,-112.876546282803,-5.96675032491817,109.893171120344,-50.4715228164836,-59.4216483038608
4.22290148130731,-98.1156013561836,-91.5907356719787,6.52486568420483,94.8531685140811,-52.3202335201942,-42.532934993887
4.22760404420409,-80.2550721929945,-66.7054197994352,13.5496523935593,73.4802459962149,-46.9023622932769,-26.577883702938
4.23230660710087,-64.9310918751256,-54.4028854071951,10.5282064679305,59.6669886411603,-37.7296491715281,-21.9373394696323
4.23700916999765,-61.5015349902379,-58.758581277105,2.74295371313292,60.1300581336715,-32.1222443516854,-28.007813781986
4.24171173289443,-72.5597137569492,-75.2165491546428,-2.65683539769361,73.888131455796,-34.9514391796278,-38.9366922761682
4.24641429579121,-93.1040623784064,-97.4481682199075,-4.34410584150112,95.276115299157,-44.3799782684526,-50.8961370307043
4.25111685868799,-112.564939153454,-117.538465943854,-4.97352679039994,115.051702548654,-53.7957061815271,-61.255996367127
4.25581942158476,-121.948873684994,-127.627026814777,-5.67815312978271,124.787950249886,-58.1353602776058,-66.6525899722799
4.26052198448154,-120.891161009585,-127.768310094604,-6.87714908501897,124.329735552094,-57.0070059622828,-67.3227295898113
4.26522454737832,-115.500430843137,-124.570534185271,-9.0701033421343,120.035482514204,-53.2151637505012,-66.8203187637026
4.2699271102751,-109.26322739579,-117.619679254977,-8.35645185918708,113.441453325384,-50.4533877683016,-62.9880655570822
4.27462967317188,-99.2220971037986,-98.4512849081433,0.770812195655267,98.8366910059709,-49.9964546497269,-48.840236356244
4.27933223606866,-83.0145063469623,-68.4133500159405,14.6011563310218,75.7139281814514,-48.807831338992,-26.9060968424594
4.28403479896544,-67.0705378955974,-45.7408289031133,21.329708992484,56.4056833993554,-44.2001234440407,-12.2055599553146
4.28873736186222,-62.4083177651848,-46.5463517044978,15.861966060687,54.4773347348413,-39.1351419129359,-15.3421928219054
4.29343992475899,-71.2852093391922,-65.4773418601327,5.8078674790595,68.3812755996625,-38.5465384091259,-29.8347371905366
4.29814248765577,-83.3495629531333,-83.7621937151996,-0.412630762066286,83.5558783341664,-41.4684660955335,-42.0874122386329
4.30284505055255,-87.7172186897647,-90.3477875093967,-2.63056881963203,89.0325030995807,-42.5433249350663,-46.4891781645144
4.30754761344933,-83.8948194964871,-86.5490578351788,-2.65423833869171,85.2219386658329,-40.6202905788977,-44.6016480869353
4.31225017634611,-77.383346632849,-77.4929851059146,-0.109638473065573,77.4381658693818,-38.6368540798917,-38.8013117894901
4.31695273924289,-70.2538012477309,-65.5174733588071,4.73632788892382,67.885637303269,-37.4950645683274,-30.3905727349416
4.32165530213967,-60.9043179908357,-50.652436050282,10.2518819405537,55.7783770205588,-35.5780999656947,-20.2002770548642
4.32635786503644,-49.5905223309224,-37.0222022163711,12.5683201145513,43.3063622736467,-31.0794212227369,-12.2269410509099
4.33106042793322,-40.9295300616007,-32.5862459634967,8.34328409810405,36.7578880125487,-24.6364070798524,-12.1214809326963
4.33576299083,-40.9200947947851,-40.6064709875351,0.313623807249968,40.7632828911601,-20.6168593010175,-20.1464235901426
4.34046555372678,-50.8241380054255,-56.5904914201884,-5.7663534147629,53.707314712807,-22.5288922953313,-31.1784224174757
4.34516811662356,-64.842418342382,-72.7220278286323,-7.87960948625027,68.7822230855072,-28.4814044280659,-40.3008186574413
4.34987067952034,-76.1642199159606,-83.6037519981252,-7.43953208216459,79.8839859570429,-34.362343916898,-45.5216420401449
4.35457324241712,-83.2598440248046,-89.190313363784,-5.93046933897932,86.2250786942943,-38.6646873429127,-47.5603913513816
4.3592758053139,-87.4225996586022,-92.2824621091018,-4.85986245049958,89.852530883852,-41.2813686040513,-48.5711622798007
4.36397836821067,-88.7748101606649,-93.284933896712,-4.51012373604715,91.0298720286884,-42.1323432123089,-48.8975288163796
4.36868093110745,-87.4810738827294,-89.9161339062983,-2.43506002356889,88.6986038945139,-42.5230069295803,-46.1755969649336
4.37338349400423,-84.3226048321608,-82.0051523819436,2.31745245021727,83.1638786070522,-43.3200286411891,-39.8438499658631
4.37808605690101,-79.4397473419019,-72.9582912394766,6.48145610242523,76.1990192906893,-42.9606017221635,-33.2384175685257
4.38278861979779,-73.6180258826192,-67.9223145551326,5.69571132748655,70.7701702188759,-39.6568686050529,-31.113301613823
4.38749118269457,-70.0304839845002,-71.7689470634078,-1.73846307890761,70.899715523954,-34.1460104527963,-36.7537050711577
4.39219374559135,-72.0860966990375,-84.2537432830409,-12.1676465840034,78.1699199910392,-29.9592250575171,-48.2106949335221
4.39689630848813,-79.1866792790735,-96.5445685869295,-17.357889307856,87.8656239330015,-30.9143949856087,-56.9512289473927
4.4015988713849,-85.9631503741514,-98.3124834415056,-12.3493330673542,92.1378169078285,-36.8069086533986,-55.3309082544299
4.40630143428168,-87.5469135329249,-90.4877293261276,-2.94081579320266,89.0173214295262,-42.3030488698611,-46.7142725596651
4.41100399717846,-85.0326845092325,-84.0702925883886,0.962391920843856,84.5514885488105,-42.9975382150382,-41.5539503337724
4.41570656007524,-82.1909388895507,-84.2145132602819,-2.02357437073124,83.2027260749163,-40.0836822594097,-43.1190438155066
4.42040912297202,-78.9511640265465,-84.8497900249037,-5.89862599835715,81.9004770257251,-36.5262690140947,-45.3742080116304
4.4251116858688,-73.2605003324655,-79.5942119645442,-6.33371163207869,76.4273561485049,-33.4633943501934,-42.9639617983115
4.42981424876558,-66.6585120372318,-70.3041026557238,-3.64559061849195,68.4813073464778,-31.5064607093699,-36.9748466371079
4.43451681166236,-64.3006723455459,-65.6003688020318,-1.29969645648589,64.9505205737888,-31.50048794453,-33.4500326292588
4.43921937455913,-70.9257806740225,-74.4104429387468,-3.48466226472431,72.6681118063846,-33.7205592046491,-38.9475526017355
4.44392193745591,-87.4919255484945,-98.3317277195531,-10.8398021710586,92.9118266340238,-38.3260616887179,-54.5857649453059
4.44862450035269,-108.689316753781,-125.86119353196,-17.1718767781791,117.27525514287,-45.7587199878009,-71.5165351550696
4.45332706324947,-123.002580980941,-137.624350458211,-14.6217694772702,130.313465719576,-54.1904057518355,-76.1230599677407
4.45802962614625,-121.010507277349,-124.696272825573,-3.68576554822403,122.853390051461,-58.6623708645624,-64.1910191868985
4.46273218904303,-105.237580669831,-98.8836746779987,6.35390599183211,102.060627673915,-55.7957433308314,-46.2648843430833
4.46743475193981,-86.6508214070634,-78.9944817384901,7.65633966857331,82.8226515727767,-47.1535805378184,-35.6690710349584
4.47213731483659,-73.0788872208195,-71.0161141395802,2.06277308123936,72.0475006801998,-37.5708301510294,-34.4766705291704
4.47683987773336,-65.9526701800919,-68.3593537895249,-2.406683609433,67.1560119848084,-31.7729932853294,-35.383018699479
4.48154244063014,-64.5591005642555,-67.4571320701832,-2.89803150592775,66.0081163172193,-30.8305345291639,-35.1775817880555
4.48624500352692,-68.4325495486078,-71.9690106361697,-3.53646108756197,70.2007800923888,-32.4480442305229,-37.7527358618659
4.4909475664237,-76.4932676772294,-82.8178386574903,-6.32457098026089,79.6555531673598,-35.0843483484842,-44.5712048188756
4.49565012932048,-86.0615445914864,-95.2616051195514,-9.20006052806502,90.6615748555189,-38.4307420317107,-52.2308328238082
4.50035269221726,-93.4913886533423,-104.57520790795,-11.0838192546082,99.0332982806464,-41.203784699367,-57.8295135812793
4.50505525511404,-95.3990458053167,-106.87939019403,-11.4803443887135,101.139217999674,-41.9593507083016,-59.1798672913719
4.50975781801082,-90.352596792043,-99.0599375342408,-8.70734074219786,94.7062671631419,-40.8226280249226,-53.8836391382193
4.51446038090759,-81.1597769319571,-84.6826275627636,-3.52285063080649,82.9212022473604,-38.8184631505753,-44.1027390967851
4.51916294380437,-73.6573435499045,-74.2098061785257,-0.552462628621242,73.9335748642151,-36.5524404606416,-37.3811344035735
4.52386550670115,-71.1321063637449,-73.2312793242979,-2.09917296055301,72.1816928440214,-34.516466701596,-37.6652261424255
4.52856806959793,-71.7757475025728,-75.8714920205155,-4.09574451794265,73.8236197615441,-33.8400014923151,-39.9836182692291
4.53327063249471,-71.9941532444486,-73.5496414140225,-1.55548816957389,72.7718973292356,-35.2193325374374,-37.5525647917982
4.53797319539149,-69.5032871183337,-64.3918694218708,5.11141769646292,66.9475782701022,-37.3073524073983,-29.6402258627039
4.54267575828827,-64.2163680708431,-53.0748350497388,11.1415330211044,58.645601560291,-37.6789505459737,-20.9666510143172
4.54737832118505,-58.4479972951633,-46.1021030537124,12.3458942414509,52.2750501744379,-35.3969457683071,-16.8781044061308
4.55208088408182,-55.6018364396211,-47.0492060550891,8.55263038453199,51.3255212473551,-32.0772334120766,-19.2482878352786
4.5567834469786,-57.8695534765634,-54.8059045331463,3.06364894341709,56.3377290048549,-30.4666012099902,-25.8711277948646
4.56148600987538,-64.3542435896163,-65.839752467718,-1.48550887810165,65.0969980286671,-31.4343673557573,-33.6626306729098
4.56618857277216,-71.2186142279872,-76.3747609979832,-5.15614676999598,73.7966876129852,-33.0312337289956,-40.7654538839896
4.57089113566894,-74.3906115969878,-81.2229999266633,-6.8323883296755,77.8068057618256,-33.7791116336562,-44.0276941281694
4.57559369856572,-70.8551885147626,-73.4693215846339,-2.61413306987129,72.1622550496983,-34.1205277224457,-38.0417273272526
4.5802962614625,-57.8418052665613,-50.8928686647469,6.94893660181447,54.3673369656541,-32.3953709341879,-21.9719660314662
4.58499882435928,-37.1476872437088,-23.3475990155571,13.8000882281517,30.2476431296329,-25.4738877359302,-4.77375539370269
4.58970138725605,-20.407256115988,-8.275978457365,12.131277658623,14.3416172866765,-16.2692668873055,1.92764960062902
4.59440395015283,-20.5081158952958,-15.4810383631973,5.02707753209847,17.9945771292465,-12.7675967136971,-5.22698041554941
4.59910651304961,-36.6964783718254,-37.6068016284244,-0.910323256598986,37.1516400001249,-17.8930775576132,-19.2585624425117
4.60380907594639,-54.7768116848495,-56.6880268576024,-1.91121517275292,55.7324192712259,-26.4327982560483,-29.2996210151776
4.60851163884317,-60.9421900873524,-59.6047274421098,1.33746264524257,60.2734587647311,-31.1398263662975,-29.1336323984336
