t,leadI,leadII,leadIII,aVR,aVL,aVF
0,341.223665273992,335.778721124853,-5.44494414913822,-338.501193199423,173.334304711565,165.166888487858
0.00470256289677874,252.548319311999,323.900061245645,71.3517419336463,-288.224190278822,90.5982886891763,197.625901589646
0.00940512579355749,182.400676330347,316.581051976686,134.180375646338,-249.490864153517,24.1101503420046,225.380713811512
0.0141076886903362,135.22188218537,311.023273711783,175.801391526413,-223.122577948576,-20.2897546705215,243.412332619098
0.018810251587115,100.141676814639,297.304545363646,197.162868549007,-198.723111089143,-48.5105958671842,247.233706956327
0.0235128144838937,63.3576383601912,267.631283628311,204.27364526812,-165.494460994251,-70.4580034539643,235.952464448216
0.0282153773806725,22.2246310628541,227.306515285532,205.081884222678,-124.765573174193,-91.428626579912,216.194199754105
0.0329179402774512,-12.0250769221538,195.880074246393,207.905151168547,-91.9274986621195,-109.96511404535,201.89261270747
0.03762050317423,-24.486793503336,194.363593798126,218.850387301462,-84.938400147395,-121.668590402399,206.606990549794
0.0423230660710087,-8.86098054334616,229.19754240359,238.058522946936,-110.168280930122,-123.459751745141,233.628032675263
0.0470256289677874,29.5161436021302,289.055528024982,259.539384422852,-159.285835813556,-115.011620410361,274.297456223917
0.0517281918645662,80.7379464120542,357.836362755546,277.098416343492,-219.2871545838,-98.1802349657188,317.467389549519
0.0564307547613449,139.517287755628,430.249261174197,290.73197341857,-284.883274464913,-75.6073428314708,360.490617296383
0.0611333176581237,208.869966690224,514.891142515632,306.021175825408,-361.880554602928,-48.5756045675921,410.45615917052
0.0658358805549024,296.6515613961,624.089824552035,327.438263155934,-460.370692974067,-15.3933508799171,475.764043853985
0.0705384434516812,408.941236675068,762.659058848286,353.717822173218,-585.800147761677,27.6117072509247,558.188440510752
0.0752410063484599,545.88765659877,925.705527367188,379.817870768418,-735.796591982979,83.0348929151756,652.761699067803
0.0799435692452387,701.884728096334,1103.16340792375,401.278679827415,-902.524068010041,150.303024134459,752.221043875582
0.0846461321420174,866.72827904933,1281.66537554531,414.937096495982,-1074.19682729732,225.895591276674,848.301236020647
0.0893486950387961,1024.7733459111,1441.23130325212,416.457957341019,-1233.00232458161,304.157694285039,928.844630296567
0.0940512579355749,1154.74766609752,1554.82478065301,400.077114555494,-1354.78622337527,377.335275771012,977.450947604253
0.0987538208323536,1234.74445207617,1597.30763493601,362.563182859833,-1416.02604350609,436.09063460817,979.93540889792
0.103456383729132,1251.09321032065,1558.37299294094,307.27978262029,-1404.73310163079,471.906713850178,932.826387780613
0.108158946625911,1204.32246430982,1448.40684236278,244.084378052961,-1326.3646533363,480.11904312843,846.245610207871
0.11286150952269,1107.95734431822,1293.53415797483,185.576813656608,-1200.74575114652,461.190265330806,739.555485815719
0.117564072419469,982.373099700381,1124.91926865266,142.546168952283,-1053.64618417652,419.913465374049,633.732718802474
0.122266635316247,848.051015867479,968.21253117663,120.16151530915,-908.131773522055,363.944750279165,544.18702324289
0.126969198213026,720.520301754379,836.667303738941,116.147001984561,-778.59380274666,302.186649884909,476.407152861751
0.131671761109805,608.356224390147,731.257205292475,122.900980902328,-669.806714841311,242.727621743909,427.079093097401
0.136374324006584,515.262687586217,648.245223151516,132.982535565299,-581.753955368867,191.140076010459,390.613879358408
0.141076886903362,443.990195496564,587.238024361061,143.247828864498,-515.614109928812,150.371183316033,365.242926612779
0.145779449800141,397.185047241193,551.165462401467,153.980415160274,-474.17525482133,121.60231604046,352.57293878087
0.15048201269692,373.918791028341,539.203310770604,165.284519742263,-456.561050899472,104.317135643039,352.243915256433
0.155184575593699,366.774639231162,542.200425271368,175.425786040205,-454.487532251265,95.6744265954785,358.813105655787
0.159887138490477,364.161072283148,545.976423857252,181.815351574104,-455.0687480702,91.1728603545221,363.895887715678
0.164589701387256,356.11866484769,538.125887391715,182.007222544025,-447.122276119703,87.0557211518324,360.06655496787
0.169292264284035,338.120881927395,512.38705293365,174.266171006255,-425.253967430522,81.9273554605697,343.326611969953
0.173994827180814,310.558826890388,470.005647917353,159.446821026965,-390.28223740387,75.5560029317115,314.726234472159
0.178697390077592,276.408300922932,419.184133091936,142.775832169004,-347.796217007434,66.816234376964,280.97998263047
0.183399952974371,239.876115896441,371.492658017841,131.6165421214,-305.684386957141,54.1297868875203,251.55460006962
0.18810251587115,205.750103842711,335.744792903156,129.994689060445,-270.747448372934,37.877707391133,232.869740981801
0.192805078767929,177.904129969422,313.780659902095,135.876529932673,-245.842394935758,21.0138000183743,224.828594917384
0.197507641664707,157.354387304198,301.333585085703,143.979197781505,-229.34398619495,6.68759476134667,222.656391433604
0.202210204561486,141.872618056366,292.016551768245,150.143933711879,-216.944584912306,-4.13565782775629,221.080242740062
0.206912767458265,127.75616124107,280.547494283528,152.791333042458,-204.151827762299,-12.5175859006943,216.669413662993
0.211615330355043,112.018631990751,263.685926046032,151.667294055281,-187.852279018391,-19.8243310322647,207.676610050656
0.216317893251822,93.2928135220122,239.97485437131,146.682040849298,-166.633833946661,-26.6946136636427,193.328447610304
0.221020456148601,71.7363462101432,210.073588207303,138.337241997159,-140.904967208723,-33.3004478935081,174.205415102231
0.22572301904538,49.191816209045,178.093805665113,128.901989456068,-113.642810937079,-39.8550866235115,153.497897560591
0.230425581942158,29.4250568410438,151.57668181759,122.151624976546,-90.5008693293169,-46.3632840677513,136.864153397068
0.235128144838937,16.6509342055419,137.237377436503,120.586443230961,-76.9441558210224,-51.9677545127095,128.911910333732
0.239830707735716,12.083503948495,134.782573959567,122.699070011072,-73.4330389540312,-55.3077830312886,128.74082198532
0.244533270632495,11.8506927204278,136.163264347537,124.31257162711,-74.0069785339826,-56.2309394533409,130.237917987323
0.249235833529273,9.5430249714661,132.828387278178,123.285362306711,-71.1857061248218,-56.8711686676227,128.056874792445
0.253938396426052,1.50668294393658,123.32855411497,121.821871171033,-62.4176185294532,-60.1575941135483,122.575212643002
0.258640959322831,-10.4197358760887,113.074081138541,123.49381701463,-51.3271726312261,-66.9567764453592,118.283949076585
0.26334352221961,-20.8512881048011,108.143963562305,128.995251667106,-43.6463377287518,-74.9232698859535,118.569607614705
0.268046085116388,-24.6486306751033,110.853743632974,135.502374308078,-43.1025564789354,-80.0755024915904,123.178058970526
0.272748648013167,-19.3847720517473,120.1038486266,139.488620678347,-50.3595382874262,-79.4366963650472,129.796234652473
0.277451210909946,-6.18643491135041,133.42862038596,139.61505529731,-63.6210927373046,-72.9007451043302,136.521837841635
0.282153773806725,10.3535326666502,147.380015258424,137.026482591774,-78.8667739625372,-63.3364749625619,142.203248925099
0.286856336703503,23.5632496733251,156.597148951462,133.033899278137,-90.0801993123934,-54.7353248024057,144.815524114799
0.291558899600282,27.6743053101095,154.910758986398,127.236453676288,-91.2925321482535,-49.7810741830893,141.073606331343
0.296261462497061,20.9808224697969,139.922011623124,118.941189153327,-80.4514170464603,-48.9801833417649,129.431600388225
0.30096402539384,6.78470541894249,116.739535280374,109.954829861431,-61.7621203496581,-51.5850622212444,113.347182570903
0.305666588290618,-8.77356579099143,95.4499119943081,104.223477785299,-43.3381731016583,-56.4985217881455,99.8366948898038
0.310369151187397,-20.210561925657,83.813102006755,104.023663932412,-31.801270040549,-62.1171129290345,93.9183829695835
0.315071714084176,-24.8824936833404,82.4453654002214,107.327859083562,-28.7814358584405,-66.1051763834511,94.8866122418916
0.319774276980955,-22.8340598104908,86.794815116398,109.628874926889,-31.9803776529536,-66.2314673686898,98.2118450216434
0.324476839877733,-15.158007644075,92.9725627791458,108.130570423221,-38.9072775675354,-61.6442890336479,100.551566601183
0.329179402774512,-2.61448594538095,101.152304544192,103.766790489573,-49.2689092994054,-53.1906382174768,102.459547516882
0.333881965671291,13.8524304578996,113.33041763905,99.4779871811505,-63.5914240484748,-42.8127783616254,106.4042024101
0.33858452856807,31.0384925948371,128.163314939776,97.1248223449392,-79.6009037673067,-33.043164875051,112.644068642358
0.343287091464848,42.8916494868945,138.736498622457,95.8448491355622,-90.8140740546756,-26.4765998243339,117.290673879009
0.347989654361627,43.7407558956164,136.618846540031,92.8780906444147,-90.1798012178238,-24.5686673743991,114.748468592223
0.352692217258406,33.0015967307815,119.506831446641,86.5052347158593,-76.2542140887112,-26.7518189925389,103.00603308125
0.357394780155185,16.4008913709492,95.3151819334777,78.9142905625284,-55.8580366522135,-31.2566995957896,87.1147362480031
0.362097343051963,2.03586630462425,77.2314378240015,75.1955715193773,-39.6336520643129,-36.5798526073765,76.2135046716894
0.366799905948742,-5.45075919793575,72.355167911287,77.8059271092227,-33.4522043566756,-41.6283431535792,75.0805475102549
0.371502468845521,-7.95345810966264,74.7027591372468,82.6562172469094,-33.3746505137921,-45.304837678286,78.6794881920781
0.3762050317423,-11.5824926923774,71.5470882128311,83.1295809052086,-29.9822977602269,-47.356036798793,77.3383345590199
0.380907594639078,-19.7795117710517,58.5107486150699,78.2902603861216,-19.3656184220091,-49.0348860785866,68.4005045005957
0.385610157535857,-27.4667801545788,47.2366395618413,74.7034197164201,-9.88492970363127,-51.0850999354995,60.9700296391307
0.390312720432636,-23.5590955629275,55.2968456456881,78.8559412086156,-15.8688750413803,-51.2075183857715,67.0763934271519
0.395015283329415,-1.87899402368382,87.3422903278831,89.2212843515669,-42.7316481520996,-45.5501391876254,88.281787339725
0.399717846226193,30.309721917329,127.512456725732,97.2027348084026,-78.9110893215303,-33.4465064455368,112.357595767067
0.404420409122972,56.5574980656676,152.005790114852,95.4482920491844,-104.28164409026,-19.4453969917584,123.727041082018
0.409122972019751,64.8500093841205,149.339887093498,84.4898777093775,-107.094948238809,-9.8199341626285,116.914882401438
0.41382553491653,56.451208370688,128.072151803039,71.6209434323511,-92.2616800868636,-7.58486753083157,99.8465476176952
0.418528097813308,41.7213965353273,105.675670853916,63.9542743185891,-73.6985336946219,-11.1164388916309,84.8149725862528
0.423230660710087,29.475916286075,91.8605347308438,62.3846184447688,-60.6682255084594,-16.4543510793469,77.1225765878063
0.427933223606866,21.8158813343652,83.7092584315606,61.8933770971954,-52.7625698829629,-20.0387478814151,72.801317764378
0.432635786503644,17.3521492121737,75.3037654514601,57.9516162392864,-46.3279573318169,-20.2997335135564,66.6276908453733
0.437338349400423,15.9249292859739,68.3270901280726,52.4021608420987,-42.1260097070233,-18.2386157780624,60.3646254850857
0.442040912297202,18.9612449859679,70.4968684522011,51.5356234662331,-44.7290567190845,-16.2871892401326,61.0162459592171
0.446743475193981,26.6045042391291,84.2486264229235,57.6441221837944,-55.4265653310263,-15.5198089723326,70.9463743033589
0.451446038090759,35.7030101315926,100.130231459694,64.4272213281016,-67.9166207956434,-14.3621055982545,82.2787263938978
0.456148600987538,40.8874959085653,103.946226085862,63.0587301772969,-72.4168609972138,-11.0856171343658,83.5024781315796
0.460851163884317,38.3231752903516,90.5356538953157,52.2124786049641,-64.4294145928336,-6.94465165730628,71.3740662501399
0.465553726781096,29.4464202600298,69.3614756315657,39.9150553715359,-49.4039479457977,-5.23431755575308,54.6382655015508
0.470256289677874,21.1208759586667,56.5989603509819,35.4780843923152,-38.8599181548243,-7.17860421682428,46.0385223716486
0.474958852574653,21.2010695011088,62.6258007958931,41.4247312947844,-41.913435148501,-10.1118308968378,52.0252660453388
0.479661415471432,32.767258755132,85.9026972038866,53.1354384487546,-59.3349779795093,-10.1840898468113,69.5190678263206
0.484363978368211,51.749183201299,115.396354968851,63.6471717675522,-83.5727690850751,-5.94899428312664,89.5217633682017
0.489066541264989,69.6956877726204,137.248735309053,67.5530475364324,-103.472211540837,1.07132011809401,102.400891422743
0.493769104161768,79.0816362485477,141.723479251057,62.6418430025096,-110.402557749802,8.21989662301905,102.182661126783
0.498471667058547,77.2072651902419,128.087129581872,50.8798643916297,-102.647197386057,13.1637003993061,89.4834969867506
0.503174229955326,67.1040673937595,105.318381686152,38.214314292392,-86.2112245399555,14.4448765506837,71.7663479892718
0.507876792852104,55.9801614893456,87.4530905108145,31.472929021469,-71.7166260000801,12.2536162339383,59.4630097661418
0.512579355748883,51.7501144083628,85.3485558099618,33.598441401599,-68.5493351091623,9.07583650338194,59.4734986057804
0.517281918645662,58.701194085181,100.030801093009,41.3296070078277,-79.3659975890948,8.68579353867664,70.6802040504182
0.521984481542441,74.8800962944112,122.652384270055,47.7722879756437,-98.766240282233,13.5539041593838,85.2123361228493
0.526687044439219,93.3301567222824,141.092311401149,47.7621546788664,-117.211234061716,22.784001021708,94.4272330400076
0.531389607335998,106.551299678939,148.160085866477,41.6087861875375,-127.355692772708,32.4712567457008,94.8844360270071
0.536092170232777,111.404444399757,145.863584409512,34.4591400097555,-128.634014404634,38.4726521950006,90.1613622096338
0.540794733129556,111.232333502566,143.100926631352,31.868593128786,-127.166630066959,39.6818701868901,87.484759880069
0.545497296026334,113.019335110219,148.102186513818,35.0828514035988,-130.560760812018,38.9682418533101,91.5925189587083
0.550199858923113,121.004281218509,161.111397808324,40.1071165898146,-141.057839513416,40.4485823143472,100.609257199069
0.554902421819892,132.54473796672,174.042599021288,41.497861054568,-153.293668494004,45.523438456076,107.770230037928
0.559604984716671,141.117035663084,178.504710529121,37.3876748660373,-159.810873096103,51.8646803985234,107.946192697579
0.564307547613449,143.727997682828,174.650933098476,30.9229354156479,-159.189465390652,56.4025311335902,102.786934257062
0.569010110510228,144.241924499527,170.86386291835,26.6219384188231,-157.552893708938,58.8099930403519,98.7429006685865
0.573712673407007,148.426208052283,173.960332933485,25.5341248812015,-161.193270492884,61.446041585541,99.7472289073433
0.578415236303786,156.670751306476,181.385243009226,24.7144917027499,-169.027997157851,65.9781298018631,103.049867355988
0.583117799200564,163.39599418549,184.773072606224,21.3770784207342,-174.084533395857,71.0094578823777,103.075075513479
0.587820362097343,163.590135539067,179.82350544182,16.2333699027523,-171.706820490444,73.6783828181576,98.028437672286
0.592522924994122,158.203384928175,170.337767932476,12.1343830043007,-164.270576430326,73.0345009619373,91.2360754683884
0.597225487890901,152.680844680583,163.312735768602,10.6318910880195,-157.996790224592,71.0244767962815,86.9723134283108
0.601928050787679,151.588595036879,162.500649676607,10.9120546397279,-157.044622356743,70.3382701985756,86.7063521581675
0.606630613684458,155.306995709479,166.632578241649,11.32558253217,-160.969786975564,71.9907065886543,88.9790803869092
0.611333176581237,160.992056839806,171.7724528075,10.7803959676946,-166.382254823653,75.1058304360556,91.2764243875975
0.616035739478015,165.775825175077,174.577329769476,8.80150459439957,-170.176577472277,78.4871602903387,91.689417181938
0.620738302374794,168.686207086808,173.787426753794,5.101219666986,-171.236816920301,81.792493709911,89.44432321039
0.625440865271573,169.361496581289,168.752267345973,-0.609229235316207,-169.056881963631,84.9853629083026,84.0715190553283
0.630143428168352,165.605076028853,157.186624085273,-8.41845194358052,-161.395850057063,87.0117639862169,74.3840860708461
0.634845991065131,153.997226833304,136.457090077673,-17.5401367556315,-145.227158455488,85.7686817944678,59.4584766610206
0.639548553961909,134.223360110773,108.516513091161,-25.7068470196122,-121.369936600967,79.9651035651928,41.4048330357745
0.644251116858688,112.194835437865,82.3321215485553,-29.8627138893096,-97.2634784932101,71.0287746635872,26.2347038296229
0.648953679755467,97.2983612059269,69.0650609155103,-28.2333002904166,-83.1817110607186,62.7658307481718,20.4158803125468
0.653656242652245,95.5942579043511,73.679370454165,-21.9148874501861,-84.6368141792581,58.7545726772686,25.8822415019895
0.658358805549024,105.176672759044,90.635224708154,-14.5414480508898,-97.9059487335989,59.8590604049668,38.0468883286321
0.663061368445803,117.180991603292,106.532591727601,-10.6483998756907,-111.856791665446,63.9146957394912,47.9420959259552
0.667763931342582,120.734609467165,107.067764313194,-13.666845153971,-113.90118689018,67.2007273105682,46.7004595796116
0.67246649423936,108.550004827629,84.7838353238261,-23.7661695038026,-96.6669200757274,66.1580871657156,30.5088329100118
0.677169057136139,80.8608476673539,44.0384865474484,-36.8223611199055,-62.4496671074012,58.8416043936297,3.60806271377143
0.681871620032918,45.4853676197116,-1.14299689104577,-46.6283645107574,-22.1711853643329,46.0568660652345,-23.8856807009016
0.686574182929697,12.6682980347168,-36.8912573742002,-49.559555408917,12.1114796697417,31.1139267218169,-43.2254063915586
0.691276745826475,-12.1176020953047,-59.173309866561,-47.0557077712564,35.6454559809329,17.4690528379758,-53.1145088189087
0.695979308723254,-30.529027349832,-73.3280297648856,-42.7990024150536,51.9285285573588,6.13498753261078,-58.0635160899696
0.700681871620033,-46.258126489007,-84.245396773148,-37.987270284141,65.2517616310775,-4.13542810243299,-61.1163335286445
0.705384434516812,-58.8539751122996,-89.8426113664871,-30.9886362541874,74.3482932393933,-13.9326694290561,-60.4156238103373
0.71008699741359,-64.3858643731378,-86.1745051626209,-21.7886407894831,75.2801847678793,-21.2986117918274,-53.981572976052
0.714789560310369,-61.841234997369,-76.3889687601412,-14.5477337627722,69.1151018787551,-23.6467506172984,-45.4683512614567
0.719492123207148,-56.722907911371,-70.665612942144,-13.942705030773,63.6942604267575,-21.390101440299,-42.3041589864585
0.724194686103927,-57.4730819562059,-77.4193044164406,-19.9462224602347,67.4461931863233,-18.7634297479856,-48.6827634383377
0.728897249000705,-69.3327436642356,-97.3236296059982,-27.9908859417626,83.3281866351169,-20.6709288612365,-62.6572577738804
0.733599811897484,-91.7686468634358,-125.557913575208,-33.7892667117722,108.663280219322,-28.9896900758318,-79.6735901434901
0.738302374794263,-119.720793859519,-156.072606729716,-36.3518128701973,137.896700294618,-41.6844904946609,-96.2122097999569
0.743004937691042,-145.493466361814,-182.121979236597,-36.6285128747838,163.807722799206,-54.432476743515,-109.375246055691
0.74770750058782,-160.865618191753,-196.05802581504,-35.192407623287,178.461822003397,-62.836605284233,-115.625216719164
0.752410063484599,-161.175224079293,-193.203123117876,-32.0278990385829,177.189173598585,-64.5736625203553,-112.61551107823
0.757112626381378,-149.640228925189,-177.229004350513,-27.588775425324,163.434616637851,-61.0257267499325,-102.408889887919
0.761815189278157,-136.587753320216,-159.819755410544,-23.2320020903277,148.20375436538,-56.6778756149442,-91.5258787504358
0.766517752174935,-132.243760945899,-153.013834218632,-20.7700732727328,142.628797582265,-55.7368438365831,-86.8919537456823
0.771220315071714,-139.593877437175,-161.172048549857,-21.5781711126817,150.382962993516,-59.0078531622466,-91.3751098312692
0.775922877968493,-154.241821034479,-179.710669951696,-25.4688489172166,166.976245493088,-64.3864860586313,-102.589759434456
0.780625440865272,-169.814179191883,-200.053483976731,-30.2393047848479,184.933831584307,-69.7874372035176,-115.14639438079
0.78532800376205,-182.14678216564,-215.117833491332,-32.9710513256925,198.632307828486,-74.5878654199735,-124.044442408512
0.790030566658829,-189.622823350151,-221.879415825133,-32.2565924749816,205.751119587642,-78.6831154375848,-127.068004150057
0.794733129555608,-192.192823123249,-221.249947897838,-29.0571247745885,206.721385510544,-81.5678491743304,-125.153536336213
0.799435692452387,-190.577977999577,-215.910370172803,-25.3323921732262,203.24417408619,-82.6227929131753,-120.621381173015
0.804138255349165,-185.054926054233,-207.257731390315,-22.2028053360818,196.156328722274,-81.4260603590757,-114.730268363198
0.808840818245944,-174.972255013382,-194.883141273355,-19.9108862599721,184.927698143369,-77.5306843767052,-107.397013766663
0.813543381142723,-160.997849662445,-180.426860739854,-19.4290110774094,170.71235520115,-70.7844192925178,-99.9279359086319
0.818245944039501,-148.303214566256,-171.305994293857,-23.0027797276006,159.804604430056,-62.6502174193277,-97.1543870107286
0.82294850693628,-145.885141329551,-177.73839831507,-31.8532569855191,161.81176982231,-57.0159421720158,-104.795827650294
0.827651069833059,-160.347067622653,-203.564805759887,-43.2177381372343,181.95593669127,-58.5646647427094,-123.391271948561
0.832353632729838,-188.749841561236,-239.572266746545,-50.8224251853098,214.16105415389,-68.9637081879629,-145.197345965928
0.837056195626616,-217.804780334883,-267.247451697915,-49.4426713630324,242.526116016399,-84.1810544859252,-158.345061530474
0.841758758523395,-231.962748361307,-271.176340206664,-39.2135918453565,251.569544283986,-96.3745782579754,-155.19496602601
0.846461321420174,-224.26349545949,-249.679039223837,-25.4155437643463,236.971267341663,-99.423975847572,-137.547291494091
0.851163884316953,-200.602660712969,-215.166471655206,-14.563810942237,207.884566184088,-93.0194248853662,-114.865141298722
0.855866447213732,-174.586168082105,-185.555454977256,-10.969286895151,180.070811529681,-81.8084405934771,-98.2623709362037
0.86056901011051,-158.466437383196,-174.262064764776,-15.7956273815795,166.364251073986,-71.3354050008084,-95.0288460731777
0.865271573007289,-156.910835930933,-184.053012934268,-27.1421770033355,170.4819244326,-64.8843294637986,-105.597594968802
0.869974135904068,-166.041946616395,-206.128042961797,-40.0860963454017,186.084994789096,-62.9779251354966,-123.107069653599
0.874676698800846,-176.809236729913,-225.055000427632,-48.2457636977188,200.932118578773,-64.2817365160972,-136.650382062675
0.879379261697625,-180.811903204322,-228.405549832909,-47.5936466285871,204.608726518615,-66.6091282878674,-137.999598230748
0.884081824594404,-175.473205590998,-215.041016946057,-39.567811355059,195.257111268528,-67.9526971179696,-127.304414150558
0.888784387491183,-164.605210302483,-194.761895806097,-30.1566855036137,179.68355305429,-67.2242623994347,-112.459290654855
0.893486950387961,-153.713001196757,-179.127434852422,-25.4144336556655,166.420218024589,-64.1492837705455,-102.270934254044
0.89818951328474,-145.001557744641,-172.065719456655,-27.0641617120142,158.533638600648,-58.9686980163133,-99.5649405843347
0.902892076181519,-137.411721176434,-169.186171316803,-31.7744501403686,153.298946246618,-52.8186355180328,-100.480310728586
0.907594639078298,-130.771209837106,-165.471051933083,-34.6998420959771,148.121130885095,-48.0356838705645,-100.08544701453
0.912297201975076,-128.28328637536,-162.419976826528,-34.1366904511679,145.351631600944,-47.0732979620959,-98.2783336388478
0.916999764871855,-134.009844089783,-167.062833759755,-33.0529896699725,150.536338924769,-50.4784272099052,-100.057911714864
0.921702327768634,-148.198324173467,-184.017778323218,-35.8194541497508,166.108051248343,-56.1894350118583,-109.918616236484
0.926404890665413,-165.776262868765,-208.634212616277,-42.8579497475115,187.205237742521,-61.4591565606269,-125.746081181894
0.931107453562191,-179.629416409506,-228.63924283457,-49.0098264250642,204.134329622038,-65.3097949922209,-138.824534629817
0.93581001645897,-185.235141604267,-233.736561222598,-48.5014196183315,209.485851413433,-68.3668609929677,-141.118990420465
0.940512579355749,-182.477866319834,-223.68772904552,-41.2098627256861,203.082797682677,-70.6340017970737,-132.448795885603
0.945215142252528,-173.806056975974,-206.3962453279,-32.5901883519258,190.101151151937,-70.6079343120241,-119.493216839913
0.949917705149306,-161.359517666051,-189.280112321857,-27.9205946558055,175.319814993954,-66.7194615051228,-108.600353488831
0.954620268046085,-146.348806834254,-174.470551836784,-28.1217450025299,160.409679335519,-59.113530915862,-101.296148419657
0.959322830942864,-130.988848380191,-161.606166990019,-30.6173186098279,146.297507685105,-50.1857648851816,-96.1117427999235
0.964025393839643,-119.560064886678,-152.270808348812,-32.7107434621334,135.915436617745,-43.4246607122725,-92.4907759054725
0.968727956736421,-115.894821582323,-149.881804521828,-33.9869829395054,132.888313052076,-40.9539193214087,-91.9343937306668
0.9734305196332,-119.732875552613,-155.476796048677,-35.7439204960632,137.604835800645,-41.994477528275,-95.6103582723699
0.978133082529979,-126.808788302657,-164.954767038688,-38.1459787360316,145.881777670673,-44.3314047833126,-101.55037288736
0.982835645426758,-132.921806082234,-171.971051401518,-39.0492453192841,152.446428741876,-46.9362803814749,-105.510148360401
0.987538208323536,-136.796648003991,-173.591696397628,-36.7950483936374,155.19417220081,-50.0007998051767,-105.193372395633
0.992240771220315,-138.618108861679,-171.771249730894,-33.153140869215,155.194679296286,-52.7324839962318,-102.462195300054
0.996943334117094,-137.679844230765,-169.559922569762,-31.8800783389968,153.619883400263,-52.8998829458841,-100.720000454379
1.00164589701387,-133.42540079278,-168.274966419688,-34.8495656269087,150.850183606234,-49.2879175829355,-101.562266023299
1.00634845991065,-128.379720896086,-169.163063966704,-40.7833430706173,148.771392431395,-43.7981889127345,-104.97320351866
1.01105102280743,-128.187945886906,-175.217659308334,-47.0297134214274,151.70280259762,-40.5791162327394,-111.123686364881
1.01575358570421,-137.481907920893,-188.586643052928,-51.1047351320348,163.034275486911,-43.1885863944292,-119.845689092481
1.02045614860099,-155.255495794558,-206.348244511682,-51.092748717124,180.80187015312,-52.0813735387171,-128.720496614403
1.02515871149777,-174.156704771122,-220.682095290844,-46.5253905197222,197.419400030983,-63.8156571256998,-133.603742905283
1.02986127439455,-184.690804665129,-223.996895882988,-39.3060912178584,204.343850274059,-72.6923567236355,-131.651493550423
1.03456383729132,-181.285563783726,-213.951576742213,-32.6660129584877,197.61857026297,-74.309775412619,-123.308794850351
1.0392664001881,-165.804901617588,-194.663253723432,-28.8583521058439,180.23407767051,-68.4732747558722,-111.760802914638
1.04396896308488,-146.308106335122,-174.57776864761,-28.2696623124882,160.442937491366,-59.0192220113167,-101.423715480049
1.04867152598166,-132.243617052614,-162.607610029984,-30.3639929773695,147.425613541299,-50.9398120376223,-96.4858015036765
1.05337408887844,-128.985912859073,-163.444792838008,-34.4588799789344,146.215352848541,-47.2635164400696,-98.9518364084711
1.05807665177522,-134.699728060448,-173.858272164918,-39.1585441044705,154.279000112683,-47.7705919779887,-106.508408134694
1.062779214672,-141.857618867716,-183.519072547143,-41.6614536794265,162.688345707429,-50.0980825941448,-112.590263113285
1.06748177756878,-143.13159331195,-182.046162473128,-38.9145691611775,162.588877892539,-52.1085120753863,-110.480365817153
1.07218434046555,-136.983958902551,-167.408818342207,-30.4248594396564,152.196388622379,-53.279549731447,-98.9168388909317
1.07688690336233,-127.468491867127,-147.3419074573,-19.8734155901736,137.405199662213,-53.7975381384765,-83.6076615237369
1.08158946625911,-118.993757983791,-132.128070313174,-13.1343123293833,125.560914148482,-52.9297228272037,-72.6311913212786
1.08629202915589,-112.789397002033,-126.696843286288,-13.9074462842553,119.743120144161,-49.4409753588888,-70.3021447852717
1.09099459205267,-108.576863299222,-129.686371589018,-21.1095082897966,119.13161744412,-43.7336775047125,-75.3979399394074
1.09569715494945,-107.408054425293,-138.006641631913,-30.5985872066196,122.707348028603,-38.4047336093367,-84.3026144192661
1.10039971784623,-111.222178464822,-150.101989654221,-38.8798111893985,130.662084059522,-36.171183637712,-94.4909004218097
1.105102280743,-120.356958124676,-164.956880045919,-44.5999219212434,142.656919085297,-37.8785181017162,-104.778400983581
1.10980484363978,-132.347419743581,-179.746606948816,-47.3991872052359,156.047013346199,-42.4741162691724,-113.572897077026
1.11450740653656,-142.638075760668,-189.528358987703,-46.890283227035,166.083217374186,-47.8738962668166,-118.209321107369
1.11920996943334,-146.286840427085,-189.281057216157,-42.9942167890718,167.783948821621,-51.6463118190066,-116.137637002614
1.12391253233012,-140.216925246201,-176.832331826141,-36.6154065799408,158.524628536171,-51.8007593331299,-106.723869203041
1.1286150952269,-125.113249513928,-154.813648394846,-29.7003988809183,139.963448954387,-47.7064253165047,-92.2570236378822
1.13331765812368,-105.449719729472,-129.816550047004,-24.3668303175321,117.633134888238,-40.5414447059697,-77.0916901822679
1.13802022102046,-87.4097670498694,-109.086431838659,-21.6766647887892,98.248099444264,-32.8665511305401,-65.3815483137239
1.14272278391723,-76.2179618656845,-97.765190875078,-21.5472290093935,86.9915763703813,-27.3353664281455,-59.6562099422358
1.14742534681401,-74.4422791931095,-98.2988288508001,-23.8565496576906,86.3705540219548,-25.2928647677095,-61.0776892542454
1.15212790971079,-81.4882732079137,-110.150510271675,-28.6622370637613,95.8193917397943,-26.4130180720762,-69.4063736677181
1.15683047260757,-93.8123967861461,-128.784473552069,-34.9720767659225,111.298435169107,-29.4201600101118,-81.8782751589956
1.16153303550435,-106.203950257581,-146.62922049651,-40.4252702389288,126.416585377046,-32.8893400093262,-93.5272453677194
1.16623559840113,-114.627261746138,-157.728539958407,-43.101278212269,136.177900852273,-35.7629917669347,-100.414909085338
1.17093816129791,-118.877830944655,-162.009874890303,-43.1320439456479,140.443852917479,-37.8728934995037,-102.570959417976
1.17564072419469,-122.047005349973,-163.941144429446,-41.8941390794728,142.99407488971,-40.0764331352503,-102.917641754459
1.18034328709146,-126.93321130335,-167.230974446879,-40.297763143529,147.082092875115,-43.3177240799106,-103.764368795204
1.18504584998824,-133.372768330695,-172.100673653417,-38.7279053227226,152.736720992056,-47.322431503986,-105.41428948807
1.18974841288502,-139.09000742831,-176.840885416571,-37.7508779882611,157.965446422441,-50.6695647200245,-107.295881702416
1.1944509757818,-141.935253453171,-179.256760078309,-37.3215066251377,160.59600676574,-52.3068734140167,-108.289133351723
1.19915353867858,-140.59456582295,-176.351834820471,-35.7572689975208,158.473200321711,-52.4186484127148,-106.054551908996
1.20385610157536,-134.607766768303,-165.92618600945,-31.3184192411478,150.266976388877,-51.6446737635775,-98.6223026252991
1.20855866447214,-125.492695781351,-150.553907128813,-25.0612113474618,138.023301455082,-50.2157422169448,-87.8075592381375
1.21326122736892,-117.164659678644,-137.845390454767,-20.6807307761231,127.505025066706,-48.2419644512605,-79.2630606154452
1.21796379026569,-113.167225864999,-134.022018923427,-20.8547930584284,123.594622394213,-46.1562164032852,-77.4384059909277
1.22266635316247,-113.172450170868,-137.586629875023,-24.4141797041552,125.379540022946,-44.3791352333564,-81.0004047895891
1.22736891605925,-113.551860882361,-141.009393872498,-27.457532990137,127.280627377429,-43.0471639461119,-84.2334634313174
1.23207147895603,-111.651761914501,-138.598257256625,-26.9464953421233,125.125009585563,-42.3526332861891,-82.772376299374
1.23677404185281,-108.494205153982,-131.836499041021,-23.342293887039,120.165352097501,-42.5759556334713,-77.5893964640298
1.24147660474959,-107.29615391999,-127.448906963387,-20.1527530433977,117.372530441688,-43.571700438296,-73.8008300033925
1.24617916764637,-110.261506193171,-131.077277614129,-20.8157714209578,120.66939190365,-44.7228673861066,-75.9465245175433
1.25088173054315,-116.475257719117,-142.075311815857,-25.6000540967394,129.275284767487,-45.4376018111889,-83.837682956298
1.25558429343992,-121.743263911577,-153.082371565878,-31.3391076543014,137.412817738728,-45.2020781286379,-92.2107396100899
1.2602868563367,-120.672023121371,-154.797594282089,-34.1255711607186,137.73480870173,-43.2732259803261,-94.4615827214039
1.26498941923348,-110.390164798213,-142.427847948141,-32.0376831499271,126.409006373177,-39.1762408241432,-87.2327655490338
1.26969198213026,-93.310256905766,-118.830403764482,-25.5201468587162,106.070330335124,-33.8950550235249,-72.1752753115992
1.27439454502704,-76.3948827955613,-93.202837385635,-16.8079545900737,84.7988600905982,-29.7934641027438,-55.0053959878544
1.27909710792382,-67.3527428502524,-77.6440336217021,-10.2912907714497,72.4983882359773,-28.5307260394013,-43.9676621965759
1.2837996708206,-70.5543168168509,-81.9825836673718,-11.4282668505209,76.2684502421114,-29.563024983165,-46.7054252589464
1.28850223371738,-84.7810663761295,-106.605681114198,-21.8246147380682,95.6933737451636,-31.4782258190307,-64.2151479261329
1.29320479661415,-103.241330344164,-138.636010660258,-35.3946803160944,120.938670502211,-33.9233250140348,-87.0153454881764
1.29790735951093,-116.266232470247,-158.763614625099,-42.4973821548515,137.514923547673,-36.8844251576979,-100.630498389975
1.30260992240771,-116.895425149393,-155.893656218279,-38.9982310688863,136.394540683836,-38.9485970402535,-97.4459436435828
1.30731248530449,-106.242369598456,-135.739961111304,-29.4975915128478,120.99116535488,-38.372389042804,-82.6187763120757
1.31201504820127,-92.8673826296802,-114.125086503894,-21.2577038742141,103.496234566787,-35.804839377733,-67.6913951890542
1.31671761109805,-85.1217708580981,-102.34309426763,-17.2213234095317,93.7324325628639,-33.9502237242832,-59.7822088385807
1.32142017399483,-83.9761031924106,-99.7962318127217,-15.8201286203111,91.8861675025661,-34.0779872860498,-57.8081802165164
1.32612273689161,-83.946784502033,-98.967929098588,-15.021144596555,91.4573568003105,-34.462819952739,-56.9945368475715
1.33082529978838,-79.9980344488534,-94.2778973651634,-14.27986291631,87.1379659070084,-32.8590857662717,-54.2788801407367
1.33552786268516,-72.1898834759789,-85.8931771708629,-13.703293694884,79.0415303234209,-29.2432948905474,-49.7982354328735
1.34023042558194,-64.416768852244,-77.9451297466026,-13.5283608943586,71.1809492994233,-25.4442039789427,-45.7367453204806
1.34493298847872,-60.2663438650936,-74.5783694427221,-14.3120255776286,67.4223566539079,-22.9771591437325,-44.4451975101754
1.3496355513755,-60.0255737443999,-76.1653836817079,-16.139809937308,68.0954787130539,-21.942881903546,-46.1525968095079
1.35433811427228,-60.5840884095985,-78.2227445077499,-17.6386560981514,69.4034164586742,-21.4727161557235,-47.9307003029507
1.35904067716906,-58.0782679030718,-75.1081933888589,-17.0299254857871,66.5932306459653,-20.5241712086424,-46.069059437323
1.36374324006584,-51.2898286238444,-65.6309065472591,-14.3410779234147,58.4603675855517,-18.4743753502148,-39.9859922353369
1.36844580296261,-42.5825838247296,-54.1508205490632,-11.5682367243337,48.3667021868964,-15.5071735501979,-32.8595286366984
1.37314836585939,-35.1064826160665,-45.4610529821773,-10.3545703661107,40.2837677991219,-12.3759561249779,-27.907811674144
1.37785092875617,-29.369924255334,-39.6562625949134,-10.2863383395795,34.5130934251237,-9.54179295787725,-24.9713004672465
1.38255349165295,-23.5036530416139,-33.4308111925043,-9.92715815089036,28.4672321170591,-6.78824744536177,-21.6789846716973
1.38725605454973,-16.8754651595778,-25.9215602007013,-9.04609504112351,21.3985126801395,-3.91468505922714,-17.4838276209124
1.39195861744651,-11.9295715487988,-21.0787543493834,-9.14918280058455,16.5041629490911,-1.39019437410713,-15.113968574984
1.39666118034329,-11.3057898754118,-22.831957466314,-11.5261675909022,17.0688736708629,0.110188857745177,-17.1790625286081
1.40136374324007,-14.079610519068,-29.0540991186946,-14.9744885996265,21.5668548188813,0.447439040279253,-22.0142938591605
1.40606630613684,-16.5975839853268,-32.8609249109064,-16.2633409255797,24.7292544481166,-0.167121529873544,-24.5621329182431
1.41076886903362,-16.8640391713306,-30.4753195440583,-13.6112803727277,23.6696793576945,-1.62637939930147,-22.043299958393
1.4154714319304,-16.3363326569252,-25.5341503812204,-9.19781772429525,20.9352415190728,-3.56925746631496,-17.3659840527578
1.42017399482718,-17.0577905879699,-24.1128620050854,-7.05507141711551,20.5853262965277,-5.00135958542721,-15.5839667111005
1.42487655772396,-18.6362565501658,-27.2247827911618,-8.58852624099599,22.9305196706638,-5.02386515458492,-17.9066545160789
1.42957912062074,-18.9044499135992,-30.2451876124176,-11.3407376988184,24.5748187630084,-3.78185610739039,-20.792962655618
1.43428168351752,-16.7261291780413,-29.0384308467639,-12.3123016687225,22.8822800124026,-2.20691375465939,-20.6753662577432
1.4389842464143,-13.722744354263,-25.3325914858003,-11.6098471315373,19.5276679200317,-1.05644861136288,-18.4712193086688
1.44368680931107,-14.0410484654848,-26.6175561939837,-12.5765077284989,20.3293023297342,-0.732270368492973,-19.5970319612413
1.44838937220785,-22.6072421753164,-41.186175354182,-18.5789331788657,31.8967087647492,-2.01415449822536,-29.8825542665238
1.45309193510463,-42.1024837812009,-71.2930787860495,-29.1905950048486,56.6977812836252,-6.45594438817619,-50.241836895449
1.45779449800141,-69.8464241107292,-108.850124380397,-39.0037002696682,89.3482742455633,-15.4213619205305,-73.9269123250328
1.46249706089819,-97.3125869937856,-138.240529524027,-40.927942530241,117.776558258906,-28.1923222317723,-89.5842360271338
1.46719962379497,-114.257330342238,-146.320876000835,-32.0635456585973,130.289103171536,-41.0968923418201,-89.1922108297161
1.47190218669175,-115.710667067055,-132.648430402942,-16.9377633358868,124.179548734999,-49.3864518655843,-74.7930968694145
1.47660474958853,-106.080155791823,-110.581013953812,-4.50085816198923,108.330584872818,-50.789648814917,-57.5409360579008
1.4813073124853,-95.4595123551477,-96.5662601941612,-1.10674783901354,96.0128862746544,-47.1763822580671,-48.8365040165874
1.48600987538208,-90.8544315007033,-96.6061305057805,-5.7516990050772,93.7302810032419,-42.551366247813,-51.1789147554288
1.49071243827886,-91.4667210495837,-103.245809624841,-11.7790885752576,97.3562653372124,-39.843816237163,-57.5124491000494
1.49541500117564,-92.5701931620195,-105.749629850055,-13.1794366880359,99.1599115060374,-39.6953782369918,-59.4645332690456
1.50011756407242,-91.9803912159135,-101.421556782223,-9.44116556630969,96.7009739990684,-41.2696128248019,-55.4313611742665
1.5048201269692,-91.2223008919656,-95.9400180033838,-4.71771711141818,93.5811594476747,-43.2522918902737,-50.328867557401
1.50952268986598,-91.8410749736265,-94.968058000707,-3.12698302708053,93.4045664871667,-44.357045973273,-49.0475205138938
1.51422525276276,-93.2697337802644,-98.7795509275621,-5.50981714729775,96.0246423539132,-43.8799583164833,-52.1446840374299
1.51892781565953,-94.9975955768953,-105.098894668173,-10.1012990912778,100.048245122534,-42.4481482428088,-57.6000968797254
1.52363037855631,-99.0342571722762,-113.90451630655,-14.8702591342741,106.469386739413,-42.081999019001,-64.3873877204122
1.52833294145309,-108.382153647257,-126.955580233481,-18.573426586224,117.668866940369,-44.9043635305166,-72.7645034098526
1.53303550434987,-123.092424559871,-143.350701551519,-20.2582769916482,133.221563055695,-51.4170737841114,-81.8044892715837
1.53773806724665,-138.734145066604,-157.757592207524,-19.0234471409198,148.245868637064,-59.8553489628422,-88.3905196742218
1.54244063014343,-148.875223021316,-163.87128119995,-14.9960581786346,156.373252110633,-66.9395824213406,-89.4336696892925
1.54714319304021,-149.147985820546,-159.246859882304,-10.0988740617581,154.197422851425,-69.5245558793938,-84.6728669720309
1.55184575593699,-140.207902529253,-147.228344585948,-7.02044205669432,143.718123557601,-66.5937302362795,-77.124393321321
1.55654831883376,-128.005289965008,-135.20567020909,-7.20038024408223,131.605480087049,-60.402454860463,-71.2030252265864
1.56125088173054,-120.44364859318,-130.2461690444,-9.80252045122084,125.34490881879,-55.3205640709793,-70.0243447478106
1.56595344462732,-121.57954332154,-133.976041584466,-12.3964982629262,127.777792453003,-54.5915225293071,-73.1862699236963
1.5706560075241,-127.652480379741,-140.27229099583,-12.6198106160886,133.962385687786,-57.5163348818265,-76.4460508059593
1.57535857042088,-129.334066519156,-138.976394111678,-9.64232759252181,134.155230315417,-59.845869463317,-74.3093608520997
1.58006113331766,-119.610035897939,-124.293364510722,-4.68332861278368,121.951700204331,-57.4633536425775,-64.488346561753
1.58476369621444,-100.771659855312,-101.241954331809,-0.470294476496747,101.00680709356,-50.1506826894076,-50.8561244041527
1.58946625911122,-83.8863964450646,-83.586345578381,0.300050866683534,83.7363710117228,-42.093223655874,-41.6431473558487
1.59416882200799,-80.8350179708997,-83.8752136853943,-3.04019571449463,82.355115828147,-38.8974111282025,-43.4577046999445
1.59887138490477,-95.5930330710132,-103.85618265367,-8.26314958265631,99.7246078623414,-43.6649417441785,-56.0596661181629
1.60357394780155,-121.54685157588,-133.280488641826,-11.7336370659458,127.413670108853,-54.906607254967,-72.5070628538857
1.60827651069833,-146.385323285366,-157.620080228385,-11.2347569430186,152.002701756875,-67.5752831711738,-84.4274185857017
1.61297907359511,-160.519057967298,-168.140616219471,-7.62155825217309,164.329837093384,-76.4487498575624,-87.8810872358221
1.61768163649189,-162.612217268498,-166.386590274017,-3.77437300551901,164.499403771258,-79.4189221314895,-85.080481639768
1.62238419938867,-158.435770095138,-160.294939303014,-1.85916920787588,159.365354699076,-78.288300443631,-81.0770542554448
1.62708676228545,-155.302662166608,-157.03992814757,-1.73726598096141,156.171295157089,-76.7826980928235,-79.3885970642656
1.63178932518222,-157.304779818958,-159.398386695158,-2.09360687620028,158.351583257058,-77.6055864713788,-80.7459967856792
1.636491888079,-163.050777706509,-165.11182641207,-2.06104870556126,164.081302059289,-80.4948645004737,-83.5864375588156
1.64119445097578,-164.159180989293,-164.230035686678,-0.0708546973851867,164.194608337986,-82.0441631459539,-82.1504451920317
1.64589701387256,-145.208392549726,-136.531604376123,8.67678817360252,140.869998462924,-76.9425903616641,-63.9274081012603
1.65059957676934,-88.5853248118483,-57.7294726525316,30.8558521593167,73.1573987321899,-59.7205884855825,-13.4368102466074
1.65530213966612,16.2962139773097,85.1643925905552,68.8681786132455,-50.7303032839324,-26.2859823179679,77.0162856019004
1.6600047025629,166.245192000157,282.648679337483,116.403487337326,-224.44693566882,24.9208523314154,199.526083337404
1.66470726545968,346.193861867915,507.633335272135,161.43947340422,-426.913598570025,92.3771942318478,334.536404338177
1.66940982835645,537.806669735145,731.757588137036,193.950918401891,-634.78212893609,171.927875666627,462.854253269464
1.67411239125323,726.195625101998,936.62677320118,210.431148099181,-831.411199151589,257.882238501409,573.528960650181
1.67881495415001,898.648631573002,1109.90571752623,211.257085953226,-1004.27717454961,343.695772809888,660.581401739727
1.68351751704679,1038.86988275054,1233.98119414783,195.111311397287,-1136.42553844918,421.879285676626,714.546252772557
1.68822007994357,1126.33381312265,1284.64077846081,158.306965338158,-1205.48729579173,484.013423892246,721.473871899483
1.69292264284035,1144.95006469607,1246.11645019478,101.166385498704,-1195.53325744542,521.891839598683,673.64141784674
1.69762520573713,1093.65000081022,1127.62793822661,33.9779374163879,-1110.63896951842,529.836031696917,580.802937821499
1.70232776863391,987.994355432152,961.765810516453,-26.2285449156992,-974.880082974302,507.111450173926,467.768632800377
1.70703033153068,851.551549823276,785.095090379136,-66.4564594441401,-818.323320101206,459.004004633708,359.319315467498
1.71173289442746,706.344840095371,621.297422657156,-85.047417438215,-663.821131376263,395.696128766793,268.12500260947
1.71643545732424,569.771707872475,481.334770702979,-88.4369371694956,-525.553239287727,329.104322520985,196.448916766742
1.72113802022102,455.47668721813,372.946677584989,-82.530009633141,-414.211682401559,269.003348425635,145.208333975924
1.7258405831178,372.26380460381,303.260772076106,-69.003032527704,-337.762288339958,220.633418565757,117.128869774201
1.73054314601458,321.11116777829,272.025210124763,-49.085957653527,-296.568188951527,185.098562715909,111.469626235618
1.73524570891136,295.169777905293,267.631607622856,-27.5381702824363,-281.400692764075,161.353974093864,120.04671867021
1.73994827180814,284.663292188411,274.076998914039,-10.5862932743714,-279.370145551225,147.624792731391,131.745352819834
1.74465083470491,282.556701854822,281.494193521068,-1.06250833375435,-282.025447687945,141.809605094288,140.215842593657
1.74935339760169,285.484342981355,287.845293626678,2.36095064532259,-286.664818304017,141.561696168016,145.103122136
1.75405596049847,289.689350992066,291.453600319972,1.7642493279057,-290.571475656019,143.96255083208,146.608924823939
1.75875852339525,287.933504847667,285.974320136887,-1.95918471078079,-286.953912492277,144.946344779224,142.007567713053
1.76346108629203,272.718671683076,264.954152552447,-7.76451913062903,-268.836412117761,140.241595406852,128.594816710909
1.76816364918881,243.277265380507,229.698293127575,-13.578972252932,-236.487779254041,128.428118816719,108.059660437321
1.77286621208559,207.855461350273,190.016467439973,-17.8389939103004,-198.935964395123,112.847227630287,86.0887367648361
1.77756877498237,177.254272101607,156.438090199481,-20.8161819021253,-166.846181150544,99.035227001866,67.8109541486781
1.78227133787914,155.945881912156,132.458286390909,-23.4875955212466,-144.202084151532,89.7167387167012,54.4853454348312
1.78697390077592,140.103945619774,114.663311702773,-25.4406339170009,-127.383628661274,82.7722897683876,44.6113388928862
1.7916764636727,123.618012580694,98.8028234345194,-24.8151891461744,-111.210418007607,74.2166008634341,36.9938171441725
1.79637902656948,104.577813134332,83.6847422082249,-20.8930709261069,-94.1312776712784,62.7354420302194,31.395835641059
1.80108158946626,85.7926040750236,69.6244736396011,-16.1681304354226,-77.7085388573124,50.9803672552231,26.7281716020892
1.80578415236304,70.3724059524603,55.829254908723,-14.5431510437373,-63.1008304305917,42.4577784980988,20.6430519324928
1.81048671525982,57.9280807928374,40.6222827934311,-17.3057979994063,-49.2751817931342,37.6169393961218,11.6582423970124
1.8151892781566,44.9977287627951,23.0702711971123,-21.9274575656828,-34.0339999799537,33.462593164239,0.571406815714756
1.81989184105337,28.6268868364478,3.90747395227207,-24.7194128841758,-16.2671803943599,26.6731498603118,-10.4059694659518
1.82459440395015,9.46709515479672,-13.9544504454366,-23.4215456002334,2.24367764531996,16.444320377515,-18.687998022835
1.82929696684693,-8.52788542194656,-26.4102330050654,-17.8823475831188,17.469059213506,4.67723108058614,-22.1462902940921
1.83399952974371,-22.0007365543885,-32.6990604062188,-10.6983238518303,27.3498984803036,-5.65120635127911,-21.6986921290245
1.83870209264049,-32.2962559423984,-39.5289458764836,-7.23268993408517,35.912600909441,-12.5317830041566,-23.3808179052844
1.84340465553727,-44.6430092415639,-56.4223333189922,-11.7793240774284,50.5326712802781,-16.4318425820677,-34.1008286982103
1.84810721843405,-61.4213105841387,-83.1499401854192,-21.7286296012805,72.2856253847789,-19.8463404914291,-52.4392848933499
1.85280978133083,-76.5297427921437,-103.823465250202,-27.2937224580579,90.1766040211726,-24.6180101670429,-65.5585938541297
1.8575123442276,-79.1539574769149,-98.9216507590539,-19.767693282139,89.0378041179844,-29.6931320973879,-59.3446720205964
1.86221490712438,-64.7998697524122,-65.5783516049011,-0.778481852488881,65.1891106786567,-32.0106939499617,-33.178416728695
1.86691747002116,-41.4112939134842,-23.5973140123026,17.8139799011816,32.5043039628934,-29.6126369073329,-2.89166705556049
1.87162003291794,-23.0331698806566,1.35364554914223,24.3868154297988,10.8397621657572,-23.7099926552277,12.8702304894705
1.87632259581472,-17.7179330861195,0.0581188157083687,17.7760519018279,8.82990713520557,-17.7469924939737,8.91708535876812
1.8810251587115,-22.4229179823671,-15.7856796162026,6.63723836616448,19.1042987992848,-14.5300781742658,-4.57422062501905
1.88572772160828,-28.9731333994562,-29.1570719590162,-0.183938559559955,29.0651026792362,-14.3945974199481,-14.6705052592881
1.89043028450506,-33.1195696331953,-34.1326100326236,-1.01304039942834,33.6260898329095,-16.0532646168835,-17.572825216026
1.89513284740183,-36.9233011017032,-36.8865015605631,0.0367995411401125,36.9049013311331,-18.4800503214216,-18.4248510097115
1.89983541029861,-43.529424026702,-44.2398405168428,-0.710416490140879,43.8846322717724,-21.4095037682805,-22.4751285034919
1.90453797319539,-51.6475524884584,-54.1348727764379,-2.48732028797942,52.8912126324481,-24.5801161002395,-28.3110965322086
1.90924053609217,-55.9890233635934,-57.4597881740803,-1.47076481048686,56.7244057688368,-27.2591292765533,-29.4652764922836
1.91394309898895,-52.4511026204978,-48.2201031322807,4.23099948821709,50.3356028763892,-28.3410510543574,-21.9945518220318
1.91864566188573,-42.0233810138985,-30.6040350567118,11.4193459571867,36.3137080353051,-26.7213634855426,-9.59234454976254
1.92334822478251,-29.403330367325,-14.527049066962,14.876281300363,21.9651897171435,-22.139805833844,0.174616116700495
1.92805078767929,-18.1245374610528,-4.45548009126522,13.6690573697876,11.290008776159,-15.8967974154202,4.60678863926117
1.93275335057606,-7.78695992566212,4.68027258080438,12.4672325064665,1.55334367242887,-10.1270962160643,8.57375254363545
1.93745591347284,3.46411832572106,18.8919538890488,15.4278355633277,-11.1780361073849,-5.98185861880334,17.1598947261883
1.94215847636962,14.463592847078,34.8051556178272,20.3415627707493,-24.6343742324526,-2.93898496183565,27.5733591942882
1.9468610392664,20.3598354085203,41.4285435182498,21.0687081097295,-30.894189463385,-0.354436350604615,31.2486258139896
1.95156360216318,17.0257012316777,32.4676274320095,15.4419262003319,-24.7466643318436,0.791887515672901,23.9547768161707
1.95626616505996,5.89480097708541,14.0119814405992,8.1171804635138,-9.95339120884231,-1.1111897432142,11.0645809520565
1.96096872795674,-6.24293469577264,-1.72147805088374,4.52145664488891,3.98220637332819,-5.38219567033078,1.39998929700259
1.96567129085352,-13.046600940122,-8.6922427480202,4.35435819210185,10.8694218440711,-8.70047956611195,-2.16894227795917
1.97037385375029,-14.3459320452312,-10.9509561300822,3.39497591514898,12.6484440876567,-8.87045398019008,-3.77799010746661
1.97507641664707,-15.0928164188581,-14.7947138537037,0.298102565154421,14.9437651362809,-7.69545949200626,-7.24830564427463
1.97977897954385,-18.2234221982033,-19.6679044270622,-1.44448222885891,18.9456633126327,-8.38946998467219,-10.5561933279606
1.98448154244063,-20.288943098125,-18.6759641803705,1.61297891775454,19.4824536392478,-10.9509610079398,-8.53149263130798
1.98918410533741,-15.7206221830598,-7.32685857480732,8.39376360825248,11.5237403789336,-12.0571928956561,0.533452516722583
1.99388666823419,-4.02559868024659,10.3318740360042,14.3574727162508,-3.1531376778788,-9.19153569824868,12.3446733761275
1.99858923113097,9.33034746098485,25.0395625501913,15.7092150892065,-17.1849550055881,-3.18943381411082,20.3743888196989
2.00329179402775,18.5735396004512,31.0451091610578,12.4715695606066,-24.8093243807545,3.05098501992233,21.7583393608322
2.00799435692452,22.724601980051,31.2218742231625,8.49727224311156,-26.9732381016068,7.11366486846971,19.859573233137
2.0126969198213,25.7948183061623,34.0140031665319,8.21918486036957,-29.9044107363471,8.78781672289636,21.1165940134507
2.01739948271808,32.9404513387543,45.4075007148652,12.4670493761109,-39.1739760268097,10.2367009813217,28.937275045488
2.02210204561486,45.4324946193119,63.3265172863648,17.8940226670529,-54.3795059528383,13.7692359761295,40.6102699767089
2.02680460851164,58.4246569049492,79.4597918139205,21.0351349089712,-68.9422243594349,18.694760997989,50.2474633614459
2.03150717140842,64.651378886078,86.5749442985847,21.9235654125067,-75.6131615923314,21.3639067367857,54.2492548555457
2.0362097343052,61.237098361681,84.0780003134758,22.8409019517947,-72.6575493375784,19.1980982049432,53.4594511326353
2.04091229720198,52.1460974835803,76.5184023812661,24.3723048976858,-64.3322499324232,13.8868962929472,50.445353639476
2.04561486009875,43.5954219484293,67.4885150508146,23.8930931023853,-55.5419684996219,9.85116442302197,45.6908040766
2.05031742299553,38.11852302037,56.2995343853837,18.1810113650137,-47.2090287028769,9.96875582767814,37.2402728751987
2.05501998589231,33.6064552221809,41.1902169941789,7.58376177199798,-37.3983361081799,13.0113467250914,24.3869893830884
2.05972254878909,27.4952413263324,25.2015909260903,-2.29365040024208,-26.3484161262114,14.8944458632872,11.4539702629241
2.06442511168587,21.5635305363699,17.6412782232831,-3.92225231308682,-19.6024043798265,12.7428914247283,6.85951295509813
2.06912767458265,22.3772840593565,28.019913801978,5.64262974262153,-25.1985989306673,8.36732715836748,16.8312717722998
2.07383023747943,35.7981221888992,56.9344280402556,21.1363058513564,-46.3662751145774,7.33090816877137,39.035366945806
2.0785328003762,60.3343696039215,93.0477053007161,32.7133356967947,-76.6910374523188,13.8105169535634,62.8805204987554
2.08323536327298,87.0644658040018,120.876218159252,33.8117523552501,-103.970341981627,26.6263567243758,77.3439852572509
2.08793792616976,106.972249119876,132.544795135706,25.5725460158292,-119.758522127791,40.6998515520236,79.0586705757674
2.09264048906654,117.167905467239,131.372127068415,14.2042216011755,-124.270016267827,51.4818419330319,72.7881743347952
2.09734305196332,119.452133386415,124.815795735286,5.36366234887102,-122.13396456085,57.0442355187717,65.0897290420783
2.1020456148601,115.612638999238,117.028528562196,1.41588956295843,-116.320583780717,57.0983747181398,59.2222090625775
2.10674817775688,107.179527163325,109.638221626047,2.45869446272179,-108.408874394686,52.3604163503016,56.0484580443843
2.11145074065366,98.7897196321588,106.656612659748,7.86689302758965,-102.723166145954,45.4614133022846,57.2617528436691
2.11615330355043,97.9799020529175,114.225693835954,16.245791783036,-106.102797944436,40.8670551349408,65.2357428094948
2.12085586644721,109.45665719103,134.201427403844,24.744770212814,-121.829042297437,42.355943489108,79.4730988083291
2.12555842934399,129.923209920591,159.323824114058,29.4006141934673,-144.623517017325,50.2612978635618,94.3622191537628
2.13026099224077,149.187279215452,176.110753173866,26.9234739584137,-162.649016194659,61.1319026285193,101.51711356614
2.13496355513755,156.727237371976,173.792113261595,17.0648758896187,-165.259675316785,69.8311807411786,95.4284945756066
2.13966611803433,148.730936311601,152.44751501127,3.71657869966958,-150.589225661435,72.5071788059655,78.0820468554699
2.14436868093111,131.102171539932,124.403110743897,-6.69906079603467,-127.752641141914,68.9006161679831,58.8520249739311
2.14907124382789,116.50645687521,107.927430529739,-8.5790263454706,-112.216943702475,62.5427416103403,49.6742020921344
2.15377380672467,116.918851975135,116.820048233024,-0.0988037421112153,-116.869450104079,58.5088278586231,58.3606222454563
2.15847636962144,136.194704103145,151.537314685026,15.3426105818818,-143.866009394086,60.4260467606315,83.4399626334541
2.16317893251822,167.582630442029,197.906461623256,30.3238311812269,-182.744546032643,68.6293996304013,114.115146402242
2.167881495415,198.037559631293,235.886362612939,37.8488029816458,-216.961961122116,80.0943783248237,136.867582797292
2.17258405831178,216.494886490282,252.498853995578,36.0039675052953,-234.49687024293,90.2454594924935,144.251410750436
2.17728662120856,220.214712599284,248.739892929336,28.5251803300521,-234.47730276431,95.844766134616,138.632536629694
2.18198918410534,214.799798039852,236.10017286153,21.300374821678,-225.449985450691,96.7497116090869,128.700273841604
2.18669174700212,208.684139565364,226.920926812734,18.2367872473704,-217.802533189049,95.2236761589966,122.578857030052
2.19139430989889,206.917258892599,226.022304454459,19.1050455618602,-216.469781673529,93.9061066653693,122.56367500816
2.19609687279567,208.724311744267,229.271815297011,20.5475035527434,-218.998063520639,94.0884040957618,124.909659424877
2.20079943569245,209.890396318487,229.523315742855,19.6329194243687,-219.706856030671,95.128738447059,124.578117583612
2.20550199858923,207.218608414002,223.657732900168,16.4391244861663,-215.438170657085,95.3897419639178,120.048428693167
2.21020456148601,200.897114226375,213.603066561968,12.7059523355925,-207.250090394171,94.0955809453913,113.15450944878
2.21490712438279,193.300743627849,202.169303598944,8.86855997109521,-197.735023613397,92.216091828377,105.51893178502
2.21960968727957,186.701498380862,190.999857025276,4.29835864441404,-188.850677703069,91.2015698682239,97.6491078348449
2.22431225017635,182.553609827958,183.0697930426,0.516183214642183,-182.811701435279,91.018713306658,91.7929881286213
2.22901481307312,181.857115425104,183.411066250441,1.55395082533695,-182.634090837773,90.1515822998836,92.482508537889
2.2337173759699,184.761565076796,193.798802036892,9.03723696009635,-189.280183556844,87.8621640583496,101.418019498494
2.23841993886668,189.580134416842,207.729933481628,18.1497990647852,-198.655033949235,85.7151676760286,112.939866273206
2.24312250176346,192.830265723197,213.849553428389,21.0192877051916,-203.339909575793,85.9054890090029,117.43442056679
2.24782506466024,190.481441429291,204.762268287181,14.2808268578902,-197.621854858236,88.1003072857002,109.521547572536
2.25252762755702,179.061053801448,180.713052482847,1.6519986813986,-179.887053142148,88.7045275600249,91.1825255821228
2.2572301904538,156.271188194561,145.254621060657,-11.0165671339034,-150.762904627609,83.643877664232,67.1190269633768
2.26193275335058,122.17028463698,100.97387934989,-21.1964052870896,-111.572081993435,71.6833449620347,39.8887370314003
2.26663531624735,80.8504206160366,51.6923185055006,-29.1581021105359,-66.2713695607686,55.0042613632862,11.2671081974824
2.27133787914413,40.6257946954307,6.87627322783086,-33.7495214675999,-23.7510339616308,37.1876580815153,-13.4366241198845
2.27604044204091,11.3277288055765,-20.0246675466698,-31.3523963522463,4.34846937054662,21.3400625789114,-25.688531949458
2.28074300493769,-0.293260899627205,-20.2561091337463,-19.9628482341191,10.2746850166868,9.83479366724597,-20.1094786839327
2.28544556783447,5.60507965267186,2.27846042611945,-3.32661922655241,-3.94177003939566,4.46584943961214,-0.52407940021648
2.29014813073125,21.5486154433153,31.7192871740271,10.1706717307118,-26.6339513086712,5.68897185630177,20.9449794523694
2.29485069362803,36.5304487721932,49.9130545354423,13.3826057632491,-43.2217516538177,11.573921504472,31.6478301493457
2.29955325652481,41.7676548475245,47.6870643419601,5.91940949443566,-44.7273595947423,17.9241226765444,26.8032369181979
2.30425581942158,34.5680804776326,29.0550932997241,-5.51298717790854,-31.8115868886783,20.0405338277706,11.7710530609078
2.30895838231836,17.8219287966861,5.1873899201426,-12.6345388765435,-11.5046593584144,15.2282338366148,-3.72357447820047
2.31366094521514,-3.9339724498681,-16.437511757173,-12.5035393073049,10.1857421035205,4.28478342871839,-14.4705255322389
2.31836350811192,-28.1332960323086,-37.5036553887304,-9.37035935642178,32.8184757105195,-9.38146833794342,-23.4370073725761
2.3230660710087,-54.1575689150902,-63.6882010147313,-9.53063209964107,58.9228849649108,-22.3134684077246,-36.6094165571862
2.32776863390548,-80.1360479064212,-94.6383773639084,-14.5023294574872,87.3872126351648,-32.816859224467,-54.5703534106978
2.33247119680226,-100.834401481607,-120.337536912423,-19.5031354308157,110.585969197015,-40.6656330253956,-69.9203361716191
2.33717375969904,-110.263049531761,-128.683876041359,-18.4208265095979,119.47346278656,-45.9211115110815,-73.5523512754783
2.34187632259581,-107.098925926585,-117.074242060505,-9.97531613391992,112.086583993545,-48.5618048963328,-63.5247790972126
2.34657888549259,-96.8381880557351,-95.7392646093467,1.09892344638843,96.2887263325409,-48.9685557510618,-47.3201705814791
2.35128144838937,-87.7771015440421,-79.0774264329644,8.69967511107777,83.4272639885033,-48.23838832756,-35.1888756609433
2.35598401128615,-84.8947657702378,-74.3579183380178,10.53684743222,79.6263420541278,-47.7158066012289,-31.9105354528989
2.36068657418293,-87.7998501601787,-79.0499233227134,8.74992683746531,83.4248867414461,-48.274888498822,-35.1499982426241
2.36538913707971,-94.0227289870693,-87.3625031769139,6.66022581015544,90.6926160819916,-50.3414773986124,-40.3511386833792
2.37009169997649,-103.099168369935,-97.5435903606416,5.55557800929317,100.321379365288,-54.327373189614,-45.9940061756742
2.37479426287327,-116.541479809014,-112.634258824392,3.90722098462233,114.587869316703,-60.2243503968181,-54.3635189198846
2.37949682577004,-134.050936328906,-134.487390766561,-0.436454437655215,134.269163547733,-66.8072409456253,-67.4619226021081
2.38419938866682,-150.960985277804,-157.683580054908,-6.72259477710401,154.322282666356,-72.11919525035,-82.203087416006
2.3889019515636,-160.613327793645,-171.318734993333,-10.7054071996882,165.966031393489,-74.9539602969782,-91.0120710965105
2.39360451446038,-159.768162079344,-168.52781853867,-8.75965645932584,164.147990309007,-75.5042528100092,-88.643737498998
2.39830707735716,-151.379343503154,-153.136494286016,-1.75715078286143,152.257918894585,-74.8110963601464,-77.4468225344385
2.40300964025394,-141.522513788736,-135.220356252029,6.30215753670637,138.371435020383,-73.912335662721,-64.4590993576615
2.40771220315072,-133.891587959504,-121.756825985062,12.1347619744425,127.824206972283,-73.0131749669734,-54.8110320053097
2.4124147660475,-128.26711490439,-114.208939649597,14.0581752547933,121.238027276994,-71.1626450795919,-50.0753821974019
2.41711732894427,-124.148114337173,-113.253709517556,10.8944048196172,118.700911927365,-67.5212595783952,-51.1796523489695
2.42181989184105,-123.679710206409,-120.634807818351,3.04490238805852,122.15725901238,-63.362306297234,-58.7949527151462
2.42652245473783,-129.02844818392,-134.564744687039,-5.53629650311984,131.79659643548,-61.7460758403999,-70.0505205950797
2.43122501763461,-137.513075695892,-146.527032141173,-9.01395644528012,142.020053918533,-64.2495596253062,-77.7704942932263
2.43592758053139,-141.700531559049,-146.273757746602,-4.57322618755299,143.987144652825,-68.563652685748,-75.4234919670775
2.44063014342817,-135.673607763546,-130.895478273815,4.77812948973039,133.28454301868,-70.225868626638,-63.0586743920424
2.44533270632495,-120.883487474991,-108.171607115276,12.7118803597155,114.527547295133,-66.7976839173533,-47.7298633777801
2.45003526922173,-105.424145741417,-90.527676723815,14.8964690176017,97.9759112326159,-60.1603073795092,-37.8156038531067
2.4547378321185,-97.7245539301754,-85.7997345777639,11.9248193524115,91.7621442539696,-54.8246866412934,-36.9374576126762
2.45944039501528,-100.526164367056,-93.1339215893808,7.39224277767474,96.8300429782182,-53.9592035723651,-42.870839405853
2.46414295791206,-109.670936053115,-105.821784446331,3.84915160678392,107.746360249723,-56.7600438299495,-50.9863164197736
2.46884552080884,-118.026668436477,-116.819430768127,1.2072376683502,117.423049602302,-59.6169530524137,-57.8060965498884
2.47354808370562,-121.301014510247,-122.655482097181,-1.35446758693386,121.978248303714,-59.9732734616566,-62.0049748420574
2.4782506466024,-120.954562917247,-124.234586134329,-3.280023217082,122.594574525788,-58.8372698500826,-63.7573046757056
2.48295320949918,-121.620171367158,-124.853203333411,-3.23303196625336,123.236687350285,-59.1935697004523,-64.0431176498324
2.48765577239596,-125.659096178092,-126.781053580559,-1.12195740246692,126.220074879326,-62.2685693878126,-63.951505491513
2.49235833529273,-130.374272957711,-128.877402333596,1.49687062411516,129.625837645653,-65.935571790913,-63.6902658547403
2.49706089818951,-130.568880722581,-127.63869407806,2.93018664452032,129.103787400321,-66.7495336835505,-62.35425371677
2.50176346108629,-123.938016162615,-121.325201294838,2.61281486777717,122.631608728727,-63.2754155151961,-59.3561932135304
2.50646602398307,-114.134252054866,-113.124028683866,1.01022337099964,113.629140369366,-57.5722377129327,-56.0569026564333
2.51116858687985,-108.12729720756,-109.090853052996,-0.963555845435835,108.609075130278,-53.581870681062,-55.0272044492157
2.51587114977663,-109.659301800884,-111.65379288203,-1.9944910811455,110.656547341457,-53.8324053598693,-56.8241419815875
2.52057371267341,-115.016032148278,-115.480445332998,-0.464413184720925,115.248238740638,-57.2758094817783,-57.9724292588597
2.52527627557019,-116.088548115049,-112.050921205179,4.03762690987053,114.069734660114,-60.0630875124599,-54.0066471476541
2.52997883846696,-108.796256995028,-100.016977394972,8.77927960005566,104.406617195,-58.7877682975418,-45.6188488974583
2.53468140136374,-98.5316316011739,-89.6215657844024,8.91006581677144,94.0765986927882,-53.7208487089727,-40.3557499838155
2.53938396426052,-95.7356894004173,-93.6698534752856,2.06583592513176,94.7027714378515,-48.9007626627746,-45.8020087750769
2.5440865271573,-104.759512553342,-112.764260545531,-8.00474799218931,108.761886549436,-48.3773822805761,-60.3845042688601
2.54878909005408,-117.727060652611,-131.086063157163,-13.359002504552,124.406561904887,-52.1840290740296,-72.2225328308575
2.55349165295086,-120.969853765219,-129.265010509074,-8.29515674385557,125.117432137147,-56.3373485106817,-68.780083626465
2.55819421584764,-108.134059807975,-102.834909378169,5.29915042980608,105.484484593072,-56.7166051188904,-48.7678794741813
2.56289677874442,-86.7868146710526,-68.3383879337064,18.4484267373461,77.5626013023795,-52.6176207041994,-24.9449805981801
2.56759934164119,-72.2790244017662,-50.8865260282276,21.3924983735386,61.5827752149969,-46.8357613876524,-14.7470138273445
2.57230190453797,-75.1925534204012,-64.1338608059078,11.0586926144934,69.6632071131545,-43.1256230174473,-26.5375840957072
2.57700446743475,-93.6203417760434,-99.6245234477506,-6.00418167170719,96.622432611897,-43.8080800521681,-52.8143525597289
2.58170703033153,-115.615390355904,-133.628959268018,-18.0135689121136,124.622174811961,-48.8009107218953,-75.8212640900657
2.58640959322831,-128.11776323649,-145.093598282031,-16.9758350455409,136.60568075926,-55.5709640954746,-81.0347166637859
2.59111215612509,-124.751123091546,-129.633724742724,-4.88260165117839,127.192423917135,-59.9342607201836,-67.2581631969512
2.59581471902187,-107.65750968475,-98.8633482821153,8.79416140263471,103.260428983433,-58.2258355436923,-45.0345934397403
2.60051728191865,-84.3445342046117,-68.8388936714822,15.5056405331295,76.591713938047,-49.9250873688706,-26.6666265691764
2.60521984481542,-63.8531297011765,-50.5482178639935,13.304911837183,57.200673782585,-38.5790207691798,-18.6216530134052
2.6099224077122,-54.298509349926,-48.6199684861927,5.67854086373334,51.4592389180594,-29.9885251068297,-21.4707138112297
2.61462497060898,-60.0913601026919,-62.9047617201695,-2.81340161747764,61.4980609114307,-28.6389792426071,-32.8590816688236
2.61932753350576,-78.6115704727381,-87.7808827327196,-9.16931225998152,83.1962266027288,-34.7211291063783,-48.4750974963506
2.62403009640254,-100.437689960479,-112.453913848524,-12.0162238880451,106.445801904501,-44.2107330362167,-62.2350688682844
2.62873265929932,-115.449323073498,-126.532445158417,-11.0831220849188,120.990884115957,-52.1831004942895,-68.8077836216677
2.6334352221961,-119.750849443875,-127.059352277697,-7.30850283382178,123.405100860786,-56.2211733050265,-67.1839275557592
2.63813778509288,-116.651691153924,-119.475913856285,-2.82422270236042,118.063802505105,-56.913734225782,-61.1500682793226
2.64284034798965,-112.076571172065,-111.759353620307,0.317217551757395,111.917962396186,-56.196894361911,-55.7210680342749
2.64754291088643,-110.133252584523,-108.182460745725,1.95079183879756,109.157856665124,-56.04202221166,-53.1158344534637
2.65224547378321,-111.720750816735,-107.712468997014,4.00828181972128,109.716609906874,-57.864516318228,-51.8520935886461
2.65694803667999,-114.788938484109,-106.374277061623,8.41466142248527,110.581607772866,-61.601799953297,-48.9798078195691
2.66165059957677,-115.247677195606,-100.727337402934,14.5203397926716,107.98750729927,-64.8840084941387,-43.1034988051313
2.66635316247355,-109.235037617071,-90.4958875128472,18.739150104224,99.8654625649592,-63.9870938606476,-35.8783687043116
2.67105572537033,-96.2237265265477,-78.7801305082085,17.4435960183392,87.5019285173781,-56.8336612724435,-30.6682672449346
2.67575828826711,-80.1469468551298,-69.3303769351114,10.8165699200183,74.7386618951206,-45.481758387574,-29.2569035075466
2.68046085116388,-66.8125772718516,-63.5352861958187,3.27729107603285,65.1739317338352,-35.0449341739422,-30.1289975598929
2.68516341406066,-60.1996056454615,-61.0169876667381,-0.817382021276615,60.6082966560998,-29.6911118120924,-30.9171848440074
2.68986597695744,-61.7265990231951,-63.371838761741,-1.64523973854587,62.549218892468,-30.0406796423246,-32.5085392501434
2.69456853985422,-72.0980885726976,-75.3163532077083,-3.21826463501067,73.707220890203,-34.4399119688435,-39.2673089213595
2.699271102751,-91.2835165965764,-99.5478934150754,-8.26437681849899,95.4157050058259,-41.5095698890387,-53.9061351167872
2.70397366564778,-115.466184950162,-130.133265592921,-14.6670806427588,122.799725271541,-50.3995521537016,-72.4001731178398
2.70867622854456,-135.903957818018,-153.127626136016,-17.223668317998,144.515791977017,-59.3401447500101,-85.1756472270072
2.71337879144134,-143.664069966357,-156.197852933498,-12.5337829671411,149.930961449928,-65.5651434996079,-84.3658179503196
2.71808135433811,-136.545243412266,-138.984908956572,-2.43966554430583,137.765076184419,-67.0527889339803,-70.712287250439
2.72278391723489,-120.870897646459,-114.133656564864,6.73724108159477,117.502277105661,-63.8040693640268,-53.6982077416346
2.72748648013167,-106.255778241117,-97.297759841307,8.9580183998105,101.776769041212,-57.606898320464,-44.1698707207482
2.73218904302845,-98.6319183820537,-94.924062644585,3.70785573746872,96.7779905133193,-51.1698870597612,-45.6081034535581
2.73689160592523,-97.5319742012585,-101.017709971675,-3.48573577041638,99.2748420864667,-47.0231192154211,-52.2517228710456
2.74159416882201,-98.7876985320992,-105.241955656934,-6.45425712483451,102.014827094516,-46.1667207036323,-55.8481063908841
2.74629673171879,-99.2106810340908,-103.245341116144,-4.03466008205282,101.228011075117,-47.588010476019,-53.6400005990982
2.75099929461557,-98.8538673866013,-98.801393977904,0.0524734086972956,98.8276306822526,-49.4531703976493,-49.3744602846033
2.75570185751234,-99.3559721552006,-97.3494236983267,2.00654845687386,98.3526979267636,-50.6812603060372,-47.6714376207264
2.76040442040912,-100.954574806647,-99.2885591094319,1.66601569721465,100.121566958039,-51.3102952519306,-48.8112717061086
2.7651069833059,-101.644805660824,-99.7768513901786,1.86795427064548,100.710828525501,-51.7563799657348,-48.9544485597665
2.76980954620268,-99.0860708070906,-94.2115160932275,4.87455471386311,96.648793450159,-51.9803127604769,-44.6684806896822
2.77451210909946,-93.0430923373704,-83.531451518764,9.51164081860647,88.2872719280672,-51.2773665779885,-37.0099053500788
2.77921467199624,-85.9372259352016,-74.2679350303348,11.6692909048668,80.1025804827682,-48.8032584200342,-31.299322062734
2.78391723489302,-81.1122590058377,-73.3374236167951,7.77483538904261,77.2248413113164,-44.4435471974402,-32.7812941138763
2.7886197977898,-80.8127839256334,-82.5672162455546,-1.75443231992119,81.690000085594,-39.5291758028561,-42.1608242827379
2.79332236068657,-85.8598709849241,-98.1037371163718,-12.2438661314477,91.981804050648,-36.8080024267382,-55.1738016239098
2.79802492358335,-96.3152305525351,-114.579362169497,-18.2641316169617,105.447296361016,-39.0255494677867,-66.4217468932293
2.80272748648013,-111.00627593123,-128.685853159477,-17.6795772282471,119.846064545354,-46.6633493514915,-73.1827151938622
2.80743004937691,-126.074338377262,-138.212721361583,-12.1383829843214,132.143529869423,-56.9679776964703,-75.1755521729523
2.81213261227369,-135.291115585614,-139.474337066109,-4.18322148049504,137.382726325862,-65.5539470525596,-71.8287792733022
2.81683517517047,-133.534924444631,-128.820730674077,4.71419377055386,131.177827559354,-69.1245591075926,-62.0532684517618
2.82153773806725,-120.883501980492,-107.841685284909,13.0418166955838,114.3625936327,-66.9626593380381,-47.3999342946624
2.82624030096403,-103.174482745661,-85.1601948353826,18.0142879102783,94.1673387905218,-60.5943853279696,-33.5729534625521
2.8309428638608,-87.7140406358868,-70.3384074753815,17.3756331605053,79.0262240556342,-52.544836898196,-26.4813871574381
2.83564542675758,-77.608118625691,-65.1951128006927,12.4130058249983,71.4016157131919,-45.0105622253447,-26.3910534878472
2.84034798965436,-70.3283406797769,-62.7195034935734,7.60883718620352,66.5239220866751,-38.9685889329902,-27.5553331536849
2.84505055255114,-62.4554002672506,-56.24094120957,6.21445905768056,59.3481707384103,-34.3349296624656,-25.0132410759447
2.84975311544792,-55.6864666671396,-49.0502438120854,6.63622285505421,52.3683552396125,-31.1613447610969,-21.2070104785156
2.8544556783447,-56.7848389436403,-52.540672544838,4.24416639880229,54.6627557442392,-30.5145026712213,-24.1482530730179
2.85915824124148,-70.2879415250069,-73.3469554870896,-3.05901396208272,71.8174485060483,-33.6144637814621,-38.2029847245862
2.86386080413826,-91.7020558131619,-103.549178241089,-11.8471224279273,97.6256170271255,-39.9274666926173,-57.6981503345082
2.86856336703503,-109.801676731274,-126.122641494674,-16.3209647634,117.962159112974,-46.7403559839368,-71.2218031290368
2.87326592993181,-116.535310636701,-130.538014893477,-14.0027042567757,123.536662765089,-51.2663031899627,-72.2703595751263
2.87796849282859,-113.563919937174,-121.232275727757,-7.66835579058365,117.398097832465,-52.947782073295,-64.4503157591705
2.88267105572537,-108.593898747286,-110.725299031476,-2.13140028419002,109.659598889381,-53.2312492315478,-56.4283496578329
2.88737361862215,-107.084036585163,-107.23139277201,-0.14735618684675,107.157714678587,-53.4683401991582,-53.6893744794283
2.89207618151893,-108.766751069977,-110.120394202732,-1.35364313275522,109.443572636355,-53.7065539686109,-55.7370186677437
2.89677874441571,-110.485992977613,-114.215881952323,-3.72988897471012,112.350937464968,-53.3780520014515,-58.9728854635167
2.90148130731249,-109.705167507774,-114.677452159207,-4.97228465143345,112.19130983349,-52.3664414281701,-59.8248684053203
2.90618387020926,-104.904857795237,-108.24063254057,-3.3357747453332,106.572745167903,-50.7845415249517,-55.7882036429515
2.91088643310604,-95.0876261594311,-94.1195004269117,0.968125732519425,94.6035632931714,-48.0278759459753,-46.5756873471961
2.91558899600282,-81.7320243192433,-76.9460101270818,4.78601419216145,79.3390172231625,-43.2590192557024,-36.0799979674602
2.9202915588996,-71.222109788679,-67.5348079438186,3.68730184486031,69.3784588662488,-37.4547058167696,-31.9237530494792
2.92499412179638,-72.2521474472349,-76.2631045242468,-4.01095707701188,74.2576259857409,-34.1205951851115,-40.1370308006294
2.92969668469316,-87.7196229437388,-101.996881452444,-14.2772585087051,94.8582521980913,-36.7211822175168,-58.1370699805745
2.93439924758994,-108.840410364037,-128.046391575491,-19.2059812114537,118.443400969764,-44.8172145762916,-73.6261863934722
2.93910181048672,-119.655378349585,-133.260596769409,-13.6052184198241,126.457987559497,-53.0250799648805,-73.4329075946166
2.94380437338349,-110.157751167566,-110.655038550031,-0.497287382465075,110.406394858798,-54.8302318925502,-55.5761629662478
2.94850693628027,-85.9314403533195,-75.194406059811,10.7370342935086,80.5629232065653,-48.3342373234141,-32.2286858831512
2.95320949917705,-63.9130112894741,-51.4685077844896,12.4445035049845,57.6907595369818,-38.1787573972293,-19.5120021397525
2.95791206207383,-57.4620832640685,-52.1614445359855,5.30063872808292,54.811763900027,-31.3813609960757,-23.4304029039513
2.96261462497061,-64.9170483389844,-67.5591217904499,-2.64207345146544,66.2380850647172,-31.1374874437595,-35.1005976209577
2.96731718786739,-72.2677458894246,-75.6225196574241,-3.35477376799956,73.9451327734244,-34.4564860607125,-39.4886467127119
2.97201975076417,-66.5799980658978,-62.3225558269476,4.2574422389502,64.4512769464227,-35.418720152424,-29.0325567939987
2.97672231366095,-46.9702196639813,-32.7084984755078,14.2617211884735,39.8393590697446,-30.6159704262274,-9.22338864351715
2.98142487655772,-23.7513183028872,-4.06047980429071,19.6908384985965,13.905899053589,-21.7210784007419,7.81517934715291
2.9861274394545,-8.84199691264037,8.99295057027296,17.8349474829133,-0.0754768288162975,-13.3384721977769,13.4139490265931
2.99083000235128,-7.83996489216793,2.37118114827338,10.2111460404413,2.73439187194727,-9.02555546630462,6.29116359435735
2.99553256524806,-19.5830358351218,-20.0496645784984,-0.466628743376631,19.8163502068101,-9.55820354587259,-10.2581466609375
3.00023512814484,-39.944613026852,-51.6572900782155,-11.7126770513635,45.8009515525337,-14.1159679877442,-31.6849835647895
3.00493769104162,-63.8114985394966,-84.4109146165066,-20.59941607701,74.1112065780016,-21.6060412312433,-52.5051653467583
3.0096402539384,-84.2050552920894,-108.062843562414,-23.8577882703243,96.1339494272516,-30.1736335108825,-65.960315916369
3.01434281683518,-92.6211093925952,-112.45811335342,-19.8370039608244,102.539611373007,-36.3920527158854,-66.147558657122
3.01904537973195,-82.950627048286,-93.1248597236462,-10.1742326753601,88.0377433859661,-36.3881971864629,-51.6495461995031
3.02374794262873,-55.7550969710552,-54.7261557889023,1.02894118215283,55.2406263799788,-28.392019076604,-26.8486073033748
3.02845050552551,-18.6676206594411,-8.71739105575824,9.95022960368285,13.6925058575997,-14.308925131562,0.616419273962306
3.03315306842229,17.0171675712362,32.0338730617028,15.0167054904666,-24.5255203164695,1.00023104038481,23.5252892760847
3.03785563131907,40.8228392330408,57.257815823346,16.4349765903053,-49.0403275281934,12.1939313213677,36.8463962068257
3.04255819421585,46.9630334372959,61.5109073327379,14.547873895442,-54.2369703850169,16.207579770927,38.0293906140899
3.04726075711263,36.6630413335295,45.9691293536578,9.30608802012839,-41.3160853435937,13.6784766567005,27.6376086868931
3.0519633200094,17.2828724527348,18.4487830180384,1.16591056530359,-17.8658277353866,8.05848094371561,9.80734679167099
3.05666588290618,-2.32026578547343,-10.4589661612107,-8.1387003757373,6.38961597334208,2.90921729513194,-9.29883326847402
3.06136844580296,-17.2842534976237,-33.2536061186564,-15.9693526210326,25.26892980814,-0.65745043829553,-24.6114793698445
3.06607100869974,-28.5296055510707,-48.365294067739,-19.8356885166683,38.4474498094048,-4.34695851720123,-34.1004912922036
3.07077357159652,-39.3227780943904,-57.7059126712816,-18.3831345768911,48.514345382836,-10.4698217587497,-38.0445236240863
3.0754761344933,-50.0017813328951,-62.180943812022,-12.1791624791269,56.0913625724586,-18.9113094268841,-37.1800531455744
3.08017869739008,-56.1829907232614,-60.1566923486177,-3.97370162535625,58.1698415359396,-26.1046445489526,-32.065196986987
3.08488126028686,-52.8616537318667,-50.47393099474,2.38772273712669,51.6677923633033,-27.6246882344967,-24.0431041288067
3.08958382318363,-40.8787081870628,-36.7769081804502,4.10180000661264,38.8278081837565,-22.4902540968377,-16.3375540869188
3.09428638608041,-28.5211823034585,-27.6566933599766,0.864488943481906,28.0889378317175,-14.6928356234702,-13.3961022082473
3.09898894897719,-25.1615794948325,-30.4636425055505,-5.302063010718,27.8126110001915,-9.92975824205725,-17.8828527581342
3.10369151187397,-33.1210299915834,-44.5929052756189,-11.4718752840356,38.8569676336012,-10.8245773537739,-28.0323902798273
3.10839407477075,-46.9131216062817,-62.8221658915364,-15.9090442852548,54.867643748909,-15.5020386605134,-39.3656050883956
3.11309663766753,-60.4659470736433,-79.725587755144,-19.2596406815007,70.0957674143937,-20.6031531960713,-49.4926142183224
3.11779920056431,-73.0968173173094,-95.8961670578335,-22.7993497405241,84.4964921875714,-25.1487337883927,-59.3477583991788
3.12250176346109,-87.0095298450468,-112.36923239512,-25.3597025500732,99.6893811200834,-30.8249136474868,-68.8644674725966
3.12720432635787,-100.746413871237,-124.444787102613,-23.698373231376,112.595600486925,-38.5240203199303,-74.0715801669944
3.13190688925464,-108.615653056732,-125.299091631645,-16.683438574913,116.957372344188,-45.9661072409095,-70.991265103279
3.13660945215142,-107.525371352042,-115.136078817881,-7.61070746583847,111.330725084962,-49.957331943102,-61.3733931418597
3.1413120150482,-101.923725051849,-103.404205710796,-1.4804806589469,102.663965381322,-50.221622196451,-52.4423431848714
3.14601457794498,-99.9513004943981,-100.794389413429,-0.843088919031246,100.372844953914,-49.5541057876834,-50.8187391662303
3.15071714084176,-105.42788268979,-109.828199895508,-4.40031720571764,107.628041292649,-50.5137827420364,-57.1142585506128
3.15541970373854,-114.800294447428,-123.297788303754,-8.49749385632666,119.049041375591,-53.1514002955505,-65.8976410800405
3.16012226663532,-121.426221810604,-131.327408809062,-9.90118699845735,126.376815309833,-55.7625174060736,-70.6142979037596
3.16482482953209,-121.870235208539,-130.04147637659,-8.17124116805083,125.955855792564,-56.8494970202441,-69.1063587723204
3.16952739242887,-118.157737864056,-123.737224872301,-5.57948700824463,120.947481368179,-56.2891254279058,-64.6583559402728
3.17422995532565,-114.641383394148,-119.112504413537,-4.47112101938929,116.876943903842,-55.0851311873792,-61.7918127164631
3.17893251822243,-113.471695581618,-118.650854821984,-5.17915924036649,116.061275201801,-54.1462681706257,-61.9150070311754
3.18363508111921,-113.948174570444,-120.758205438953,-6.81003086850872,117.353190004699,-53.5690718509679,-63.7841181537309
3.18833764401599,-116.011695698654,-125.053864795127,-9.04216909647361,120.532780246891,-53.4847633010901,-67.0480169458005
3.19304020691277,-122.167421386538,-134.074255168422,-11.9068337818841,128.12083827748,-55.1302938023271,-72.9905444751533
3.19774276980955,-133.813028059537,-147.866897106311,-14.0538690467741,140.839962582924,-59.8795795063814,-80.9603830765425
3.20244533270632,-146.253233930248,-158.992884482589,-12.7396505523413,152.623059206418,-66.7567916889533,-85.8662675174652
3.2071478956031,-150.193546611697,-156.718808596875,-6.52526198517825,153.456177604286,-71.8341423132592,-81.6220352910266
3.21185045849988,-140.045891793778,-137.659265295092,2.38662649868584,138.852578544435,-71.2162591462317,-67.636319398203
3.21655302139666,-120.120451331515,-110.804616479546,9.31583485196936,115.46253390553,-64.7181430917423,-50.7443908137882
3.22125558429344,-101.578949209085,-90.816425939947,10.7625232691384,96.1976875745162,-56.1707362391119,-40.0269513354043
3.22595814719022,-93.8415919859897,-87.1263312167383,6.71526076925143,90.483961601364,-50.2784263776206,-40.2055352237434
3.230660710087,-99.5198000244896,-99.8366471425438,-0.316847118054255,99.6782235835167,-49.6014764532176,-50.076747130299
3.23536327298378,-115.910168926308,-123.666228162345,-7.75605923603725,119.788198544327,-54.0770548451353,-65.7111436991912
3.24006583588055,-138.378266685329,-152.469266279495,-14.0909995941664,145.423766482412,-62.1436335455811,-83.2801329368307
3.24476839877733,-161.357898230967,-179.495310608661,-18.137412377694,170.426604419814,-71.6102429266363,-98.8163614931772
3.24947096167411,-178.397481081718,-196.832787910879,-18.4353068291603,187.615134496299,-79.9810871262791,-107.63404737002
3.25417352457089,-184.676741362457,-199.126477662936,-14.4497363004791,191.901609512697,-85.113502530989,-106.788106981708
3.25887608746767,-180.917539500625,-188.975039895041,-8.05750039441551,184.946289697833,-86.4300195531048,-98.5162701447281
3.26357865036445,-173.337797040712,-175.885323299565,-2.54752625885311,174.611560170139,-85.3951353909294,-89.2164247792091
3.26828121326123,-167.53471412837,-167.204213474198,0.330500654172795,167.369463801284,-83.9326073912716,-83.4368564100125
3.27298377615801,-161.783977497427,-159.669994514826,2.11398298260113,160.726986006126,-81.9489802400139,-78.7780057661122
3.27768633905478,-146.741271826921,-139.670140865963,7.07113096095796,143.205706346442,-76.9062013939393,-66.2995049525023
3.28238890195156,-111.309574386776,-90.978622631452,20.3309517553244,101.144098509114,-65.8202630710504,-35.3238354380638
3.28709146484834,-48.0528133804338,-3.06423171079492,44.9885816696389,25.5585225456144,-46.5206975250363,20.962174979422
3.29179402774512,46.1300339380716,125.393424747303,79.2633908092311,-85.7617293426871,-16.5666784355797,102.328407778267
3.2964965906419,171.833815168016,288.834467495445,117.000652327429,-230.334141331731,27.4165814202932,202.917559911437
3.30119915353868,327.376970071324,479.592159844847,152.215189773523,-403.484564958086,87.5808901489005,315.903674809185
3.30590171643546,506.702738709028,688.934047907856,182.231309198828,-597.818393308442,162.2357147551,435.582678553342
3.31060427933224,697.072540156415,901.638796751217,204.566256594801,-799.355668453816,246.253141780807,553.102526673009
3.31530684222901,878.708781439715,1090.78479696277,212.076015523058,-984.746789201245,333.316382958329,651.430406242916
3.32000940512579,1027.72800023772,1223.13581597719,195.407815739462,-1125.43190810746,416.160092249131,709.271815858324
3.32471196802257,1122.31237488485,1274.52427052706,152.211895642205,-1198.41832270596,485.050239621324,713.368083084632
3.32941453091935,1149.33764887211,1241.05990692049,91.7222580483801,-1195.1987778963,528.807695411866,666.391082484436
3.33411709381613,1107.57338762373,1135.87457086131,28.3011832375805,-1121.72397924252,539.636102193077,582.087877049448
3.33881965671291,1006.84576766454,978.90842167604,-27.937345988498,-992.877094670289,517.391556826518,475.485537843771
3.34352221960969,865.777810810597,793.339970007345,-72.4378408032521,-829.558890408971,469.107825806924,360.451064602046
3.34822478250647,708.792034469986,607.603542386443,-101.188492083542,-658.197788428214,404.990263276764,253.20752515145
3.35292734540324,560.456938224647,450.633208313354,-109.823729911293,-505.545073269,335.14033406797,170.40473920103
3.35762990830002,438.338415842638,339.432030418263,-98.9063854243744,-388.885223130451,268.622400633506,120.262822496945
3.3623324711968,349.509990433201,273.190140135401,-76.3198502978007,-311.350065284301,212.914920365501,98.4351449188
3.36703503409358,292.8184378694,240.928191837864,-51.8902460315366,-266.873314853632,172.354341950468,94.5189729031635
3.37173759699036,262.931858429495,231.915689774535,-31.0161686549595,-247.423774102015,146.974013542227,100.449760559788
3.37644015988714,252.432053112846,237.9382932026,-14.4937599102461,-245.185173157723,133.462906511546,111.722266646177
3.38114272278392,252.967262768356,250.671477206637,-2.29578556171893,-251.819369987497,127.631524165038,124.187845822459
3.3858452856807,257.186913926814,261.946635869078,4.75972194226409,-259.566774897946,126.213595992275,133.353178905671
3.39054784857747,260.048482507152,266.229136904012,6.18065439686001,-263.138809705582,126.933914055146,136.204895650436
3.39525041147425,257.844605788332,260.196329738406,2.35172395007362,-259.020467763369,127.746440919129,131.27402684424
3.39995297437103,246.512628201812,240.318646442727,-6.19398175908441,-243.415637322269,126.353304980448,117.062332341821
3.40465553726781,222.522053515379,204.371735994345,-18.1503175210335,-213.446894754862,120.336185518206,93.1107092366557
3.40935810016459,187.075556591115,157.505740916009,-29.5698156751058,-172.290648753562,108.32268613311,63.9679626204516
3.41406066306137,149.071207987741,114.373561535006,-34.6976464527351,-131.722384761373,91.8844272202379,39.8379575411353
3.41876322595815,120.79478291521,90.088801153526,-30.7059817616841,-105.441792034368,75.7503823384471,29.691409695921
3.42346578885493,107.934028135648,86.5183802310608,-21.4156479045875,-97.2262041833545,64.6748380201179,32.5513661632367
3.4281683517517,104.362297374161,89.4789193824468,-14.8833779917143,-96.9206083783039,59.6228376829377,37.2977706953663
3.43287091464848,98.4077734236733,81.9530508517298,-16.4547225719435,-90.1804121377016,57.4312479978084,32.7491641398931
3.43757347754526,83.9118475035962,59.6849240857917,-24.2269234178045,-71.7983857946939,54.0693854607004,17.7290003339936
3.44227604044204,64.2425749947517,32.7635836313759,-31.4789913633759,-48.5030793130638,47.8607831790638,0.642296133999992
3.44697860333882,46.7626035101026,13.5289606782937,-33.233642831809,-30.1457820941981,39.9981231709558,-9.85234107675766
3.4516811662356,35.482460572635,5.46158271070503,-30.0208778619299,-20.47202164167,32.7516692172824,-12.2796475756124
3.45638372913238,28.8694283351342,3.11391314026114,-25.7555151948731,-15.9916707376977,27.3124717650037,-11.320801027306
3.46108629202916,22.4693327406152,-1.01349379654805,-23.4828265371633,-10.7279194720336,22.9760796388893,-12.2481601668557
3.46578885492593,12.2220676268239,-11.6621358686984,-23.8842034955223,-0.279965879062725,18.0531355611731,-17.7731696821103
3.47049141782271,-3.85451710035667,-30.2349556515165,-26.3804385511598,17.0447363759366,11.2629607254016,-28.3076971013381
3.47519398071949,-25.0312452053053,-54.6925302929982,-29.6612850876929,39.8618877491518,2.31501994119378,-42.1769076903456
3.47989654361627,-47.3220422501503,-78.7121838693074,-31.3901416191571,63.0171130597289,-7.96595031549663,-55.0511627442323
3.48459910651305,-64.1760517108977,-93.5696999015398,-29.3936481906421,78.8728758062187,-17.3912017601278,-61.4816740460909
3.48930166940983,-70.3730703097725,-94.3031832896106,-23.930112979838,82.3381267996915,-23.2214786649672,-59.1166481347243
3.49400423230661,-67.2445953570576,-85.1156825450807,-17.8710871880231,76.1801389510692,-24.6867540845173,-51.4933848665519
3.49870679520339,-63.0113854156894,-77.2859801891569,-14.2745947734675,70.1486828024231,-24.3683953211109,-45.7802874813122
3.50340935810016,-65.4871514679369,-79.7367495112709,-14.249598043334,72.6119504896039,-25.6187767123014,-46.9931737773025
3.50811192099694,-74.0120188971615,-90.5716771738037,-16.5596582766422,82.2918480354826,-28.7261803102597,-53.5656677252229
3.51281448389372,-80.2186148412333,-98.3504381944147,-18.1318233531813,89.284526517824,-31.043395744026,-58.241130773798
3.5175170467905,-77.2257046571432,-93.0683986722166,-15.8426940150733,85.1470516646799,-30.691505321035,-54.455546343645
3.52221960968728,-66.4875341803681,-76.1798415950464,-9.6923074146783,71.3336878877072,-28.3976133828449,-42.9360745048623
3.52692217258406,-54.8785363565785,-58.5495360400422,-3.67099968346375,56.7140361983104,-25.6037683365574,-31.110267861753
3.53162473548084,-46.7890016092303,-48.3782623445229,-1.58926073529268,47.5836319768766,-22.5998704369688,-24.9837615399078
3.53632729837762,-40.7587043016359,-43.3500725682429,-2.59136826660701,42.0543884349394,-19.0836680175144,-22.970720417425
3.54102986127439,-33.1987969424221,-36.0137167862251,-2.81491984380303,34.6062568643236,-15.1919385493095,-19.4143183150141
3.54573242417117,-23.7788129617863,-24.6352955913509,-0.856482629564663,24.2070542765686,-11.4611651661108,-12.7458891104578
3.55043498706795,-16.4796147044887,-15.4094252260823,1.07018947840639,15.9445199652855,-8.77490209144753,-7.16961787383795
3.55513754996473,-15.4010181731294,-13.9752987229588,1.42571945017064,14.6881584480441,-8.41336881165003,-6.27478963639407
3.55984011286151,-19.9219887857277,-18.1292927951562,1.79269599057144,19.025640790442,-10.8573423881496,-8.1682984022924
3.56454267575829,-25.0709378673047,-21.5034964890994,3.56744137820532,23.2872171782021,-14.319189622755,-8.96802755544704
3.56924523865507,-27.5530127167223,-23.4037931594492,4.14921955727303,25.4784029380857,-15.8511161369976,-9.6272868010881
3.57394780155185,-30.391957165319,-31.3677963086468,-0.975839143327846,30.8798767369829,-14.7080590109956,-16.1718177259873
3.57865036444862,-39.2775893719817,-51.1563887594991,-11.8787993875175,45.2169890657404,-13.6993949922321,-31.5175940735083
3.5833529273454,-53.7874753508992,-75.4359735706164,-21.6484982197172,64.6117244607578,-16.069488565591,-48.5422358951668
3.58805549024218,-64.703861267835,-86.7741253174341,-22.0702640495991,75.7389932926345,-21.316798609118,-54.4221946835166
3.59275805313896,-62.1860624430202,-74.0143354867105,-11.8282730436903,68.1001989648654,-25.178894699665,-42.9213042652004
3.59746061603574,-45.5504144888025,-43.4028428727153,2.14757161608713,44.4766286807589,-23.8489930524448,-20.6276356283141
3.60216317893252,-23.3143002068894,-11.7994097503412,11.5148904565482,17.5568549786153,-17.4145953317188,-0.142259646896541
3.6068657418293,-4.79246593016324,8.70271124822287,13.4951771783861,-1.95512265902982,-9.14382155427468,11.0989442133045
3.61156830472608,6.37000966493254,17.277915768699,10.9079061037665,-11.8239627168158,-2.26894821941698,14.0929109362328
3.61627086762285,11.5736342533379,18.5667154907522,6.99308123741433,-15.070174872045,2.29027650796177,12.7798983640833
3.62097343051963,13.5863886809846,15.772725275269,2.18633659428439,-14.6795569781268,5.70002604335013,8.97953093477671
3.62567599341641,14.7953136574737,11.017925631048,-3.77738802642568,-12.9066196442608,9.28635084194967,3.62026880231114
3.63037855631319,17.2506642932576,8.55591657527834,-8.69474771797929,-12.903290434268,12.9727060056185,-0.0694155713504756
3.63508111920997,21.8955717199646,12.5805098780811,-9.31506184188342,-17.2380407990229,15.605316780924,1.63272401809887
3.63978368210675,26.8422966278379,20.7720903635919,-6.07020626424596,-23.8071934957149,16.4562514460419,7.35094204967298
3.64448624500353,27.3397719047196,23.2040216133564,-4.13575029136322,-25.271896759038,15.7377610980414,9.53413566099657
3.64918880790031,19.1297600179973,11.1837116956332,-7.94604832236408,-15.1567358568153,13.5379041701807,1.61883168663457
3.65389137079708,3.16079001849584,-12.1462772136685,-15.3070672321643,4.49274359758632,9.23392862533008,-13.7266722229164
3.65859393369386,-12.7406209406348,-31.5578225004026,-18.8172015597677,22.1492217205187,3.03829030956644,-25.1875120300852
3.66329649659064,-17.8081953395053,-31.4313710366035,-13.6231756970982,24.6197831880544,-2.09250982120357,-22.5272733668508
3.66799905948742,-5.77602893991943,-8.54155415401348,-2.76552521409405,7.15879154696646,-1.50525186291269,-5.65353968405377
3.6727016223842,19.629423887012,25.3481526289082,5.71872874189617,-22.4887882579601,6.95534757255791,15.5334406854022
3.67740418528098,45.8601410282453,52.3607015936774,6.50056056543215,-49.1104213109614,19.6797902314066,29.4306310795548
3.68210674817776,59.6716019945406,61.1204015440601,1.44879954951949,-60.3960017693003,29.1114012225106,31.2846005467898
3.68680931107454,56.8086296005669,53.7840761433017,-3.02455345726521,-55.2963528719343,29.9165915289161,25.3797613430182
3.69151187397131,45.2742382439936,43.0251389538328,-2.24909929016073,-44.1496885989132,23.7616687670771,20.3880198318361
3.69621443686809,38.7399605523734,42.0279798404363,3.28801928806284,-40.3839701964049,17.7259706321553,22.6579995642496
3.70091699976487,45.6676487908816,55.4715092804573,9.80386048957571,-50.5695790356694,17.9318941506529,32.6376848850165
3.70561956266165,63.8768875388502,77.8364634249388,13.9595758860886,-70.8566754818945,24.9586558263808,45.8980196555137
3.71032212555843,84.4498422409671,98.8918438072573,14.4420015662902,-91.6708430241122,35.0039203373385,56.6669226867737
3.71502468845521,99.5488214694184,110.899758757956,11.350937288538,-105.224290113687,44.0989420904402,61.1253480232471
3.71972725135199,106.405659337035,111.979042862223,5.57338352518843,-109.192351099629,50.4161379059232,58.7762131937059
3.72442981424877,105.764300186785,104.393625401635,-1.37067478515017,-105.07896279421,53.5674874859678,51.5114753082426
3.72913237714554,99.1094084814985,91.3513310215428,-7.75807745995573,-95.2303697515206,53.4337429707271,41.7966267807935
3.73383494004232,88.5385955554743,76.4909815640305,-12.0476139914438,-82.5147885597524,50.2931047734591,32.2216837862933
3.7385375029391,78.3340073211539,65.482017273775,-12.8519900473789,-71.9080122974645,45.5929986842664,26.3150136131981
3.74324006583588,74.6571737237758,65.2786233787736,-9.37855034500213,-69.9678985512747,42.0178620343889,27.9500365168858
3.74794262873266,82.1602121095514,79.7008956805016,-2.45931642904979,-80.9305538950265,42.3097642693006,38.6207896257259
3.75264519162944,100.446680929446,105.775158252783,5.32847732333639,-103.110919591115,47.559101803055,55.5518177880596
3.75734775452622,124.137535602296,135.063767547914,10.9262319456176,-129.600651575105,56.6056518283392,72.9949997467656
3.762050317423,146.598204463378,158.785175357372,12.1869708939938,-152.691689910375,67.205616784692,85.4860731256827
3.76675288031977,163.505165249164,172.25205801925,8.7468927700854,-167.878611634207,77.3791362395395,90.4994753946676
3.77145544321655,173.219354155745,175.607435752527,2.38808159678229,-174.413394954136,85.4156362794815,88.9977586746549
3.77615800611333,175.162147910898,171.332303105163,-3.82984480573498,-173.247225508031,89.4959963583167,83.7512291497142
3.78086056901011,169.417532967621,161.931338804922,-7.48619416269906,-165.674435886272,88.4518635651601,77.2225723211115
3.78556313190689,158.464391723741,150.795323169907,-7.66906855383408,-154.629857446824,83.0667301387877,71.5631273080366
3.79026569480367,148.497653574836,144.218368577894,-4.27928499694184,-146.358011076365,76.388469285889,69.9695417904763
3.79496825770045,146.962845206418,148.868639678745,1.90579447232724,-147.915742442581,72.5285253670453,75.3872170755361
3.79967082059723,156.234946301008,164.139478678447,7.90453237743915,-160.187212489728,74.1652069617844,86.0220055279432
3.804373383494,168.976495703848,178.004250136146,9.02775443229856,-173.490372919997,79.9743706357746,93.5160022842224
3.80907594639078,172.073743035162,174.688162005895,2.61441897073303,-173.380952520528,84.7296620322143,88.6512904883138
3.81377850928756,158.293288894575,149.828163214276,-8.46512568029951,-154.060726054425,83.3792072874374,70.6815187669881
3.81848107218434,134.770394542184,118.112898599689,-16.657495942495,-126.441646570936,75.7139452423394,50.727701328597
3.82318363508112,118.541182501806,103.83448649892,-14.7066960028868,-111.187834500363,66.6239392523465,44.5638952480164
3.8278861979779,122.77886590597,121.87547376056,-0.903392145409754,-122.327169833265,61.8411290256898,60.4860408075751
3.83258876087468,147.474784692645,166.500554110052,19.0257694174063,-156.987669401349,64.2245076376196,92.763161763729
3.83729132377146,182.405934403525,217.11835317958,34.7124187760551,-199.762143791553,73.846757813735,125.915385977818
3.84199388666823,216.267260140496,253.652537959964,37.3852778194678,-234.95989905023,89.4409911605142,145.518907889716
3.84669644956501,241.316651705702,266.993027839414,25.6763761337124,-254.154839772558,107.820137785995,146.334701986563
3.85139901246179,251.703913967546,258.046670439394,6.34275647184862,-254.87529220347,122.680578747849,132.194713455622
3.85610157535857,242.600641178777,231.545859795344,-11.0547813834326,-237.07325048706,126.827711281105,110.245539205956
3.86080413825535,214.335542227718,193.571864159926,-20.7636780677923,-203.953703193822,117.549610147755,86.4040930460667
3.86550670115213,176.065346485373,153.148191298873,-22.9171551864998,-164.606768892123,99.4912508359363,65.1155180561866
3.87020926404891,141.767832501526,121.152298733424,-20.6155337681021,-131.460065617475,81.1916831348141,50.268382482661
3.87491182694569,120.639310014379,104.114376672354,-16.5249333420255,-112.376843343366,68.5821216782023,43.794721665164
3.87961438984246,111.682471921892,99.6971657824399,-11.9853061394523,-105.689818852166,61.8338890306722,43.8559298214938
3.88431695273924,108.11465319258,100.732720541187,-7.38193265139249,-104.423686866884,57.7482929219862,46.6753939448975
3.88901951563602,106.185777082768,103.73360598051,-2.45217110225774,-104.959691531639,54.3189740925129,50.6407174391263
3.8937220785328,108.147837114493,110.811224177688,2.66338706319442,-109.479530646091,52.7422250256495,56.7373056204411
3.89842464142958,116.406981391875,122.503022077937,6.09604068606242,-119.455001734906,55.1554703529061,64.2995313819998
3.90312720432636,126.760807290001,131.858684283954,5.09787699395295,-129.309745786977,60.831465148024,68.4782806389534
3.90782976722314,129.486660501213,128.417667809384,-1.06899269182912,-128.952164155299,65.2778265965213,63.6743375587776
3.91253233011992,117.149696370341,107.370174475698,-9.77952189464273,-112.25993542302,63.4646091324919,48.7953262905279
3.91723489301669,90.6163777275965,73.5236909118521,-17.0926868157444,-82.0700343197243,53.8545322716704,28.2155020480538
3.92193745591347,58.0378231853582,37.2725987306474,-20.7652244547107,-47.6552109580028,39.4015238200344,8.25368713796836
3.92664001881025,28.9324162525621,7.81750505306825,-21.1149111994939,-18.3749606528152,25.023663726028,-6.6487030732128
3.93134258170703,8.422662284159,-11.2113130123725,-19.6339752965315,1.39432536410677,14.0283187903453,-15.422644154452
3.93604514460381,-4.77008495386877,-22.1564353707135,-17.3863504168448,13.4632601622911,6.30813273148799,-19.7713928937791
3.94074770750059,-15.7279793427029,-30.3252413554781,-14.5972620127753,23.0266103490905,-0.565358664963798,-22.4612516841267
3.94545027039737,-28.5428329707446,-39.9474322778697,-11.4045993071251,34.2451326243072,-8.56911683180977,-25.6760157924974
3.95015283329415,-43.6193730833066,-52.4446769549598,-8.82530387165317,48.0320250191332,-17.3970346058267,-30.6349904133065
3.95485539619092,-59.0725251989123,-67.6758360439028,-8.60331084499043,63.3741806214075,-25.2346071769609,-38.1395734444466
3.9595579590877,-73.6477547424235,-85.1344746735032,-11.4867199310796,79.3911147079634,-31.0805174056719,-48.3105973022914
3.96426052198448,-87.424740859451,-102.967255015266,-15.542514155815,95.1959979373586,-35.941113351818,-59.2548845855405
3.96896308488126,-100.05446036243,-117.056799762491,-17.0023394000618,108.55563006246,-41.5260604811839,-67.0295695812766
3.97366564777804,-109.561742472493,-123.408581901568,-13.8468394290752,116.485162187031,-47.8574515217089,-68.6277106653216
3.97836821067482,-113.915506146208,-122.406629422304,-8.49112327609539,118.161067784256,-52.7121914350564,-65.4488763491995
3.9830707735716,-113.93157558172,-119.712131932515,-5.78055635079545,116.821853757118,-54.0755096154622,-62.7463441416554
3.98777333646838,-113.883398644071,-121.9263400444,-8.04294140032908,117.904869344235,-52.9202286218708,-64.9846407223644
3.99247589936515,-118.42395757232,-131.406493809131,-12.9825362368108,124.915225690726,-52.7207106677547,-72.1945150229708
3.99717846226193,-128.815134169651,-145.106706344626,-16.2915721749748,136.960920257139,-56.2617809973383,-80.6991392598005
4.00188102515871,-142.321823235161,-157.391217291061,-15.0693940558997,149.856520263111,-63.6262145896307,-86.2303056734802
4.00658358805549,-154.875266204321,-163.854073352833,-8.97880714851209,159.364669778577,-72.9482295279047,-86.4164402506728
4.01128615095227,-163.799718032879,-163.8876507031,-0.0879326702207948,163.84368436799,-81.8558926813293,-81.9877916866605
4.01598871384905,-168.17873199052,-160.491693641605,7.68703834891545,164.335212816062,-87.9328851697177,-76.4023276463446
4.02069127674583,-167.65835293754,-157.186363328496,10.4719896090436,162.422358133018,-89.0651712732918,-73.3571868597264
4.02539383964261,-162.086134023797,-154.871811615924,7.21432240787294,158.478972819861,-84.6502282158351,-73.8287446040257
4.03009640253938,-152.525418429949,-151.736428410789,0.788990019159797,152.130923420369,-76.6572042245541,-75.4737191958145
4.03479896543616,-141.76777128692,-145.750995983455,-3.98322469653505,143.759383635188,-68.8922732951925,-74.867110339995
4.03950152833294,-133.103376640968,-137.085175087486,-3.98179844651807,135.094275864227,-64.5607890972249,-70.533486767002
4.04420409122972,-128.490226457448,-128.573413179892,-0.0831867224432301,128.53181981867,-64.2035198675026,-64.3282999511675
4.0489066541265,-127.801868433578,-123.722886254587,4.07898217899177,125.762377344083,-65.9404253062851,-59.8219520377975
4.05360921702328,-129.419221851088,-123.703119121373,5.71610272971492,126.56117048623,-67.5676622904014,-58.993508195829
4.05831177992006,-131.443466939498,-126.489517132073,4.95394980742502,128.966492035786,-68.1987083734616,-60.7677836623241
4.06301434281684,-132.893617016001,-129.400142032396,3.49347498360515,131.146879524198,-68.193545999803,-62.9533335243953
4.06771690571361,-134.256584743721,-131.946092452352,2.31049229136855,133.101338598036,-68.2835385175446,-64.8178000804918
4.07241946861039,-136.571525427319,-135.283922127943,1.28760329937592,135.927723777631,-68.9295643633477,-66.9981594142838
4.07712203150717,-139.276449848206,-138.999045461199,0.277404387007721,139.137747654702,-69.776927117607,-69.3608205370954
4.08182459440395,-139.308271599816,-139.890436043999,-0.582164444183633,139.599353821907,-69.3630535778159,-70.2363002440914
4.08652715730073,-133.987856320379,-135.470125155344,-1.48226883496537,134.728990737861,-66.2527937427067,-68.4761969951547
4.09122972019751,-125.545305074609,-128.362457510654,-2.8171524360453,126.953881292632,-61.3640763192819,-65.5898049733499
4.09593228309429,-120.98158534244,-124.993813145883,-4.01222780344271,122.987699244162,-58.4846787694988,-64.5030204746629
4.10063484599107,-125.353524020518,-128.648844258474,-3.29532023795556,127.001184139496,-61.0291018912813,-65.9720822482147
4.10533740888784,-135.765217154079,-135.352350531778,0.412866622300925,135.558783842928,-68.0890418881898,-67.4697419547384
4.11003997178462,-143.742492221803,-138.15659202977,5.58590019203345,140.949542125787,-74.6641962069185,-66.2853459188683
4.1147425346814,-143.274990786545,-134.222571303385,9.05241948316012,138.748781044965,-76.1637051348524,-62.5850759101122
4.11944509757818,-135.272364385814,-126.053871667551,9.21849271826279,130.663118026683,-72.2454285520385,-58.4176894746443
4.12414766047496,-124.960953129768,-117.272304107462,7.68864902230644,121.116628618615,-66.3248010760374,-54.7918275425777
4.12885022337174,-117.011839199772,-109.913613670216,7.09822552955688,113.462726434994,-62.0550323646647,-51.4076940703294
4.13355278626852,-113.337774131998,-105.588234594447,7.7495395375517,109.463004363223,-60.543656834775,-48.9193475284475
4.13825534916529,-113.749846212951,-106.347327023558,7.40251918939255,110.048586618254,-60.5761827011717,-49.4724039170828
4.14295791206207,-117.434316582274,-112.843906766062,4.59040981621153,115.139111674168,-61.0123631992427,-54.1267484749254
4.14766047495885,-123.833650182714,-122.879650428346,0.953999754368368,123.35665030553,-62.3938249685414,-60.9628253369888
4.15236303785563,-132.386264820274,-133.090362793402,-0.704097973128142,132.738313806838,-65.8410834235727,-66.8972303832649
4.15706560075241,-141.545414804234,-141.37653365904,0.168881145193296,141.460974231637,-70.8571479747135,-70.6038262569236
4.16176816364919,-148.378083667966,-146.548533165621,1.82955050234494,147.463308416793,-75.1038170851554,-72.359491331638
4.16647072654597,-149.621548501267,-146.415343671157,3.20620483011066,148.018446086212,-76.413876665689,-71.604569420523
4.17117328944275,-143.597283710328,-138.357433919908,5.23984979041907,140.977358815118,-74.4185667503733,-66.5587920647447
4.17587585233952,-131.313114600721,-122.419273591613,8.89384100910796,126.866194096167,-70.1034778049145,-56.7627162912525
4.1805784152363,-115.617908063483,-102.378223315614,13.2396847478692,108.998065689548,-64.4287964056761,-44.5692692838723
4.18528097813308,-99.3844903021034,-82.9470267102626,16.4374635918408,91.165758506183,-57.9109769469721,-33.2547815592109
4.18998354102986,-84.9749957843598,-67.4124957482231,17.5625000361367,76.1937457662915,-51.2687479102483,-24.9249978560432
4.19468610392664,-75.403688177304,-59.2328187043616,16.1708694729423,67.3182534408328,-45.7872788251232,-21.5309746157096
4.19938866682342,-74.7226305638917,-63.7351828875804,10.9874476763113,69.2289067257361,-42.8550391201015,-26.3738676056346
4.2040912297202,-85.4526724537567,-83.9763366948385,1.47633575891828,84.7145045742976,-43.4645041063375,-41.2500004679601
4.20879379261698,-104.658931228292,-113.327111821693,-8.6681805934015,108.993021524993,-47.9953753174452,-60.9976462075474
4.21349635551375,-123.103948049546,-135.312472701387,-12.2085246518402,129.208210375467,-55.4477116988531,-73.7604986766134
4.21819891841053,-130.01961465395,-135.282844692835,-5.26323003888436,132.651229673392,-62.3781923075329,-70.2730373658595
4.22290148130731,-120.728456882236,-113.587312936132,7.14114394610337,117.157884909184,-63.9348004141695,-53.2230844950144
4.22760404420409,-100.886768836053,-85.9907290403939,14.8960397956592,93.4387489382236,-57.8914043158562,-35.5473446223674
4.23230660710087,-83.3786140613135,-70.8226830789831,12.5559309823304,77.1006485701483,-47.967272521822,-29.1333760483264
4.23700916999765,-79.8781778987861,-76.0274641271686,3.85071377161751,77.9528210129774,-41.8644458352018,-36.0883751777755
4.24171173289443,-93.1607853743476,-96.5633005727021,-3.40251519835445,94.8620429735249,-44.8791350879966,-49.9829078855283
4.24641429579121,-115.568711961964,-120.701189003083,-5.13247704111927,118.134950482523,-55.2181174604223,-62.9168330221012
4.25111685868799,-134.916106324981,-138.381644247378,-3.46553792239726,136.648875286179,-65.7252842012916,-70.9235910848875
4.25581942158476,-143.541704173196,-146.689911766167,-3.14820759297095,145.115807969681,-70.1967482901124,-74.9190596795688
4.26052198448154,-142.673378248337,-149.069590991925,-6.39621274358848,145.871484620131,-68.1385827523741,-77.7329018677569
4.26522454737832,-137.923863138681,-148.077495530679,-10.1536323919976,143.00067933468,-63.8851153733418,-79.1155639613382
4.2699271102751,-131.367744197233,-139.607015755201,-8.23927155796838,135.487379976217,-61.5642363196323,-73.9231436565849
4.27462967317188,-120.172756022154,-118.094243962943,2.07851205921028,119.133499992549,-61.125634040682,-58.0078659518666
4.27933223606866,-103.587275716898,-88.2086245691812,15.3786511477169,95.8979501430397,-59.4829634323076,-36.4149867107322
4.28403479896544,-88.4041982304253,-66.3001576837787,22.1040405466466,77.352177957102,-55.2541193885359,-22.098058568566
4.28873736186222,-84.0252964815855,-66.0015711296845,18.023725351901,75.013433805635,-51.0245109167432,-23.9889228888918
4.29343992475899,-92.1444075022521,-84.2498290719811,7.89457843027104,88.1971182871166,-50.0194929662616,-38.177625320855
4.29814248765577,-104.202310412885,-104.767583161346,-0.565272748461211,104.484946787116,-51.818518832212,-52.6664279549038
4.30284505055255,-110.111758003991,-113.925343586544,-3.81358558255262,112.018550795268,-53.1490862107194,-58.8694645845483
4.30754761344933,-107.312725893112,-110.103262071852,-2.79053617873957,108.707993982482,-52.2610948571863,-56.4468991252956
4.31225017634611,-99.9179942567053,-99.0027201289012,0.915274127804082,99.4603571928032,-50.4166341922547,-49.0437230005486
4.31695273924289,-91.4502772006764,-85.0264192606868,6.42385793998967,88.2383482306816,-48.9370675703331,-39.3012806603485
4.32165530213967,-81.7131780918843,-69.9418173553763,11.771360736508,75.8274977236303,-46.7422694141961,-29.0852283094342
4.32635786503644,-70.656697328673,-57.2334599265401,13.4232374021329,63.9450786276066,-42.039967365403,-21.9051112622036
4.33106042793322,-62.2274124018872,-53.0059777224027,9.22143467948448,57.616695062145,-35.7244235406858,-21.8922715214591
4.33576299083,-62.0328410096277,-60.7783769456966,1.2544640639311,61.4056089776621,-31.6436525367794,-29.7619564408827
4.34046555372678,-71.4735055797335,-77.0158019650583,-5.54229638532476,74.2446537723959,-32.9656045972044,-41.2790491751915
4.34516811662356,-85.751155367264,-93.5617198232139,-7.81056445594994,89.656437595239,-38.970295455657,-50.6861421395819
4.34987067952034,-98.1493191260761,-104.464751502974,-6.31543237689743,101.307035314525,-45.9169433745893,-55.3900919399355
4.35457324241712,-105.349021003671,-109.712599158448,-4.3635781547767,107.530810081059,-50.4927214244471,-57.0380886566121
4.3592758053139,-108.276746289408,-112.417492167895,-4.14074587848704,110.347119228652,-52.0680002054605,-58.279119023191
4.36397836821067,-109.098231404739,-113.567157934114,-4.46892652937458,111.332694669427,-52.3146524376824,-59.0180422317443
4.36868093110745,-108.508352116558,-110.760297821717,-2.25194570515903,109.634324969138,-53.1282032056995,-56.5061217634381
4.37338349400423,-105.610259258018,-102.219909195287,3.39035006273066,103.915084226652,-54.5003046603741,-49.4147795662781
4.37808605690101,-99.8771309183061,-91.2465901590975,8.6305407592086,95.5618605387018,-54.2538358387573,-41.3080246999444
4.38278861979779,-93.2287699179161,-85.5975270511512,7.63124286676488,89.4131484845337,-50.4300063923405,-38.9831420921932
4.38749118269457,-89.7454687623846,-91.0657108018238,-1.32024203943921,90.4055897821042,-44.2126133614727,-46.1929764206315
4.39219374559135,-92.3035781703378,-104.825795226074,-12.522217055736,98.5646866982058,-39.8906805573009,-58.6740061409049
4.39689630848813,-99.2668464413693,-116.357575367562,-17.0907289261926,107.812210904466,-41.0880587575884,-66.7241521468772
4.4015988713849,-105.49151378497,-117.1216351085,-11.6301213235304,111.306574446735,-46.9306962307198,-64.3758782160153
4.40630143428168,-107.212071587181,-109.220254772823,-2.00818318564278,108.216163180002,-52.6019442007689,-55.6142189792331
4.41100399717846,-105.125520120604,-102.387442332601,2.73807778800291,103.756481226603,-53.9317989543036,-49.8246822722992
4.41570656007524,-101.982677961603,-102.249127693685,-0.266449732082876,102.115902827644,-50.8581141147599,-51.2577887128842
4.42040912297202,-98.3604989459059,-104.04963805719,-5.68913911128396,101.205068501548,-46.3356799173109,-54.8693885842369
4.4251116858688,-92.6467180859376,-99.3789792634447,-6.73226117750717,96.0128486746912,-42.9572284542152,-53.055620220476
4.42981424876558,-85.2440100934177,-87.8240281858606,-2.58001809244288,86.5340191396391,-41.3319960004874,-45.2020231391517
4.43451681166236,-81.2257076170113,-80.2270293620502,0.998678254961149,80.7263684895308,-41.1121929359862,-39.6141755535445
4.43921937455913,-87.3147415293917,-89.2913608986155,-1.97661936922383,88.3030512140036,-42.6690610800839,-45.6339901339197
4.44392193745591,-105.221340527362,-115.900213464909,-10.6788729375469,110.560776996135,-47.2712337949075,-63.2895432012279
4.44862450035269,-127.643525073271,-144.814035041413,-17.1705099681415,136.228780057342,-55.2365075525649,-80.9922725047772
4.45332706324947,-141.965594578327,-156.093714264653,-14.128119686326,149.02965442149,-63.9187374460006,-85.1109169754896
4.45802962614625,-139.769117379337,-142.663966223532,-2.89484884419468,141.216541801435,-68.4371342675712,-72.7794075338633
4.46273218904303,-123.420554364349,-115.978303655351,7.44225070899802,119.69942900985,-65.4314025366736,-54.2680264731766
4.46743475193981,-103.108662988732,-93.7242373060957,9.38442568263626,98.4164501474138,-56.2465443356841,-42.1699058117297
4.47213731483659,-88.0153109288053,-83.9339085643102,4.08140236449513,85.9746097465577,-46.0483566466502,-39.9262530999075
4.47683987773336,-81.005797266425,-82.6304327864566,-1.62463552003157,81.8181150264408,-39.6905808731967,-42.1275341532441
4.48154244063014,-80.4477142914396,-83.9043695992098,-3.45665530777022,82.1760419453247,-38.4955294918347,-43.68051245349
4.48624500352692,-84.4349404980371,-87.5066337006842,-3.07169320264713,85.9707870993607,-40.681623647695,-45.2891634516657
4.4909475664237,-92.0470993671604,-96.2170005198553,-4.16990115269496,94.1320499435079,-43.9385991072327,-50.1934508362751
4.49565012932048,-101.57553633525,-109.269467430852,-7.6939310956022,105.422501883051,-46.9408026198239,-58.4816992632272
4.50035269221726,-109.236573170699,-120.387652535919,-11.1510793652197,114.812112853309,-49.0427469027399,-65.7693659505694
4.50505525511404,-110.773780093938,-122.047334113385,-11.2735540194469,116.410557103662,-49.7501130372456,-66.660444066416
4.50975781801082,-104.871884030075,-112.095682830185,-7.2237988001105,108.48378343013,-48.8240426149821,-59.6597408151478
4.51446038090759,-94.9054825018039,-96.8060959481468,-1.90061344634289,95.8557892249754,-46.5024345277305,-49.3533546972449
4.51916294380437,-86.6395711195939,-86.1870320279644,0.452539091629504,86.4133015737792,-43.5460551056117,-42.8672464681675
4.52386550670115,-83.6140154637128,-84.8221195145113,-1.20810405079844,84.2180674891121,-41.2029557064572,-43.0151117826549
4.52856806959793,-84.6302262297475,-87.8176112643864,-3.18738503463888,86.223918747067,-40.7214205975543,-45.5024981495126
4.53327063249471,-85.5047627544013,-86.5225099318052,-1.01774717740389,86.0136363431032,-42.2435077884987,-43.7701285546045
4.53797319539149,-82.9111741440916,-77.4430632495478,5.46811089454371,80.1771186968197,-44.1896425193176,-35.9874761775021
4.54267575828827,-76.8122962473273,-64.8970375154048,11.9152587319225,70.8546668813661,-44.3637774896249,-26.4908893917412
4.54737832118505,-70.0756797550659,-56.1227500185694,13.9529297364965,63.0992148868176,-42.0143047457812,-21.0849101410365
4.55208088408182,-66.2720614773292,-55.3829158686293,10.8891456086999,60.8274886729792,-38.5806035430145,-22.2468851299647
4.5567834469786,-67.5201262960665,-62.5411055201453,4.9790207759212,65.0306159081059,-36.2495735359938,-28.781042372112
4.56148600987538,-73.5426876976105,-74.8873921775258,-1.34470447991524,74.2150399375682,-36.0989916088477,-38.1160483287205
4.56618857277216,-81.658932054263,-87.7383044720634,-6.07937241780034,84.6986182631632,-37.7897798182313,-46.9088384449319
4.57089113566894,-86.9248539135696,-93.5148006619437,-6.58994674837409,90.2198272877566,-40.1674535825977,-50.0523737051589
4.57559369856572,-83.2117505146757,-84.1498755341242,-0.938125019448535,83.6808130243999,-41.1368127476136,-42.5440002767864
4.5802962614625,-67.2192944745197,-58.6600327584947,8.55926171602493,62.9396636165072,-37.8892780952723,-25.0503855212349
4.58499882435928,-43.9260219659026,-28.648553758424,15.2774682074786,36.2872878621633,-29.6017450866906,-6.68554277547269
4.58970138725605,-26.5630621180943,-12.5712863783504,13.9917757397439,19.5671742482223,-20.2774189289191,0.710244680696768
4.59440395015283,-27.0128012365313,-20.7613482370492,6.25145299948207,23.8870747367902,-16.6321271180067,-7.25494761878356
4.59910651304961,-44.246109530963,-45.2729930217649,-1.0268834908019,44.759551276364,-21.6096130200806,-23.1499382562834
4.60380907594639,-63.715521495663,-65.8730209029353,-2.1574994072723,64.7942711992992,-30.7790110441954,-34.0152601551038
4.60851163884317,-69.9359836473929,-67.555105452264,2.38087819512884,68.7455445498284,-36.1584309212609,-32.5871136285676
4.61321420173995,-59.9345364303836,-52.9663353490777,6.96820108130598,56.4504358897307,-33.4513687558448,-22.9990671338858
