t,leadI,leadII,leadIII,aVR,aVL,aVF
0,100.194263965776,-120.915637985313,-221.109901951089,10.3606870097683,160.652082958433,-171.012769968201
0.00470256289677874,30.2877400400289,-128.896237032313,-159.183977072342,49.3042484961421,94.7358585561855,-144.040107052328
0.00940512579355749,-23.3820039604258,-124.393244923094,-101.011240962668,73.8876244417601,38.8146185011213,-112.702242942881
0.0141076886903362,-54.8649888404521,-128.469216142664,-73.6042273022123,91.6671024915582,9.3696192308801,-101.036721722438
0.018810251587115,-78.63654431046,-136.736243402107,-58.099699091647,107.686393856284,-10.2684226094065,-97.417971246877
0.0235128144838937,-104.936865321002,-143.947944278925,-39.0110789579233,124.442404799964,-32.9628931815394,-91.4795116184244
0.0282153773806725,-132.031578546838,-174.785710435838,-42.7541318890008,153.408644491338,-44.6387233289184,-108.76992116242
0.0329179402774512,-171.961698179628,-206.562667685279,-34.6009695056516,189.262182932453,-68.680364336988,-120.581818595465
0.03762050317423,-167.69064882862,-198.832615222293,-31.1419663936727,183.261632025456,-68.2743412174737,-114.987290807983
0.0423230660710087,-151.212424412285,-167.163416497597,-15.9509920853124,159.187920454941,-67.6307161634861,-91.5572042914548
0.0470256289677874,-120.939981108181,-101.26717820213,19.6728029060516,111.103579655156,-70.3063920071164,-40.7971876480391
0.0517281918645662,-78.7821253106177,-55.0482310096725,23.7338943009452,66.9151781601451,-51.2580098057814,-15.6571683543637
0.0564307547613449,-27.2980175629805,11.1776712043738,38.4756887673543,8.06017317930333,-32.8868531651674,24.8266799858641
0.0611333176581237,31.0252981570068,77.2724295908308,46.2471314338239,-54.1488638739188,-7.61091663840854,61.7597805123274
0.0658358805549024,95.9983672769357,170.204652597563,74.206285320627,-133.101509937249,10.8960409781543,122.205468959095
0.0705384434516812,193.356467950525,286.748153061772,93.3916851112477,-240.052310506149,49.9823914196384,190.06991908651
0.0752410063484599,306.753523787482,430.504581721159,123.751057933677,-368.629052754321,91.5012329269027,277.127819827418
0.0799435692452387,434.334763653487,562.472383380998,128.137619727511,-498.403573517242,153.098571962988,345.305001554254
0.0846461321420174,558.134204390744,710.093649678129,151.959445287384,-634.113927034437,203.08737955168,431.026547482757
0.0893486950387961,690.770435661559,838.095583565921,147.325147904362,-764.43300961374,271.722643878598,492.710365735142
0.0940512579355749,799.611967145274,946.753133740817,147.141166595543,-873.182550443045,326.235400274865,546.94715016818
0.0987538208323536,865.214987387818,978.323550316312,113.108562928493,-921.769268852065,376.053212229662,545.716056622402
0.103456383729132,880.910938296231,947.230426496886,66.3194882006557,-914.070682396559,407.295725047788,506.774957348771
0.108158946625911,838.306646126009,864.83181429896,26.5251681729511,-851.569230212485,405.890738976529,445.678491235956
0.11286150952269,772.021613469912,748.628596566957,-23.3930169029549,-760.325105018434,397.707315186433,362.617789832001
0.117564072419469,675.077459196368,625.357363867668,-49.7200953286996,-650.217411532018,362.398777262534,287.818634269484
0.122266635316247,566.52930578767,492.531235687531,-73.9980701001382,-529.5302707376,320.263687943904,209.266582793697
0.126969198213026,465.200904205044,390.653436803927,-74.5474674011168,-427.927170504485,269.87418580308,158.052984701405
0.131671761109805,383.640623392308,329.785182554666,-53.8554408376417,-356.712902973487,218.748032114975,137.964870858512
0.136374324006584,314.272202893726,256.714335475372,-57.5578674183537,-285.493269184549,185.91503515604,99.5782340285093
0.141076886903362,255.852047526069,212.485403901639,-43.3666436244301,-234.168725713854,149.60934557525,84.5593801386045
0.145779449800141,216.487478552365,181.049472329208,-35.4380062231571,-198.768475440786,125.962742387761,72.8057330530254
0.15048201269692,205.226481594708,182.754146167778,-22.47233542693,-193.990313881243,113.849408510819,80.1409053704242
0.155184575593699,201.81786270414,198.247141784249,-3.57072091989068,-200.032502244195,102.694291812015,97.3382104321794
0.159887138490477,205.198198740465,192.688609259564,-12.509589480901,-198.943404000015,108.853894110683,90.0895098893316
0.164589701387256,193.292349039203,189.418909946868,-3.87343909233468,-191.355629493035,98.5828940657687,92.7727354272667
0.169292264284035,186.123710485296,179.222020495266,-6.90168999003023,-182.672865490281,96.5127002376631,86.1601652526177
0.173994827180814,162.845900666174,154.841517538057,-8.00438312811633,-158.843709102116,85.425141897145,73.4185672049705
0.178697390077592,142.854400889628,107.262830337618,-35.5915705520106,-125.058615613623,89.2229857208194,35.8356298928035
0.183399952974371,111.99522484014,73.6390528539026,-38.3561719862371,-92.8171388470211,75.1756984131884,17.6414404338328
0.18810251587115,89.1494339257533,58.4270262291945,-30.7224076965588,-73.7882300774739,59.9359208111561,13.8523092663179
0.192805078767929,65.4742366133183,37.7462143297002,-27.7280222836181,-51.6102254715092,46.6011294484682,5.00909602304102
0.197507641664707,53.5509533364143,34.1713393293467,-19.3796140070676,-43.8611463328805,36.4652836717409,7.39586266113956
0.202210204561486,46.2385404547745,31.1861274416723,-15.0524130131022,-38.7123339482234,30.6454767339383,8.0668572142851
0.206912767458265,30.8377239452552,22.8090665514038,-8.02865739385149,-26.8233952483295,19.4331906695534,7.39020457877614
0.211615330355043,26.5267266993659,18.5649800966157,-7.96174660275023,-22.5458533979908,17.2442366510581,5.30161674693274
0.216317893251822,7.09546153187214,-4.14563914045478,-11.2411006723269,-1.47491119570868,9.16828110209953,-7.69336990639085
0.221020456148601,-4.14890386950575,-19.7396259296649,-15.5907220601591,11.9442648995853,5.72090909532668,-17.665173994912
0.22572301904538,-19.7593555829036,-35.6007609951803,-15.8414054122768,27.680058289042,-1.95897508531339,-25.7210832037286
0.230425581942158,-31.7740530585833,-58.6169035055557,-26.8428504469724,45.1954782820695,-2.46560130580543,-42.7298769762641
0.235128144838937,-47.1398386767939,-74.2021876682828,-27.0623489914889,60.6710131725384,-10.0387448426525,-50.6322683298859
0.239830707735716,-46.8578287765319,-66.7470485082071,-19.8892197316753,56.8024386423695,-13.4843045224283,-43.3181341199412
0.244533270632495,-39.3444656849729,-50.7969364822531,-11.4524707972801,45.070701083613,-13.9459974438464,-31.1247036397666
0.249235833529273,-43.3512359621183,-58.3703051235974,-15.0190691614792,50.8607705428578,-14.1660834003196,-36.6946871425383
0.253938396426052,-46.90117538644,-70.6255329438259,-23.7243575573859,58.763354165133,-11.5884089145271,-47.1749452506059
0.258640959322831,-58.608913275982,-66.7262776016614,-8.11736432567943,62.6675954388217,-25.2457744751513,-37.4218209636704
0.26334352221961,-62.824429950123,-66.1134933809561,-3.28906343083315,64.4689616655396,-29.7676832596449,-34.7012784058946
0.268046085116388,-58.7670989206092,-62.477184554593,-3.71008563398375,60.6221417376011,-27.5285066433127,-33.0936350942884
0.272748648013167,-62.3663600366248,-55.211524710235,7.15483532638971,58.7889423734299,-34.7605976815072,-24.0283446919227
0.277451210909946,-43.2119464406636,-31.5109106590221,11.7010357816415,37.3614285498429,-27.4564911111526,-9.90493743869033
0.282153773806725,-31.817882289324,-27.2965111004765,4.52137118884747,29.5571966949003,-18.1696267390857,-11.3875699558145
0.286856336703503,-19.7688472707149,-19.9522571434593,-0.18340987274442,19.8605522070871,-9.79271869898524,-10.0678335081019
0.291558899600282,-11.7952837868905,-0.756355554623499,11.038928232267,6.27581967075698,-11.4171060095787,5.14128633882174
0.296261462497061,-16.2119168163898,-19.7239666756673,-3.5120498592775,17.9679417460286,-6.34993347855616,-11.6180082674724
0.30096402539384,-31.7921319435347,-38.9111990814501,-7.1190671379154,35.3516655124924,-12.3365324028096,-23.0151331096827
0.305666588290618,-35.1063322442734,-47.3156881924955,-12.2093559482221,41.2110102183845,-11.4484881480257,-29.7625220703588
0.310369151187397,-46.9374846708066,-55.300143875625,-8.36265920481843,51.1188142732158,-19.2874127329941,-31.8314015402217
0.315071714084176,-47.4494166351328,-54.3872541454772,-6.93783751034443,50.918335390305,-20.2557895623942,-30.6625458279108
0.319774276980955,-47.0900357117836,-38.8816234817765,8.20841223000713,42.9858295967801,-27.6492239708954,-15.3366056258847
0.324476839877733,-35.0625554607614,-43.8278938630849,-8.76533840232351,39.4452246619231,-13.1486085292189,-26.2966161327042
0.329179402774512,-23.8830710840064,-23.9650042118908,-0.0819331278844544,23.9240376479486,-11.900568978061,-12.0234686698876
0.333881965671291,-16.3105775208,-19.1120149111928,-2.80143739039283,17.7112962159964,-6.75457006520359,-10.9567261507928
0.33858452856807,3.59870584293521,-0.551509012827144,-4.15021485576236,-1.52359841505404,3.87446034934879,-2.35086193429475
0.343287091464848,15.253120832979,10.4139523717662,-4.83916846121277,-12.8335366023726,10.0461446470959,2.78739195527674
0.347989654361627,18.7487021226098,11.5996467650487,-7.14905535756114,-15.1741744438292,12.9488787400855,2.22529570374376
0.352692217258406,7.24650704264814,4.12913064517786,-3.11737639747028,-5.687818843913,5.18194172005921,0.505877123853793
0.357394780155185,-4.18174561981832,-12.7790586302163,-8.597313010398,8.48040212501732,2.20778369528984,-10.6881858203072
0.362097343051963,-12.191511911537,-32.0099218944618,-19.8184099829248,22.1007169029994,3.81344903569389,-25.9141659386933
0.366799905948742,-16.1562273273081,-30.718059965423,-14.5618326381148,23.4371436463656,-0.797197344596661,-22.6399463017689
0.371502468845521,-23.6479602876739,-23.6683590242508,-0.0203987365768725,23.6581596559624,-11.8137807755485,-11.8443788804138
0.3762050317423,-19.8141931788646,-16.8410150860026,2.97317809286196,18.3276041324336,-11.3936856358633,-6.93391849657034
0.380907594639078,-20.0697711778136,-27.2963114614351,-7.22654028362147,23.6830413196244,-6.42161544709608,-17.2614258725283
0.385610157535857,-27.6213698874391,-38.5278884322257,-10.9065185447866,33.0746291598324,-8.35742567132628,-24.7172034885062
0.390312720432636,-35.1932084975822,-36.1615271242212,-0.968318626638975,35.6773678109017,-17.1124449354716,-18.5649228754301
0.395015283329415,-8.49836883762962,-1.10885172863829,7.38951710899133,4.80361028313395,-7.94394297331047,3.14033269017652
0.399717846226193,18.6026092353869,39.2961830549912,20.6935738196043,-28.9493961451891,-1.04548229210868,29.9948784372977
0.404420409122972,46.6044878196758,62.0583609666436,15.4538731469677,-54.3314243931597,15.575307336354,38.7561170568056
0.409122972019751,50.358968576055,56.8519831799837,6.49301460392868,-53.6054758780193,21.9329769860632,31.6724988919562
0.41382553491653,37.6855683750826,38.3427044413044,0.657136066221817,-38.0141364081935,18.5142161544304,19.4999202537631
0.418528097813308,26.5185495792219,23.6985697514632,-2.81997982775868,-25.1085596653426,14.6692647034903,10.4392949618523
0.423230660710087,27.4890187544233,18.6038387923525,-8.88517996207077,-23.0464287733879,18.187099358247,4.85932941514088
0.427933223606866,22.6825199013438,18.1831596877264,-4.49936021361739,-20.4328397945351,13.5909400574806,6.84189973705449
0.432635786503644,10.3782268984603,15.6712297089626,5.29300281050232,-13.0247283037115,2.542612043979,10.4821162597325
0.437338349400423,15.5243977226782,4.01028789864043,-11.5141098240378,-9.76734281065931,13.519253773358,-3.75191096269866
0.442040912297202,19.5163591936679,6.48226479269713,-13.0340944009708,-12.9993119931825,16.2752267973194,-3.27591480413684
0.446743475193981,25.920878196219,22.3663115209916,-3.55456667522736,-24.1435948586053,14.7377224357232,9.40587242288211
0.451446038090759,30.337820936399,39.285326764423,8.947505828024,-34.811573850411,10.6951575541875,24.1164162962235
0.456148600987538,39.280056704483,54.1748458899496,14.8947891854667,-46.7274512972163,12.1926337595082,34.5348175377081
0.460851163884317,42.0468627226917,33.5270961656195,-8.51976655707223,-37.7869794441556,25.283314639882,12.5036648042736
0.465553726781096,25.8572646665491,11.234625306996,-14.6226393595531,-18.5459449867725,20.2399520130511,-1.69400702627856
0.470256289677874,27.3319214302572,19.824956231987,-7.50696519827028,-23.5784388311221,17.4194433142638,6.15899551685834
0.474958852574653,27.1878677866739,18.4591784503006,-8.72868933637334,-22.8235231184873,17.9582785615236,4.86524455696362
0.479661415471432,29.6157682164057,41.5151942456148,11.8994260292092,-35.5654812310103,8.85817109359827,26.707310137412
0.484363978368211,57.7122260812049,62.4165816839473,4.70435560274245,-60.0644038825761,26.5039352392312,33.5604686433449
0.489066541264989,66.529898493827,89.2294368965335,22.6995384027064,-77.8796676951803,21.9151800455603,55.96448764962
0.493769104161768,72.9032788201265,87.9636380546133,15.0603592344868,-80.4334584373699,28.9214597928199,51.5119986445501
0.498471667058547,72.4887420058105,81.1466218137956,8.65787980798507,-76.817681909803,31.9154310989127,44.9022508108903
0.503174229955326,70.1648733800619,70.2638780459838,0.0990046659218393,-70.2143757130228,35.03293435707,35.1814413559528
0.507876792852104,58.2387064199453,49.5043504573216,-8.73435596262368,-53.8715284386335,33.4865311912845,20.384997247349
0.512579355748883,52.8958552014283,49.3646046586894,-3.5312505427389,-51.1302299300588,28.2135528720836,22.9166770579752
0.517281918645662,61.5137526080487,70.0996100201063,8.58585741205763,-65.8066813140775,26.4639475979955,39.342733716082
0.521984481542441,78.1294525150488,89.0495911216188,10.9201386065699,-83.5895218183338,33.6046569542395,49.9848648640943
0.526687044439219,88.5504980419019,95.9237127020249,7.373214660123,-92.2371053719634,40.5886416908895,51.648463681074
0.531389607335998,99.6754378380801,116.184456388492,16.5090185504123,-107.929947113286,41.5832096438339,66.3467374694523
0.536092170232777,108.812519794426,108.725313869001,-0.0872059254251099,-108.768916831714,54.4498628599256,54.319053971788
0.540794733129556,108.756060636761,107.870154193228,-0.885906443532846,-108.313107414995,54.8209835401469,53.4921238748476
0.545497296026334,103.616193583297,115.782727159348,12.1665335760516,-109.699460371322,45.7248300036226,63.9746303676999
0.550199858923113,111.883414886259,120.24174204701,8.3583271607517,-116.062578466635,51.7625438627535,64.300034603881
0.554902421819892,128.310657690844,143.125496386585,14.8148386957405,-135.718077038715,56.7479094975519,78.9701675411626
0.559604984716671,131.478883502415,146.833447777492,15.3545642750768,-139.156165639953,58.062159613669,81.0940060262842
0.564307547613449,138.814030853725,143.504161437011,4.69013058328616,-141.159096145368,67.0619501352193,74.0971460101485
0.569010110510228,131.740247690949,135.456637616092,3.71638992514355,-133.598442653521,64.0119288829026,69.586513770618
0.573712673407007,131.779814226833,134.932421210678,3.15260698384574,-133.356117718755,64.3136036214934,69.042514097262
0.578415236303786,150.615869546122,162.748617567207,12.1327480210854,-156.682243556665,69.2415607625183,87.4406827941464
0.583117799200564,154.727106898687,159.197567268707,4.47046037001968,-156.962337083697,75.1283232643336,81.8340138193631
0.587820362097343,151.319211994325,146.797360012106,-4.52185198221861,-149.058286003215,77.9205319882716,71.1377540149437
0.592522924994122,143.137636871698,142.793321674735,-0.344315196963379,-142.965479273216,71.7409760343307,71.2245032388856
0.597225487890901,146.645508703543,147.365831709761,0.720323006217654,-147.005670206652,72.9625928486628,74.0430773579892
0.601928050787679,143.31347454803,143.466215642281,0.152741094251212,-143.389845095155,71.5803667268893,71.8094783682661
0.606630613684458,143.558553251864,142.866145316655,-0.692407935208621,-143.21234928426,72.1254805935363,71.0868686907234
0.611333176581237,154.507519144136,154.565751140204,0.0582319960675477,-154.53663514217,77.2246435740342,77.3119915681356
0.616035739478015,154.475137396662,159.030880168448,4.5557427717859,-156.753008782555,74.9596973124379,81.7933114701167
0.620738302374794,159.201072458566,155.134353577516,-4.06671888105058,-157.167713018041,81.6338956698084,75.5338173482326
0.625440865271573,155.026678721474,150.575107716361,-4.4515710051125,-152.800893218918,79.7391248632932,73.0617683556244
0.630143428168352,154.167152025739,142.85970960991,-11.3074424158296,-148.513430817824,82.7372972207844,65.77613359704
0.634845991065131,150.95474570068,135.945875727404,-15.0088699732755,-143.450310714042,82.9818078369777,60.4685028770644
0.639548553961909,132.279544879345,112.419656397537,-19.859888481808,-122.349600638441,76.0697166805764,46.2798839578643
0.644251116858688,111.858489972505,80.4035785524547,-31.4549114200502,-96.1310342624799,71.6567006962776,24.4743335662023
0.648953679755467,99.6912154003122,80.8631996593497,-18.8280157409625,-90.277207529831,59.2596155706374,31.0175919591936
0.653656242652245,100.917526061805,85.5986915187299,-15.3188345430754,-93.2581087902676,58.1181803024404,35.1399284878273
0.658358805549024,112.720493629276,100.444984403576,-12.2755092256995,-106.582739016426,62.4980014274876,44.0847375889384
0.663061368445803,115.316345844478,107.618265273538,-7.69808057094042,-111.467305559008,61.5072132077094,49.9600923512987
0.667763931342582,119.525084169997,112.402720631005,-7.12236353899205,-115.963902400501,63.3237238544948,52.6401785460067
0.67246649423936,112.951025367461,101.037491696462,-11.9135336709988,-106.994258531962,62.43227951923,44.5619790127318
0.677169057136139,92.8030468043258,65.1529579811968,-27.650088823129,-78.9780023927613,60.2265678137274,18.7514345790339
0.681871620032918,60.8405865293293,30.2751551849825,-30.5654313443469,-45.5578708571559,45.7030089368381,-0.145138079682187
0.686574182929697,30.7699208441829,-7.80097866764946,-38.5708995118324,-11.4844710882667,34.6704101780076,-23.1859390897409
0.691276745826475,15.6728400907629,-12.13346282348,-27.8063029142429,-1.76968863364145,21.7395715025029,-19.9698828688614
0.695979308723254,2.93653709153601,-20.3333686367132,-23.2699057282492,8.69841577258861,13.1032214098926,-21.8016371824812
0.700681871620033,-4.74646496481472,-27.315750615582,-22.5692856507672,16.0311077901983,8.91141034297626,-24.9425181331746
0.705384434516812,-27.0238070129298,-46.7152236751093,-19.6914166621795,36.8695153440196,-3.66619517537515,-33.2033201686444
0.71008699741359,-27.5734433583477,-39.9163793255629,-12.3429359672151,33.7449113419553,-7.6152536955663,-26.129657646389
0.714789560310369,-24.5084356950337,-20.0519447119202,4.45649098311343,22.280190203477,-14.4824633390736,-7.79772686440341
0.719492123207148,-15.8091468135423,-11.317668620531,4.49147819301122,13.5634077170366,-10.1503125032767,-3.41309521375991
0.724194686103927,-19.1732538501234,-31.5391922039412,-12.3659383538178,25.3562230270323,-3.40365774815283,-21.9525652788795
0.728897249000705,-31.9514283593467,-43.9515456427972,-12.0001172834505,37.9514870010719,-9.97565553794808,-27.9758314631239
0.733599811897484,-51.4709388354166,-62.3112891981653,-10.8403503627487,56.8911140167909,-20.315294236334,-36.575819780457
0.738302374794263,-65.8918624621376,-81.2996416685662,-15.4077792064286,73.5957520653519,-25.2420416278545,-48.3537104374974
0.743004937691042,-89.4904945610835,-105.787837299762,-16.2973427386789,97.6391659304229,-36.5965759112023,-61.0425900192206
0.74770750058782,-102.063460818163,-117.476670217005,-15.4132093988416,109.770065517584,-43.3251257096609,-66.4449398079232
0.752410063484599,-109.272655036524,-120.203886784983,-10.9312317484593,114.738270910753,-49.1707116440322,-65.5675592667211
0.757112626381378,-93.1466452006453,-97.32661050071,-4.17996530006471,95.2366278506776,-44.4833399502903,-50.7532879003874
0.761815189278157,-82.1226761667763,-86.5868879020585,-4.46421173528219,84.3547820344174,-38.829232215747,-45.5255498186703
0.766517752174935,-74.5459341766802,-77.9042065554379,-3.35827237875769,76.2250703660591,-35.5938308989613,-40.6312394670978
0.771220315071714,-93.3784351142433,-89.0637592300329,4.31467588421046,91.2210971721381,-48.8465554992269,-42.3745416729112
0.775922877968493,-101.286623573819,-105.818187360346,-4.53156378652618,103.552405467082,-48.3775298936466,-55.1748755734359
0.780625440865272,-105.631921025672,-113.527073136065,-7.8951521103923,109.579497080869,-48.8683844576401,-60.7111126232285
0.78532800376205,-120.78062151671,-127.826976153705,-7.04635463699535,124.303798835207,-56.8671334398571,-67.4366653953501
0.790030566658829,-128.291893630149,-136.225497294955,-7.93360366480638,132.258695462552,-60.1791449826711,-72.0795504798807
0.794733129555608,-132.727162942305,-137.227555548523,-4.50039260621821,134.977359245414,-64.1133851680434,-70.8639740773707
0.799435692452387,-124.936824866274,-124.477907727937,0.458917138336687,124.707366297105,-62.6978710023052,-62.0094952948001
0.804138255349165,-120.476932843767,-116.152051492176,4.3248813515914,118.314492167971,-62.4009070976793,-55.9135850702922
0.808840818245944,-120.757296313174,-121.345310854711,-0.588014541536793,121.051303583943,-60.0846408858188,-60.966662698124
0.813543381142723,-105.699783204628,-98.0912249780438,7.60855822658415,101.895504091336,-56.654170715606,-45.2413333757298
0.818245944039501,-93.6059251251175,-92.9602338526039,0.645691272513631,93.2830794888607,-47.1258081988156,-46.1572712900451
0.82294850693628,-97.1219322371525,-97.1687839511011,-0.0468517139486266,97.1453580941268,-48.5375402616019,-48.6078178325249
0.827651069833059,-101.521931217931,-113.705706260305,-12.1837750423742,107.613818739118,-44.6690780877782,-62.9447406513395
0.832353632729838,-125.050762345246,-148.067433555489,-23.0166712102431,136.559097950367,-51.0170455675012,-85.5420523828658
0.837056195626616,-155.524881015245,-170.684726041756,-15.1598450265111,163.104803528501,-70.1825179943671,-92.9222855341337
0.841758758523395,-167.195157595967,-175.412329024631,-8.21717142866359,171.303743310299,-79.4889930836518,-91.8147502266472
0.846461321420174,-152.394773533387,-148.62848051433,3.76629301905717,150.511627023859,-78.0805332762223,-72.4310937476365
0.851163884316953,-140.368056754597,-128.179092791797,12.1889639627999,134.273574773197,-76.2785103586986,-57.9950644144987
0.855866447213732,-116.281736350228,-100.851940082754,15.4297962674742,108.566838216491,-65.8557663088514,-42.71107190764
0.86056901011051,-105.419382550028,-101.921774394156,3.49760815587119,103.670578472092,-54.4584953529494,-49.2120831191426
0.865271573007289,-109.836668481553,-94.0062465114699,15.8304219700829,101.921457496511,-62.8335452258178,-39.0879122706935
0.869974135904068,-104.826089110029,-120.13990798082,-15.3138188707914,112.482998545425,-44.7561351196188,-67.7268634258059
0.874676698800846,-124.202460055677,-136.10538665004,-11.9029265943631,130.153923352858,-56.1497667306568,-74.0041566222014
0.879379261697625,-125.457314541616,-141.080561149195,-15.6232466075785,133.268937845406,-54.9170339670189,-78.3519038783867
0.884081824594404,-124.982745608033,-124.890957460764,0.0917881472690425,124.936851534399,-62.5372668776512,-62.3995846567477
0.888784387491183,-104.475642335152,-112.079101071133,-7.60345873598129,108.277371703142,-48.4360917995852,-59.8412799035572
0.893486950387961,-105.362768727287,-89.7488267186222,15.6139420086646,97.5557977229545,-60.4883553679757,-37.0674423549788
0.89818951328474,-98.276416727004,-98.6103077965253,-0.333891069521343,98.4433622617647,-48.9712628287413,-49.4720994330233
0.902892076181519,-93.2923057255747,-93.294671951729,-0.00236622615435067,93.2934888386519,-46.6449697497102,-46.6485190889417
0.907594639078298,-85.3766529597067,-84.7740709455585,0.602582014148183,85.0753619526326,-42.9896174869274,-42.0857444657052
0.912297201975076,-86.4254005853557,-86.6778331579228,-0.252432572567102,86.5516168716392,-43.0864840063943,-43.4651328652449
0.916999764871855,-86.0804894163541,-90.6744414258891,-4.59395200953492,88.3774654211216,-40.7432687034096,-47.634196717712
0.921702327768634,-100.813178546851,-100.117756934484,0.695421612366815,100.465467740668,-50.7543000796089,-49.7111676610587
0.926404890665413,-120.89667955756,-116.366537733325,4.53014182423513,118.631608645442,-62.7134106908975,-55.9181979545448
0.931107453562191,-121.39029164701,-145.753520551172,-24.3632289041619,133.571906099091,-48.5135313714243,-85.0583747276671
0.93581001645897,-136.114402766014,-151.918523052806,-15.8041202867925,144.01646290941,-60.1551412396105,-83.8613216697992
0.940512579355749,-128.172338984649,-123.031760401762,5.14057858288683,125.602049693205,-66.6564587837678,-58.9455909094375
0.945215142252528,-121.284182205967,-117.624597972132,3.65958423383505,119.454390089049,-62.4718832199009,-56.9825068691483
0.949917705149306,-113.321300092399,-118.315517682306,-4.99421758990627,115.818408887352,-54.1635412512465,-61.6548676361059
0.954620268046085,-104.698032308473,-92.3249189264614,12.3731133820115,98.5114756174671,-58.5355728452422,-39.9759027722249
0.959322830942864,-89.790906370095,-85.1085800355573,4.68232633453775,87.4497432028262,-47.2366163523164,-40.2131268505098
0.964025393839643,-82.6674119737993,-83.6387514653542,-0.971339491554943,83.1530817195767,-40.8480362411222,-42.3050454784546
0.968727956736421,-73.8765989524908,-78.1009437118301,-4.22434475933922,75.9887713321604,-34.8261270965758,-41.1626442355846
0.9734305196332,-81.3924237317011,-72.5967494595951,8.79567427210594,76.9945865956481,-45.0940490019035,-31.9005375937446
0.978133082529979,-94.2968258096595,-94.3416966585049,-0.0448708488453917,94.3192612340822,-47.1259774804071,-47.1932837536751
0.982835645426758,-94.074240357418,-106.543860596349,-12.4696202389314,100.309050476884,-40.8023100592433,-59.5067404176404
0.987538208323536,-88.9681302540252,-88.6360244005674,0.33210585345779,88.8020773272963,-44.6501180537415,-44.1519592735548
0.992240771220315,-101.265192216938,-92.9992391721949,8.26595304474307,97.1322156945664,-54.7655726308405,-42.3666430637259
0.996943334117094,-98.3942890048502,-98.7327272268598,-0.338438222009614,98.563508115855,-49.0279253914203,-49.5355827244347
1.00164589701387,-97.4439338232481,-93.7104034433843,3.73353037986385,95.5771686333162,-50.588732101556,-44.9884365317602
1.00634845991065,-88.9578189170239,-100.384418938861,-11.4266000218374,94.6711189279426,-38.7656094475933,-55.9055094803494
1.01105102280743,-90.1038003262839,-93.9666204268447,-3.86282010056081,92.0352103765643,-43.1204901128615,-48.9147202637028
1.01575358570421,-102.085001176518,-109.869993130025,-7.78499195350726,105.977497153271,-47.1500046115052,-58.827492541766
1.02045614860099,-108.600451424426,-127.994205066499,-19.3937536420737,118.297328245462,-44.6033488911759,-73.6939793542865
1.02515871149777,-131.990651405758,-139.86785850355,-7.8772070977918,135.929254954654,-62.0567221539831,-73.8725328006708
1.02986127439455,-137.129529173157,-137.101728406856,0.0278007663006292,137.115628790006,-68.5786649697287,-68.5369638202777
1.03456383729132,-136.687242264449,-132.55928794617,4.1279543182786,134.62326510531,-70.4075982913638,-64.2156668139459
1.0392664001881,-119.996726679796,-120.062027616083,-0.0653009362872865,120.02937714794,-59.9657128717543,-60.0636642761853
1.04396896308488,-109.098699080776,-97.7455409493234,11.3531581314528,103.42212001505,-60.2259286061145,-43.1961914089353
1.04867152598166,-98.4103165093276,-98.190712621499,0.219603887828583,98.3005145654133,-49.3149601985781,-48.9855543668352
1.05337408887844,-93.4535751509746,-93.075010428182,0.37856472279266,93.2642927895783,-46.9160699368836,-46.3482228526946
1.05807665177522,-96.6339015943868,-93.1675236101672,3.46637798421962,94.900712602277,-50.0501397893032,-44.8505728129738
1.062779214672,-105.765156048646,-117.703262285587,-11.9381062369407,111.734209167117,-46.9135249058528,-64.8206842612638
1.06748177756878,-113.904501600641,-113.209114325534,0.695387275107208,113.556807963088,-57.2999444378742,-56.2568635252134
1.07218434046555,-100.713608372904,-96.8185094438709,3.8950989290326,98.7660589083872,-52.3043536509681,-46.4617052574192
1.07688690336233,-85.2838947956763,-78.3447371180201,6.93915767765621,81.8143159568482,-46.1115262366663,-35.7027897201819
1.08158946625911,-94.5480930395274,-70.8264104156127,23.7216826239147,82.68725172757,-59.1348878317211,-23.552363895849
1.08629202915589,-86.1464455374721,-69.8141673312525,16.3322782062196,77.9803064343623,-51.2393618718459,-26.7409445625165
1.09099459205267,-81.0633380020976,-70.1802053697587,10.8831326323389,75.6217716859282,-45.9732353172183,-29.6485363687099
1.09569715494945,-74.3589697480139,-78.7350569179023,-4.37608716988842,76.5470133329581,-34.9914412890627,-41.5555720438954
1.10039971784623,-86.7076924157778,-81.7882303055442,4.91946211023352,84.247961360661,-45.8135772630056,-38.4343840976554
1.105102280743,-93.1650863183696,-100.860798750521,-7.69571243215134,97.0129425344452,-42.7346869431091,-54.2782555913361
1.10980484363978,-96.976223153499,-113.546738797804,-16.5705156443053,105.261480975652,-40.2028537545968,-65.0586272210548
1.11450740653656,-109.930867441684,-117.288769698334,-7.35790225665046,113.609818570009,-51.2864825925167,-62.3233359774924
1.11920996943334,-113.257843294732,-116.322587075052,-3.0647437803208,114.790215184892,-55.0965497572054,-59.6936654276866
1.12391253233012,-108.396044443956,-116.865571727524,-8.46952728356823,112.63080808574,-49.9632585801937,-62.667549505546
1.1286150952269,-93.9226087179849,-90.4539460807339,3.468662637251,92.1882773993594,-48.6956356776179,-43.4926417217414
1.13331765812368,-82.6816373791122,-70.2223165867807,12.4593207923315,76.4519769829464,-47.5704790857218,-28.8814978972246
1.13802022102046,-65.8306378173148,-57.9917163598358,7.83892145747897,61.9111770885753,-36.8347796373969,-25.0763974511784
1.14272278391723,-54.4565013418404,-51.2149804258267,3.24152091601371,52.8357408838335,-28.849011128927,-23.9867297549065
1.14742534681401,-63.4150950697491,-51.5854375336037,11.8296575361454,57.5002663016764,-37.6223763029472,-19.8778899987291
1.15212790971079,-58.6339582147246,-54.329391106637,4.30456710808757,56.4816746606808,-31.4692626614061,-25.0124119992747
1.15683047260757,-69.5705782532841,-73.6236189280258,-4.05304067474174,71.5970985906549,-32.7587687892712,-38.8383298013838
1.16153303550435,-86.3348299081349,-90.4165229208377,-4.08169301270279,88.3756764144863,-41.126568447716,-47.2491079667702
1.16623559840113,-90.3350206900431,-105.795875601892,-15.4608549118492,98.0654481459677,-37.4370828890969,-60.6283652568708
1.17093816129791,-93.0219035233086,-96.7601183558612,-3.73821483255266,94.8910109395849,-44.6418443453779,-50.2491665942069
1.17564072419469,-93.4203103376607,-97.2399347975052,-3.8196244598445,95.330122567583,-44.8003429389081,-50.5297796286749
1.18034328709146,-98.1969864700029,-113.847509930152,-15.6505234601492,106.022248200077,-41.2732315049268,-64.7490166951507
1.18504584998824,-109.078584186033,-113.07454264263,-3.99595845659712,111.076563414332,-52.541312864718,-58.5352505496137
1.18974841288502,-112.521698390813,-116.240857558999,-3.719159168186,114.381277974906,-54.4012696113137,-59.9800083635927
1.1944509757818,-105.718712428615,-109.391429681531,-3.67271725291675,107.555071055073,-51.0229975878489,-56.532073467224
1.19915353867858,-113.369944479714,-117.459412466076,-4.08946798636109,115.414678472895,-54.6402382466767,-60.7744402262183
1.20385610157536,-108.570722001188,-116.552180117565,-7.98145811637704,112.561451059377,-50.2946319424056,-62.2668191169712
1.20855866447214,-101.505190675571,-93.4179426415216,8.08724803404922,97.4615666585462,-54.79621935481,-42.6653473037362
1.21326122736892,-94.2927853220132,-82.4849047823064,11.8078805397068,88.3888450521598,-53.05033293086,-35.3385121212998
1.21796379026569,-81.5181602495626,-81.8335670252805,-0.315406775717832,81.6758636374216,-40.6013767369224,-41.0744869004992
1.22266635316247,-97.0549471784173,-89.2865115900015,7.76843558841583,93.1707293842094,-52.4116913834166,-40.7590380007928
1.22736891605925,-94.4104878135691,-94.1453951796008,0.265092633968322,94.2779414965849,-47.3377902237687,-46.9401512728162
1.23207147895603,-86.1085553356901,-86.1595672592573,-0.051011923567188,86.1340612974737,-43.0287717060615,-43.1052895914123
1.23677404185281,-85.0204735933978,-81.2906716523544,3.72980194104333,83.1555726228761,-44.3751377672206,-38.7804348556555
1.24147660474959,-89.8428180954748,-82.0400376221352,7.80278047333962,85.941427858805,-48.8227992844072,-37.1186285743978
1.24617916764637,-90.6170706390617,-86.5900806049944,4.02699003406734,88.6035756220281,-47.3220303365645,-41.2815452854635
1.25088173054315,-89.4225401580017,-85.4567520406925,3.96578811730923,87.4396460993471,-46.6941641376555,-40.7454819616916
1.25558429343992,-100.682768065014,-104.723998643212,-4.04123057819848,102.703383354113,-48.3207687434077,-54.3826146107054
1.2602868563367,-98.116421004604,-109.879289525276,-11.7628685206718,103.99785526494,-43.1767762419661,-60.8210790229738
1.26498941923348,-90.3823171461179,-90.1266236770268,0.255693469091042,90.2544704115724,-45.3190053076045,-44.9354651039679
1.26969198213026,-77.4076575815664,-69.5724153814011,7.83524220016527,73.4900364814838,-42.6214498908658,-30.8685865906179
1.27439454502704,-58.3169161218943,-62.4671875895882,-4.15027146769396,60.3920518557412,-27.0833223271002,-33.3087295286411
1.27909710792382,-59.5004395874429,-47.7806430000927,11.7197965873502,53.6405412937678,-35.6101180873965,-18.0304232063713
1.2837996708206,-58.8023363584689,-43.0564359564502,15.7459004020187,50.9293861574596,-37.2741183802438,-13.6552677772157
1.28850223371738,-69.5552685602351,-61.8751777523122,7.68009080792292,65.7152231562736,-38.617679684079,-27.0975434721946
1.29320479661415,-82.1659561065128,-93.812106057469,-11.6461499509562,87.9890310819909,-35.2599030777783,-52.7291280042126
1.29790735951093,-94.3530763312312,-117.572091215827,-23.219014884596,105.962583773529,-35.5670307233176,-70.3955530502116
1.30260992240771,-101.089189417619,-109.072450566192,-7.98326114857356,105.080819991905,-46.5529641345226,-58.5278558573829
1.30731248530449,-89.3071032931567,-89.2959053808035,0.0111979123532535,89.3015043369801,-44.659150602755,-44.6423537342251
1.31201504820127,-70.8600311256101,-66.542040153775,4.31799097183513,68.7010356396926,-37.5890110487226,-31.1120245909699
1.31671761109805,-66.6867740853001,-70.6926339931867,-4.00585990788665,68.6897040392434,-31.3404570887067,-37.3492469505367
1.32142017399483,-77.4920355616474,-70.2593071298507,7.2327284317967,73.8756713457491,-42.3623819967221,-31.513289349027
1.32612273689161,-70.4147951454577,-62.3011480701402,8.11364707531751,66.357971607799,-39.2642211103876,-27.0937504974114
1.33082529978838,-63.2951737885223,-54.9234098992004,8.3717638893219,59.1092918438613,-35.8334688389221,-23.2758230049392
1.33552786268516,-62.2503842493603,-58.9354626180295,3.31492163133076,60.5929234336949,-32.7826529403455,-27.8102704933494
1.34023042558194,-54.1904607555159,-50.8331727730481,3.35728798246775,52.511816764282,-28.7738743689918,-23.7379423952902
1.34493298847872,-51.5954635828189,-42.9836153298309,8.61184825298798,47.2895394563249,-30.1036559179034,-17.1858835384215
1.3496355513755,-51.3599152065341,-43.2403679772396,8.1195472292945,47.3001415918868,-29.7397312179143,-17.5604103739725
1.35433811427228,-50.0662523950965,-54.9542975333426,-4.88804513824605,52.5102749642195,-22.5891036284252,-29.9211713357943
1.35904067716906,-50.893345968332,-47.0448786043654,3.84846736396666,48.9691122863487,-27.3709066661493,-21.5982056201994
1.36374324006584,-48.0293696542008,-43.069323480742,4.96004617345875,45.5493465674714,-26.4947079138298,-19.0546386536416
1.36844580296261,-35.1042848799214,-27.6204055691817,7.48387931073973,31.3623452245515,-21.2940820953306,-10.068263129221
1.37314836585939,-26.8236005262602,-20.0519486214617,6.77165190479853,23.437774573861,-16.7976262155294,-6.6401483583316
1.37785092875617,-32.1285814689454,-27.5951386808588,4.53344278808659,29.8618600749021,-18.331012128516,-11.5308479463861
1.38255349165295,-20.4458986111339,-11.822967585268,8.62293102586594,16.1344330982009,-14.5344148184999,-1.60001827970101
1.38725605454973,-23.0566886348118,-16.2541087703826,6.80257986442919,19.6553987025972,-14.9296342496205,-4.7257644529767
1.39195861744651,-7.99990795424595,-4.66216237850992,3.33774557573603,6.33103516637794,-5.66882676499099,-0.662208401386942
1.39666118034329,-8.94776201816973,0.0678900279263077,9.01565204609603,4.43993599512171,-8.98170703213288,4.54177103701117
1.40136374324007,-19.7943011560188,-15.7530057670709,4.04129538894794,17.7736534615449,-11.9177982724834,-5.85585518906147
1.40606630613684,-19.3015611866832,-24.5148743041985,-5.21331311751533,21.9082177454408,-7.04412403458391,-14.8640937108569
1.41076886903362,-16.406619700386,-16.0766090975237,0.330010602862387,16.2416143989549,-8.36831515162422,-7.87329924733064
1.4154714319304,-12.4812482241778,-3.47496513398252,9.00628309019528,7.97810667908016,-10.7437656571865,2.76565897810638
1.42017399482718,-19.2996446662905,-8.41684537631405,10.8827992899765,13.8582450213023,-15.0912219781335,1.23297695683122
1.42487655772396,-19.8374062316895,-20.7288565534987,-0.891450321809156,20.2831313925941,-9.47297795494017,-10.8101534376539
1.42957912062074,-20.516774664589,-15.4773777757885,5.03939688880051,17.9970762201888,-12.7780857766948,-5.21899044349401
1.43428168351752,-11.8875349607746,-11.4571735665303,0.430361394244297,11.6723542636525,-6.15894817750946,-5.51340608614301
1.4389842464143,-19.380926094883,-12.9454764118694,6.43544968301366,16.1632012533762,-12.9081878889483,-3.25501336442786
1.44368680931107,-12.5778853206312,-20.1669466886847,-7.58906136805352,16.372416004658,-2.49441197628885,-13.8780040283691
1.44838937220785,-24.0409886366715,-18.8349705424674,5.20601809420408,21.4379795895694,-14.6235033654378,-6.81447622413164
1.45309193510463,-34.8113143454518,-51.0652363171949,-16.2539219717431,42.9382753313233,-9.27869618685431,-33.659579144469
1.45779449800141,-58.6960850512059,-79.0825912586133,-20.3865062074075,68.8893381549096,-19.1547894218992,-49.7345487330104
1.46249706089819,-82.5885925186022,-104.712760310262,-22.1241677916602,93.6506764144323,-30.232212363471,-63.4184640509613
1.46719962379497,-89.5622492756557,-108.536444472859,-18.9741951972028,99.0493468742571,-35.2940270392264,-63.7553198350307
1.47190218669175,-104.92000764111,-106.309319630247,-1.38931198913711,105.614663635679,-51.7653478259864,-53.8493158096921
1.47660474958853,-86.3069475319882,-82.2287126758356,4.0782348561526,84.2678301039119,-45.1925911940704,-39.0752389098415
1.4813073124853,-70.5889563752963,-57.5156320381496,13.0733243371467,64.052294206723,-41.8311403562215,-22.2211538505014
1.48600987538208,-77.5700188356616,-78.3044491988141,-0.734430363152427,77.9372340172378,-38.4177942362546,-39.5194397809832
1.49071243827886,-81.8872230419157,-79.1451285662226,2.74209447569316,80.5161758040691,-42.3146587588044,-38.2015170452647
1.49541500117564,-74.9217475124277,-85.3236919604405,-10.4019444480128,80.1227197364341,-32.2599015322074,-47.8628182042267
1.50011756407242,-78.0929780469242,-69.6595830930801,8.43339495384402,73.8762805700022,-43.2631865003841,-30.6130940696181
1.5048201269692,-69.5797986039592,-67.2803104207604,2.2994881831988,68.4300545123598,-35.939643393579,-32.4904111187808
1.50952268986598,-78.3905128691229,-74.4573855269536,3.93312734216937,76.4239491980383,-41.1618201056462,-35.2621290923921
1.51422525276276,-78.9056987904595,-77.1854313212123,1.72026746924713,78.0455650558359,-40.3129831298533,-37.7325819259826
1.51892781565953,-81.4555420651356,-78.3992334677164,3.05630859741923,79.927387766426,-42.2559253312774,-37.6714624351486
1.52363037855631,-77.4771518994451,-90.5457100460137,-13.0685581465685,84.0114309727294,-32.2042968764383,-51.8071340962911
1.52833294145309,-86.7100485379647,-89.0110669340264,-2.30101839606164,87.8605577359955,-42.2045150709515,-45.656042665044
1.53303550434987,-105.626596643798,-112.621780516806,-6.99518387300792,109.124188580302,-49.3157063853949,-59.8084821949067
1.53773806724665,-112.039984891571,-129.55497284988,-17.5149879583094,120.797478870725,-47.2624984666307,-73.5349804040947
1.54244063014343,-117.10518009785,-120.835593271657,-3.73041317380681,118.970386684753,-56.6873834620216,-62.2830032227318
1.54714319304021,-125.770494914612,-123.81294431371,1.95755060090228,124.791719614161,-63.8640227577573,-60.9276968564039
1.55184575593699,-112.423480341445,-117.302829876933,-4.87934953548837,114.863155109189,-53.7720654029781,-61.0910897062107
1.55654831883376,-104.520660100323,-105.969647466604,-1.44898736628153,105.245153783463,-51.5358363670205,-53.7093174164428
1.56125088173054,-98.5835394300615,-96.9309242180265,1.65261521203497,97.757231824044,-50.1180773210482,-47.6391545029958
1.56595344462732,-97.8142825880458,-108.718636802397,-10.9043542143513,103.266459695221,-43.4549641868473,-59.8114955083742
1.5706560075241,-100.144836761056,-102.071383336506,-1.92654657544986,101.108110048781,-49.1091450928029,-51.9989649559777
1.57535857042088,-109.49009560968,-117.158714788495,-7.66861917881468,113.324405199087,-50.9107382154326,-62.4136669836546
1.58006113331766,-98.8063208475476,-93.0344840953288,5.77183675221877,95.9204024714382,-52.2890787998832,-43.631323671555
1.58476369621444,-81.1852450219253,-85.9277798597859,-4.74253483786053,83.5565124408556,-38.2213550920324,-45.3351573488232
1.58946625911122,-65.4927890471781,-55.3218938002279,10.1708952469503,60.407341423703,-37.8318421470642,-22.5754992766388
1.59416882200799,-67.6912197930597,-70.0577943567226,-2.36657456366284,68.8745070748911,-32.6623226146984,-36.2121844601927
1.59887138490477,-78.5589283300535,-81.5455250827697,-2.9865967527162,80.0522267064116,-37.7861657886686,-42.2660609177429
1.60357394780155,-96.0397952534173,-101.803122261267,-5.76332700784988,98.9214587573422,-45.1382341227837,-53.7832246345585
1.60827651069833,-117.13957608294,-128.89126987518,-11.75169379224,123.01542297906,-52.6939411453499,-70.3214818337099
1.61297907359511,-137.870587588831,-135.906285135075,1.96430245375552,136.888436361953,-69.917445021293,-66.9709913406597
1.61768163649189,-123.949985937493,-128.559389825774,-4.60940388828111,126.254687881634,-59.6702910246061,-66.5843968570278
1.62238419938867,-123.538582794981,-121.26994586727,2.26863692771113,122.404264331125,-62.903609861346,-59.5006544697793
1.62708676228545,-129.797958331621,-128.314218621251,1.48373971036992,129.056088476436,-65.6408490209952,-63.4152394554404
1.63178932518222,-129.241134955034,-135.997118706237,-6.75598375120296,132.619126830635,-61.2425756019155,-71.3765512287199
1.636491888079,-127.191767572379,-125.236759591948,1.95500798043172,126.214263582164,-64.5733877764056,-61.640875805758
1.64119445097578,-128.538120079092,-124.841775805402,3.69634427368914,126.689947942247,-66.1172321763903,-60.5727157658566
1.64589701387256,-118.351984478819,-108.505462962524,9.84652151629538,113.428723720672,-64.0992529975574,-49.3294707231143
1.65059957676934,-73.8867575609557,-55.1694771626898,18.7172803982658,64.5281173618228,-46.3020189796107,-18.226098382212
1.65530213966612,12.141665529316,64.5923492652969,52.450683735981,-38.3670073973065,-20.1545091033325,58.521516500639
1.6600047025629,130.607962087978,229.113844485112,98.505882397134,-179.860903286544,16.0510398454218,163.809863441123
1.66470726545968,274.514207422195,400.151403339931,125.637195917736,-337.332805381063,74.4385057522294,262.894299628833
1.66940982835645,431.556927367643,588.81004068658,157.253113318937,-510.183484027112,137.151907024353,373.031577002758
1.67411239125323,574.314332013636,736.8118909907,162.497558977064,-655.563111502168,205.908386518286,449.654724983882
1.67881495415001,708.951354128192,878.14300936631,169.191655238118,-793.547181747251,269.879849445037,523.667332302214
1.68351751704679,822.882068629629,970.158361132265,147.276292502636,-896.520214880947,337.802888063497,558.71732681745
1.68822007994357,897.361990935704,1027.2846293072,129.922638371491,-962.32331012145,383.719676282106,578.603633839343
1.69292264284035,915.3664093224,998.09480021979,82.7283908973905,-956.730604771095,416.319009212505,540.41159555859
1.69762520573713,864.812276015513,889.837735267586,25.0254592520726,-877.32500564155,419.89340838172,457.431597259829
1.70232776863391,780.627368399995,751.575517504854,-29.0518508951405,-766.101442952425,404.839609647568,361.261833304857
1.70703033153068,675.225009653781,619.760691136201,-55.4643185175798,-647.492850394991,365.34466408568,282.148186309311
1.71173289442746,565.569869020691,497.914448693305,-67.6554203273864,-531.742158856998,316.612644674039,215.129514182959
1.71643545732424,453.950544659965,388.189982238329,-65.7605624216359,-421.070263449147,259.8555535408,161.214709908346
1.72113802022102,357.307911733795,285.155975591252,-72.1519361425431,-321.231943662523,214.729923938169,106.502019724354
1.7258405831178,297.81591846227,236.369795826842,-61.446122635428,-267.092857144556,179.631020548849,87.4618365957071
1.73054314601458,251.392598953663,210.592740995638,-40.7998579580254,-230.992669974651,146.096228455844,84.8964415188062
1.73524570891136,237.17062528855,212.440568568976,-24.7300567195741,-224.805596928763,130.950341004062,93.855255924701
1.73994827180814,228.632484103135,223.585300298842,-5.0471838042935,-226.108892200989,116.839833953714,109.269058247274
1.74465083470491,223.765425645259,214.091765269646,-9.6736603756128,-218.928595457452,116.719543010436,102.209052447017
1.74935339760169,225.094949817094,221.539340076117,-3.55560974097617,-223.317144946605,114.325279779035,108.991865167571
1.75405596049847,229.357324841569,227.294847473841,-2.06247736772775,-228.326086157705,115.709901104648,112.616185053057
1.75875852339525,227.774400264318,228.385712312337,0.611312048019471,-228.080056288328,113.581544108149,114.498512180178
1.76346108629203,220.436621756444,206.748372742871,-13.6882490135733,-213.592497249658,117.062435385009,96.5300618646489
1.76816364918881,198.641642485164,181.75740346144,-16.8842390237243,-190.199522973302,107.762940754444,82.4365822188578
1.77286621208559,158.636564423793,141.852570850156,-16.7839935736367,-150.244567636974,87.7102789987147,62.5342886382596
1.77756877498237,138.109291087766,116.698439864203,-21.4108512235633,-127.403865475984,79.7600711556647,47.6437943203198
1.78227133787914,128.11164094916,105.315994308284,-22.795646640877,-116.713817628722,75.4536437950187,41.2601738337033
1.78697390077592,113.104082842033,91.6449289016604,-21.4591539403729,-102.374505871847,67.2816183912031,35.0928874806437
1.7916764636727,99.6366511253633,68.983634525902,-30.6530165994614,-84.3101428256327,65.1448338624124,19.1653089632203
1.79637902656948,80.3850361154605,62.8300604220122,-17.5549756934483,-71.6075482687363,48.9700059044544,22.6375423642819
1.80108158946626,70.4609861226385,45.9562630812618,-24.5047230413767,-58.2086246019501,47.4828545820076,10.7257700199425
1.80578415236304,54.1115195927701,48.9784366039744,-5.13308298879571,-51.5449780983722,29.6223012907829,21.9226768075893
1.81048671525982,48.8529207738743,23.4959085174136,-25.3570122564607,-36.174414645644,37.1049665151675,-0.930551869523526
1.8151892781566,34.6690750300241,7.98754394881867,-26.6815310812054,-21.3283094894214,30.6753030556147,-9.34699356619337
1.81989184105337,23.8743132460269,2.40754979930217,-21.4667634467247,-13.1409315226645,22.6705383463758,-9.52960682371129
1.82459440395015,10.557661356262,-12.343126881871,-22.9007882381331,0.892732762804486,16.7292247971976,-17.621957560002
1.82929696684693,-9.03951681808554,-26.4902009489853,-17.4506841308997,17.7648588835354,4.2055836564071,-21.9704425399425
1.83399952974371,-15.0949460784013,-39.5952356838758,-24.5002896054745,27.3450908811386,4.70267176353661,-32.0477626446752
1.83870209264049,-31.1551286607742,-40.370006222918,-9.21487756214371,35.7625674418461,-10.9701255493153,-24.7924418925308
1.84340465553727,-32.5900078082526,-38.5305563059349,-5.94054849768229,35.5602820570937,-13.3247296552851,-22.2355524018086
1.84810721843405,-39.2494353284062,-69.5061828262569,-30.2567474978506,54.3778090773316,-4.49634391527782,-49.8814651620537
1.85280978133083,-65.4242118418822,-90.7543353059725,-25.3301234640904,78.0892735739274,-20.0470441888959,-58.0422293850314
1.8575123442276,-66.9262444831137,-94.1917366968826,-27.2654922137689,80.5589905899982,-19.8303761346724,-60.7286144553258
1.86221490712438,-51.9816657199234,-61.6715347070655,-9.68986898714203,56.8266002134944,-21.1458983663907,-35.6807018471037
1.86691747002116,-30.8172948247763,-15.8941479445634,14.9231468802129,23.3557213846699,-22.8702208524946,-0.485500532175227
1.87162003291794,-11.2522175536273,2.70997925516984,13.9621968087971,4.27111914922873,-12.6072071812122,8.3360880319835
1.87632259581472,-16.9217920730647,-11.731533284595,5.19025878846968,14.3266626788299,-11.0560254307672,-3.27063724806268
1.8810251587115,-20.4384728571905,-27.1665889293,-6.72811607210947,23.8025308932453,-6.85517839254054,-16.9473525007047
1.88572772160828,-22.7281327720581,-28.3260152169104,-5.59788244485231,25.5270739944842,-8.56512516360287,-16.9619488308813
1.89043028450506,-27.4561093853946,-31.6601756518694,-4.20406626647483,29.558142518632,-11.6260215594599,-17.9321209591721
1.89513284740183,-24.8341046833508,-34.6226475770432,-9.78854289369232,29.728376130197,-7.52278089482925,-22.2055952353677
1.89983541029861,-35.2870400964393,-43.4348175529405,-8.14777745650123,39.3609288246899,-13.569631319969,-25.7912975047209
1.90453797319539,-42.1674700573139,-47.7185158453428,-5.55104578802894,44.9429929513284,-18.3082121346425,-26.6347808166859
1.90924053609217,-43.6219654081631,-54.2043815782933,-10.5824161701301,48.9131734932282,-16.5197746190165,-32.3933988742117
1.91394309898895,-44.1105473132461,-54.4851053414414,-10.3745580281952,49.2978263273438,-16.8679946425255,-32.4298316848183
1.91864566188573,-34.7427050526851,-28.5573590983265,6.18534595435858,31.6500320755058,-20.4640255035218,-11.186006571984
1.92334822478251,-19.1752967275391,-12.0563808033036,7.11891592423553,15.6158387654213,-13.1471063258873,-2.46873243953401
1.92805078767929,-12.9990533177303,-11.0389160233165,1.96013729441383,12.0189846705234,-7.47959530607208,-4.53938936445134
1.93275335057606,-12.5395952380454,-8.7215549002844,3.81804033776101,10.6305750691649,-8.17881778790321,-2.45175728126169
1.93745591347284,4.36904342743174,-1.50495856412297,-5.87400199155471,-1.43204243165439,5.12152270949323,-3.68948027783884
1.94215847636962,11.240882750369,23.7329106539299,12.4920279035609,-17.4868967021494,-0.625572576595953,18.1124692787454
1.9468610392664,14.1493114492577,31.3614728419202,17.2121613926624,-22.7553921455889,-1.53142497170236,24.2868171172913
1.95156360216318,15.2946887813781,17.7922853400651,2.49759655868696,-16.5434870607216,6.39854611134557,10.144940949376
1.95626616505996,4.18388284041139,-4.57353255695233,-8.75741539736372,0.194824858270472,6.47064911888755,-6.66547397715802
1.96096872795674,-4.76784885749638,-10.8874073916431,-6.11955853414671,7.82762812456974,0.675854838325164,-8.50348296289491
1.96567129085352,-16.6305248997277,-16.4128328665555,0.217692033172142,16.5216788831416,-8.4241084664499,-8.09757041669168
1.97037385375029,-15.5499769045881,-17.0512693631317,-1.50129245854363,16.3006231338599,-7.02434222302222,-9.27628091083767
1.97507641664707,-3.92026366441299,-15.0359954925435,-11.1157318281305,9.47812957847826,3.59773408185877,-13.075863660337
1.97977897954385,-12.5763667327619,-27.006603837738,-14.4302371049762,19.79148528525,0.92693518610713,-20.7184204713571
1.98448154244063,-27.9038090328525,-32.8028120275062,-4.89900299465375,30.3533105301793,-11.5024030190994,-18.85090751108
1.98918410533741,-15.6464139602167,-12.2526156008933,3.39379835932337,13.949514780555,-9.52010615977002,-4.42940862078496
1.99388666823419,3.44111064463666,0.800483567561711,-2.64062707707495,-2.12079710609919,3.04086886085581,-0.92007175475662
1.99858923113097,3.19351627544455,6.95917505105553,3.76565877561098,-5.07634566325004,-0.286071250083214,5.36241691333326
2.00329179402775,11.2550785959593,17.904175376996,6.64909678103675,-14.5796269864776,2.30299090746125,12.2766360790164
2.00799435692452,15.0614308682051,11.9130184617069,-3.14841240649821,-13.487224664956,9.10492163735166,4.38230302760434
2.0126969198213,22.7709647290444,15.7962713759293,-6.97469335311515,-19.2836180524868,14.8728290410798,4.41078901140706
2.01739948271808,22.9783507445129,25.6851525173223,2.70680177280946,-24.3317516309176,10.1357744858517,14.1959771450659
2.02210204561486,26.5647168454596,34.095974902398,7.53125805693846,-30.3303458739288,9.51672939426056,20.8136164796683
2.02680460851164,45.8580321917498,58.9154366381185,13.0574044463687,-52.3867344149342,16.4003138726905,35.9864205422436
2.03150717140842,58.1058545322924,57.7521868552124,-0.353667677079997,-57.9290206937524,29.2297611046862,28.6992595890662
2.0362097343052,38.6253118197847,52.8553568909631,14.2300450711783,-45.7403343553739,12.1976333743032,33.5427009810707
2.04091229720198,37.8307670740987,46.5318772727756,8.70111019867694,-42.1813221734372,14.5648284377109,27.6164937357263
2.04561486009875,30.3803122041802,43.0266926511281,12.6463804469479,-36.7035024276542,8.86696587861619,27.836536549038
2.05031742299553,31.2539209606179,33.8150174501463,2.5610964895285,-32.5344692053821,14.3464122355447,18.1880569698374
2.05501998589231,18.947896449556,18.5030348894384,-0.444861560117602,-18.7254656694972,9.69637900483681,9.0290866646604
2.05972254878909,18.1506724510798,11.9376939458053,-6.21297850527454,-15.0441831984426,12.1818254781772,2.86235772026538
2.06442511168587,19.1760992531701,-0.375254555595856,-19.551353808766,-9.40042234878714,19.3637265309681,-9.96330418218093
2.06912767458265,11.9656654841722,10.4303933061466,-1.53527217802559,-11.1980293951594,6.7504688310989,4.44756056406052
2.07383023747943,18.3662591789499,22.92593494923,4.55967577028015,-20.6460970640899,6.90329170433485,13.7428053597551
2.0785328003762,41.4438108815753,66.0838805759521,24.6400696943767,-53.7638457287637,8.40187059359931,45.3619751351644
2.08323536327298,74.1156410451984,92.4553750859579,18.3397340407595,-83.2855080655781,27.8879535022194,55.3975545633587
2.08793792616976,81.706032193169,84.7286062362837,3.02257404311473,-83.2173192147264,39.3417290750271,43.8755901396992
2.09264048906654,80.0530259391522,89.1996935356052,9.14666759645304,-84.6263597373787,35.4531791713496,49.1731805660291
2.09734305196332,88.4174174509058,80.9647197975059,-7.45269765339984,-84.6910686242058,47.9350575521528,36.756011072053
2.1020456148601,89.9435670827978,84.6679758112208,-5.27559127157697,-87.3057714470093,47.6095791771874,39.6961922698219
2.10674817775688,85.0589760424234,77.5129836650831,-7.54599237734024,-81.2859798537533,46.3024842098818,34.9834956438714
2.11145074065366,68.2566367385588,65.6038716417482,-2.65276509681054,-66.9302541901535,35.4547009176847,31.4755532724688
2.11615330355043,69.5881862355554,72.8690412719498,3.28085503639437,-71.2286137537526,33.1536655995805,38.0749481541721
2.12085586644721,82.0672218416196,96.6526811146446,14.585459273025,-89.3599514781321,33.7408812842973,55.6190701938348
2.12555842934399,99.9016292846148,108.590094205038,8.68846492042285,-104.245861744826,45.606582182096,58.6392795627302
2.13026099224077,107.434996849738,123.649942476651,16.2149456269123,-115.542469663194,45.610025611413,69.9324440517815
2.13496355513755,120.765227111871,131.309200579719,10.5439734678487,-126.037213845795,55.1106268220109,70.926587023784
2.13966611803433,112.607704679251,96.8235593681084,-15.784145311143,-104.71563202368,64.1959249951972,40.5197070284827
2.14436868093111,95.5662219644935,85.1716762878289,-10.3945456766646,-90.3689491261612,52.980383820579,37.3885653055821
2.14907124382789,84.8403561593138,76.8017951584193,-8.03856100089456,-80.8210756588665,46.4394585801042,34.3816170787624
2.15377380672467,85.8844037024819,69.1856806014945,-16.6987231009875,-77.5350421519882,51.2915634017347,26.2434787502535
2.15847636962144,100.088239257722,100.912173916867,0.823934659145124,-100.500206587294,49.6321522992884,50.8680542880061
2.16317893251822,122.93797639221,147.024728096281,24.086751704071,-134.981352244245,49.4256123440695,85.555739900176
2.167881495415,151.63681702341,173.769345169068,22.1325281456575,-162.703081096239,64.7521444388762,97.9509366573625
2.17258405831178,167.011204842708,178.576371264792,11.5651664220844,-172.79378805375,77.7230192103116,95.0707688434382
2.17728662120856,161.752423371039,182.416825443291,20.6644020722522,-172.084624407165,70.5440106493933,101.540613757772
2.18198918410534,162.444496338791,173.464324462937,11.0198281241456,-167.954410400864,75.7123341073229,92.2420762935413
2.18669174700212,159.507541490943,158.64263647602,-0.864905014923323,-159.075088983481,80.1862232529332,78.8888657305482
2.19139430989889,150.713760463031,159.658478809625,8.94471834659407,-155.186119636328,70.8845210582185,84.3015985781096
2.19609687279567,158.039497380773,169.850348167972,11.8108507871993,-163.944922774373,73.1143232967869,90.8305994775859
2.20079943569245,159.135366929409,165.617576569816,6.48220964040704,-162.376471749613,76.3265786445011,86.0498931051117
2.20550199858923,155.273759168301,159.854047934766,4.58028876646429,-157.563903551534,75.3467352009186,82.217168350615
2.21020456148601,146.534126042501,147.512255112827,0.97812907032565,-147.023190577664,72.7779984860879,74.2451920915764
2.21490712438279,142.916261588285,137.697869097736,-5.21839249054852,-140.307065343011,74.0673270394168,66.239738303594
2.21960968727957,139.797690559887,143.399187791919,3.60149723203193,-141.598439175903,68.0980966639275,73.5003425119754
2.22431225017635,135.487419121473,129.385957037628,-6.10146208384492,-132.436688079551,70.7944406026591,61.6422474768917
2.22901481307312,131.058882717169,118.907888824782,-12.1509938923862,-124.983385770976,71.6049383047774,53.3784474661981
2.2337173759699,135.412770060443,129.96898829608,-5.4437817643626,-132.690879178262,70.4282759124028,62.2626032658589
2.23841993886668,139.664375387282,152.542906989625,12.8785316023433,-146.103641188453,63.3929218924692,82.7107192959841
2.24312250176346,143.10980685061,155.903810514791,12.7940036641806,-149.506808682701,65.1579015932149,84.3489070894858
2.24782506466024,138.985552558341,141.220657199645,2.23510464130402,-140.103104878993,68.3752239585184,71.7278809204744
2.25252762755702,127.76472993551,115.721585217294,-12.0431447182162,-121.743157576402,69.9039373268631,51.8392202495389
2.2572301904538,112.412603262945,98.6872984294017,-13.7253048335435,-105.549950846173,63.0689540482443,42.4809967979291
2.26193275335058,88.66346104156,64.9890221451873,-23.6744388963727,-76.8262415933736,56.1689499689663,20.6572916244073
2.26663531624735,45.8830869193068,17.148447988374,-28.7346389309328,-31.5157674538404,37.3088629251198,-5.79309547127938
2.27133787914413,23.0419572951375,-10.8208075236241,-33.8627648187615,-6.1105748857567,28.4523610569495,-22.3417861711928
2.27604044204091,-4.2735095701061,-38.1753068006198,-33.9017972305137,21.2244081853629,14.8141438302038,-36.0385520155667
2.28074300493769,-16.3174934189914,-41.1243690563771,-24.8068756373857,28.7209312376842,4.24469110919716,-32.9656223468814
2.28544556783447,-8.27348753916632,-16.3946984929978,-8.12121095383149,12.3340930160821,-0.0761382926674141,-12.2579547234147
2.29014813073125,3.64206904584731,5.29408423828133,1.65201519243402,-4.46807664206432,0.995026926706645,3.47304971535767
2.29485069362803,15.0090628331669,18.6186575258049,3.60959469263792,-16.8138601794859,5.69973407026451,11.1141261092214
2.29955325652481,18.7905016155252,17.4027251828971,-1.38777643262806,-18.0966133992111,10.0891390240766,8.00747437513452
2.30425581942158,15.1650684298104,4.39224976655435,-10.772818663256,-9.77865909818238,12.9689435465332,-3.19028444835085
2.30895838231836,-4.22942957267051,-22.6809517426099,-18.4515221699394,13.4551906576402,7.11104629863447,-20.5662369562747
2.31366094521514,-16.1177477446773,-36.7389528005912,-20.621205055914,26.4283502726343,2.25172865561834,-28.6800789282526
2.31836350811192,-39.4178493276367,-47.5988677003556,-8.18101837271892,43.5083585139962,-15.6184154774589,-27.8899430365373
2.3230660710087,-58.5625650691928,-72.7816521023085,-14.2190870331156,65.6721085857506,-22.1717390180386,-43.500369567712
2.32776863390548,-74.1522407376166,-93.5825775504644,-19.4303368128478,83.8674091440405,-27.3609519623844,-56.5064571816561
2.33247119680226,-97.751381477884,-118.311495994857,-20.5601145169726,108.03143873637,-38.5956334804557,-69.4358052559146
2.33717375969904,-109.21504663396,-132.137516392634,-22.9224697586744,120.676281513297,-43.1462884376427,-77.5299930756543
2.34187632259581,-97.3761383762055,-115.87763573969,-18.5014973634841,106.626887057948,-39.4373205063607,-67.1895665515869
2.34657888549259,-93.7812075696948,-90.4972950683546,3.28391250134015,92.1392513190247,-48.5325600355175,-43.6066912835072
2.35128144838937,-85.9380327726574,-86.5318485065219,-0.593815733864474,86.2349406395896,-42.6721085193965,-43.5628321201932
2.35598401128615,-81.7788923928681,-84.8533420255892,-3.0744496327211,83.3161172092287,-39.3522213800735,-43.9638958291552
2.36068657418293,-89.8604631722209,-85.6797966787515,4.18066649346937,87.7701299254862,-47.0205648328451,-40.7495650926411
2.36538913707971,-93.8523345938469,-90.8193382432478,3.03299635059912,92.3358364185473,-48.442665472223,-43.8931709463243
2.37009169997649,-97.3161436345807,-104.980052069295,-7.66390843471385,101.148097851938,-44.8261175999334,-56.3219802520042
2.37479426287327,-109.07333646734,-112.175178368581,-3.10184190124046,110.624257417961,-52.98574728305,-57.6385101349107
2.37949682577004,-124.975901716801,-125.414019926877,-0.438118210075984,125.194960821839,-62.2688917533627,-62.9260690684767
2.38419938866682,-136.343193610311,-144.580936384149,-8.23774277383833,140.46206499723,-64.0527254182361,-76.4093395789936
2.3889019515636,-147.773544371238,-170.334625138597,-22.5610807673591,159.054084754918,-62.6062318019394,-96.4478529529781
2.39360451446038,-148.170146783743,-159.771072727596,-11.6009259438537,153.97060975567,-68.2846104199445,-85.6859993357251
2.39830707735716,-136.591403328518,-141.297434034478,-4.70603070595988,138.944418681498,-65.9426863112791,-73.0017323702189
2.40300964025394,-128.359075766817,-120.131930538959,8.22714522785785,124.245503152888,-68.2931104973375,-55.9523926555507
2.40771220315072,-124.501855739864,-131.530899583951,-7.02904384408693,128.016377661908,-58.7364059478886,-69.279971714019
2.4124147660475,-124.998524861125,-118.08495984659,6.91356501453481,121.541742353857,-65.9560449378298,-55.5856974160276
2.41711732894427,-121.003819368981,-113.643171465003,7.36064790397859,117.323495416992,-64.18223363648,-53.1412617805121
2.42181989184105,-112.741949081636,-111.553545372514,1.18840370912214,112.147747227075,-56.9651763953791,-55.1825708316959
2.42652245473783,-120.681522488535,-136.195076224577,-15.513553736042,128.438299356556,-52.5839843762467,-75.8543149803097
2.43122501763461,-128.916223106253,-137.994334864993,-9.07811175874045,133.455278985623,-59.9190556737563,-73.536223311867
2.43592758053139,-136.478009971285,-147.644121628331,-11.1661116570461,142.061065799808,-62.6559491571194,-79.4051166426886
2.44063014342817,-128.294762104167,-127.049360651342,1.2454014528258,127.672061377755,-64.7700817784966,-62.9019795992579
2.44533270632495,-113.050342083424,-106.270384813791,6.77995726963306,109.660363448608,-59.9151496765287,-49.7452137720791
2.45003526922173,-105.622747897134,-98.7326264621292,6.89012143500453,102.177687179632,-56.2564346660692,-45.9212525135624
2.4547378321185,-97.4218113526595,-92.0585205017014,5.36329085095809,94.7401659271804,-51.3925511018088,-43.3476148253716
2.45944039501528,-101.068953886249,-100.736497215511,0.332456670738793,100.90272555088,-50.7007052784941,-50.2020202723859
2.46414295791206,-105.519634760515,-107.218379593257,-1.69874483274174,106.369007176886,-51.9104449638866,-54.4585622129992
2.46884552080884,-117.255164595057,-120.729428940896,-3.47426434583861,118.992296767976,-56.8904501246092,-62.1018466433671
2.47354808370562,-120.489471363035,-118.855754278845,1.63371708419049,119.67261282094,-61.0615942236129,-58.6110185973272
2.4782506466024,-112.900939358253,-125.641642530817,-12.7407031725649,119.271290944535,-50.0801180928438,-69.1911728516912
2.48295320949918,-117.413275663375,-126.347289873003,-8.93401420962783,121.880282768189,-54.2396307268734,-67.6406520413152
2.48765577239596,-124.629269714799,-123.031859763473,1.59740995132553,123.830564739136,-63.1133398330621,-60.7172249060738
2.49235833529273,-120.342917650045,-123.721490239058,-3.37857258901336,122.032203944551,-58.4821725305156,-63.5500314140357
2.49706089818951,-128.97829701379,-134.566071433687,-5.58777441989685,131.772184223738,-61.6952612969464,-70.0769229267917
2.50176346108629,-121.199013228941,-117.076279761476,4.12273346746586,119.137646495208,-62.6608733482036,-56.4767731470048
2.50646602398307,-112.480154013196,-118.697020445423,-6.21686643222623,115.588587229309,-53.1316437904851,-62.4569434388244
2.51116858687985,-105.196380571209,-109.871819591904,-4.67543902069534,107.534100081557,-50.2604707752568,-57.2736293062999
2.51587114977663,-109.8224344531,-110.969450905367,-1.14701645226758,110.395942679234,-54.3377090004161,-56.0582336788174
2.52057371267341,-112.823801500171,-115.50595259579,-2.68215109561976,114.16487704798,-55.0708252022754,-59.0940518457051
2.52527627557019,-112.530273223292,-119.59057414044,-7.06030091714786,116.060423681866,-52.7349861530723,-63.3254375287941
2.52997883846696,-117.501516275431,-107.272225682836,10.2292905925949,112.386870979134,-63.865403434013,-48.5214675451208
2.53468140136374,-97.864877070726,-98.0328957095783,-0.168018638852303,97.9488863901522,-48.8484292159369,-49.1004571742153
2.53938396426052,-92.9534117808757,-87.5096244991975,5.4437872816782,90.2315181400366,-49.1985995312769,-41.0329186087597
2.5440865271573,-105.179668225832,-117.162327732945,-11.9826595071134,111.170997979388,-46.5985043593592,-64.5724936200293
2.54878909005408,-117.606868685512,-134.579835919631,-16.972967234119,126.093352302571,-50.3169507256965,-75.7764015768749
2.55349165295086,-124.653885469963,-127.72694753217,-3.07306206220672,126.190416501066,-60.7904117038782,-65.4000047971883
2.55819421584764,-104.832763595882,-111.432876222718,-6.60011262683666,108.1328199093,-49.1163254845225,-59.0164944247775
2.56289677874442,-93.8930137221498,-71.7702956869891,22.1227180351607,82.8316547045695,-58.0078658786553,-24.8237888259142
2.56759934164119,-74.5045704994052,-67.4773530940126,7.02721740539262,70.9909617967089,-40.7658939523989,-30.22506784431
2.57230190453797,-85.5420548374174,-76.212290804128,9.32976403328935,80.8771728207727,-47.4359094353534,-33.4412633854193
2.57700446743475,-97.3769700022206,-97.1223899422574,0.254580059963203,97.249679972239,-48.8157750310919,-48.4339049411471
2.58170703033153,-113.387161148692,-138.389455896023,-25.0022947473313,125.888308522357,-44.1924332006802,-81.6958753216772
2.58640959322831,-128.677854381972,-147.694905377276,-19.0170509953047,138.186379879624,-54.8304016933334,-83.3559781862905
2.59111215612509,-120.617195307615,-119.096082093934,1.52111321368102,119.856638700775,-61.0691542606481,-58.7874844401265
2.59581471902187,-105.351997675239,-98.6004632207467,6.75153445449277,101.976230447993,-56.0517660648661,-45.9244643831269
2.60051728191865,-89.9053260974757,-83.1192910164825,6.78603508099322,86.5123085569791,-48.3456805892345,-38.1666279677446
2.60521984481542,-78.0186098858844,-68.7543308843343,9.26427900155011,73.3864703851094,-43.6414444437173,-29.7450259413921
2.6099224077122,-66.4401182553139,-62.2393365861415,4.2007816691724,64.3397274207277,-35.3204499622432,-29.0192774584846
2.61462497060898,-66.5244701383352,-72.0019842041101,-5.47751406577495,69.2632271712227,-30.5234780362801,-38.7397491349425
2.61932753350576,-81.8850251903085,-89.206227527876,-7.32120233756746,85.5456263590922,-37.2819114263705,-48.2637149327217
2.62403009640254,-109.181094671936,-119.428518883877,-10.2474242119409,114.304806777907,-49.4668352299978,-64.8379715479091
2.62873265929932,-117.164715171662,-126.001733725868,-8.83701855420615,121.583224448765,-54.1638483087278,-67.419376140037
2.6334352221961,-113.043548841916,-125.581616073579,-12.5380672316638,119.312582457748,-50.252740805126,-69.0598416526216
2.63813778509288,-112.857973279154,-111.353969751681,1.5040035274731,112.105971515417,-57.1809884033135,-54.9249831121038
2.64284034798965,-117.013899370287,-116.782955848389,0.23094352189753,116.898427609338,-58.6224214460921,-58.2760061632458
2.64754291088643,-109.373995907177,-110.930438016681,-1.55644210950341,110.152216961929,-53.908776898837,-56.2434400630921
2.65224547378321,-109.0993745021,-108.581132657424,0.518241844675856,108.840253579762,-54.8088081733877,-54.0314454063739
2.65694803667999,-116.745426322106,-103.798725653062,12.9467006690444,110.272075987584,-64.8460634955753,-45.4260124920087
2.66165059957677,-109.299026070695,-106.488598267022,2.81042780367244,107.893812168858,-56.0547269371835,-51.8390852316749
2.66635316247355,-113.305118192055,-98.505755417333,14.7993627747219,105.905436804694,-64.0522404833884,-41.8531963213056
2.67105572537033,-101.248640243137,-80.4717143139145,20.7769259292226,90.8601772785258,-61.0127830861799,-29.8473941923459
2.67575828826711,-81.8380390988913,-77.7824300621944,4.05560903669691,79.8102345805428,-42.9468240677941,-36.8634105127487
2.68046085116388,-74.4900771177243,-71.8772203794868,2.61285673823745,73.1836487486055,-38.5514669279809,-34.6321818206247
2.68516341406066,-70.3537792561167,-73.9200207908384,-3.56624153472174,72.1369000234776,-33.3937688606975,-38.7431311627801
2.68986597695744,-73.9568575248052,-76.8046005243477,-2.84774299954242,75.3807290245765,-35.5545572626314,-39.826171761945
2.69456853985422,-82.1685007525284,-75.03938543532,7.12911531720833,78.6039430939242,-44.6488080348683,-33.9551350590558
2.699271102751,-86.0855029589738,-102.25549093309,-16.1699879741163,94.1704969460319,-34.9577574924288,-59.2127394536032
2.70397366564778,-116.608172202651,-123.501586477233,-6.89341427458241,120.054879339942,-54.8573789640343,-65.1975003759079
2.70867622854456,-128.534515206623,-143.851948947205,-15.3174337405824,136.193232076914,-56.6085407330203,-79.5846913438939
2.71337879144134,-140.74174747474,-149.375338988865,-8.63359151412473,145.058543231803,-66.0540779803077,-79.0044652514948
2.71808135433811,-128.509326053179,-132.196533917996,-3.68720786481697,130.352929985587,-62.4110590941809,-67.9418708914063
2.72278391723489,-112.601124550817,-108.007079232489,4.5940453183288,110.304101891653,-58.5975849345731,-51.7065169570799
2.72748648013167,-109.475889031007,-98.2573384949545,11.2185505360521,103.866613762981,-60.3472197835294,-43.5193939794512
2.73218904302845,-97.831210091486,-90.4627204572374,7.36848963424866,94.1469652743617,-52.5998498628673,-41.5471154114943
2.73689160592523,-97.0989397802409,-108.108194794146,-11.009255013905,102.603567287193,-43.044842383168,-59.5587249040254
2.74159416882201,-101.327546768688,-105.107806918161,-3.78026014947338,103.217676843425,-48.7736433096072,-54.4440335338173
2.74629673171879,-101.868975522568,-98.7287710153031,3.14020450726498,100.298873268936,-52.5045900149165,-47.7942832540191
2.75099929461557,-93.5660146934626,-97.1719987121241,-3.60598401866143,95.3690067027933,-44.9800153374006,-50.3889913653927
2.75570185751234,-101.046872280987,-96.396259755228,4.65061252575913,98.7215660181076,-52.8487424033731,-45.8728236147345
2.76040442040912,-101.610187259833,-98.3817184971432,3.22846876268954,99.995952878488,-52.4193280112612,-47.5766248672268
2.7651069833059,-97.8110610914711,-98.3482402981812,-0.537179206710007,98.0796506948261,-48.6369409423806,-49.4427097524456
2.76980954620268,-101.188398793293,-96.2830252087473,4.9053735845454,98.73571200102,-53.0468861889191,-45.688825812101
2.77451210909946,-93.4803038138839,-81.7036253925966,11.7766784212873,87.5919646032403,-52.6284911175856,-34.9634734856547
2.77921467199624,-86.1650866682166,-79.5586772762579,6.60640939195869,82.8618819722373,-46.3857480300876,-36.4761339421496
2.78391723489302,-82.0843713498778,-73.8560039224322,8.22836742744565,77.970187636155,-45.1563693886617,-32.8138182474933
2.7886197977898,-85.5635472904947,-80.5940633135951,4.96948397689962,83.0788053020449,-45.2665156336972,-37.8122896683477
2.79332236068657,-85.9050273659781,-98.4962445601624,-12.5912171941843,92.2006359630702,-36.6569050858969,-55.5437308771733
2.79802492358335,-97.8529488182973,-114.074599065447,-16.2216502471497,105.963773941872,-40.8156492855738,-65.1481246562983
2.80272748648013,-101.279450535856,-111.67078120524,-10.3913306693847,106.475115870548,-45.4440599332354,-61.0310559373125
2.80743004937691,-120.550082952555,-124.287898981106,-3.73781602855095,122.41899096683,-58.4061334620018,-64.0128575048283
2.81213261227369,-124.951294553213,-130.103562960632,-5.1522684074187,127.527428756922,-59.8995130728971,-67.6279156840252
2.81683517517047,-124.974494612103,-120.632733852308,4.34176075979509,122.803614232205,-64.6581276859491,-58.1454865462564
2.82153773806725,-112.811658942181,-100.123923930779,12.6877350114018,106.46779143648,-62.7496969767913,-43.7180944596886
2.82624030096403,-101.232326619398,-86.5844901278628,14.6478364915349,93.9084083736302,-57.9400815554663,-35.9683268181639
2.8309428638608,-82.3116421075126,-63.4453415702633,18.8663005372493,72.8784918388879,-50.5889713223809,-22.289520516507
2.83564542675758,-78.2282672442255,-65.4356420226255,12.7926252216,71.8319546334255,-45.5104462329127,-26.3215084005128
2.84034798965436,-73.8459453454359,-69.9007704248387,3.9451749205972,71.8733578851373,-38.8955601330166,-32.9777977521208
2.84505055255114,-66.4810091532825,-59.8398087661304,6.64120038715205,63.1604089597065,-36.5611047702173,-26.5993041894892
2.84975311544792,-63.0737907854754,-54.9110860700932,8.16270471538221,58.9924384277843,-35.6182477504288,-23.3741906773555
2.8544556783447,-58.5332034709288,-53.6822355904165,4.85096788051225,56.1077195306727,-31.6920856757205,-24.4156338549521
2.85915824124148,-65.9387284905372,-58.8820255224888,7.05670296804841,62.410377006513,-36.4977157292928,-25.9126612772202
2.86386080413826,-86.2214259997228,-102.350452830128,-16.1290268304055,94.2859394149255,-35.0461995846587,-59.2397398302669
2.86856336703503,-113.515771784122,-124.216955148364,-10.701183364242,118.866363466243,-51.4072942099399,-67.459069256303
2.87326592993181,-104.862684735777,-108.632947728017,-3.77026299224026,106.747816231897,-50.5462108717682,-56.2016053601286
2.87796849282859,-97.3626690756417,-106.055067355453,-8.69239827981141,101.708868215547,-44.3351353979151,-57.3737328176323
2.88267105572537,-101.884079308687,-97.5809192196184,4.30316008906853,99.7324992641527,-53.0936196988777,-46.6388795652749
2.88737361862215,-101.277673333387,-96.7331593027051,4.54451403068195,99.0054163180461,-52.9110936820345,-46.0943226360116
2.89207618151893,-97.2205985600281,-105.662900880273,-8.44230232024455,101.44174972015,-44.3891481198918,-57.0526016002586
2.89677874441571,-105.658343479542,-98.0867121573075,7.57163132223484,101.872527818425,-56.6149874008886,-45.2575404175364
2.90148130731249,-97.5796231343861,-96.9112307875292,0.66839234685682,97.2454269609577,-49.1240077406214,-48.1214192203362
2.90618387020926,-89.4200657111481,-97.3079913656602,-7.88792565451217,93.3640285384042,-40.7660700283179,-52.5979585100862
2.91088643310604,-93.8788562011465,-86.5433931952374,7.33546300590913,90.211124698192,-50.6071596035278,-39.6039650946641
2.91558899600282,-78.3070700293982,-70.2912484861314,8.01582154326674,74.2991592577648,-43.1614457863325,-31.1377134714323
2.9202915588996,-66.1615194761864,-65.909423552997,0.25209592318943,66.0354715145917,-33.2068076996879,-32.8286638149038
2.92499412179638,-70.3775166094576,-66.6459646403471,3.73155196911043,68.5117406249023,-37.054534289284,-31.4572063356184
2.92969668469316,-74.4388757654248,-78.4431307931468,-4.00425502772204,76.4410032792858,-35.2173103688514,-41.2236929104344
2.93439924758994,-97.3226735521921,-116.649121990168,-19.3264484379756,106.98589777118,-38.9981125571083,-67.9877852140716
2.93910181048672,-109.15917086843,-120.676048057884,-11.5168771894541,114.917609463157,-48.8211468394878,-66.0964626236689
2.94380437338349,-101.787249130515,-90.2537902439005,11.5334588866142,96.0205196872076,-56.6603540085644,-39.3601656786432
2.94850693628027,-74.1802451596249,-70.4254376122266,3.75480754739824,72.3028413859257,-38.9675263535116,-33.3353150324142
2.95320949917705,-58.3439483332007,-38.6552764249683,19.6886719082325,48.4996123790845,-39.0163101207166,-9.48330225836792
2.95791206207383,-51.0715950542886,-47.0630266494176,4.00856840487101,49.0673108518531,-27.5400817295798,-21.5272291222733
2.96261462497061,-62.8400580248114,-59.2904427865034,3.54961523830801,61.0652504056574,-33.1948366315597,-27.8704137740977
2.96731718786739,-66.2730725029833,-74.0409085942872,-7.76783609130383,70.1569905486352,-29.2526182058397,-40.9043723427955
2.97201975076417,-66.3875540940018,-54.4086875227205,11.9788665712813,60.3981208083611,-39.1832103326415,-21.2149104757196
2.97672231366095,-39.6125727599697,-24.2252540745783,15.3873186853914,31.918913417274,-27.4999457226805,-4.41896769459344
2.98142487655772,-23.7760592756106,-4.55429011463953,19.221769160971,14.165174695125,-21.4989142182908,7.33373952316575
2.9861274394545,-15.6082310760926,0.2422267360733,15.8504578121659,7.68300217000964,-15.7293444441292,8.04634227411958
2.99083000235128,-12.1834117651808,-4.36529229493704,7.81811947024375,8.27435203005891,-10.0007656177123,1.72641358765336
2.99553256524806,-24.1810912118246,-16.7568238293753,7.42426738244925,20.4689575206,-15.8026792971369,-4.66627822346305
3.00023512814484,-39.0633927312919,-46.6556564112804,-7.59226367998851,42.8595245712862,-15.7355645256517,-27.1239600456345
3.00493769104162,-50.5548170637487,-61.8772323875411,-11.3224153237924,56.2160247256449,-19.6162008699781,-36.5998238556667
3.0096402539384,-70.7845342204071,-90.552971718053,-19.7684374976459,80.66875296923,-25.5080483613806,-55.1607046078495
3.01434281683518,-86.1657897051543,-94.1322197135702,-7.96643000841588,90.1490047093623,-39.0996798483692,-51.0493248609931
3.01904537973195,-66.0045831807176,-77.1401560910644,-11.1355729103468,71.572369635891,-27.4345051351854,-44.1378645007056
3.02374794262873,-47.1081324615596,-35.4597825846321,11.6483498769275,41.2839575230959,-29.3782411692436,-11.9057163538523
3.02845050552551,-20.3519987203353,-13.1376980870681,7.2143006332672,16.7448484037017,-13.7831496768013,-2.96169872690047
3.03315306842229,11.4588486772621,27.3412344503909,15.8823857731288,-19.4000415638265,-2.21176854793338,21.6118101117599
3.03785563131907,27.0218309061384,43.042414712466,16.0205838063276,-35.0321228093022,5.50062354990542,29.5314992593968
3.04255819421585,37.9708698349309,52.8529367588409,14.88206692391,-45.4119032968859,11.5444014555104,33.8675018413755
3.04726075711263,26.6588979379475,38.1401764859508,11.4812785480033,-32.3995372119491,7.58880969497211,24.810727516977
3.0519633200094,11.6054578988613,16.3846152791599,4.77915738029861,-13.9950365890106,3.41315025928133,10.5818863297292
3.05666588290618,-4.55400635921313,-8.6789411878535,-4.12493482864036,6.61647377353331,-0.214535765286385,-6.40193800824693
3.06136844580296,-16.3836983295421,-25.0515551943544,-8.66785686481228,20.7176267619483,-3.85792073236493,-16.8597060295834
3.06607100869974,-19.5356490279574,-34.2967908639785,-14.7611418360211,26.916219945968,-2.38725359596815,-24.5289663499998
3.07077357159652,-35.1983217613965,-38.4191664973015,-3.22084473590501,36.808744129349,-15.9887385127458,-20.8200056166033
3.0754761344933,-35.8574321876915,-52.5953577134776,-16.7379255257861,44.2263949505846,-9.55975333095272,-34.6666416196318
3.08017869739008,-43.2538674565829,-39.4852990791879,3.76856837739493,41.3695832678854,-23.5112179169889,-17.8583653508965
3.08488126028686,-46.6168941200995,-33.5540870433437,13.0628070767558,40.0854905817216,-29.8398505984276,-10.245639983294
3.08958382318363,-31.6671826337405,-36.0287025965514,-4.36151996281088,33.847942615146,-13.6528313354648,-20.1951112796812
3.09428638608041,-20.3675973926543,-9.96888547622388,10.3987119164304,15.1682414344391,-15.3831546545424,0.214913220103268
3.09898894897719,-11.783012709954,-14.5856514965906,-2.80263878663661,13.1843321032723,-4.49018696165871,-8.69414514161363
3.10369151187397,-27.1456101360778,-26.2297994764967,0.915810659581108,26.6877048062873,-14.0307103978295,-12.6569944084578
3.10839407477075,-35.9220524038812,-56.8331981599309,-20.9111457560497,46.377625281906,-7.50545332391575,-38.8721719579903
3.11309663766753,-51.4001432054251,-59.5065002912804,-8.1063570858553,55.4533217483528,-21.6468930597849,-33.8064286885679
3.11779920056431,-50.283010036642,-56.3293701910902,-6.04636015444821,53.3061901138661,-22.1183249410969,-31.1878651727692
3.12250176346109,-58.4166449210809,-78.1075367810687,-19.6908918599878,68.2620908510748,-19.3628765305465,-48.8992143205282
3.12720432635787,-78.8975595373039,-103.787563295717,-24.890003758413,91.3425614165104,-27.0037778894455,-64.3387835270649
3.13190688925464,-89.819975676908,-92.8495951126599,-3.02961943575185,91.3347853947839,-43.3951781205781,-47.9396072742059
3.13660945215142,-77.4031366983294,-76.1554351985233,1.24770149980607,76.7792859484264,-39.3254190990677,-37.4538668493586
3.1413120150482,-74.5194531724671,-75.7249465157052,-1.20549334323813,75.1221998440862,-36.6569799146145,-38.4652199294717
3.14601457794498,-70.9122755401669,-71.6053492995297,-0.693073759362818,71.2588124198483,-35.109600890402,-36.1492115294463
3.15071714084176,-81.4424412715976,-76.1578145280418,5.28462674355578,78.8001278998197,-43.3635340075767,-35.436593892243
3.15541970373854,-85.57972471515,-85.4189650319405,0.160759683209506,85.4993448735452,-42.8702421991797,-42.6291026743655
3.16012226663532,-86.6445154165557,-103.461356959358,-16.8168415428021,95.0529361879567,-34.9138369368768,-60.1390992510799
3.16482482953209,-97.5224063508579,-89.4483609874206,8.07404536343724,93.4853836691393,-52.7982258571475,-40.6871578119917
3.16952739242887,-81.229544409098,-87.9819025302273,-6.7523581211293,84.6057234696627,-37.2385931439844,-47.3671303256783
3.17422995532565,-82.4379425514317,-75.2075168518156,7.23042569961612,78.8227297016236,-44.8341841255239,-33.9885455760997
3.17893251822243,-82.5888184532796,-90.9932081925965,-8.40438973931683,86.791013322938,-37.0922143569814,-49.6987989659566
3.18363508111921,-85.0847494270659,-84.4288304961764,0.655918930889442,84.7567899616212,-42.8703341789777,-41.8864557826435
3.18833764401599,-85.7000856534808,-89.2512811236419,-3.55119547016109,87.4756833885613,-41.0744450916598,-46.4012382969015
3.19304020691277,-86.8907057096325,-91.3685236256214,-4.47781791598895,89.129614667627,-41.2064438968218,-47.9231707708052
3.19774276980955,-93.3189428784183,-101.111057635403,-7.79211475698483,97.2150002569107,-42.7634140607167,-54.451586196194
3.20244533270632,-104.314466833143,-111.611660494688,-7.29719366154485,107.963063663916,-48.5086365857993,-59.4544270781166
3.2071478956031,-117.805089262876,-121.821507231452,-4.01641796857638,119.813298247164,-56.8943356471496,-62.9189626000142
3.21185045849988,-102.198989769272,-94.7117798281918,7.48720994108054,98.455384798732,-54.8430998551764,-43.6122849435556
3.21655302139666,-80.8302267410165,-68.9716397223826,11.8585870186339,74.9009332316996,-46.3444068798252,-28.5565263518743
3.22125558429344,-66.128308872711,-54.3112421451871,11.8170667275239,60.2197755089491,-38.9726878001174,-21.2470877088316
3.22595814719022,-67.7621639939877,-60.1193645817408,7.64279941224685,63.9407642878643,-37.7024817031173,-26.238282584747
3.230660710087,-70.1403365497954,-66.3113484308242,3.82898811897115,68.2258424903098,-36.9846623343833,-31.2411801559265
3.23536327298378,-76.9112519309866,-80.7405058068764,-3.82925387588988,78.8258788689315,-36.5409990275483,-42.2848798413832
3.24006583588055,-102.109968595822,-109.802962911174,-7.69299431535201,105.956465753498,-47.2084871402348,-58.7479786132628
3.24476839877733,-110.08644081739,-117.810864676778,-7.72442385938828,113.948652747084,-51.1810084790007,-62.7676442680831
3.24947096167411,-131.458397655704,-143.229022347535,-11.7706246918306,137.343710001619,-59.8438864819366,-77.4998235196826
3.25417352457089,-135.903731304482,-151.458392795423,-15.5546614909408,143.681062049952,-60.1745349067705,-83.5065271431817
3.25887608746767,-133.718764528399,-129.6431270064,4.07563752199911,131.680945767399,-68.8972010251989,-62.7837447422002
3.26357865036445,-120.857884842203,-117.018329623874,3.83955521832954,118.938107233038,-62.3487200302663,-56.589387202772
3.26828121326123,-115.683001686738,-119.671879132745,-3.98887744600658,117.677440409741,-55.8470621203658,-61.8303782893756
3.27298377615801,-117.335737978041,-109.417394134423,7.91834384361825,113.376566056232,-62.6270409108296,-50.7495251454022
3.27768633905478,-106.445983949057,-94.8428731708152,11.6031107782418,100.644428559936,-59.0245473636494,-41.6198811962867
3.28238890195156,-73.5906811004179,-54.2972477119988,19.2934333884192,63.9439644062084,-46.4420572444185,-17.5019071617898
3.28709146484834,-19.1155408849626,16.0359717291869,35.1515126141496,1.53978457788785,-27.1335267495561,25.5937421716682
3.29179402774512,49.0377682022155,114.97452065612,65.9367524539047,-82.0061444291679,-8.44949212584461,90.4556365550125
3.2964965906419,150.407335641951,247.166295178834,96.7589595368829,-198.786815410393,26.8241880525341,171.962627357858
3.30119915353868,276.079241895427,408.413585227963,132.334343332536,-342.246413561695,71.8724492814453,270.37396428025
3.30590171643546,418.929476231789,562.903011379233,143.973535147444,-490.916243805511,137.477970542172,353.438273263339
3.31060427933224,569.355034164217,724.16612176854,154.811087604323,-646.760577966379,207.271973279947,439.488604686432
3.31530684222901,710.17038958111,888.574551731409,178.4041621503,-799.37247065626,265.883113715405,533.489356940854
3.32000940512579,835.038428191718,998.795708611837,163.757280420119,-916.917068401778,335.640573885799,581.276494515978
3.32471196802257,911.683501286671,1036.14458840941,124.461087122737,-973.914044848039,393.611207081967,580.302837766072
3.32941453091935,927.032126235109,1000.0903304721,73.0582042369866,-963.561228353602,426.986960999061,536.574267354541
3.33411709381613,892.960249191978,908.407068442175,15.4468192501977,-900.683658817077,438.75671497089,461.926943846187
3.33881965671291,819.007843817738,808.127101869775,-10.8807419479626,-813.567472843757,414.94429288285,398.623179960906
3.34352221960969,709.638388432099,662.901471446714,-46.7369169853848,-686.269929939406,378.187652708742,308.082277230664
3.34822478250647,577.955961352783,495.685031933402,-82.2709294193813,-536.820496643093,330.113445386082,206.70705125701
3.35292734540324,457.860298414462,365.078955297122,-92.7813431173406,-411.469626855792,275.320820765901,136.148806089891
3.35762990830002,368.130281338865,294.856896291286,-73.273385047579,-331.493588815076,220.701833193222,110.791755621854
3.3623324711968,298.290785323093,251.010167528569,-47.2806177945233,-274.650476425831,172.785701558808,101.864774867023
3.36703503409358,252.053117981138,205.384861367116,-46.6682566140229,-228.718989674127,149.360687297581,79.3583023765463
3.37173759699036,220.740429317035,202.218510200719,-18.5219191163159,-211.479469758877,119.631174216675,91.8482955422017
3.37644015988714,220.614766046055,208.550961479009,-12.0638045670465,-214.582863762532,116.339285306551,98.2435784559811
3.38114272278392,224.82670213966,224.085479548241,-0.741222591419472,-224.456090843951,112.78396236554,111.672128478411
3.3858452856807,217.042730479952,233.511304238838,16.4685737588864,-225.277017359395,100.287078360533,124.989938998862
3.39054784857747,228.4464556299,228.869357146774,0.422901516873992,-228.657906388337,114.011777056513,114.646129331824
3.39525041147425,224.6572110826,227.372217758064,2.715006675464,-226.014714420332,110.971102203568,115.043612216764
3.39995297437103,209.333723992985,209.402240615268,0.068516622282857,-209.367982304127,104.632603685351,104.735378618775
3.40465553726781,197.55168517248,187.167820507109,-10.3838646653713,-192.359752839795,103.967774918926,88.3919779208689
3.40935810016459,174.071326375362,158.019967985929,-16.0513583894335,-166.045647180645,95.0613423823978,70.9843047982475
3.41406066306137,139.360105240033,103.311351066485,-36.0487541735474,-121.335728153259,87.70442970679,33.6312984464689
3.41876322595815,104.512845462253,89.9285099954254,-14.5843354668271,-97.220677728839,59.5485904645398,37.6720872642992
3.42346578885493,107.940197021307,89.2814863886833,-18.658710632624,-98.6108417049953,63.2994538269656,35.3113878780297
3.4281683517517,104.131958521105,99.0608117971096,-5.07114672399518,-101.596385159107,54.60155262255,46.9948325365572
3.43287091464848,104.851546162727,92.9612618410059,-11.8902843217213,-98.9064040018665,58.3709152422242,40.5354887596423
3.43757347754526,81.212233435165,67.024320166045,-14.1879132691199,-74.118276800605,47.7000733521425,26.4182034484625
3.44227604044204,68.7329459585329,41.3553784353541,-27.3775675231788,-55.0441621969435,48.0552567408559,6.98890545608766
3.44697860333882,57.7720990799018,33.1857647150686,-24.5863343648333,-45.4789318974852,41.1792167223675,4.29971517511766
3.4516811662356,50.7382393645334,31.9508870789787,-18.7873522855547,-41.3445632217561,34.7627958250441,6.58176739671202
3.45638372913238,41.937284125782,27.5448382913555,-14.3924458344265,-34.7410612085688,28.1648649801043,6.57619622846449
3.46108629202916,37.616788493549,17.2881896452349,-20.3285988483141,-27.452489069392,28.9726936709316,-1.52020460153957
3.46578885492593,31.1746737802395,10.9270916169559,-20.2475821632835,-21.0508826985977,25.7111279717615,-4.66024527316379
3.47049141782271,15.6527741480034,1.28164491573797,-14.3711292322654,-8.46720953187067,15.0119516901344,-6.54474215826371
3.47519398071949,-1.31702295837607,-20.1823490949034,-18.8653261365273,10.7496860266397,8.77415158907563,-19.5238376157154
3.47989654361627,-12.4751916493331,-37.0105771613745,-24.5353855120413,24.7428844053538,6.0300969313541,-30.7729813367079
3.48459910651305,-30.52359900252,-57.905964961822,-27.382365959302,44.214781982171,-1.57061652160899,-42.644165460562
3.48930166940983,-39.3004502314956,-49.6890342691258,-10.3885840376302,44.4947422503107,-14.4559330969327,-30.038809153378
3.49400423230661,-36.5635772490154,-48.3027692076054,-11.73919195859,42.4331732283104,-12.4121926452127,-30.0209805830977
3.49870679520339,-27.3050321050462,-36.2197157713992,-8.91468366635301,31.7623739382227,-9.1951742193466,-22.5671997188761
3.50340935810016,-22.6475151437871,-41.6281203203799,-18.9806051765928,32.1378177320835,-1.83345498359715,-30.3043627484864
3.50811192099694,-43.8540132714277,-42.8329025458101,1.0211107256176,43.3434579086189,-22.4375619985226,-20.9058959100963
3.51281448389372,-47.987678131819,-60.3268152783133,-12.3391371464942,54.1572467050662,-17.8242704926624,-36.3329762124038
3.5175170467905,-42.2915198814434,-62.4201881775779,-20.1286682961345,52.3558540295107,-11.0814257926544,-41.2744282368562
3.52221960968728,-27.0987658594092,-30.1078240195207,-3.00905816011154,28.6032949394649,-12.0448538496488,-16.5584410898161
3.52692217258406,-20.9229242910491,-20.5616178544901,0.361306436559012,20.7422710727696,-10.642115363804,-10.1001557089655
3.53162473548084,-23.8877486349471,-16.9665983731542,6.92115026179299,20.4271735040506,-15.4044494483701,-5.02272405568058
3.53632729837762,-7.22661008523574,-11.0859682165485,-3.85935813131275,9.15628915089211,-1.68362597696149,-7.47266317393062
3.54102986127439,-8.57709530336816,-19.4263133900198,-10.8492180866516,14.001704346694,1.13606139164172,-15.1377657383357
3.54573242417117,-1.26501279671287,10.0451611619079,11.3101739586207,-4.3900741825975,-6.28759337766679,10.6776675602643
3.55043498706795,7.94489506508331,11.1594816388534,3.21458657377011,-9.55218835196837,2.3651542456566,7.18703410631177
3.55513754996473,11.5734651368805,12.2987161206834,0.725250983802917,-11.936090628782,5.4241070765388,6.51198355224318
3.55984011286151,2.67388104405606,7.01739642766207,4.34351538360601,-4.84563873585906,-0.834817169774975,5.68045590563404
3.56454267575829,-0.432866044517654,-1.44642445488211,-1.01355841036446,0.939645249699882,0.290346182923401,-1.22999143262328
3.56924523865507,-7.66263506043048,0.0417975313559635,7.70443259178644,3.81041876453726,-7.68353382610846,3.8731150615712
3.57394780155185,-4.77578132415768,-3.57228716530139,1.20349415885629,4.17403424472954,-2.98963774150699,-1.18439650322255
3.57865036444862,-4.62888153959182,-4.98771453344601,-0.358832993854186,4.80829803651891,-2.13502427286882,-2.6732737636501
3.5833529273454,-19.2461033159214,-43.6559546877206,-24.4098513717992,31.451029001821,2.58187402793892,-34.0329030297599
3.58805549024218,-43.2536812355647,-61.8202511758343,-18.5665699402696,52.5369662056995,-12.3435556476475,-40.193410558052
3.59275805313896,-32.2612417642199,-35.3725880554281,-3.11134629120818,33.816914909824,-14.5749477365059,-19.2419671733181
3.59746061603574,-11.8328156226455,-9.17708247261368,2.65573315003181,10.5049490476296,-7.24427438633865,-3.26067466129094
3.60216317893252,4.0163086298723,15.4851600450033,11.468851415131,-9.75073433743779,-3.72627139262934,13.4770057300671
3.6068657418293,10.7063914112471,23.7831669012714,13.0767754900244,-17.2447791562593,-1.18519203938864,18.4299711956479
3.61156830472608,22.3972188171328,29.7539528842494,7.35673406711657,-26.0755858506911,7.52024237500814,18.555343475683
3.61627086762285,27.2825238873385,29.8922269877128,2.60970310037436,-28.5873754375256,12.336410393482,16.2509650440436
3.62097343051963,30.8046789295581,39.5424788424415,8.73779991288345,-35.1735788859998,11.0334395083373,24.1401393776625
3.62567599341641,29.9600269747777,30.8831027207041,0.92307574592634,-30.4215648477409,14.5184756144257,15.9030892333152
3.63037855631319,30.5718026494717,21.5231788970733,-9.04862375239838,-26.0474907732725,19.810213200935,6.23727757233746
3.63508111920997,35.0524290803942,26.8906398502055,-8.16178923018865,-30.9715344652998,21.6071091552914,9.36442531000844
3.63978368210675,38.1341925008226,31.7567817253582,-6.37741077546434,-34.9454871130904,22.2558016381435,12.6896854749469
3.64448624500353,37.8644199175218,41.6198304909119,3.75541057339012,-39.7421252042169,17.0545046720658,22.687620532151
3.64918880790031,34.8815086971103,29.7766394659579,-5.10486923115236,-32.3290740815341,19.9931889641313,12.3358851174028
3.65389137079708,19.2830101358561,8.30980785905232,-10.9732022768037,-13.7964089974542,15.1281062063299,-1.33169720887571
3.65859393369386,6.75716293107189,-11.7254689467967,-18.4826318778686,2.48415300786243,12.6198974044703,-15.1040504123327
3.66329649659064,-0.662464587626758,-9.49365802498655,-8.8311934373598,5.07806130630666,4.08436442486652,-9.16242573117317
3.66799905948742,15.5485558033673,15.0535644065779,-0.494991396789414,-15.3010601049726,8.02177360007834,7.27928650489422
3.6727016223842,26.634634900672,31.8290105472125,5.19437564654052,-29.2318227239422,10.7201296270657,18.5116930968765
3.67740418528098,53.4343182578655,65.1129301673306,11.6786119094652,-59.2736242125981,20.8778531742002,38.3957710383979
3.68210674817776,65.7672321480508,60.6299237951676,-5.13730835288322,-63.1985779716092,35.452270250467,27.7463077211422
3.68680931107454,62.0381115638207,62.5520842725595,0.513972708738798,-62.2950979181901,30.7620694275409,31.5330284906491
3.69151187397131,49.710667608184,46.8186248540036,-2.89204275418042,-48.2646462310938,26.3013551811822,21.9632910499116
3.69621443686809,41.9113220356396,48.7665516417623,6.85522960612265,-45.338936838701,17.5280462147585,27.8108906239425
3.70091699976487,50.2462068411432,57.4949989557637,7.24879211462051,-53.8706028984534,21.4987073632613,32.3718955351921
3.70561956266165,69.5776113806667,82.361625821072,12.7840144404053,-75.9696186008693,28.3967984701307,47.5728201307386
3.71032212555843,80.8072956991552,88.6019484783913,7.79465277923616,-84.7046220887733,36.5063214599595,48.1983006288138
3.71502468845521,92.6400414430318,107.098785664735,14.4587442217034,-99.8694135538836,39.0906486106642,60.7787649432194
3.71972725135199,96.8056588452071,101.174426799611,4.36876795440411,-98.9900428224092,46.2184454454015,52.7715973770077
3.72442981424877,96.6047588522971,93.5975160196122,-3.00724283268487,-95.1011374359547,49.806000842491,45.2951365934637
3.72913237714554,92.5357542439436,87.8068228452129,-4.72893139873064,-90.1712885445783,48.6323428213371,41.5389457232411
3.73383494004232,84.9295346516668,76.6816588222202,-8.24787582944663,-80.8055967369435,46.5887052405567,34.2168914963868
3.7385375029391,73.4428057604313,66.7576556207973,-6.68515013963398,-70.1002306906143,40.0639779500326,30.0362527405817
3.74324006583588,73.27746993601,57.7863707439212,-15.4910991920888,-65.5319203399656,44.3842845640494,21.1476357759162
3.74794262873266,73.0593103460395,79.722028323277,6.66271797723751,-76.3906693346582,33.198296184401,43.1923731502573
3.75264519162944,92.6863318346351,93.1253473453587,0.439015510723593,-92.9058395899969,46.1236581619558,46.7821814280411
3.75734775452622,112.355648271818,125.001522294208,12.6458740223892,-118.678585283013,49.8548871247147,68.8236981582984
3.762050317423,127.61264728831,130.680895309951,3.06824802164029,-129.14677129913,62.272199633335,66.8745716657954
3.76675288031977,139.03769243408,153.906546441033,14.8688540069533,-146.472119437556,62.0844192135633,84.3877002239932
3.77145544321655,147.170341874046,148.312158648254,1.14181677420794,-147.74125026115,73.0142625499189,74.7269877112308
3.77615800611333,151.201697484068,143.721393647811,-7.48030383625738,-147.46154556594,79.3410006601629,68.1205449057768
3.78086056901011,142.980237543004,137.822620883964,-5.1576166590396,-140.401429213484,74.0689271010217,66.3325021124623
3.78556313190689,135.200292716194,135.35738656309,0.157093846896174,-135.278839639642,67.5215994346489,67.7572402049932
3.79026569480367,131.789210551681,125.335728186188,-6.45348236549317,-128.562469368935,69.1213464585872,59.4411229103474
3.79496825770045,123.854309881992,123.274130319312,-0.580179562679973,-123.564220100652,62.2172447223362,61.3469753783162
3.79967082059723,127.300202171154,133.88231315723,6.58211098607609,-130.591257664192,60.3590455925391,70.2322120716532
3.804373383494,143.132812641637,151.945976230028,8.81316358839143,-147.539394435832,67.1598245266226,80.3795699092098
3.80907594639078,147.409451363991,152.258333911148,4.84888254715742,-149.83389263757,71.2802844084168,78.5536082291529
3.81377850928756,139.308876453354,130.168809682661,-9.14006677069304,-134.738843068008,74.2244716120236,60.5143714559841
3.81848107218434,111.833064960219,95.7977184641677,-16.0353464960514,-103.815391712193,63.9342057281353,39.8811859840581
3.82318363508112,92.7527044937945,86.5546250788668,-6.19807941492768,-89.6536647863306,49.4753919543611,40.1782728319696
3.8278861979779,108.317369232318,104.367961191189,-3.9494080411291,-106.342665211753,56.1333886367235,50.2092765750299
3.83258876087468,123.530181443906,137.529876913615,13.9996954697093,-130.530029178761,54.7652429870983,75.7647861916622
3.83729132377146,154.894838931238,182.716771167241,27.8219322360027,-168.805805049239,63.5364533476177,105.269351701622
3.84199388666823,178.353140238653,210.754033288531,32.4008930498782,-194.553586763592,72.9761235943874,121.577463169205
3.84669644956501,189.505349925054,211.789174502388,22.2838245773341,-200.647262213721,83.61076267386,117.036499539861
3.85139901246179,205.195106743553,204.343472177357,-0.851634566195486,-204.769289460455,103.023370654874,101.745918805581
3.85610157535857,201.826086469609,195.343451315097,-6.48263515451211,-198.584768892353,104.154360812061,94.4304080802925
3.86080413825535,178.08319795614,158.965992204464,-19.117205751676,-168.524595080302,98.6002018539078,69.9243932263939
3.86550670115213,138.915641582415,125.963097856377,-12.9525437260381,-132.439369719396,75.9340926542264,56.5052770651694
3.87020926404891,116.204068867525,97.0526419437955,-19.151426923729,-106.62835540566,67.6777478956268,38.9506075100333
3.87491182694569,96.7671479519872,82.3768093439883,-14.3903386079989,-89.5719786479878,55.578743279993,33.9932353679947
3.87961438984246,92.2912074537811,79.9625140210163,-12.3286934327648,-86.1268607373987,52.3099504432729,33.8169102941257
3.88431695273924,92.7016271442774,95.7927895401804,3.09116239590294,-94.2472083422289,44.8052323741872,49.4419759680416
3.88901951563602,89.2890537137178,78.6603225003086,-10.6287312134092,-83.9746881070132,49.9588924635635,34.0157956434497
3.8937220785328,80.8263826802927,85.1107162821224,4.28433360182962,-82.9685494812075,38.2710245392316,44.697524941976
3.89842464142958,92.22095893233,94.935715230941,2.71475629861094,-93.5783370816355,44.7531013168596,48.825235764776
3.90312720432636,104.734896001267,112.615553567199,7.88065756593205,-108.675224784233,48.4271192176676,60.2481055665656
3.90782976722314,108.632350827451,105.953008565987,-2.6793422614636,-107.292679696719,55.6558465444572,51.6368331522618
3.91253233011992,88.356051148985,80.0271641088452,-8.32888704013982,-84.1916076289151,48.3424690945624,35.8491385343527
3.91723489301669,73.0803733047591,56.58220247323,-16.498170831529,-64.8312878889945,44.7892720681441,20.0420158208505
3.92193745591347,46.6456194025547,32.0750076147971,-14.5706117877576,-39.3603135086759,30.6081155951562,8.75219791351972
3.92664001881025,22.8418422499398,7.8988717609099,-14.9429704890299,-15.3703570054249,18.8924063694849,-3.52204936406002
3.93134258170703,2.83570960094296,-17.7076630877943,-20.5433726887372,7.43597674342566,11.6895411448401,-19.1255178882658
3.93604514460381,-4.24867018954627,-15.9810972327765,-11.7324270432302,10.1148837111614,3.74187842684198,-13.8567621380034
3.94074770750059,-11.609927224178,-22.1565208412183,-10.5465936170402,16.8832240326981,-0.531666803568887,-16.3515572291293
3.94545027039737,-24.0282338958949,-35.9814161270276,-11.9531822311327,30.0048250114612,-6.03752583238106,-23.9672991790801
3.95015283329415,-39.7062819132693,-48.3007123184719,-8.59443040520267,44.0034971158706,-15.5559257540333,-28.4475713618373
3.95485539619092,-50.5647998535466,-53.8723980581459,-3.30759820459924,52.2185989558463,-23.6286008244737,-28.5899981313726
3.9595579590877,-58.4774614553321,-73.450457727996,-14.9729962726639,65.963959591664,-21.7522325913341,-44.2117270003299
3.96426052198448,-74.7027981867478,-79.1999429204816,-4.49714473373376,76.9513705536147,-35.102826726507,-41.8485438271077
3.96896308488126,-82.0393191733062,-101.716414312003,-19.6770951386968,91.8778667426546,-31.1811120173047,-60.6967547253499
3.97366564777804,-89.3416030596531,-104.267814048791,-14.9262109891382,96.8047085542221,-37.2076960352574,-59.5970125189647
3.97836821067482,-97.7086432048503,-101.561685170376,-3.85304196552568,99.6351641876131,-46.9278006196623,-52.7073635679508
3.9830707735716,-97.8705642730987,-98.3561107767174,-0.485546503618764,98.1133375249081,-48.69250888474,-49.4208286401681
3.98777333646838,-89.5086742695571,-100.912809252412,-11.4041349828547,95.2107417609845,-39.0522696433512,-56.1584721176333
3.99247589936515,-101.214715323791,-112.510852114879,-11.2961367910889,106.862783719335,-44.9592892663508,-61.9034944529842
3.99717846226193,-109.404903643923,-125.313697227109,-15.9087935831855,117.359300435516,-46.748055030369,-70.6112454051473
4.00188102515871,-117.055126716829,-121.069141058709,-4.01401434188055,119.062133887769,-56.5205561874742,-62.541577700295
4.00658358805549,-132.331452563035,-147.41934023811,-15.0878876750745,139.875396400572,-58.6217824439804,-81.2536139565921
4.01128615095227,-136.268271694013,-136.316342843463,-0.0480711494492141,136.292307268738,-68.110100272282,-68.1822069964559
4.01598871384905,-136.497987898551,-129.141507687652,7.35648021089952,132.819747793102,-71.9272340547254,-60.8925137383762
4.02069127674583,-144.257194410414,-136.223830911324,8.03336349909003,140.240512660869,-76.1452789547523,-64.0952337061172
4.02539383964261,-136.19485719584,-131.922950920915,4.27190627492473,134.058904058377,-70.2333817353822,-63.8255223229951
4.03009640253938,-128.490174019013,-128.88877449137,-0.398600472357828,128.689474255191,-64.0457867733274,-64.6436874818641
4.03479896543616,-121.06904140228,-121.313337338288,-0.244295936008527,121.191189370284,-60.4123727331357,-60.7788166371485
4.03950152833294,-113.110839026903,-124.214435992197,-11.1035969652939,118.66263750955,-51.0036210308046,-67.6590164787455
4.04420409122972,-112.748233041258,-108.807821776153,3.94041126510459,110.778027408706,-58.3443221531813,-52.4337052555244
4.0489066541265,-109.215021170822,-105.953317279118,3.26170389170397,107.58416922497,-56.2383625312631,-51.3458066937071
4.05360921702328,-113.434012356408,-109.288323558052,4.14568879835592,111.36116795723,-58.7898505773818,-52.571317379848
4.05831177992006,-112.903832267429,-112.254648264263,0.64918400316661,112.579240265846,-56.776508135298,-55.8027321305481
4.06301434281684,-116.560596167163,-113.256630509745,3.30396565741847,114.908613338454,-59.9322809122908,-54.9763324261631
4.06771690571361,-117.276311278055,-117.736969252485,-0.460657974430134,117.50664026527,-58.4078266518123,-59.0988136134575
4.07241946861039,-121.181539657712,-116.402814122959,4.77872553475304,118.792176890335,-62.9801325962323,-55.8120442941027
4.07712203150717,-116.449822752719,-120.168119310193,-3.7182965574741,118.308971031456,-56.3657630976225,-61.9432079338337
4.08182459440395,-120.595314269057,-121.627706767863,-1.0323924988063,121.11151051846,-59.7814608851253,-61.3300496333348
4.08652715730073,-125.351139460425,-128.959216498462,-3.6080770380371,127.155177979444,-60.8715312111941,-66.2836467682497
4.09122972019751,-113.152648498257,-112.120168725586,1.03247977267107,112.636408611921,-57.092564135464,-55.5438444764574
4.09593228309429,-100.741019559267,-105.309613285232,-4.56859372596436,103.02531642225,-48.0862129166515,-54.9391035055981
4.10063484599107,-109.24084490081,-113.906845459486,-4.6660005586758,111.573845180148,-52.287422171067,-59.2864230090807
4.10533740888784,-125.307524657187,-128.116630283978,-2.8091056267905,126.712077470583,-61.2492095151985,-65.4628679553842
4.11003997178462,-132.267850017969,-124.130555177405,8.13729484056398,128.199202597687,-70.2025724292663,-57.9966301684203
4.1147425346814,-120.408620574438,-117.778998406864,2.62962216757452,119.093809490651,-61.5191213710063,-57.5746881196445
4.11944509757818,-121.189105896529,-109.33006829213,11.859037604399,115.259587094329,-66.5240717504639,-48.7355153438654
4.12414766047496,-113.296823392103,-112.032989123491,1.26383426861231,112.664906257797,-57.2803288303577,-55.3845774274393
4.12885022337174,-108.769729721479,-101.750979217395,7.0187505040838,105.260354469437,-57.8942401127814,-47.3661143566557
4.13355278626852,-101.383786654591,-102.376057570462,-0.992270915871288,101.879922112526,-50.1957578693597,-51.6841642431666
4.13825534916529,-105.671791113602,-92.799846202161,12.871944911441,99.2358186578815,-59.2718680125215,-39.96395064536
4.14295791206207,-109.021576921969,-104.58371599837,4.43786092359832,106.802646460169,-56.7297189227835,-50.072927537386
4.14766047495885,-112.790993127926,-118.097354311562,-5.30636118363596,115.444173719744,-53.7423159721452,-61.7018577475992
4.15236303785563,-117.254843426598,-121.087807223298,-3.83296379669957,119.171325324948,-56.7109398149492,-62.4603855099985
4.15706560075241,-132.570971920244,-127.320863498211,5.25010842203339,129.945917709228,-68.9105401711388,-61.0353775380887
4.16176816364919,-128.229814420041,-128.806802835639,-0.576988415597725,128.51830862784,-63.8264130022219,-64.6918956256185
4.16647072654597,-136.513530877369,-133.64999449575,2.86353638161907,135.08176268656,-69.6885336294941,-65.3932290570655
4.17117328944275,-132.795988226854,-131.804235821201,0.991752405652846,132.300112024027,-66.8938703162533,-65.406241707774
4.17587585233952,-116.64073316032,-112.185784244536,4.45494891578416,114.413258702428,-60.5478410380521,-53.8654176643758
4.1805784152363,-109.054124205549,-94.7044164639801,14.3497077415687,101.879270334764,-61.7019159735587,-40.1773543612057
4.18528097813308,-94.0230891442483,-82.4025849612028,11.6205041830455,88.2128370527256,-52.8217966636469,-35.3910403890787
4.18998354102986,-85.8165621775647,-72.9291582873475,12.8874038902172,79.3728602324561,-49.351983033891,-30.0208771985652
4.19468610392664,-77.777248371601,-66.5971572419702,11.1800911296307,72.1872028067856,-44.4786697506159,-27.7085330561697
4.19938866682342,-74.4712224972325,-71.612980820119,2.85824167711353,73.0421016586757,-38.664732087173,-34.3773695715027
4.2040912297202,-86.0870935015226,-77.3877576719665,8.69933582955606,81.7374255867445,-47.3932146655393,-34.3442109212052
4.20879379261698,-97.1449440008787,-100.359971783158,-3.21502778227925,98.7524578920183,-46.9649581092997,-51.7874997827186
4.21349635551375,-116.928562952476,-137.464383869866,-20.5358209173895,127.196473411171,-48.1963710175435,-79.0001023936277
4.21819891841053,-121.304837492527,-129.282385344823,-7.97754785229564,125.293611418675,-56.6636448201159,-68.6299665985593
4.22290148130731,-116.825865356903,-104.154511208076,12.6713541488271,110.490188282489,-64.748609752865,-45.7415785296244
4.22760404420409,-93.282606380796,-81.7543357021595,11.5282706786365,87.5184710414778,-52.4054385297163,-35.1130325117615
4.23230660710087,-86.1776907309524,-75.1906350908174,10.9870556401351,80.6841629108849,-48.5823731855437,-32.1017897253412
4.23700916999765,-82.1631951344619,-85.7094469972782,-3.54625186281623,83.93632106587,-39.3084716358228,-44.6278494300472
4.24171173289443,-89.3502910998434,-92.8959638607594,-3.54567276091599,91.1231274803014,-42.9023091694637,-48.2208183108377
4.24641429579121,-109.213508365136,-109.536540499415,-0.323032134278876,109.375024432275,-54.4452381154284,-54.9297863168468
4.25111685868799,-128.969776049746,-132.905656434939,-3.93588038519263,130.937716242343,-62.5169478322768,-68.4207684100658
4.25581942158476,-136.181852445603,-143.723853373234,-7.54200092763153,139.952852909419,-64.3199257589856,-75.6329271504329
4.26052198448154,-128.441240086628,-132.391842808265,-3.95060272163704,130.416541447446,-62.2453186824954,-68.1712227649509
4.26522454737832,-125.004526070409,-125.027354114619,-0.0228280442102147,125.015940092514,-62.4908490130993,-62.5250910794147
4.2699271102751,-120.722524763073,-136.118213242357,-15.3956884792838,128.420369002715,-52.6634181418947,-75.7569508608204
4.27462967317188,-120.569538028468,-124.587479973067,-4.01794194459896,122.578509000768,-58.2757980419348,-64.3027109588332
4.27933223606866,-105.691472203168,-90.2967166743552,15.3947555288126,97.9940944387615,-60.5431138659902,-37.4509805727713
4.28403479896544,-86.0279351513325,-62.4307518422112,23.5971833091213,74.2293434967718,-54.8125592302269,-19.4167842665449
4.28873736186222,-77.520510582795,-61.8263020374933,15.6942085453017,69.6734063101441,-46.6073595640483,-23.0660467460958
4.29343992475899,-93.6683530507572,-101.742447542377,-8.07409449161958,97.705400296567,-42.7971292795688,-54.9082710169982
4.29814248765577,-109.817176773421,-106.033857225006,3.78331954841492,107.925516999213,-56.8002481609179,-51.1252688382955
4.30284505055255,-108.969609881735,-104.833663111484,4.13594677025064,106.90163649661,-56.5527783259928,-50.3488581706169
4.30754761344933,-97.0522316321195,-108.538401790942,-11.4861701588227,102.795316711531,-42.7830307366484,-60.0122859748825
4.31225017634611,-97.9493758261991,-90.3718764164531,7.57749940974603,94.1606261213261,-52.7634376179726,-41.3971885033535
4.31695273924289,-93.8920038406346,-94.1963626983242,-0.304358857689621,94.0441832694794,-46.7938224914725,-47.2503607780069
4.32165530213967,-85.406748581273,-81.1809267738822,4.2258218073908,83.2938376775776,-44.8162851943319,-38.4775524832457
4.32635786503644,-78.1857321285535,-58.3567264971841,19.8290056313694,68.2712293128688,-49.0073688799615,-19.2638604329074
4.33106042793322,-66.8992176866747,-63.5923803728023,3.30683731387239,65.2457990297385,-35.1030275002735,-30.142771529465
4.33576299083,-66.1481696757841,-66.3854894684829,-0.237319792698798,66.2668295721335,-32.9554249415426,-33.3114046305908
4.34046555372678,-73.9493792902707,-80.8655763373241,-6.91619704705333,77.4074778137974,-33.5165911216087,-43.8908866921887
4.34516811662356,-94.0968084949215,-98.0686659986888,-3.97185750376731,96.0827372468052,-45.0624754955771,-51.0202617512281
4.34987067952034,-97.6197337994052,-102.470564201777,-4.85083040237147,100.045149000591,-46.3844516985169,-53.6606973020741
4.35457324241712,-97.1433786198144,-108.194718656643,-11.051340036829,102.669048638229,-43.0460192914927,-59.6230293467362
4.3592758053139,-109.291310958802,-100.64006767493,8.65124328387253,104.965689316866,-58.9712771213373,-45.9944121955285
4.36397836821067,-105.550891491166,-118.275272043624,-12.7243805524582,111.913081767395,-46.4132554693537,-65.499826298041
4.36868093110745,-105.148243568541,-105.591268080294,-0.443024511752654,105.369755824418,-52.3526095283943,-53.0171462960233
4.37338349400423,-101.341689214545,-99.9345726558983,1.40711655864639,100.638130935221,-51.3744028865955,-49.2637280486259
4.37808605690101,-101.506298121699,-93.9038124037296,7.60248571796924,97.7050552627142,-54.554391919834,-43.1506633428802
4.38278861979779,-93.6401225178519,-91.1449847832501,2.49513773460178,92.392553650551,-48.0676301262269,-44.3249235243242
4.38749118269457,-89.8343318953426,-85.0790025811973,4.7553293141453,87.45666723827,-47.294830604744,-40.161836633526
4.39219374559135,-89.7490324608615,-100.248016039044,-10.4989835781824,94.9985242499527,-39.6250244413396,-55.3734998086131
4.39689630848813,-97.2895689308777,-114.234900263092,-16.9453313322142,105.762234596985,-40.1721187993317,-65.5901157976531
4.4015988713849,-105.461699882958,-125.490448506552,-20.0287486235945,115.476074194755,-42.7164756296817,-72.7595985650734
4.40630143428168,-109.5379521919,-96.1956539935289,13.3422981983711,102.866803092714,-61.4401251951355,-41.4266778975789
4.41100399717846,-93.3215271024868,-93.3654207218099,-0.0438936193230433,93.3434739121483,-46.6388167415819,-46.7046571705664
4.41570656007524,-101.094438636949,-106.504990424884,-5.41055178793522,103.799714530917,-47.841943424507,-55.9577711064099
4.42040912297202,-98.0339761000702,-101.205895744577,-3.17191964450672,99.6199359223236,-47.4310282277817,-52.1889076945418
4.4251116858688,-93.8729549102911,-100.527868135689,-6.65491322539764,97.2004115229899,-43.6090208424467,-53.5913906805432
4.42981424876558,-85.2731127636723,-86.3818647399729,-1.10875197630052,85.8274887518226,-42.0821803936859,-43.7453083581367
4.43451681166236,-81.9684972644478,-86.3562894274224,-4.38779216297455,84.1623933459351,-38.7903525507366,-45.3720407951985
4.43921937455913,-90.4267689134755,-85.2750854531158,5.15168346035973,87.8509271832957,-47.7892261869176,-40.061700996378
4.44392193745591,-97.2922390250118,-105.113419482054,-7.8211804570421,101.202829253533,-44.7355292839848,-56.467299969548
4.44862450035269,-116.305986858779,-132.882897574149,-16.5769107153707,124.594442216464,-49.8645380717039,-74.72990414476
4.45332706324947,-136.857600781292,-155.726724553162,-18.8691237718708,146.292162667227,-58.9942385047104,-87.2979241625166
4.45802962614625,-133.048359059707,-128.607884347905,4.44047471180207,130.828121703806,-68.7444168857545,-62.0837048180514
4.46273218904303,-108.595308685669,-105.470727977684,3.12458070798513,107.033018331676,-55.859944696827,-51.1730736348493
4.46743475193981,-97.16373628697,-81.5229959391764,15.6407403477936,89.3433661130732,-56.4022383173818,-32.9411277956914
4.47213731483659,-90.3745198014105,-93.5410996256754,-3.16657982426486,91.9578097135429,-43.6039699885728,-48.3538397249701
4.47683987773336,-82.1771270251032,-90.5476738351369,-8.37054681003367,86.3624004301201,-36.9032901075348,-49.4591103225853
4.48154244063014,-81.4188030895202,-77.9013021886742,3.51750090084604,79.6600526390972,-42.4681519951831,-37.1919006439141
4.48624500352692,-81.9618087183803,-81.0557055156809,0.906103202699356,81.5087571170306,-41.4339559605398,-40.0748011564908
4.4909475664237,-90.3028980458023,-98.120175409298,-7.81727736349563,94.2115367275502,-41.2428103411534,-52.9687263863968
4.49565012932048,-97.464994560505,-106.142664090274,-8.67766952976937,101.80382932539,-44.3936625153678,-57.4101668100219
4.50035269221726,-100.943145072248,-104.304677062734,-3.36153199048647,102.623911067491,-48.7908065408806,-53.8331045266103
4.50505525511404,-105.48528350068,-116.379712717886,-10.8944292172067,110.932498109283,-47.2954271417365,-63.6370709675465
4.50975781801082,-101.861690581398,-110.495518947115,-8.63382836571709,106.178604764257,-46.6139311078406,-59.5646736564163
4.51446038090759,-89.5395650898478,-93.8190098653015,-4.27944477545373,91.6792874775746,-42.630060157197,-49.0492273203776
4.51916294380437,-81.624393525709,-72.7594325931714,8.86496093253767,77.1919130594402,-45.2446772291234,-31.9472358303168
4.52386550670115,-82.2575033102691,-86.1371614776168,-3.87965816734767,84.1973323939429,-39.1889225714607,-45.0084098224822
4.52856806959793,-86.1940235135637,-91.1342780156048,-4.94025450204111,88.6641507645842,-40.6268845057613,-48.0372662588229
4.53327063249471,-77.8722819097702,-81.3159524869337,-3.4436705771635,79.594117198352,-37.2143056663034,-42.3798115320486
4.53797319539149,-85.6296396623818,-77.0250504247468,8.60458923763504,81.3273450435643,-47.1171144500084,-34.2102305935559
4.54267575828827,-70.6302526866228,-63.6216227810433,7.0086299055795,67.125937733833,-38.8194412961011,-28.3064964377319
4.54737832118505,-74.5239860520811,-59.4172037875734,15.1067822645077,66.9705949198273,-44.8153841582944,-22.1552107615329
4.55208088408182,-62.2527754084206,-57.3824973265837,4.87027808183689,59.8176363675021,-33.5615267451287,-26.2561096223734
4.5567834469786,-70.044935209336,-66.1578318587896,3.88710335054637,68.1013835340628,-36.9660192799412,-31.1353642541216
4.56148600987538,-70.8138227891704,-75.6710638994781,-4.85724111030771,73.2424433443243,-32.9782908394313,-40.2641525048929
4.56618857277216,-82.2832845613819,-77.952872748697,4.3304118126849,80.1180786550395,-43.3068481870334,-36.8112304680061
4.57089113566894,-77.5196361540641,-84.4663140730683,-6.9466779190042,80.9929751135662,-35.28647911753,-45.7064959960363
4.57559369856572,-74.1324593365528,-82.6551135167123,-8.52265418015946,78.3937864266325,-32.8049025781967,-45.5888838484359
4.5802962614625,-75.004726719088,-67.7708147724314,7.23391194665656,71.3877707457597,-41.1193193328723,-30.2684514128874
4.58499882435928,-50.8386006420586,-30.4996800093454,20.3389206327132,40.669140325702,-35.5887606373859,-5.08037968831611
4.58970138725605,-26.9049320485974,-18.8393148736904,8.06561717490698,22.8721234611439,-17.4852746117522,-5.38684884939171
4.59440395015283,-27.9894268126353,-24.9836649886727,3.00576182396255,26.486545900654,-15.4975943182989,-10.9889515823551
4.59910651304961,-51.4377185448251,-51.4999984979678,-0.0622799531426921,51.4688585213965,-25.6877192958412,-25.7811392255553
4.60380907594639,-62.0252873345509,-65.0849282192196,-3.05964088466868,63.5551077768852,-29.4828232249411,-34.0722845519441
4.60851163884317,-70.2435516922167,-66.4549821586992,3.78856953351753,68.3492669254579,-37.0160606128671,-31.3332063125908
4.61321420173995,-59.4293411581592,-56.2957179933995,3.13362316475967,57.8625295757794,-31.2814821614594,-26.5810474143199
