t,leadI,leadII,leadIII,aVR,aVL,aVF
0,316.648648648649,274.792792792793,-41.8558558558559,-295.720720720721,179.252252252252,116.468468468468
0.00276701715550636,329.889287315105,299.015239802779,-30.8740475123263,-314.452263558942,180.381667413716,134.070596145226
0.00553403431101273,341.585717882017,318.559508824928,-23.0262090570893,-330.072613353473,182.305963469553,147.766649883919
0.00830105146651909,356.230713834946,340.307418827262,-15.9232950076847,-348.269066331104,186.077004421316,162.192061909789
0.0110680686220255,373.091204479195,364.867133866801,-8.22407061239477,-368.979169172998,190.657637545795,178.321531627203
0.0138350857775318,391.252837992639,390.481136898583,-0.771701094055913,-390.866987445611,196.012269543348,194.854717902264
0.0166021029330382,405.892858641794,413.661869925092,7.76901128329843,-409.777364283443,199.061923679248,210.715440604195
0.0193691200885446,417.433331060457,430.74713022905,13.3137991685934,-424.090230644754,202.059765945932,222.030464698822
0.0221361372440509,424.393528262339,437.349662483703,12.9561342213646,-430.871595373021,205.718697020487,225.152898352534
0.0249031543995573,425.100567581097,433.457130122701,8.35656254160375,-429.278848851899,208.372002519747,220.906846332152
0.0276701715550636,419.387688374918,420.06684527897,0.679156904052149,-419.727266826944,209.354265735433,210.373001091511
0.03043718871057,406.570746918605,400.574935701658,-5.99581121694644,-403.572841310132,206.283279067776,197.289562242356
0.0332042058660764,386.953187092288,377.712364605413,-9.24082248687432,-382.33277584885,198.097004789581,184.235771059269
0.0359712230215827,364.53548852234,354.549011625329,-9.98647689701062,-359.542250073835,187.260982709675,172.281267364159
0.0387382401770891,344.665935016018,333.594989739914,-11.0709452761046,-339.130462377966,177.868440146061,161.262022231905
0.0415052573325955,330.706757688358,319.114617606484,-11.5921400818749,-324.910687647421,171.149448885117,153.761238762304
0.0442722744881018,322.140553864822,310.168052752905,-11.9725011119172,-316.154303308864,167.05652748837,149.097775820494
0.0470392916436082,316.969477267551,306.070200456119,-10.8992768114322,-311.519838861835,163.934377039492,147.585461822343
0.0498063087991146,312.114842812812,304.160114913555,-7.95472789925748,-308.137478863183,160.034785356035,148.102693507149
0.0525733259546209,306.41049396018,304.387016793511,-2.02347716666901,-305.398755376845,154.216985563424,151.181769813421
0.0553403431101273,301.977079314976,304.012304089529,2.03522477455311,-302.994691702253,149.970927270211,153.023764432041
0.0581073602656337,299.551860397928,302.928352902572,3.37649250464386,-301.24010665025,148.087683946642,153.152422703608
0.06087437742114,299.67292823284,300.786456681184,1.11352844834374,-300.229692457012,149.279699892248,150.949992564764
0.0636413945766464,299.761288755971,298.953052141989,-0.80823661398216,-299.35717044898,150.284762684977,149.072407764003
0.0664084117321527,299.015309205161,298.425422803536,-0.58988640162454,-298.720366004348,149.802597803393,148.917768200956
0.0691754288876591,295.769298228125,297.500023395879,1.73072516775471,-296.634660812002,147.019286530185,149.615374281817
0.0719424460431655,292.31959267484,297.364938957039,5.04534628219818,-294.84226581594,143.637123196321,151.205142619618
0.0747094631986718,291.422784049129,297.266348426034,5.84356437690496,-294.344566237582,142.789609836112,151.55495640147
0.0774764803541782,292.929503622333,297.19439274235,4.26488912001776,-295.061948182342,144.332307251157,150.729640931184
0.0802434975096846,295.109798381805,297.141876334735,2.03207795292985,-296.12583735827,146.538860214438,149.586977143833
0.0830105146651909,296.701072949862,297.373703775169,0.672630825307067,-297.037388362515,148.014221062277,149.023167300238
0.0857775318206973,295.971361310874,297.542901591443,1.57154028056857,-296.757131451158,147.199910515153,149.557220936006
0.0885445489762037,292.467067468984,297.396233353773,4.92916588478892,-294.931650411378,143.768950792098,151.162699619281
0.09131156613171,290.449792805527,297.289188451781,6.83939564625433,-293.869490628654,141.805198579636,152.064292049018
0.0940785832872164,290.86859090905,296.940906183053,6.07231527400245,-293.904748546052,142.398137817524,151.506610728528
0.0968456004427228,293.335497798891,297.227026956746,3.89152915785525,-295.281262377819,144.721984320518,150.559278057301
0.0996126175982291,296.216579315524,297.706006637943,1.48942732241852,-296.961292976734,147.363575996553,149.597716980181
0.102379634753735,297.238693915651,298.055586982855,0.816893067203864,-297.647140449253,148.210900424223,149.436240025029
0.105146651909242,295.283115788407,299.121194661675,3.83807887326782,-297.202155225041,145.72251845757,151.479636767471
0.107913669064748,293.315536816338,299.358609382855,6.04307256651703,-296.337073099597,143.636232124911,152.700840974686
0.110680686220255,293.500448797204,300.072197466066,6.57174866886163,-296.786323131635,143.464350064171,153.321973067464
0.113447703375761,296.066811564651,300.863161507748,4.79634994309663,-298.464986536199,145.635230810777,152.829755725422
0.116214720531267,299.290636547908,301.440441700198,2.14980515229047,-300.365539124053,148.570415697809,151.795123426244
0.118981737686774,301.103212762199,301.591609850794,0.488397088595548,-301.347411306496,150.307407836802,151.040003469695
0.12174875484228,299.994704345859,302.242251410213,2.24754706435488,-301.118477878036,148.873578640752,152.244899237284
0.124515771997786,296.754260457259,302.717118110653,5.96285765339394,-299.735689283956,145.395701401933,154.339987882024
0.127282789153293,295.469867461875,303.33385283403,7.86398537215513,-299.401860147952,143.80294104486,155.598919103092
0.130049806308799,297.234023331395,304.054129052681,6.8201057212861,-300.644076192038,145.206958805054,155.437117386983
0.132816823464305,300.412675017155,305.120130600343,4.70745558318754,-302.766402808749,147.852609716984,154.913793091765
0.135583840619812,303.272906628375,306.438457631783,3.16555100340787,-304.855682130079,150.053677812483,154.802004317595
0.138350857775318,304.549960266817,307.400630426401,2.85067015958401,-305.975295346609,150.849645053616,155.125650292992
0.141117874930825,303.050604025095,309.183491111145,6.13288708604995,-306.11704756812,148.458858469523,157.658189098598
0.143884892086331,301.686151974012,309.944388483261,8.25823650924923,-305.815270228636,146.713957732381,159.101312496255
0.146651909241837,302.581408603431,309.95941227996,7.37800367652858,-306.270410441695,147.601702463451,158.668707978244
0.149418926397344,305.125899576295,311.051002152141,5.92510257584581,-308.088450864218,149.600398500225,158.488052363993
0.15218594355285,308.603917778018,311.847692239536,3.24377446151783,-310.225805008777,152.68007165825,157.545733350527
0.154952960708356,310.872171545672,313.2396201865,2.36744864082817,-312.055895866086,154.252361452422,157.803534413664
0.157719977863863,310.096236561048,314.795822575857,4.69958601480943,-312.446029568452,152.698325273119,159.747704295333
0.160486995019369,308.17914417317,315.661451010928,7.48230683775819,-311.920297592049,150.348418667706,161.571878924343
0.163254012174876,308.130747261967,316.02306833522,7.89232107325296,-312.076907798594,150.119213094357,161.957694704237
0.166021029330382,310.256674771935,316.557148704906,6.3004739329715,-313.406911738421,151.978100419482,161.428811318939
0.168788046485888,313.429207030326,316.40663152134,2.97742449101401,-314.917919275833,155.225891269656,159.692028006177
0.171555063641395,315.744659991749,317.647558549265,1.90289855751615,-316.696109270507,156.920880717116,159.775228553391
0.174322080796901,315.813641681117,318.283085220245,2.46944353912812,-317.048363450681,156.672099070995,160.376264379687
0.177089097952407,313.162425419881,317.936451777635,4.77402635775439,-315.549438598758,154.194199531063,161.355239067695
0.179856115107914,311.497607912504,319.034244572147,7.53663665964274,-315.265926242326,151.980485626431,163.285440615895
0.18262313226342,313.79458195071,320.105618035745,6.3110360850356,-316.950099993227,153.741772932837,163.20832706039
0.185390149418926,317.902420090831,322.238334362276,4.33591427144546,-320.070377226553,156.783252909693,163.287124316861
0.188157166574433,321.170656451906,324.065040336906,2.89438388499997,-322.617848394406,159.138136283453,163.479712110953
0.190924183729939,322.205177398814,325.128094133355,2.92291673454093,-323.666635766085,159.641130332137,164.025505433948
0.193691200885446,321.069122602502,325.633801131268,4.56467852876591,-323.351461866885,158.252222036868,165.099239830017
0.196458218040952,319.159355218954,326.543200666052,7.38384544709731,-322.851277942503,155.887754885928,166.963523056574
0.199225235196458,320.467085476018,328.557701326798,8.0906158507803,-324.512393401408,156.188234812619,168.324158588789
0.201992252351965,324.393242611271,331.108596967711,6.71535435643978,-327.750919789491,158.838944127416,168.911975662075
0.204759269507471,329.419973702625,334.050977152881,4.63100345025663,-331.735475427753,162.394485126184,169.340990301569
0.207526286662977,333.629014587984,336.738767477083,3.10975288909913,-335.183891032534,165.259630849443,169.924260183091
0.210293303818484,334.269551025297,338.970590760865,4.70103973556803,-336.620070893081,164.784255644865,171.835815248217
0.21306032097399,333.11610529391,340.869629332605,7.75352403869516,-336.992867313258,162.681290627608,174.31157668565
0.215827338129496,333.354894939401,342.255630837606,8.90073589820526,-337.805262888504,162.227079520598,175.578183367906
0.218594355285003,336.230736197548,344.077664061982,7.84692786443441,-340.154200129765,164.191904166557,175.962295963208
0.221361372440509,339.95058834668,344.596995056942,4.64640671026223,-342.273791701811,167.652090818209,174.621700883602
0.224128389596015,343.205811754223,345.786494193211,2.58068243898788,-344.496152973717,170.312564657617,174.183588316099
0.226895406751522,343.960679065958,346.6546427488,2.6939636828422,-345.307660907379,170.633357691558,174.674303215821
0.229662423907028,341.539895953701,346.207630731784,4.66773477808221,-343.873763342743,168.43608058781,175.437682754933
0.232429441062535,338.9626338012,346.151537999817,7.18890419861697,-342.557085900508,165.886864801291,176.670221099217
0.235196458218041,339.513040935663,346.380755279703,6.86771434404034,-342.946898107683,166.322663295811,176.624234811872
0.237963475373547,342.076001858666,347.088360511304,5.01235865263789,-344.582181184985,168.531821603014,176.050359581971
0.240730492529054,345.297344026893,347.874958005906,2.5776139790126,-346.586151016399,171.35986502394,175.226285992459
0.24349750968456,347.108108174066,348.71920751297,1.6110993389035,-347.913657843518,172.748504417581,175.165153425937
0.246264526840066,345.457964808058,348.795065347588,3.33710053952956,-347.126515077823,171.060432134264,176.066082943559
0.249031543995573,342.362524439755,348.580273505093,6.21774906533841,-345.471398972424,168.072387687208,177.399011285216
0.251798561151079,340.64364893917,347.342884165621,6.69923522645126,-343.993266552396,166.972206856359,177.021059696036
0.254565578306585,341.550388027475,346.16962703084,4.61923900336444,-343.860007529157,168.465574512055,175.394433017102
0.257332595462092,343.022634554143,344.232707751655,1.2100731975126,-343.627671152899,170.906280678315,172.721390474584
0.260099612617598,342.746363476867,342.278746823894,-0.467616652973049,-342.51255515038,171.60699006492,170.90556508546
0.262866629773105,340.113322840432,339.772035731034,-0.34128710939774,-339.942679285733,170.227304974915,169.715374310818
0.265633646928611,335.219896157453,337.132059575664,1.91216341821087,-336.175977866558,166.653866369621,169.522111496937
0.268400664084117,331.108146666476,334.935133165988,3.82698649951232,-333.021639916232,163.640580083482,169.38105983275
0.271167681239624,329.457992901504,333.061563861039,3.60357095953503,-331.259778381272,162.927210970985,168.332567410287
0.27393469839513,329.33426327417,330.343369882836,1.00910660866651,-329.838816578503,164.162578332752,165.676238245751
0.276701715550636,328.163335126766,326.738575621687,-1.42475950507861,-327.450955374226,164.794047315922,162.656908058304
0.279468732706143,325.417647008937,323.02701407522,-2.39063293371669,-324.222330542078,163.904139971327,160.318190570752
0.282235749861649,319.631536625798,319.50768530066,-0.123851325138332,-319.569610963229,159.877693975468,159.691916987761
0.285002767017156,313.247330210267,315.318187784936,2.07085757466945,-314.282758997601,155.588236317799,158.694522679803
0.287769784172662,309.398325451377,311.720196623963,2.32187117258593,-310.55926103767,153.538227139395,157.021033898274
0.290536801328168,307.939934296982,308.28375648977,0.343822192787911,-308.111845393376,153.798056052097,154.313789341279
0.293303818483675,306.605380360415,304.96522336894,-1.64015699147456,-305.785301864678,154.122768675945,151.662533188733
0.296070835639181,304.820895824274,302.002900161261,-2.81799566301288,-303.411897992767,153.819445743643,149.592452249124
0.298837852794687,300.276626328101,299.030398334093,-1.24622799400771,-299.653512331097,150.761427161054,148.892085170043
0.301604869950194,294.528613557892,297.131092552206,2.60247899431317,-295.829853055049,145.96306728179,149.866785773259
0.3043718871057,291.954399414703,296.285208449282,4.33080903457881,-294.119803931993,143.811795190062,150.308008741931
0.307138904261206,291.696562484215,294.857376555672,3.16081407145754,-293.276969519943,144.267874206379,149.009095313565
0.309905921416713,292.859162861506,293.815282317629,0.956119456123758,-293.337222589567,145.951521702691,147.385700886877
0.312672938572219,293.977835736819,293.324872523221,-0.652963213597616,-293.65135413002,147.315399475208,146.335954654812
0.315439955727726,292.63304249084,292.15648134552,-0.476561145320602,-292.39476191818,146.554801818081,145.8399601001
0.318206972883232,288.679835163358,291.303738302371,2.6239031390125,-289.991786732864,143.027966012173,146.963820720692
0.320973990038738,285.794611352212,289.870900453844,4.07628910163191,-287.832755903028,140.85916112529,146.973594777738
0.323741007194245,284.769473523773,289.095308862573,4.32583533879955,-286.932391193173,140.221819092487,146.710572100686
0.326508024349751,285.912376530813,288.259091945687,2.34671541487404,-287.08573423825,141.78283055797,145.302903680281
0.329275041505257,287.286829614678,287.648784223371,0.361954608692656,-287.467806919024,143.462437502993,144.005369416032
0.332042058660764,286.939184600652,287.743667347134,0.804482746482051,-287.341425973893,143.067350927085,144.274075046808
0.33480907581627,284.254052139847,286.732292358125,2.4782402182779,-285.493172248986,140.887905960785,144.605266288201
0.337576092971776,281.21370004554,286.804615240543,5.59091519500299,-284.009157643042,137.811392425269,146.197765217773
0.340343110127283,280.075342803274,286.587243435144,6.51190063187016,-283.331293119209,136.781721085702,146.549572033507
0.343110127282789,281.946081960051,286.428595973259,4.48251401320795,-284.187338966655,138.731783973421,145.455554993233
0.345877144438296,284.932366584063,287.123276744315,2.19091016025152,-286.027821664189,141.370728211906,144.657093452283
0.348644161593802,287.652200290225,287.900441401674,0.248241111448635,-287.776320845949,143.701979589388,144.074341256561
0.351411178749308,286.935691906693,287.657181563585,0.721489656892174,-287.296436735139,143.1071011249,144.189335610239
0.354178195904815,283.17087817137,287.479639881855,4.30876171048465,-285.325259026613,139.431058230443,145.89420079617
0.356945213060321,280.693308465057,286.539593552696,5.84628508763893,-283.616451008876,137.423511688709,146.192939320167
0.359712230215827,281.046319300222,286.123662790677,5.07734349045563,-283.58499104545,137.984487904883,145.600503140567
0.362479247371334,283.465211760382,286.630566943342,3.16535518295967,-285.047889351862,140.149928288711,144.897961063151
0.36524626452684,285.770937820324,287.270684002212,1.4997461818881,-286.520810911268,142.135595819218,144.38521509205
0.368013281682346,286.10297660294,288.278181885047,2.17520528210684,-287.190579243993,141.963885660417,145.226693583577
0.370780298837853,283.643750927133,287.9328731089,4.28912218176612,-285.788312018017,139.677314372684,146.110997645333
0.373547315993359,281.308587920297,288.221164067386,6.91257614708854,-284.764875993841,137.198005886604,147.566870107237
0.376314333148866,281.495377188592,288.161415220739,6.66603803214667,-284.828396204665,137.414669578223,147.413726626443
0.379081350304372,284.333266294462,288.92827653178,4.59501023731798,-286.630771413121,139.869128028572,146.761643384549
0.381848367459878,287.485106877266,289.758121707872,2.2730148306062,-288.621614292569,142.60604602333,146.015568269239
0.384615384615385,290.055614359667,291.174247690365,1.11863333069829,-290.614931025016,144.468490514484,146.146440510532
0.387382401770891,288.959964947447,291.39732980628,2.43736485883329,-290.178647376864,143.261300044307,146.917347332557
0.390149418926397,285.728906123127,290.479520055337,4.75061393220989,-288.104213089232,140.489146095459,147.615066993773
0.392916436081904,284.451362758607,290.620130945542,6.16876818693584,-287.535746852074,139.141297285835,148.394449566239
0.39568345323741,285.68020536492,290.722754930302,5.04254956538222,-288.201480147611,140.318827899769,147.882652247842
0.398450470392916,288.468161990826,290.257341984348,1.78917999352205,-289.362751987587,143.339490998652,146.023260988935
0.401217487548423,290.502934815815,290.728131872445,0.225197056629042,-290.61553334413,145.138868879593,145.476664464537
0.403984504703929,290.9073762749,291.341891159657,0.434514884757107,-291.124633717278,145.236430695071,145.888203022207
0.406751521859436,288.230837030886,291.519683350963,3.28884632007737,-289.875260190925,142.470995355404,147.40426483552
0.409518539014942,285.737069066217,291.649443877366,5.91237481114865,-288.693256471792,139.912347127534,148.780909344257
0.412285556170448,286.348413915015,291.744148791505,5.39573487649,-289.04628135326,140.476339519263,148.569941833998
0.415052573325955,288.415537426544,291.813268584795,3.39773115825045,-290.11440300567,142.508903134147,147.605499871523
0.417819590481461,290.734683316343,292.133871448436,1.39918813209266,-291.434277382389,144.667747592125,146.766529790264
0.420586607636967,291.886985114033,292.36786145692,0.480876342887427,-292.127423285476,145.703054385573,146.424368899904
0.423353624792474,290.296579516281,292.538637611097,2.24205809481577,-291.417608563689,144.027260710733,147.390347852956
0.42612064194798,286.704425963312,292.663277526383,5.95885156307043,-289.683851744848,140.372787200121,149.311064544727
0.428887659103486,285.973808489777,292.484088982436,6.51028049265904,-289.228948736106,139.731763998559,149.497184737547
0.431654676258993,287.871977772063,292.623465548604,4.75148777654044,-290.247721660333,141.560244997761,148.687476662572
0.434421693414499,290.337969679043,292.995344881504,2.65737520246097,-291.666657280273,143.840297238291,147.826360041982
0.437188710570006,292.407914765798,293.536914914426,1.12900014862754,-292.972414840112,145.639457308585,147.332957531527
0.439955727725512,292.027557846032,293.662020226919,1.6344623808867,-292.844789036475,145.196547732573,147.648241303903
0.442722744881018,289.318550804024,294.563796197719,5.24524539369429,-291.941173500871,142.036652705165,149.904520795706
0.445489762036525,287.341398842419,294.411483152675,7.07008431025633,-290.876440997547,140.135657266081,150.740783731466
0.448256779192031,288.3297926719,294.3003184229,5.97052575099929,-291.3150555474,141.17963346045,150.135422086949
0.451023796347537,291.482571675416,295.2998103829,3.81723870748397,-293.391191029158,143.832666483966,149.558524545192
0.453790813503044,294.594076482089,296.299439593063,1.70536311097374,-295.446758037576,146.444356685558,149.002401352018
0.45655783065855,296.054520301356,297.569325186275,1.5148048849191,-296.811922743815,147.269857708218,149.542065035597
0.459324847814056,294.418854032041,299.036455721857,4.61760168981601,-296.727654876949,144.900626171113,151.827028705837
0.462091864969563,291.874292106573,299.296763194011,7.42247108743783,-295.585527650292,142.225910509568,153.359617140724
0.464858882125069,291.36794045112,298.946434561822,7.57849411070202,-295.157187506471,141.894723170209,153.262464336262
0.467625899280576,293.159632535753,298.960905597688,5.80127306193486,-296.06026906672,143.679179736909,152.381089329811
0.470392916436082,295.818068933319,299.511779617065,3.69371068374625,-297.664924275192,146.062179124786,151.602745150406
0.473159933591588,298.29862464796,299.913831598149,1.61520695018896,-299.106228123054,148.341708848886,150.764519274169
0.475926950747095,297.947793132424,301.017735374663,3.06994224223865,-299.482764253543,147.438925445093,152.043838808451
0.478693967902601,295.800647447029,302.093568900514,6.29292145348535,-298.947108173772,144.753862996772,154.193245177
0.481460985058107,295.314191353823,303.689227952032,8.37503659820896,-299.501709652928,143.469577377807,156.032132275121
0.484228002213614,298.20102893846,305.394122222497,7.19309328403699,-301.797575580478,145.503967827211,156.293607753267
0.48699501936912,302.199062900043,307.178741138954,4.97967823891059,-304.688902019499,148.609692330566,156.079209688932
0.489762036524626,305.387159363503,308.481234169307,3.09407480580353,-306.934196766405,151.14654227885,155.787654487555
0.492529053680133,306.093034492083,308.351225769104,2.25819127702016,-307.222130130594,151.917421607532,155.304708523062
0.495296070835639,303.636494739284,308.526496157683,4.89000141839853,-306.081495448483,149.373246660443,156.708248788041
0.498063087991146,301.573448248541,309.464884797645,7.89143654910333,-305.519166523093,146.841005849719,158.678160673374
0.500830105146652,301.958840065754,309.069137069885,7.11029700413036,-305.513988567819,147.424271530812,158.089717037007
0.503597122302158,304.401365584516,309.050459260985,4.64909367646891,-306.72591242275,149.876135954023,156.849776468727
0.506364139457665,306.724340085472,308.766671166312,2.0423310808394,-307.745505625892,152.341004502316,155.404501123575
0.509131156613171,307.609279959361,308.55955018827,0.950270228908835,-308.084415073815,153.329504865226,154.754910208589
0.511898173768677,305.013273286726,307.868071805311,2.85479851858554,-306.440672546019,151.07923738407,155.361435161948
0.514665190924184,301.497656671533,306.552931967269,5.05527529573578,-304.025294319401,148.221190687899,155.804103631503
0.51743220807969,299.472118147238,305.322929114083,5.85081096684468,-302.39752363066,146.810653590197,155.586870040464
0.520199225235196,300.155041132639,303.614750536689,3.45970940404993,-301.884895834664,148.347665864295,153.53722997037
0.522966242390703,301.193780655048,302.097890801093,0.904110146045241,-301.64583572807,150.144835254501,151.501000473569
0.525733259546209,301.681742031089,301.531132569349,-0.150609461739975,-301.606437300219,150.916175746415,150.690261553805
0.528500276701716,299.876627915267,300.577175170797,0.700547255530694,-300.226901543032,149.588040329868,150.638861213164
0.531267293857222,296.127770684126,300.421247713068,4.29347702894245,-298.274509198597,145.917146827592,152.357362371005
0.534034311012728,293.661846733269,299.22682017916,5.56497344589025,-296.444333456215,144.04843664369,152.395896812525
0.536801328168235,293.48304472697,297.544606027552,4.06156130058224,-295.513825377261,144.710741713194,150.803083664067
0.539568345323741,294.433172040854,296.316852478699,1.8836804378459,-295.375012259776,146.274745801504,149.100266458273
0.542335362479247,294.856460346951,294.880471753974,0.0240114070225559,-294.868466050462,147.416224469964,147.452241580498
0.545102379634754,294.084769840257,293.561981992774,-0.522787847483642,-293.823375916515,147.30377884387,146.519597072645
0.54786939679026,290.819994198873,292.329534218979,1.50954002010656,-291.574764208926,144.655227089383,146.919537119543
0.550636413945766,287.356593129889,291.700196078954,4.34360294906566,-289.528394604422,141.506495090412,148.02189951401
0.553403431101273,286.179632433252,290.43040891121,4.2507764779582,-288.305020672231,140.964427977647,147.340592694584
0.556170448256779,287.481884674914,289.503662634587,2.02177795967339,-288.49277365475,142.73005335762,145.76272029713
0.558937465412286,288.97263780781,289.637751257037,0.665113449227533,-289.305194532424,144.153762179291,145.151432353132
0.561704482567792,290.060654721487,289.46545879332,-0.595195928167186,-289.763056757403,145.327925324827,144.435131432576
0.564471499723298,288.153174988596,289.339712208934,1.18653722033775,-288.746443598765,143.483318884129,145.263124714636
0.567238516878805,285.140075483336,289.247936845442,4.10786136210629,-287.194006164389,140.516107060615,146.677899103774
0.570005534034311,282.670827314537,288.100330319007,5.42950300447052,-285.385578816772,138.620662155033,146.764916661739
0.572772551189817,283.029911572165,287.262756824474,4.23284525230866,-285.146334198319,139.398533159928,145.747801038391
0.575539568345324,284.642768046368,286.921615224259,2.27884717789118,-285.782191635313,141.181960434238,144.600231201075
0.57830658550083,286.090057537079,286.67263514647,0.582577609391137,-286.381346341774,142.753739963844,143.62760637793
0.581073602656336,285.795571722139,286.220762371456,0.425190649316789,-286.008167046798,142.685190536411,143.322976510386
0.583840619811843,282.338768536954,286.431278257331,4.09250972037711,-284.385023397143,139.123129408289,145.261893988854
0.586607636967349,279.275529781721,285.774453333325,6.49892355160353,-282.524991557523,136.388303115059,146.136688442464
0.589374654122856,279.201093699634,284.754761318908,5.55366761927382,-281.977927509271,136.82371304018,145.154214469091
0.592141671278362,279.687079411253,282.659764377023,2.97268496577004,-281.173421894138,138.357197222741,142.816224671396
0.594908688433868,280.58208548774,280.050119025354,-0.531966462386606,-280.316102256547,140.557025975063,139.759076281484
0.597675705589375,280.96514390113,279.76642284745,-1.1987210536804,-280.36578337429,141.081932477405,139.283850896885
0.600442722744881,278.543154585917,280.099681378034,1.55652679211744,-279.321417981975,138.4933138969,140.828104085076
0.603209739900387,275.424699669937,280.883220470165,5.45852080022854,-278.153960070051,134.983089434854,143.170870635197
0.605976757055894,274.229339568437,280.644612973698,6.41527340526096,-277.436976271067,133.907033081588,143.529943189479
0.6087437742114,276.868944178112,282.361560257702,5.49261607958971,-279.615252217907,135.688164049261,143.927088168646
0.611510791366907,283.117942595545,288.477475381166,5.35953278562067,-285.797708988355,138.879204904962,146.918504083393
0.614277808522413,293.352015721837,299.695043339537,6.34302761770027,-296.523529530687,143.504494052068,153.019035478619
0.617044825677919,305.954258445873,317.337583047369,11.3833246014962,-311.645920746621,147.285466922188,164.360453824433
0.619811842833426,320.825207463802,340.20966089919,19.3844534353881,-330.517434181496,150.720377014207,179.797057167289
0.622578859988932,340.053519796131,365.547703620821,25.4941838246904,-352.800611708476,157.27966798572,195.520943722756
0.625345877144438,363.002339099838,390.254109577583,27.2517704777453,-376.62822433871,167.875284311046,208.752940027664
0.628112894299945,385.964985186576,411.527801034563,25.5628158479866,-398.746393110569,180.201084669295,218.545308441275
0.630879911455451,402.994286003843,424.622866688154,21.6285806843102,-413.808576345999,190.682852659767,223.125723686232
0.633646928610957,410.560203607806,427.156157501897,16.5959538940917,-418.858180554852,196.982124856857,221.876055697995
0.636413945766464,406.626674157041,417.928659379094,11.3019852220526,-412.277666768067,197.662344467494,214.615322300573
0.63918096292197,394.300344706473,402.008715990563,7.70837128409028,-398.154530348518,193.295986711191,204.858543637327
0.641947980077477,378.820300641633,379.583395726224,0.763095084590759,-379.201848183928,189.028602778521,190.173245405407
0.644714997232983,362.119162403523,355.922197313972,-6.19696508955121,-359.020679858748,184.158063746537,174.86261611221
0.647482014388489,345.877597227691,334.600875455043,-11.2767217726483,-340.239236341367,178.57715950017,161.662076841197
0.650249031543996,332.132698291527,317.959016294132,-14.1736819973952,-325.04585729283,173.153190144461,151.892667148368
0.653016048699502,318.589038430184,306.083214974505,-12.5058234556788,-312.336126702345,165.547430942931,146.788695759413
0.655783065855008,307.08334514063,299.847141059174,-7.23620408145558,-303.465243099902,157.159774611043,146.305468488859
0.658550083010515,300.847236060112,297.457030944734,-3.39020511537791,-299.152133502423,152.118720587745,147.033412914678
0.661317100166021,298.457100280578,296.25293634851,-2.2041639320679,-297.355018314544,150.330632106323,147.024386208221
0.664084117321527,297.793299376588,295.91444781088,-1.87885156570798,-296.853873593734,149.836075471148,147.017798122586
0.666851134477034,297.849140834001,294.856935418723,-2.99220541527706,-296.353038126362,150.420673124639,145.932365001723
0.66961815163254,295.998802891712,294.625428992182,-1.3733738995291,-295.312115941947,148.68608839562,146.626027546327
0.672385168788047,291.946783119877,294.45646546486,2.50968234498242,-293.201624292369,144.718550387447,148.483073904921
0.675152185943553,288.178973024416,293.252523636536,5.07355061212053,-290.715748330476,141.552711206148,149.163037124328
0.677919203099059,287.320153714498,293.184302807482,5.86414909298418,-290.25222826099,140.728002310757,149.524225950233
0.680686220254566,288.314287047259,292.053887411689,3.73960036442975,-290.184087229474,142.287343341415,147.896743888059
0.683453237410072,289.580161508489,290.148235909578,0.568074401088438,-289.864198709034,144.5060435537,145.358155155333
0.686220254565578,289.963739696825,289.56787663404,-0.395863062785793,-289.765808165432,145.179801379806,144.586006785627
0.688987271721085,287.542129736128,289.144305021905,1.60217528577783,-288.343217379016,142.969977225175,145.373240153842
0.691754288876591,284.153795477813,289.375476335705,5.22168085789235,-286.764635906759,139.46605730996,147.298578596799
0.694521306032097,283.571934250381,289.814351494947,6.24241724456624,-286.693142872664,138.664758502907,148.028384369757
0.697288323187604,285.038359931088,289.59434937994,4.55598944885202,-287.316354655514,140.241185241118,147.075169414396
0.70005534034311,287.729558876134,290.514407050414,2.78484817427972,-289.121982963274,142.472355350927,146.649627612347
0.702822357498617,289.423557496922,290.375436790314,0.951879293392096,-289.899497143618,144.235839101765,145.663658041853
0.705589374654123,288.498662172429,290.814322632989,2.31566046056008,-289.656492402709,143.091500855934,146.564991546774
0.708356391809629,285.392227158334,290.864484527091,5.4722573687572,-288.128355842712,139.959984894788,148.168370947924
0.711123408965136,283.395171071943,290.360782450159,6.96561137821516,-286.877976761051,138.214779846864,148.663196914187
0.713890426120642,284.098881787721,290.263314830114,6.16443304239306,-287.181098308917,138.967224372664,148.213873936254
0.716657443276148,287.043886589115,289.922022481209,2.87813589209389,-288.482954535162,142.082875348511,146.400079186652
0.719424460431655,289.463436261293,291.564025863527,2.10058960223404,-290.51373106241,143.681423329529,146.83230773288
0.722191477587161,291.499485771471,291.951963196582,0.452477425110942,-291.725724484027,145.52350417318,146.202220310846
0.724958494742667,290.28392174008,293.585877908654,3.30195616857361,-291.934899824367,143.490982785753,148.443917038614
0.727725511898174,288.856437458954,294.778380411591,5.92194295263687,-291.817408935272,141.467247253158,150.350161682114
0.73049252905368,289.435534194953,294.838252320072,5.40271812511912,-292.136893257512,142.016408034917,150.120485222596
0.733259546209187,291.479121621677,294.88194946056,3.40282783888341,-293.180535541119,144.038146891397,149.142388649722
0.736026563364693,294.051246058055,295.72431018272,1.67306412466439,-294.887778120388,146.189090966695,148.698687153692
0.738793580520199,296.198651312111,296.879414346894,0.680763034783411,-296.539032829503,147.758944138664,148.780088690839
0.741560597675706,295.064359578661,297.722459945758,2.65810036709723,-296.39340976221,146.203129605782,150.190280156428
0.744327614831212,292.345410319976,298.067595327327,5.72218500735062,-295.206502823651,143.311612656313,151.894890167339
0.747094631986718,291.711783152647,298.859802665371,7.14801951272409,-295.285792909009,142.281881819961,153.003911089047
0.749861649142225,293.950896419298,299.708146481824,5.75725006252526,-296.829521450561,144.096823178387,152.732698272174
0.752628666297731,296.935880387238,300.327304946459,3.39142455922075,-298.631592666848,146.772227914009,151.85936475284
0.755395683453237,299.654764817645,301.049350117612,1.39458529996665,-300.352057467628,149.130089758839,151.221967708789
0.758162700608744,300.288344670458,302.116642724269,1.82829805381073,-301.202493697363,149.230023308324,151.97247038904
0.76092971776425,298.319353083472,302.895599603353,4.57624651988067,-300.607476343413,146.871553281796,153.735923061617
0.763696734919757,296.34198438109,303.464116442772,7.1221320616819,-299.903050411931,144.609926159704,155.293124252227
0.766463752075263,297.600376235534,304.689513562084,7.08913732654986,-301.144944898809,145.255619454492,155.889325444317
0.769230769230769,300.409899196632,305.04354961386,4.63365041722801,-302.726724405246,147.888124389702,154.838600015544
0.771997786386276,303.541036924881,306.652721686381,3.11168476150056,-305.096879305631,150.21467608169,154.882203223941
0.774764803541782,306.36659076936,307.82716592754,1.46057515817995,-307.09687834845,152.45300780559,154.64387054286
0.777531820697288,305.72724157206,309.76495160894,4.0377100368803,-307.7460965905,150.84476576759,156.90133082291
0.780298837852795,303.369523048863,310.909076239362,7.53955319049851,-307.139299644112,147.914984929182,159.22431471493
0.783065855008301,303.539850313655,311.473952281848,7.93410196819349,-307.506901297751,147.802874172731,159.704027125021
0.785832872163807,306.6358809404,312.966848400006,6.33096745960626,-309.801364670203,150.152456740397,159.648907929806
0.788599889319314,310.246280720543,315.137054205651,4.89077348510801,-312.691667463097,152.677753617717,160.01391384538
0.79136690647482,314.232089632099,316.720965431861,2.48887579976235,-315.47652753198,155.871606916168,159.604920615812
0.794133923630327,314.979857811891,317.606816989386,2.62695917749448,-316.293337400638,156.176449317198,160.11688808344
0.796900940785833,313.094205866028,318.52350645772,5.42930059169248,-315.808856161874,153.832452637168,161.976403524706
0.799667957941339,312.258286930511,320.273171419314,8.01488448880298,-316.265729174912,152.121701220854,164.144027954058
0.802434975096846,314.07960259489,321.279997310967,7.20039471607737,-317.679799952928,153.439603939406,164.240196013522
0.805201992252352,317.840284425602,322.825291569332,4.98500714372966,-320.332787997467,156.427638640936,163.905149356531
0.807969009407858,321.125307122618,323.682958772758,2.55765165014003,-322.404132947688,159.283827736239,163.120305211449
0.810736026563365,322.982548108153,324.579078065332,1.59652995717931,-323.780813086742,160.693009075487,163.087804011256
0.813503043718871,321.906637997657,326.313730011925,4.40709201426785,-324.110184004791,158.749772991695,165.360411013097
0.816270060874377,321.121391686928,327.849911171583,6.72851948465478,-324.485651429256,157.196436101137,167.289215328119
0.819037078029884,322.709534239865,329.241239660271,6.53170542040579,-325.975386950068,158.08891440973,167.886472540338
0.82180409518539,326.300036123633,331.607473174343,5.30743705071075,-328.953754648988,160.496299536461,168.457455112527
0.824571112340897,330.271322679122,333.064297793979,2.79297511485697,-331.667810236551,163.739173782133,167.928636454418
0.827338129496403,333.439897714395,334.938020828627,1.49812311423216,-334.188959271511,165.970887300082,168.21807197143
0.830105146651909,333.321056614263,336.305545946139,2.98448933187535,-334.813301280201,165.168283641194,169.645017639007
0.832872163807416,331.343227692456,337.573781870135,6.23055417767921,-334.458504781296,162.556336757388,171.902168023907
0.835639180962922,330.710190175509,338.229239769274,7.51904959376441,-334.469714972392,161.595570290873,172.874144681519
0.838406198118428,333.219890006702,340.058402704698,6.83851269799624,-336.6391463557,163.190688654353,173.448457701347
0.841173215273935,336.672516109794,341.12324969872,4.4507335889262,-338.897882904257,166.110891260434,172.786991643823
0.843940232429441,339.462550035738,342.170577874486,2.70802783874876,-340.816563955112,168.377261098494,172.439302856618
0.846707249584947,340.418214117768,342.934963837701,2.5167497199327,-341.676588977735,168.950732198918,172.725856778817
0.849474266740454,338.143981280988,342.682377549071,4.53839626808309,-340.413179415029,166.802792506452,173.610386908577
0.85224128389596,335.673677936691,342.498029015347,6.82435107865672,-339.085853476019,164.424663429017,174.661190047002
0.855008301051467,336.031992081036,342.633639595031,6.60164751399452,-339.332815838033,164.715172283521,174.617643554513
0.857775318206973,337.914442704715,343.002770346089,5.08832764137355,-340.458606525402,166.413057531671,174.045548993731
0.860542335362479,340.368962446352,342.46170949614,2.09274704978844,-341.415335971246,169.138107698282,172.277228272964
0.863309352517986,341.349909797009,341.796663383935,0.446753586925468,-341.573286590472,170.451578105042,171.12170848543
0.866076369673492,338.823973584908,341.041127398251,2.21715381334309,-339.932550491579,168.303409885782,171.629140605797
0.868843386828998,334.549028824452,339.409079304905,4.86005048045325,-336.979054064679,164.844489171999,172.134564892679
0.871610403984505,332.239455582057,337.407470506436,5.16801492437889,-334.823463044246,163.535720328839,171.287742715407
0.874377421140011,331.364296533482,334.595827699251,3.2315311657693,-332.980062116366,164.066382683856,168.91367943251
0.877144438295517,331.265879561998,331.463142814505,0.197263252506787,-331.364511188252,165.534308154746,165.830203033506
0.879911455451024,330.113425699228,328.636459787466,-1.47696591176179,-329.374942743347,165.795195805495,163.579746937852
0.88267847260653,326.300596075793,325.222641679816,-1.07795439597669,-325.761618877804,163.689275235885,162.07234364192
0.885445489762037,320.005795305605,322.190775316404,2.18498001079882,-321.098285311005,158.910407647403,162.187877663602
0.888212506917543,315.141417854107,318.627205425274,3.48578757116769,-316.884311639691,155.82781514147,161.056496498221
0.890979524073049,312.401650823634,315.486043652929,3.08439282929504,-313.943847238281,154.658628997169,159.285218241112
0.893746541228556,312.022986146754,312.923330034005,0.900343887250415,-312.473158090379,155.561321129752,156.911836960628
0.896513558384062,311.74662008455,310.512636994737,-1.23398308981245,-311.129628539644,156.490301587181,154.639326952463
0.899280575539568,310.194134971442,307.942739019329,-2.25139595211328,-309.068436995386,156.222765461778,152.845671533608
0.902047592695075,305.549032601148,305.256646310239,-0.292386290909008,-305.402839455693,152.920709446028,152.482130009665
0.904814609850581,299.997583795995,303.026062020301,3.0284782243059,-301.511822908148,148.484552785844,153.027270122303
0.907581627006087,297.2966744298,300.587615296778,3.29094086697825,-298.942144863289,147.002866781411,151.939278081878
0.910348644161594,296.406057354071,297.727305255446,1.32124790137527,-297.066681304758,147.542404726348,149.524276578411
0.9131156613171,296.026202225621,295.639725739659,-0.386476485961794,-295.83296398264,148.206339355791,147.626624626849
0.915882678472607,295.478811107861,293.845962585966,-1.63284852189508,-294.662386846914,148.555829814878,146.106557032035
0.918649695628113,292.1075827703,291.726327055255,-0.381255715044745,-291.916954912777,146.244419242672,145.672535670105
0.921416712783619,286.945550591052,289.909168018197,2.96361742714589,-288.427359304625,141.990966581953,146.436392722672
0.924183729939126,283.988542106524,288.58292578296,4.59438367643617,-286.285733944742,139.697079215044,146.588654729698
0.926950747094632,284.531949951365,288.155288549761,3.62333859839691,-286.343619250563,140.454305676484,145.889313574079
0.929717764250138,286.2793338507,288.113336383411,1.83400253271077,-287.196335117055,142.222665658995,144.973669458061
0.932484781405645,288.094963558849,287.81256164353,-0.282401915319213,-287.953762601189,144.188682737084,143.765079864105
0.935251798561151,287.258839927909,287.32288685613,0.064046928220364,-287.29086339202,143.597396499845,143.693466892175
0.938018815716657,283.406725747301,286.695344542471,3.28861879517007,-285.051035144886,140.059053476066,144.991981668821
0.940785832872164,280.05497171768,285.967180471188,5.91220875350837,-283.011076094434,137.071381482086,145.939694612348
0.94355285002767,279.7699645548,285.165578235153,5.39561368035277,-282.467771394976,137.187175437224,145.280595957753
0.946319867183177,281.453047330501,285.120846246375,3.66779891587419,-283.286946788438,138.892624207314,144.394322581125
0.949086884338683,283.491903474868,285.358355094107,1.8664516192398,-284.425129284487,140.812725927814,143.612403356674
0.951853901494189,284.979949966721,285.261543239378,0.281593272657688,-285.12074660305,142.349178347032,142.771568256018
0.954620918649696,283.094273124658,285.461041920459,2.36676879580108,-284.277657522558,140.363752164428,143.91390535813
0.957387935805202,280.097086323831,286.146957217329,6.04987089349771,-283.12202177058,137.023607715167,146.098414055413
0.960154952960708,280.07085785036,286.647568235931,6.576710385571,-283.359213043146,136.747073732395,146.612139310751
0.962921970116215,282.212964856899,286.472623654384,4.25965879748497,-284.342794255641,138.976653029707,145.366141225934
0.965688987271721,284.586836984742,287.155410073889,2.56857308914743,-285.871123529316,141.009131947797,144.861991581518
0.968456004427227,286.319392811059,287.653737500784,1.33434468972467,-286.986565155922,142.492524060667,144.494041095254
0.971223021582734,286.503263070996,288.287594889629,1.7843318186325,-287.395428980312,142.359465626182,145.035963354131
0.97399003873824,283.665741307445,288.480055555565,4.81431424812007,-286.072898431505,139.425713529662,146.647184901842
0.976757055893747,282.135106098381,289.1608342008,7.02572810241963,-285.64797014959,137.55468899798,148.09328115161
0.979524073049253,283.179231194128,289.927852477988,6.74862128385968,-286.553541836058,138.215304955134,148.338236880924
0.982291090204759,285.562216680518,290.757812214845,5.19559553432748,-288.160014447682,140.183310573095,147.976703874586
0.985058107360266,287.571580046831,290.282928325701,2.71134827886976,-288.927254186266,142.430115883981,146.497138302285
0.987825124515772,288.767945205956,290.746805904742,1.97886069878564,-289.757375555349,143.394542253585,146.362833301764
0.990592141671278,286.93954276696,291.085364074257,4.1458213072965,-289.012453420608,141.396860729832,147.615592690777
0.993359158826785,284.254313545302,290.521990015582,6.26767647028021,-287.388151780442,138.993318537511,148.394833242931
0.996126175982291,284.455765373147,291.191439805953,6.73567443280547,-287.82360258955,138.860045470171,148.963557119379
0.998893193137798,287.304355857024,291.680033576918,4.37567771989478,-289.492194716971,141.464339068564,148.027855648407
1.0016602102933,290.193850562217,292.847099341191,2.65324877897359,-291.520474951704,143.770300891622,147.750174060082
1.00442722744881,292.302730323633,293.428718827711,1.12598850407807,-292.865724575672,145.588370909777,147.277353665894
1.00719424460432,291.680633422438,293.853210197002,2.17257677456354,-292.76692180972,144.754028323937,148.012893485783
1.00996126175982,288.795193956642,294.433178797864,5.63798484122179,-291.614186377253,141.57860455771,150.035581819543
1.01272827891533,286.959430098383,294.856465278513,7.89703518013056,-290.907947688448,139.531197459126,151.376750229322
1.01549529607084,288.321171368678,294.895242075142,6.57407070646428,-291.60820672191,140.873550331107,150.734656390803
1.01826231322634,290.935967047071,294.923543079285,3.98757603221463,-292.929755063178,143.474195507428,149.45555955575
1.02102933038185,293.114515642042,295.4845108151,2.3699951730581,-294.299513228571,145.372260234492,148.927252994079
1.02379634753735,293.083578529988,295.353617208682,2.27003867869394,-294.218597869335,145.406769925647,148.811827943688
1.02656336469286,290.629593364088,295.798397746875,5.16880438278719,-293.213995555481,142.73039449065,150.483601064831
1.02933038184837,288.298255110853,295.852861847884,7.55460673703084,-292.075558479369,140.371824186911,151.703734292457
1.03209739900387,288.487835851805,294.811987286195,6.32415143438953,-291.649911569,141.081842208708,150.568069360292
1.03486441615938,290.247137449168,294.592623876869,4.34548642770056,-292.419880663018,142.950825510734,149.469055152285
1.03763143331489,292.611777638934,295.242991490844,2.6312138519101,-293.927384564889,144.990281893512,148.937102671377
1.04039845047039,294.337595592593,295.987814465776,1.65021887318227,-295.162705029184,146.343688359705,148.819016669479
1.0431654676259,293.165767198667,296.531418887285,3.36565168861739,-294.848593042976,144.900057755025,149.948535287951
1.04593248478141,290.149265829635,296.387852773779,6.23858694414412,-293.268559301707,141.955339442745,151.313219858961
1.04869950193691,289.568628314795,296.283071937651,6.71444362285536,-292.925850126223,141.42709234597,151.498757780253
1.05146651909242,291.57625953828,295.936442083416,4.36018254513573,-293.756350810848,143.608038496572,150.148312314276
1.05423353624792,294.392297774952,296.493925073138,2.10162729818643,-295.443111424045,146.145335238383,149.297776185662
1.05700055340343,296.447565789118,296.900800570174,0.453234781055812,-296.674183179646,147.997165504031,148.677017675615
1.05976757055894,296.326653110967,297.738068547971,1.41141543700388,-297.032360829469,147.457618836981,149.574741992487
1.06253458771444,293.266687413324,298.078987168693,4.81229975536877,-295.672837291008,144.227193828978,151.445643462031
1.06530160486995,291.573702880757,297.247179658797,5.67347677804065,-294.410441269777,142.950113051358,151.460328218419
1.06806862202546,292.76949454311,297.99087117414,5.22137663103001,-295.380182858625,143.77405895604,151.606123902585
1.07083563918096,296.073641566619,299.884430866254,3.81078929963587,-297.979036216437,146.131426133491,151.847610082945
1.07360265633647,299.025465170533,300.726121221251,1.70065605071869,-299.875793195892,148.662404559907,151.213388635985
1.07636967349198,300.639522867757,302.150892333988,1.51136946623154,-301.395207600873,149.564076700763,151.83113090011
1.07913669064748,299.11597073304,302.650440256381,3.53446952334076,-300.883205494711,147.79075060485,153.092454889861
1.08190370780299,296.923390824141,303.555344628155,6.6319538040139,-300.239367726148,145.145718510063,155.093649216084
1.08467072495849,297.484399692629,303.945627250873,6.46122755824365,-300.715013471751,145.511586067193,155.203427404558
1.087437742114,299.244629589738,303.690160174934,4.44553058519625,-301.467394882336,147.399549502271,154.067845380065
1.09020475926951,301.609947293307,303.503709116489,1.89376182318188,-302.556828204898,149.858092735063,152.698735469836
1.09297177642501,303.606415938079,303.637785181565,0.0313692434857558,-303.622100559822,151.787523347297,151.834577212525
1.09573879358052,302.632120269814,304.005795976669,1.37367570685461,-303.318958123241,150.62922228148,152.689735841762
1.09850581073603,300.570255569172,305.355011216926,4.78475564775363,-302.962633393049,147.892749960709,155.06988343234
1.10127282789153,300.416197484806,307.150196214491,6.7339987296848,-303.783196849649,146.841099377561,156.942097472088
1.10403984504704,303.005321267637,309.541025680991,6.53570441335455,-306.273173474314,148.234808427141,158.038365047173
1.10680686220255,306.786070660333,311.285957715591,4.49988705525823,-309.036014187962,151.143091802537,157.892922385425
1.10957387935805,310.085739542805,312.55948552175,2.47374597894452,-311.322612532277,153.80599678193,157.516615750347
1.11234089651356,311.413357532071,314.029274303827,2.61591677175511,-312.721315917949,154.398720380158,158.322595537791
1.11510791366906,309.680749155829,314.831834304415,5.15108514858599,-312.256291730122,152.264832003621,159.9914597265
1.11787493082457,307.335590847682,315.147421523572,7.81183067589035,-311.241506185627,149.761880085896,161.479626099731
1.12064194798008,307.515085107405,314.837438471344,7.32235336393899,-311.176261789375,150.096365871733,161.079895917641
1.12340896513558,309.267025149098,314.341043054378,5.07401790528002,-311.804034101738,152.096503621909,159.707530479829
1.12617598229109,311.626292553188,314.248908154722,2.62261560153411,-312.937600353955,154.501838475827,158.435761878128
1.1289429994466,313.078033000725,314.45182028241,1.37378728168488,-313.764926641568,155.85212285952,157.912803782048
1.1317100166021,311.165858417747,314.599914438339,3.43405602059227,-312.882886428043,153.865901198577,159.016985229466
1.13447703375761,307.879176193442,314.167687614359,6.28851142091702,-311.0234319039,150.795332386262,160.228099517638
1.13724405091312,306.831192647839,313.311917128071,6.48072448023197,-310.071554887955,150.175234083803,159.896320804151
1.14001106806862,308.227578061993,312.68733835459,4.45976029259702,-310.457458208292,151.883908884698,158.573549323594
1.14277808522413,310.057189917961,312.231493416568,2.17430349860689,-311.144341667265,153.941443209677,157.202898457588
1.14554510237963,311.392520765726,311.088329184588,-0.304191581137502,-311.240424975157,155.848356173432,155.392068801725
1.14831211953514,309.125229147603,309.173373023581,0.0481438759774733,-309.149301085592,154.538542635813,154.610758449779
1.15107913669065,304.498742113653,308.045910376803,3.54716826314996,-306.272326245228,150.475786925251,155.796539319976
1.15384615384615,300.581816867325,306.41257013209,5.83075326476575,-303.497193499707,147.375531801279,156.121661698428
1.15661317100166,299.61416679083,304.680174476844,5.06600768601334,-302.147170633837,147.274079552408,154.873091081428
1.15938018815717,300.258714452777,302.875483845538,2.61676939276083,-301.567099149158,148.820972530008,152.746126619149
1.16214720531267,300.999289771873,301.558341598786,0.559051826912707,-301.27881568533,150.22011897248,151.058696712849
1.16491422246818,300.45916922067,300.326877300041,-0.1322919206292,-300.393023260356,150.29573057065,150.097292689706
1.16768123962369,297.093247260946,299.698256943172,2.60500968222567,-298.395752102059,147.24411878936,151.151633312699
1.17044825677919,293.015712756087,298.428993645005,5.413280888918,-295.722353200546,143.801215933584,151.921137266961
1.1732152739347,291.660686798066,297.232473499467,5.57178670140064,-294.446580148767,143.044450048333,151.402130100434
1.1759822910902,292.562823002954,296.359200703875,3.79637770092177,-294.461011853415,144.383222651016,150.077789202399
1.17874930824571,294.572022567495,295.992004190543,1.41998162304856,-295.282013379019,146.576020472223,148.705992906796
1.18151632540122,295.768268176913,296.264320520008,0.49605234309513,-296.016294348461,147.636107916909,148.380186431552
1.18428334255672,294.48009090905,296.733225113346,2.25313420429603,-295.606658011198,146.113478352377,149.493179658821
1.18705035971223,290.838360613376,296.535139794276,5.69677918089963,-293.686750203826,142.570790716238,151.115959487588
1.18981737686774,288.990935014654,296.120412242761,7.12947722810662,-292.555673628707,140.930728893274,151.624944735434
1.19258439402324,289.803852612371,295.817725915522,6.01387330315112,-292.810789263946,141.89498965461,150.915799609336
1.19535141117875,291.747936530683,294.516187332349,2.76825080166594,-293.132061931516,144.489842864508,148.642219067007
1.19811842833426,293.707126525806,293.836423694282,0.129297168475716,-293.771775110044,146.788914678665,146.982860431379
1.20088544548976,293.51609190228,294.150771061258,0.63467915897786,-293.833431481769,146.440706371651,147.392725110118
1.20365246264527,289.864635714651,294.110039322489,4.24540360783749,-291.98733751857,142.809616053407,149.177721465163
1.20641947980077,286.659330674744,293.539999092225,6.88066841748093,-290.099664883485,139.889331128632,150.210333754853
1.20918649695628,285.940895973541,292.043333923697,6.102437950156,-288.992114948619,139.919229011693,149.072885936927
1.21195351411179,286.767331929051,289.600221088181,2.83288915913027,-288.183776508616,141.96722138496,146.216555123656
1.21472053126729,287.100344865593,288.087286573354,0.986941707760877,-287.593815719474,143.056701578916,144.537114140558
1.2174875484228,287.073236076824,286.712924503991,-0.360311572832472,-286.893080290408,143.716773824828,143.176306465579
1.22025456557831,284.892201200764,286.250167308771,1.3579661080073,-285.571184254767,141.767117546378,143.804066708389
1.22302158273381,281.139136749807,285.642270632556,4.5031338827493,-283.390703691181,138.318001433529,145.072702257653
1.22578859988932,280.291079456932,284.928444807725,4.63736535079312,-282.609762132328,137.826857053069,144.782905079259
1.22855561704483,282.643848440338,286.028400734896,3.38455229455803,-284.336124587617,139.62964807289,144.706476514727
1.23132263420033,288.143189233982,291.694008549247,3.55081931526536,-289.918598891614,142.296184959358,147.622413932256
1.23408965135584,297.830129400327,302.853078727185,5.02294932685737,-300.341604063756,146.403590036735,153.938014027021
1.23685666851134,310.033050532267,319.642455557734,9.60940502546651,-314.837753045,150.2118227534,164.6259302916
1.23962368566685,324.072244742995,341.081389147692,17.0091444046969,-332.576816945343,153.531550169149,179.045266776194
1.24239070282236,342.693505996043,365.643616644183,22.9501106481403,-354.168561320113,159.871697673951,194.296863646162
1.24515771997786,365.739585264203,391.134579737499,25.3949944732962,-378.437082500851,170.172295395453,208.264787105398
1.24792473713337,388.773215931831,412.980875347025,24.2076594151937,-400.877045639428,182.282778258319,218.594267381109
1.25069175428888,407.205105463872,428.38494606751,21.1798406036375,-417.795025765691,193.012632430117,224.782393335574
1.25345877144438,416.335006152354,433.413918521698,17.0789123693434,-424.874462337026,199.628046891505,225.24641544552
1.25622578859989,414.083252464307,427.628815412548,13.5455629482404,-420.856033938428,200.268844758033,220.587189180394
1.2589928057554,403.524669030927,413.410814005402,9.88614497447492,-408.467741518164,196.819262028226,211.648479489938
1.2617598229109,389.064647203848,392.497801735802,3.4331545319539,-390.781224469825,192.815746335947,197.965478133878
1.26452684006641,373.107965859722,368.58957085989,-4.51839499983146,-370.848768359806,188.813180429777,182.035587930029
1.26729385722191,357.950050347236,347.358110103764,-10.5919402434716,-352.6540802255,184.270995295354,168.383084930146
1.27006087437742,343.915421538885,330.241523086785,-13.6738984521006,-337.078472312835,178.794659995493,158.283812317342
1.27282789153293,329.890147918221,318.019244590356,-11.8709033278651,-323.954696254288,170.880525623043,153.074170631245
1.27559490868843,316.952326970662,309.909359188577,-7.0429677820847,-313.430843079619,161.997647376373,151.433195703246
1.27836192584394,308.860519779527,305.341190765014,-3.51932901451283,-307.10085527227,156.18992439702,150.910930875251
1.28112894299945,305.656326685061,302.547453841696,-3.10887284336536,-304.101890263378,154.382599764213,149.719290499165
1.28389596015495,305.208859742203,301.859243361905,-3.34961638029773,-303.534051552054,154.27923806125,149.254813490804
1.28666297731046,305.152434985437,301.356957218306,-3.7954777671315,-303.254696101871,154.473956376284,148.780739725587
1.28942999446597,303.490316455985,300.179898160921,-3.31041829506347,-301.835107308453,153.400367375524,148.434739932929
1.29219701162147,298.7651988178,299.050672707758,0.285473889957871,-298.907935762779,149.239862463921,149.668073298858
1.29496402877698,294.235976213908,298.496670737241,4.2606945233332,-296.366323475575,144.987640845287,151.378682630287
1.29773104593248,292.821444714509,297.822179628577,5.00073491406874,-295.321812171543,143.91035490022,151.411457271323
1.30049806308799,293.680151169662,297.329906482771,3.64975531310967,-295.505028826216,145.015197928276,150.48983089794
1.3032650802435,295.117341377396,296.700467773371,1.583126395975,-295.908904575383,146.76710749071,149.141797084673
1.306032097399,296.166265722869,297.051544476922,0.885278754052706,-296.608905099896,147.640493484408,148.968411615487
1.30879911455451,294.500410733785,297.848088051909,3.34767731812377,-296.174249392847,145.576366707831,150.597882685016
1.31156613171002,291.933815758721,297.889128008343,5.95531224962224,-294.911471883532,142.989251754549,151.922220128983
1.31433314886552,290.871070995144,297.64892455374,6.77785355859623,-294.259997774442,142.046608718274,152.213389056168
1.31710016602103,292.256683026054,297.473613554511,5.21693052845677,-294.865148290283,143.519876248799,151.345272041484
1.31986718317654,294.8889006308,297.345663910733,2.45676327993317,-296.117282270767,146.216068675434,149.901213595333
1.32263420033204,296.810008298626,298.332905505515,1.52289720688947,-297.571456902071,147.643555545868,149.927901356202
1.32540121748755,296.050867101341,298.513125227106,2.46225812576449,-297.281996164224,146.794304487788,150.487691676435
1.32816823464305,293.605719131089,299.725282318893,6.11956318780403,-296.665500724991,143.743077971643,152.922422753349
1.33093525179856,292.361455497689,300.60996764257,8.24851214488075,-296.48571157013,142.056471676404,154.429239893725
1.33370226895407,293.884743320903,301.795962154247,7.91121883334404,-297.840352737575,142.98676224378,154.853590493796
1.33646928610957,296.347286535566,301.580928033863,5.23364149829695,-298.964107284714,145.556822518634,153.40728476608
1.33923630326508,298.684870827528,301.694142928736,3.0092721012079,-300.189506878132,147.83779936316,152.351707514972
1.34200332042059,299.8506297785,301.776772116483,1.92614233798287,-300.813700947491,148.962243720259,151.851457227233
1.34477033757609,298.270045800477,302.377390939621,4.10734513914423,-300.323718370049,147.081350330666,153.242368039383
1.3475373547316,296.305997766887,303.085905068593,6.7799073017066,-299.69595141774,144.76304523259,154.93290618515
1.35030437188711,296.763642993087,303.603009704425,6.83936671133813,-300.183326348756,144.962138140874,155.221188207882
1.35307138904261,299.258902213569,304.520727734442,5.26182552087363,-301.889814974005,146.998538346347,154.891276627658
1.35583840619812,302.160676502894,305.190518537904,3.02984203500995,-303.675597520399,149.565417233942,154.110180286457
1.35860542335362,305.088987078123,306.489829830771,1.40084275264729,-305.789408454447,151.844072162738,153.945336291709
1.36137244050913,305.335102878064,307.167967894843,1.83286501677918,-306.251535386453,151.751118930642,154.500416455811
1.36413945766464,302.813166847094,308.473371384014,5.66020453692039,-305.643269115554,148.576481155087,157.066787960467
1.36690647482014,301.512859924577,309.155955799715,7.64309587513867,-305.334407862146,146.934882024719,158.399525837427
1.36967349197565,303.265401113234,309.92429200726,6.658890894026,-306.594846560247,148.303255109604,158.291591450643
1.37244050913116,306.435575896316,310.755213627402,4.31963773108606,-308.595394761859,151.057969082615,157.537425679244
1.37520752628666,309.829933116516,311.901969034027,2.07203591751147,-310.865951075272,153.878948599502,156.987002475769
1.37797454344217,310.416190165266,313.009077555927,2.59288739066119,-311.712633860597,153.911651387302,157.800982473294
1.38074156059768,308.142504111826,313.81709383342,5.67458972159341,-310.979798972623,151.233957195116,159.745841777507
1.38350857775318,306.753224681441,313.866507070511,7.11328238907009,-310.309865875976,149.819971146185,160.489894729791
1.38627559490869,307.630361202301,314.713039650268,7.08267844796717,-311.171700426285,150.273841377167,160.897859049118
1.38904261206419,310.431783538365,315.871188618796,5.43940508043107,-313.15148607858,152.496189228967,160.655296849613
1.3918096292197,313.557009075751,316.716456449203,3.15944737345154,-315.136732762477,155.19878085115,159.937951911327
1.39457664637521,316.108091732585,317.603526136402,1.49543440381711,-316.855808934493,157.306328664384,159.549480270109
1.39734366353071,314.998265232088,318.521104649112,3.52283941702416,-316.7596849406,155.737712907532,161.021972033068
1.40011068068622,312.567327983571,319.190793626734,6.62346564316346,-315.879060805153,152.971931170204,162.907129634949
1.40287769784173,312.143904592769,319.67956196703,7.53565737426089,-315.9117332799,152.304123609254,163.607609670645
1.40564471499723,314.266277568089,320.846755139643,6.58047757155452,-317.556516353866,153.842899998267,163.713616355599
1.40841173215274,317.976527995191,321.428467614349,3.45193961915885,-319.70249780477,157.262294188016,162.440203616754
1.41117874930825,320.954587433683,322.933651697977,1.97906426429398,-321.94411956583,159.487761584694,162.456357981135
1.41394576646375,322.047480768057,324.842669587017,2.79518881896001,-323.445075177537,159.626145974549,163.818929202989
1.41671278361926,320.954028696135,326.776266858502,5.82223816236677,-323.865147777319,157.565895266884,166.299252510435
1.41947980077476,320.696291917571,328.187490815838,7.49119889826693,-324.441891366704,156.602546509652,167.839344857052
1.42224681793027,322.669434025736,329.217463854757,6.54802982902066,-325.943448940246,158.060702098358,167.882746841889
1.42501383508578,325.730456807705,330.239339491023,4.50888268331829,-327.984898149364,160.610787062193,167.374111087171
1.42778085224128,329.315306329803,331.525461500135,2.21015517033283,-330.420383914969,163.552575579735,166.867808335234
1.43054786939679,331.391374061137,332.734285871133,1.34291180999554,-332.062829966135,165.024231125571,167.038598840564
1.4333148865523,330.745329503612,334.69716367673,3.9518341731175,-332.721246590171,163.396747665247,169.324498924924
1.4360819037078,329.193193048962,335.859601638128,6.66640858916617,-332.526397343545,161.263392229898,171.263005113647
1.43884892086331,329.951469382309,336.978155975211,7.02668659290157,-333.46481267876,161.462391394704,172.002421284056
1.44161593801882,332.936298560733,337.524369697943,4.5880711372107,-335.230334129338,164.174113711761,171.056220417577
1.44438295517432,336.195382442716,338.463332814213,2.26795037149765,-337.329357628464,166.963716035609,170.365641592855
1.44714997232983,338.57400456897,339.418785423776,0.844780854806004,-338.996394996373,168.864611857082,170.131783139291
1.44991698948533,338.41893366902,341.196741423203,2.77780775418307,-339.807837546112,167.820562957419,171.987274588693
1.45268400664084,336.144506440999,342.764527776822,6.6200213358232,-339.454517108911,164.762242552588,174.692274556323
1.45545102379635,336.105467128308,344.719235543738,8.61376841543074,-340.412351336023,163.745849356438,176.666501979585
1.45821804095185,338.778536647164,346.145866865028,7.36733021786489,-342.462201756096,165.705603214649,176.756598541447
1.46098505810736,342.350397101966,347.457241084693,5.10684398272736,-344.903819093329,168.621776559619,176.28204253371
1.46375207526287,345.767765902579,349.494964260313,3.72719835773421,-347.631365081446,171.020283772422,176.611081309024
1.46651909241837,347.181286445964,351.252340073837,4.07105362787274,-349.2168132599,171.555116409046,177.661696850855
1.46928610957388,346.051685938972,352.264793682872,6.21310774390008,-349.158239810922,169.919289097536,179.238950713386
1.47205312672939,344.416785390263,352.19325802458,7.77647263431737,-348.305021707421,168.320156377973,179.984865329449
1.47482014388489,344.574344439937,351.330579533131,6.75623509319325,-347.952461986534,168.909054673372,179.043407313162
1.4775871610404,345.769962781093,350.700958994994,4.93099621390189,-348.235460888044,170.419483283595,177.815977604448
1.4803541781959,347.1828898241,349.971278144486,2.78838832038582,-348.577083984293,172.197250751857,176.379833232436
1.48312119535141,347.403637213903,348.35810026094,0.954463047036654,-347.880868737421,173.224587083433,174.656281653988
1.48588821250692,344.322873782637,346.910576191616,2.58770240897928,-345.616724987126,170.867585686829,174.749139300298
1.48865522966242,340.453460458404,345.583953529582,5.13049307117802,-343.018706993993,167.661483693613,175.35722330038
1.49142224681793,337.899549391883,344.075413796763,6.17586440487969,-340.987481594323,165.861842493502,175.125639100821
1.49418926397344,338.196842959524,342.163946808005,3.9671038484812,-340.180394883764,167.114869555521,173.065525328243
1.49695628112894,339.224289458732,340.498718288176,1.27442882944428,-339.861503873454,168.974930314644,170.88657355881
1.49972329828445,338.893540056326,338.202736749678,-0.690803306648206,-338.548138403002,169.792171681487,168.755966721515
1.50249031543996,335.410270117094,334.906091614918,-0.504178502175762,-335.158180866006,167.957224309635,167.200956556371
1.50525733259546,329.35599643524,331.689587006035,2.33359057079559,-330.522791720637,163.511202932222,167.011588788415
1.50802434975097,323.856697549423,327.721103826526,3.86440627710323,-325.788900687974,159.99614563616,165.792755051815
1.51079136690647,321.193849477906,323.744106182182,2.55025670427636,-322.468977830044,159.321796386815,163.147181443229
1.51355838406198,320.331011201667,320.031050520442,-0.29996068122432,-320.181030861055,160.315485941446,159.865544919609
1.51632540121749,319.160961621851,317.050943698875,-2.11001792297583,-318.105952660363,160.635489772413,157.47046288795
1.51909241837299,316.68607093299,314.06546261158,-2.62060832140997,-315.375766772285,159.6533396272,155.722427145085
1.5218594355285,311.367756583097,311.076059149828,-0.291697433268723,-311.221907866463,155.829727008183,155.39218085828
1.52462645268401,305.595124408412,308.353949179316,2.75882477090391,-306.974536793864,151.418149818754,155.55638697511
1.52739346983951,302.732785733927,305.556765491121,2.82397975719374,-304.144775612524,149.954402988367,154.190372624157
1.53016048699502,301.994506692192,303.515258352037,1.52075165984479,-302.754882522115,150.236877516174,152.518005005941
1.53292750415053,302.266146955292,301.755120836286,-0.51102611900626,-302.010633895789,151.388586537149,150.62204735864
1.53569452130603,301.653933278306,300.470495404163,-1.18343787414295,-301.062214341234,151.418685576224,149.64352876501
1.53846153846154,298.775707022305,299.532919512456,0.757212490150778,-299.154313267381,149.009247266077,150.145066001304
1.54122855561704,294.243645561691,298.03816693638,3.79452137468945,-296.140906249036,145.224562093501,150.916344155535
1.54399557277255,291.74641729286,297.487543477686,5.74112618482548,-294.616980385273,143.002645554017,151.614334831256
1.54676258992806,291.814924236417,296.545361943017,4.73043770659922,-294.180143089717,143.542243264909,150.637899824808
1.54952960708356,293.215704662974,295.857716602649,2.64201193967466,-294.536710632812,145.28684636165,149.249864271162
1.55229662423907,294.238055555829,295.355842922546,1.11778736671761,-294.796949239187,146.560134094556,148.236815144632
1.55506364139458,293.363274733036,293.908928687212,0.545653954175577,-293.636101710124,146.40881038943,147.227291320694
1.55783065855008,289.482946841087,292.312594896855,2.82964805576751,-290.897770868971,143.32664939266,147.571121476311
1.56059767570559,286.110601209504,291.417676808055,5.30707559855108,-288.76413900878,140.401762805477,148.362376203303
1.5633646928611,285.540409181973,291.034682611933,5.49427342995995,-288.287545896953,140.023067876006,148.264478020946
1.5661317100166,287.555663979483,291.025312888875,3.46964890939171,-289.290488434179,142.043007535046,147.247480899133
1.56889872717211,290.107110022429,291.288630666577,1.18152064414767,-290.697870344503,144.462794689141,146.235075655362
1.57166574432761,291.699110855746,292.291280146551,0.592169290804975,-291.995195501148,145.553470782471,146.441724718678
1.57443276148312,289.889304444049,292.212589005565,2.32328456151589,-291.050946724807,143.783009941267,147.267936783541
1.57719977863863,286.947491205528,292.155156765136,5.20766555960824,-289.551323985332,140.86991282296,148.681411162372
1.57996679579413,286.421364358789,292.653552624964,6.23218826617489,-289.537458491877,140.094588046307,149.442870445569
1.58273381294964,287.928467431031,292.206835111673,4.27836768064253,-290.067651271352,141.825049875194,148.242601396158
1.58550083010515,290.109042093862,292.150957321422,2.04191522755951,-291.129999707642,144.033563433151,147.096436274491
1.58826784726065,291.970677177951,292.380331475184,0.409654297232464,-292.175504326568,145.780511440359,146.394992886208
1.59103486441616,291.708442708606,293.358207412079,1.64976470347341,-292.533325060342,145.029339002566,147.503986057776
1.59380188157167,288.545334179533,293.801747878311,5.25641369877815,-291.173541028922,141.644460240377,149.529080788544
1.59656889872717,286.236759068413,293.58515070863,7.34839164021741,-289.910954888522,139.444183714098,150.466771174424
1.59933591588268,286.713109559107,293.156912397941,6.44380283883356,-289.935010978524,140.134653360137,149.800357618387
1.60210293303818,289.492176912558,294.195146386404,4.70296947384651,-291.843661649481,142.394603719356,149.449057930125
1.60486995019369,292.060774381007,294.412582589764,2.35180820875757,-293.236678485386,144.854483086125,148.382195399261
1.6076369673492,293.665293075685,294.571277052101,0.905983976416053,-294.118285063893,146.379654549634,147.738630514259
1.6104039845047,292.134778959215,295.497567855263,3.3627888960475,-293.816173407239,144.385995031584,149.430178375655
1.61317100166021,289.396805467437,294.822834384593,5.42602891715535,-292.109819926015,141.985388275141,150.124431650874
1.61593801881572,289.019449793633,295.140852987997,6.12140319436384,-292.080151390815,141.449023299634,150.63112809118
1.61870503597122,290.905288794165,295.643113102072,4.73782430790715,-293.274200948118,143.083732243129,150.19046870499
1.62147205312673,293.3622815216,295.739528314483,2.377246792883,-294.550904918041,145.492517364358,149.058387553683
1.62423907028224,295.155502401195,296.080052570214,0.924550169018801,-295.617777485704,147.115476116088,148.502301369616
1.62700608743774,294.303023825936,296.058425871094,1.75540204515795,-295.180724848515,146.273810890389,148.906913958126
1.62977310459325,291.78975415017,296.582954182827,4.79320003265769,-294.186354166498,143.498277058756,150.688077107742
1.63254012174875,290.225616101292,296.155309277228,5.92969317593662,-293.19046268926,142.147961462678,151.042501226582
1.63530713890426,291.785601781259,296.383507723095,4.59790594183607,-294.084554752177,143.593847919712,150.490706832466
1.63807415605977,294.274928698711,296.820213153144,2.54528445443265,-295.547570925927,145.864822122139,149.682748803788
1.64084117321527,296.361904697906,296.05831505102,-0.303589646885769,-296.210109874463,148.332747172396,147.877362702067
1.64360819037078,296.534290107533,297.123185725228,0.5888956176953,-296.82873791638,147.972697244919,148.856040671462
1.64637520752629,293.958542409196,297.360062548215,3.401520139019,-295.659302478706,145.278511135089,150.380791343617
1.64914222468179,291.268180316165,297.803101837896,6.53492152173118,-294.53564107703,142.366629397217,152.169011679814
1.6519092418373,291.736042161594,298.126451311366,6.3904091497717,-294.93124673648,142.672816505911,152.258430230569
1.65467625899281,293.428289282542,297.551977280358,4.12368799781621,-295.49013328145,144.652300642363,150.837832639087
1.65744327614831,294.933521543615,296.322232341771,1.38871079815578,-295.627876942693,146.77240537273,148.855471569963
1.66021029330382,296.302262170921,296.505335484847,0.20307331392587,-296.403798827884,148.049594428498,148.354204399386
1.66297731045932,295.139979320346,296.638972176408,1.49899285606165,-295.889475748377,146.820493232142,149.068982516235
1.66574432761483,292.670757130576,297.546974721225,4.87621759064837,-295.108865925901,143.897269769964,151.211596155937
1.66851134477034,291.949235501351,298.479830950036,6.53059544868501,-295.214533225693,142.709320026333,152.50521319936
1.67127836192584,293.583887117233,298.890514061979,5.30662694474535,-296.237200589606,144.138630086244,152.098570503362
1.67404537908135,295.587396080454,298.379779944504,2.79238386405041,-296.983588012479,146.397506108202,150.586081904277
1.67681239623686,297.860113287335,298.547336245224,0.687222957888821,-298.203724766279,148.586445164723,149.617279601556
1.67957941339236,297.087435916105,298.939782382337,1.85234646623258,-298.013609149221,147.617544724936,150.396064424285
1.68234643054787,293.821940017769,298.956050545813,5.1341105280444,-296.388995281791,144.343914744862,152.045080536929
1.68511344770338,291.708794333081,298.697767551998,6.98897321891729,-295.20328094254,142.359910557082,152.843370385458
1.68788046485888,292.597933988546,298.509261313384,5.9113273248372,-295.553597650965,143.343303331855,152.21029431911
1.69064748201439,294.597648102225,298.641837417979,4.04418931575424,-296.619742760102,145.276729393235,151.343013366867
1.69341449916989,296.057127026125,297.657972416885,1.60084539076013,-296.857549721505,147.228140817682,149.629408903823
1.6961815163254,296.582006228895,297.480217081223,0.898210852328532,-297.031111655059,147.841897688283,149.189213966776
1.69894853348091,293.993367723966,298.431108301171,4.43774057720441,-296.212238012568,144.777813573381,151.434424439188
1.70171555063641,291.833909779562,299.665422774978,7.83151299541572,-295.74966627727,142.001198392073,153.748467885197
1.70448256779192,292.68924871996,301.376748161898,8.68749944193877,-297.032998440929,142.00087463901,155.032123801919
1.70724958494743,296.285230862941,302.625748365009,6.34051750206754,-299.455489613975,144.972356680437,154.483132933538
1.71001660210293,299.990360939703,303.267167192748,3.27680625304492,-301.628764066225,148.356777343329,153.271986722896
1.71278361925844,302.694527110435,304.275615163505,1.58108805307006,-303.48507113697,150.556719528683,152.928351608288
1.71555063641395,302.236740085366,304.741468438742,2.50472835337536,-303.489104262054,149.866005865995,153.623098396059
1.71831765356945,300.011533585732,304.81131234598,4.79977876024805,-302.411422965856,147.605877412742,154.805545553114
1.72108467072496,298.657636656543,305.672756123432,7.01511946688879,-302.165196389988,145.821258594827,156.343937795161
1.72385168788047,300.100909299854,306.031319301356,5.93041000150203,-303.066114300605,147.085249649176,155.980864651429
1.72661870503597,302.775210144379,306.293014409415,3.51780426503564,-304.534112276897,149.628702939672,154.905409337225
1.72938572219148,305.267344427086,306.484010958415,1.21666653132945,-305.87567769275,152.025338947878,153.850338744872
1.73215273934698,306.005588305014,307.433877238872,1.42828893385774,-306.719732771943,152.288649685578,154.431083086365
1.73491975650249,304.112985106599,308.937599878831,4.82461477223154,-306.525292492715,149.644185167184,156.881107325531
1.737686773658,302.731680418844,310.305238718544,7.57355829970015,-306.518459568694,147.579061059572,158.939398509122
1.7404537908135,304.695262103562,311.843713853856,7.14845175029399,-308.269487978709,148.773405176634,159.496082802075
1.74322080796901,308.289619693609,313.506872798296,5.21725310468736,-310.898246245952,151.536183294461,159.362062951492
1.74598782512452,311.993564100503,315.261031446309,3.26746734580615,-313.627297773406,154.363048377348,159.264249396058
1.74875484228002,314.426708705576,317.081605662696,2.65489695712051,-315.754157184136,155.885905874228,159.868251309908
1.75152185943553,313.50096206249,318.140184233482,4.63922217099167,-315.820573147986,154.430869945749,161.389703202237
1.75428887659103,311.474530566295,318.642625015743,7.16809444944863,-315.058577791019,152.153218058423,162.905359732596
1.75705589374654,310.806020762344,318.739172087708,7.93315132536389,-314.772596425026,151.43643471849,163.336161706536
1.75982291090205,312.479362729601,317.729011520956,5.24964879135581,-315.104187125279,153.614856969122,161.489330156156
1.76258992805755,314.781265817304,317.532064530044,2.75079871273999,-316.156665173674,156.015233552282,160.141431621392
1.76535694521306,317.001607910481,317.928636415879,0.927028505398198,-317.46512216318,158.037289702541,159.427832460639
1.76812396236857,316.190704887862,317.947915731431,1.7572108435694,-317.069310309646,157.216747022146,159.8525632875
1.77089097952407,312.62715402344,317.691830408254,5.06467638481394,-315.159492215847,153.781238819313,161.378253396534
1.77365799667958,309.756162349491,316.424303278416,6.66814092892486,-313.090232813954,151.544010710283,161.54622210367
1.77642501383509,309.281724181721,315.229050264548,5.94732608282686,-312.255387223134,151.667199049447,160.588188173687
1.77919203099059,309.745927067738,312.465608794033,2.71968172629511,-311.105767930885,153.513122670721,157.592645260164
1.7819590481461,311.165347508015,311.529353050408,0.364005542392817,-311.347350279212,155.400670982811,155.9466792964
1.78472606530161,310.850521639736,310.30572018808,-0.544801451655189,-310.578120913908,155.697661545695,154.880459368213
1.78749308245711,307.108717181098,308.872346920818,1.76362973971931,-307.990532050958,152.67254372069,155.317988330269
1.79026009961262,302.756847169341,307.285895921894,4.52904875255228,-305.021371545617,149.113899208394,155.907472337223
1.79302711676812,300.661286722005,305.587722091415,4.92643536941063,-303.12450440671,147.867425676297,155.257078730413
1.79579413392363,301.02294842997,304.61847668195,3.59552825198017,-302.82071255596,148.713710088995,154.107002466965
1.79856115107914,302.097373616548,303.370766516937,1.27339290038952,-302.734070066742,150.411990358079,152.322079708663
1.80132816823464,301.800911317293,301.649664368003,-0.15124694929051,-301.725287842648,150.976079133292,150.749208709356
1.80409518539015,299.693446666667,300.393528655869,0.700081989201919,-300.043487661268,149.496682338732,150.546805322535
1.80686220254566,295.183608352119,299.20658959745,4.02298124533093,-297.195098974784,145.580313553394,151.61478542139
1.80962921970116,291.892130872783,297.529840863161,5.63770999037808,-294.710985867972,143.127210441202,151.583775426769
1.81239623685667,292.461584811313,297.116544850803,4.65496003948994,-294.789064831058,143.903312385911,150.885752445146
1.81516325401217,293.957822078461,297.085059535397,3.1272374569358,-295.521440806929,145.415292310763,150.106148496166
1.81793027116768,295.319997765327,297.06208017353,1.7420824082036,-296.191038969429,146.788957678562,149.402081290867
1.82069728832319,295.233548381239,296.504996405274,1.27144802403512,-295.869272393256,146.981050178602,148.888222214654
1.82346430547869,292.468891716558,296.098412277545,3.62952056098652,-294.283651997051,144.419685577786,149.863966419266
1.8262313226342,289.100343164175,295.80166937757,6.70132621339479,-292.451006270872,141.19950847539,151.251497795482
1.82899833978971,289.073234835054,294.774624779737,5.70138994468283,-291.923929807396,141.685922445186,150.23800736221
1.83176535694521,290.404231048797,294.835511295493,4.43128024669591,-292.619871172145,142.986475401051,149.633395771095
1.83453237410072,292.456275214906,294.609792728927,2.15351751402034,-293.533033971917,145.151378850443,148.381655121474
1.83729939125623,294.224103114378,294.174897223381,-0.0492058909964612,-294.19950016888,147.136654502687,147.062845666192
1.84006640841173,292.272466782827,294.127647652046,1.85518086921843,-293.200057217437,145.208642956804,147.991414260632
1.84283342556724,288.686827434587,293.823006634043,5.13617919945665,-291.254917034315,141.775324117565,149.47959291675
1.84560044272275,286.880339465419,292.520041431958,5.63970196653901,-289.700190448689,140.62031874944,149.079871699249
1.84836745987825,286.64251029028,289.948143101839,3.30563281155884,-288.29532669606,141.668438739361,146.626887956699
1.85113447703376,287.549556991656,288.611371505648,1.06181451399129,-288.080464248652,143.243871238833,144.836593009819
1.85390149418926,288.211559392198,287.635737060021,-0.575822332177154,-287.923648226109,144.393690862187,143.529957363922
1.85666851134477,287.343936672601,287.734144956011,0.390208283409834,-287.539040814306,143.476864194596,144.06217661971
1.85943552850028,284.279301713419,288.076123559473,3.79682184605423,-286.177712636446,140.241239933682,145.936472702764
1.86220254565578,282.582909349323,289.136183154498,6.55327380517571,-285.859546251911,138.014817772074,147.844728479837
1.86496956281129,285.397151098233,292.61142318369,7.21427208545657,-289.004287140962,139.091439506388,149.912847634573
1.8677365799668,293.934857041886,301.63155461617,7.69669757428312,-297.783205829028,143.119079733802,154.664126095226
1.8705035971223,307.460266410263,316.319527866415,8.85926145615286,-311.889897138339,149.300502477055,162.589394661284
1.87327061427781,323.815451504584,336.224765106939,12.4093136023543,-330.020108305762,155.703068951115,174.317039354647
1.87603763143331,341.155305986798,359.937790061792,18.7824840749942,-350.546548024295,161.186410955902,189.360137068393
1.87880464858882,360.024283940738,385.349280378973,25.3249964382349,-372.686782159856,167.349643751252,205.337138408604
1.88157166574433,381.360064221159,409.028666759613,27.6686025384544,-395.194365490386,176.845730841352,218.348634649034
1.88433868289983,400.98419410177,426.040763604343,25.056569502573,-413.512478853057,187.963812299599,225.548666553458
1.88710570005534,414.496274756943,434.404593631432,19.9083188744892,-424.450434194188,197.293977941227,227.156456252961
1.88987271721085,419.225014862249,431.863884241772,12.638869379523,-425.544449552011,203.293072741363,222.251376810648
1.89263973436635,412.950632826402,419.743627225167,6.79299439876576,-416.347130025784,203.078819213818,213.268310811967
1.89540675152186,397.565065598328,400.361640668085,2.79657506975678,-398.963353133207,197.384245264286,201.579107868921
1.89817376867737,378.50147478581,376.760350762303,-1.74112402350636,-377.630912774057,190.121299404658,187.509613369399
1.90094078583287,360.80584448567,353.591659271576,-7.21418521409328,-357.198751878623,184.010014849881,173.188737028741
1.90370780298838,345.999705150995,334.520884013033,-11.4788211379612,-340.260294582014,178.739263144478,161.521031437536
1.90647482014389,334.383067695804,320.872353367666,-13.5107143281387,-327.627710531735,173.946891011972,153.680819519764
1.90924183729939,324.824112162708,312.802151542166,-12.021960620542,-318.813131852437,168.423036391625,150.390095460812
1.9120088544549,315.686318150909,308.533102142113,-7.15321600879645,-312.109710146511,161.419767079853,150.689943066658
1.9147758716104,309.287312166073,306.768144015629,-2.51916815044399,-308.027728090851,155.903240158259,152.124487932593
1.91754288876591,306.237974669074,306.020312714452,-0.217661954622542,-306.129143691763,153.227818311848,152.901325379915
1.92030990592142,305.633371910212,304.664044049104,-0.96932786110807,-305.148707979658,153.30134988566,151.847358093998
1.92307692307692,305.732418766115,303.404023576796,-2.32839518931934,-304.568221171455,154.030406977717,150.537814193738
1.92584394023243,304.724082651143,302.754561674039,-1.96952097710431,-303.739322162591,153.346801814124,150.392520348467
1.92861095738794,301.55674889444,301.199931091199,-0.356817803241483,-301.378339992819,150.956783348841,150.421556643979
1.93137797454344,297.35399654408,300.33544982935,2.98145328527033,-298.844723186715,147.186271629405,151.65845155731
1.93414499169895,294.826956271871,299.164201126693,4.33724485482259,-296.995578699282,145.244855708524,151.750722990758
1.93691200885445,295.414017533694,298.849684960449,3.43566742675557,-297.131851247071,145.989175053469,151.142676193602
1.93967902600996,297.463417820116,299.160449713993,1.69703189387758,-298.311933767054,147.883192963119,150.428740803935
1.94244604316547,299.499472312292,299.92757186268,0.428099550387344,-299.713522087486,149.535686380953,150.177835706534
1.94521306032097,299.63469297634,301.027763621378,1.39307064503731,-300.331228298859,149.120811165652,151.210417133208
1.94798007747648,296.491508395563,301.29041931847,4.79891092290745,-298.890963857016,145.846298736328,153.044665120689
1.95074709463199,293.92731844247,301.211960735538,7.28464229306832,-297.569639589004,143.321338074701,154.248301514303
1.95351411178749,293.946953816725,300.074073378673,6.12711956194795,-297.010513597699,143.909917127388,153.10059647031
1.956281128943,295.582221843883,299.513749571547,3.93152772766416,-297.547985707715,145.825347058109,151.722638649605
1.95904814609851,297.316024479172,299.104800721575,1.78877624240351,-298.210412600374,147.763624118384,150.446788481989
1.96181516325401,298.311273350507,299.616800579376,1.30552722886978,-298.964036964942,148.502873060818,150.461163904123
1.96458218040952,296.336087438176,299.990480495115,3.65439305693945,-298.163283966645,146.340847190618,151.822436776027
1.96734919756503,294.354197845919,301.343833307852,6.98963546193289,-297.849015576885,143.682281191993,154.166734384892
1.97011621472053,295.068977733227,302.601725663246,7.53274793001822,-298.835351698236,143.768114901605,155.067236796632
1.97288323187604,298.292217512575,303.519790584964,5.22757307238891,-300.906004048769,146.532322220093,154.373681828676
1.97565024903154,301.455147678795,303.919678353307,2.46453067451193,-302.687413016051,149.495308502141,153.192104513909
1.97841726618705,303.763592612894,305.022002592595,1.25840997970107,-304.392797602745,151.252591316597,153.140206286148
1.98118428334256,302.746834689567,305.016058455528,2.26922376596178,-303.881446572547,150.238805461802,153.642641110745
1.98395130049806,299.573354328351,305.011720164014,5.43836583566343,-302.292537246183,147.067494246344,155.225042999839
1.98671831765357,298.607990459328,305.548866312645,6.94087585331653,-302.078428385987,145.833557303006,156.244871082981
1.98948533480908,299.524362907469,305.670742880669,6.14637997319977,-302.597552894069,146.688991467134,155.908561426934
1.99225235196458,301.814108917586,305.489537524887,3.67542860730146,-303.651823221236,149.069340155142,154.582483066094
1.99501936912009,304.565890666948,306.437910769081,1.87202010213332,-305.501900718015,151.346935282407,154.154965435607
1.9977863862756,305.493636635518,307.130075090183,1.6364384546651,-306.311855862851,151.928599090427,154.383256772424
2.0005534034311,304.009496572667,308.445715555919,4.43621898325136,-306.227606064293,149.786638794708,156.440967269585
2.00332042058661,301.845681319597,308.865615153503,7.01993383390612,-305.35564823655,147.412873742845,157.942774493704
2.00608743774211,302.427683893459,309.442232478309,7.01454858484993,-305.934958185884,147.706567654304,158.228390531579
2.00885445489762,304.743548339768,309.322760627202,4.57921228743402,-307.033154483485,150.082168026167,156.950986457318
2.01162147205313,307.244236255669,310.046033474431,2.80179721876146,-308.64513486505,152.221219518454,156.423915346596
2.01438848920863,309.339504009009,311.114222092846,1.77471808383672,-310.226863050928,153.782392962586,156.444470088341
2.01715550636414,308.437316256405,312.434145344289,3.99682908788373,-310.435730800347,152.220243584261,158.215487216086
2.01992252351965,306.428079070083,313.397483130161,6.9694040600773,-309.912781100122,149.729337505003,160.183443595119
2.02268954067515,306.312430850128,314.37072544092,8.058294590792,-310.341578145524,149.127068129668,161.214510015856
2.02545655783066,309.199744045774,315.351196507643,6.15145246186955,-312.275470276708,151.524145791952,160.751324484756
2.02822357498617,312.387656493483,316.066787225131,3.67913073164749,-314.227221859307,154.354262880918,159.872958978389
2.03099059214167,314.984490802413,316.589056665131,1.60456586271852,-315.786773733772,156.689962469847,159.096811263925
2.03375760929718,314.988680708482,317.240387983517,2.25170727503451,-316.114534345999,156.368486716724,159.746047629276
2.03652462645268,312.830488990426,318.256070523997,5.42558153357038,-315.543279757212,153.702453728428,161.840826028784
2.03929164360819,311.255346171414,318.727203905005,7.47185773359161,-314.991275038209,151.891744218911,163.099530819298
2.0420586607637,312.266987664515,319.341213888386,7.07422622387054,-315.80410077645,152.596380720322,163.207720056128
2.0448256779192,315.436733830913,320.059501472476,4.62276764156337,-317.748117651695,155.406983094675,162.34113455702
2.04759269507471,318.560622016017,321.39420783943,2.83358582341253,-319.977414927723,157.863518096302,162.113896831421
2.05035971223022,320.030103767108,321.828022566582,1.79791879947459,-320.929063166845,159.116092483817,161.812970683029
2.05312672938572,318.941346199936,322.955108186008,4.01376198607215,-320.948227192972,157.463792106932,163.48443508604
2.05589374654123,317.066098405272,324.318017047779,7.25191864250678,-320.692057726525,154.907089881383,165.784967845143
2.05866076369673,318.128866357979,326.123196249942,7.99432989196225,-322.126031303961,155.067268233009,167.058763070952
2.06142778085224,321.065770641458,326.900382653356,5.83461201189749,-323.983076647407,157.61557931478,166.367497332627
2.06419479800775,324.830189260312,328.548232169592,3.71804290927923,-326.689210714952,160.556073175517,166.133137539435
2.06696181516325,328.117939228941,330.561373538402,2.44343430946049,-329.339656383671,162.83725245974,166.502403923931
2.06972883231876,328.086077213619,332.841120896667,4.75504368304752,-330.463599055143,161.665516765286,168.798082289857
2.07249584947427,326.712041860301,334.504980344599,7.79293848429751,-330.60851110245,159.459551688002,171.148959414448
2.07526286662977,326.7898355405,336.799962674477,10.0101271339772,-331.794899107489,158.389854203261,173.405044904227
2.07802988378528,329.548174893465,338.204785059932,8.65661016646658,-333.876479976698,160.445782363499,173.430697613199
2.08079690094079,333.72258143075,339.770398375122,6.04781694437276,-336.746489902936,163.837382243188,172.909107659748
2.08356391809629,337.579714746724,341.453363951569,3.87364920484458,-339.516539349146,166.85303277094,172.663506578207
2.0863309352518,339.044038478013,342.681665923172,3.63762744515907,-340.862852200592,167.703205516427,173.159646684165
2.08909795240731,337.411203938386,343.578134487092,6.16693054870592,-340.494669212739,165.62213669484,174.872532517899
2.09186496956281,335.409021156984,344.502572711594,9.09355155460992,-339.955796934289,163.157734801187,176.798062133102
2.09463198671832,336.379146398124,344.636955783511,8.25780938538691,-340.508051090818,164.060668506369,176.447382584449
2.09739900387382,338.708123550307,344.194722010036,5.48659845972941,-341.451422780172,166.610762545289,174.840660234883
2.10016602102933,340.948225481264,344.412272861309,3.4640473800448,-342.680249171286,168.742089050609,173.938160120677
2.10293303818484,342.853306172219,344.841207210583,1.98790103836473,-343.847256691401,170.432702566927,173.414554124474
2.10570005534034,342.082467785422,345.69457470466,3.61210691923753,-343.888521245041,169.235180433092,174.653340811949
2.10846707249585,339.898938905938,346.587555881073,6.68861697513557,-343.243247393506,166.605160965401,176.638086428104
2.11123408965136,340.196397400149,348.04976128121,7.85336388106066,-344.123079340679,166.171516759544,177.951562581135
2.11400110680686,342.304589117476,348.846786597595,6.54219748011866,-345.575687857536,167.881195818679,177.694492038857
2.11676812396237,345.19402080591,348.888178149997,3.69415734408705,-347.041099477953,170.749931730911,176.291167747042
2.11953514111788,347.302854574934,348.918387517398,1.61553294246414,-348.110621046166,172.843660816235,175.266960229931
2.12230215827338,346.410567894607,347.589654577181,1.17908668257417,-347.000111235894,172.615740606016,174.384370629878
2.12506917542889,341.977151037538,346.079574670939,4.10242363340132,-344.028362854238,168.937363702068,175.09099915217
2.12783619258439,337.930980648607,343.356514960561,5.4255343119537,-340.643747804584,166.252723168327,174.391024636257
2.1306032097399,336.328689383895,340.558638110624,4.22994872672831,-338.443663747259,166.049370328583,172.394293418676
2.13337022689541,335.699579481316,337.436000224262,1.73642074294594,-336.567789852789,166.981579369185,169.586210483604
2.13613724405091,334.700115103126,334.346493724712,-0.353621378413493,-334.523304413919,167.52686824077,166.996436173149
2.13890426120642,332.890037387761,331.55132417389,-1.33871321387107,-332.220680780826,167.114375300816,165.10630548001
2.14167127836193,327.516620233098,328.160505981099,0.643885748000685,-327.838563107099,163.436367242549,164.40219586455
2.14443829551743,321.433615406772,324.605113538931,3.17149813215912,-323.019364472852,159.131058637307,163.888305835545
2.14720531267294,317.804440756738,321.740076238785,3.93563548204685,-319.772258497762,156.934402637346,162.837855860416
2.14997232982844,316.506491241736,318.838577926902,2.33208668516613,-317.672534584319,157.087202278285,160.585332306034
2.15273934698395,315.559190850908,315.910468772095,0.351277921187148,-315.734829811501,157.60395646486,158.130873346641
2.15550636413946,314.327497121427,312.69278164701,-1.6347154744164,-313.510139384218,157.981106297921,155.529033086297
2.15827338129496,309.916522349757,310.344372686627,0.42785033686971,-310.130447518192,154.744336006444,155.386111511748
2.16104039845047,303.995637694346,307.549776147419,3.55413845307271,-305.772706920883,150.220749620637,155.551957300246
2.16380741560598,299.944473020242,304.699688587339,4.7552155670964,-302.32208080379,147.594628726573,154.727452077217
2.16657443276148,298.878849131264,302.079257462249,3.20040833098494,-300.479053296756,147.839220400139,152.639832896617
2.16934144991699,298.101110155411,299.356283447769,1.25517329235709,-298.72869680159,148.422968431527,150.305728370063
2.1721084670725,297.803638406972,297.098781566194,-0.704856840778405,-297.451209986583,149.254247623875,148.196962362708
2.174875484228,296.235749439872,295.451157841238,-0.78459159863354,-295.843453640555,148.510170519253,147.333283121302
2.17764250138351,292.11971708617,293.708337476663,1.58862039049279,-292.914027281417,145.265548347839,147.648478933578
2.18040951853901,288.0350315936,292.436350859755,4.40131926615493,-290.235691226677,141.816856163722,148.418835062955
2.18317653569452,287.485255167234,291.507999328821,4.02274416158775,-289.496627248028,141.731255502823,147.765371745205
2.18594355285003,288.704941528821,290.560291518899,1.85534999007791,-289.63261652386,143.424795769371,146.207820754488
2.18871057000553,289.865278255162,289.598456648994,-0.266821606167468,-289.731867452078,145.066049930665,144.665817521413
2.19147758716104,290.441986595147,289.706936079604,-0.735050515543037,-290.074461337376,145.588518555345,144.485942782031
2.19424460431655,288.161331475931,289.515952906303,1.35462143037188,-288.838642191117,143.40335502278,145.435287168337
2.19701162147205,284.605716021207,290.187033659247,5.58131763804039,-287.396374840227,139.512199191583,147.884175648644
2.19977863862756,283.091297016089,289.866349142501,6.77505212641142,-286.478823079295,138.158122444839,148.320700634456
2.20254565578307,284.957726043169,289.362143328133,4.40441728496393,-287.159934685651,140.276654379102,146.883280306548
2.20531267293857,287.400552522052,288.723995634707,1.32344311265462,-288.062274078379,143.038554704699,145.023719373681
2.20807969009408,288.643121829397,289.609028564109,0.965906734712235,-289.126075196753,143.838607547342,145.287467649411
2.21084670724959,288.469378472195,289.444495714308,0.975117242112674,-288.956937093251,143.747130615041,145.20980647821
2.21361372440509,285.911167055368,290.405037283424,4.49387022805581,-288.158102169396,140.708648413656,147.44945375574
2.2163807415606,284.044072344078,290.565770157139,6.52169781306117,-287.304921250608,138.761187265508,148.5437339851
2.2191477587161,284.572478350297,290.683080046568,6.1106016962712,-287.627779198432,139.230938327013,148.39684087142
2.22191477587161,287.38953809839,290.768697940654,3.37915984226356,-289.079118019522,142.005189128063,147.073928891459
2.22468179302712,290.256020291937,291.101341840676,0.845321548739037,-290.678681066307,144.705349371599,145.973331694708
2.22744881018262,291.267479667192,291.344119924767,0.0766402575749225,-291.305799795979,145.595419704808,145.710380091171
2.23021582733813,289.033968678577,291.251153789462,2.21718511088477,-290.14256123402,143.408391783846,146.734169450174
2.23298284449364,285.512761074719,290.642990609361,5.13022953464127,-288.07787584204,140.191265770039,147.886610072001
2.23574986164914,284.833923061435,290.739438913938,5.9055158525037,-287.786680987687,139.464203604465,148.322477383221
2.23851687880465,286.769883261138,291.079987321782,4.31010406064337,-288.92493529146,141.229889600247,147.695045691212
2.24128389596016,289.533612846314,291.868846885546,2.33523403923243,-290.70122986593,143.599189403541,147.102040462389
2.24405091311566,291.280547504249,292.984903561609,1.70435605735969,-292.132725532929,144.788095723445,147.344629809484
2.24681793027117,290.934599641379,294.069606805704,3.13500716432441,-292.502103223542,143.899796238528,148.602306985014
2.24958494742667,287.980549623931,294.050802094754,6.07025247082305,-291.015675859343,140.955148576554,150.060527282789
2.25235196458218,286.905179416363,294.03707759328,7.13189817691745,-290.471128504822,139.886640619723,150.584487885099
2.25511898173769,287.741264421661,293.756904639263,6.01564021760208,-290.749084530462,140.862812102029,149.886272428432
2.25788599889319,289.972413140354,293.822578361043,3.85016522068867,-291.897495750699,143.061123959833,148.836371790866
2.2606530160487,292.141115596827,294.410822342671,2.26970674584413,-293.275968969749,144.935704425491,148.340264544258
2.26342003320421,292.643304765495,294.569992346694,1.92668758119902,-293.606648556095,145.358308592148,148.248339963947
2.26618705035971,290.578418503869,295.496630221002,4.91821171713349,-293.037524362435,142.830103393368,150.207420969068
2.26895406751522,288.260905457014,295.632618693667,7.37171323665302,-291.94676207534,140.44459611018,151.50216596516
2.27172108467072,288.730732650834,295.461712823827,6.73098017299304,-292.09622273733,140.99987623892,151.09634649841
2.27448810182623,290.694570380967,295.066822024497,4.37225164353083,-292.880696202732,143.161159368718,149.719536834014
2.27725511898174,293.208489996683,295.318925851361,2.11043585467837,-294.263707924022,145.549027071002,148.71468085302
2.28002213613724,294.502946188324,294.422297415875,-0.0806487724494787,-294.462621802099,147.291797480387,147.170824321713
2.28278915329275,292.47597866821,294.57836735759,2.10238868938075,-293.5271730129,145.186794989414,148.340378023486
2.28555617044826,289.375671743686,294.962430246937,5.58675850325051,-292.169050995312,141.894456620218,150.274594375094
2.28832318760376,287.653244417275,294.16211131349,6.50886689621547,-290.907677865383,140.57218876053,150.335489104853
2.29109020475927,288.827547439436,294.118315935136,5.29076849570049,-291.472931687286,141.768389471868,149.704542215418
2.29385722191478,291.30554247677,294.356508362168,3.05096588539732,-292.831025419469,144.127288295686,148.703737123782
2.29662423907028,292.84393554991,294.260195413544,1.41625986363385,-293.552065481727,145.713837843138,147.838227638589
2.29939125622579,292.345784906811,294.460058218146,2.11427331133524,-293.402921562478,145.115755797738,148.287165764741
2.3021582733813,288.740338211933,293.795458208948,5.05511999701491,-291.267898210441,141.842609107459,149.425289102981
2.3049252905368,286.649237761992,293.580560232516,6.93132247052449,-290.114898997254,139.858957645734,150.25594135152
2.30769230769231,287.554466995095,293.693874491208,6.13940749611334,-290.624170743151,140.707529749491,149.916640993661
2.31045932484781,289.836080198937,293.776576199021,3.94049600008373,-291.806328198979,142.947792099427,148.858536099552
2.31322634200332,292.041613846416,294.377247950478,2.33563410406248,-293.209430898447,144.852989871177,148.35644102727
2.31599335915883,292.840840242922,294.545488285113,1.70464804219074,-293.693164264017,145.568096100366,148.125068163652
2.31876037631433,291.262900968747,294.938433660129,3.6755326913829,-293.100667314438,143.793684138682,149.306983175756
2.32152739346984,287.950002096473,294.144597553673,6.19459545719985,-291.047299825073,140.877703319637,150.169596505436
2.32429441062535,287.423196916948,294.105533626327,6.6823367093786,-290.764365271637,140.370430103785,150.393935167853
2.32706142778085,289.199961124091,294.347179273485,5.14721814939372,-291.773570198788,142.026371487349,149.747198711439
2.32982844493636,291.57734629113,295.063855271735,3.48650898060492,-293.320600781432,144.045418655262,149.27518212617
2.33259546209187,293.312466087282,295.046604373415,1.73413828613332,-294.179535230348,145.789163900574,148.390371329774
2.33536247924737,292.147426585317,294.763857700565,2.61643111524813,-293.455642142941,144.765497735034,148.690144407906
2.33812949640288,288.865723835039,295.097809221514,6.23208538647589,-291.981766528277,141.316819224281,150.664947303995
2.34089651355838,287.551218315751,294.531073029001,6.97985471324972,-291.041145672376,140.285681801251,150.755463871125
2.34366353071389,289.023240534883,295.198068986874,6.17482845199027,-292.110654760878,141.424206041447,150.686448719432
2.3464305478694,291.718524078734,295.414715631562,3.69619155282845,-293.566619855148,144.011166262953,149.555453592195
2.3491975650249,294.225972454201,296.653458686894,2.42748623269267,-295.439715570547,145.899243110754,149.540472459793
2.35196458218041,294.975393227602,297.017235187171,2.04184195956947,-295.996314207386,146.466775634016,149.52953857337
2.35473159933592,292.820791205046,297.282735206166,4.46194400111966,-295.051763205606,144.179423601963,150.872339603643
2.35749861649142,290.978112091123,298.01682116952,7.03870907839678,-294.497466630322,141.969701506363,152.527765123958
2.36026563364693,291.254181457543,298.012276826083,6.75809536854041,-294.633229141813,142.248043044501,152.385186097312
2.36303265080244,293.346762452818,298.549272588998,5.20251013617985,-295.948017520908,144.072126158319,151.875891362589
2.36579966795794,296.494956964605,299.481508034556,2.98655106995079,-297.988232499581,146.754202947327,151.234029552253
2.36856668511345,298.792647172853,300.16189428357,1.36924711071674,-299.477270728211,148.711700031068,150.765570697143
2.37133370226895,298.038196191541,300.65846996094,2.62027376939915,-299.34833307624,147.708961211071,151.63937186517
2.37410071942446,295.056158922538,300.480580210661,5.42442128812297,-297.7683695666,144.815868817208,152.952500749392
2.37686773657997,293.960362393276,299.540279845834,5.57991745255759,-296.750321119555,144.190222470359,152.560098649196
2.37963475373547,295.321851798314,300.474944736819,5.1530929385047,-297.898398267567,145.084379429905,152.814018837662
2.38240177089098,298.746932290029,301.967572737102,3.22064044707247,-300.357252513565,147.763145921478,152.594106592087
2.38516878804649,301.78701843449,304.137582858581,2.35056442409075,-302.962300646535,149.7182270052,153.244073641336
2.38793580520199,302.655025363042,304.910882630303,2.25585726726143,-303.782953996672,150.19958404789,153.583369948782
2.3907028223575,300.316816497309,305.745426876927,5.42861037961796,-303.031121687118,147.444103058846,155.587018628273
2.393469839513,298.340133069436,306.354513811244,8.01438074180794,-302.34732344034,145.162876163814,157.184447276526
2.39623685666851,299.599025067223,307.069208338557,7.47018327133395,-303.33411670289,146.064420897945,157.269695804946
2.39900387382402,302.679069266706,307.860979911598,5.18191064489179,-305.270024589152,148.748579310907,156.521445278245
2.40177089097952,305.467332816602,308.709005687669,3.24167287106718,-307.088169252136,151.112829972768,155.975339279368
2.40453790813503,306.691861012544,309.057775820636,2.36591480809255,-307.87481841659,152.162973102226,155.711845314364
2.40730492529054,304.613856979152,308.501854900052,3.88799792090037,-306.557855939602,150.362929529126,156.194926410476
2.41007194244604,301.476301372445,307.55580704573,6.07950567328481,-304.516054209088,147.69839784958,156.817656359507
2.41283895960155,300.26700075047,306.865339895981,6.59833914551115,-303.566170323225,146.834330802479,156.731839520746
2.41560597675706,300.735181262899,305.010625676471,4.27544441357219,-302.872903469685,148.229868424663,154.643035045022
2.41837299391256,302.427660960977,304.197286448352,1.76962548737555,-303.312473704665,150.329017736801,152.983455967864
2.42114001106807,302.852438119537,302.793207229454,-0.0592308900835405,-302.822822674495,151.45583450481,151.366988169685
2.42390702822358,300.190740759463,301.228136309757,1.03739555029375,-300.70943853461,149.576672604585,151.132765930025
2.42667404537908,295.006242932876,299.00525417355,3.99901124067361,-297.005748553213,145.503615846101,151.502132707112
2.42944106253459,291.222369399576,296.30227260721,5.07990320763423,-293.762321003393,143.071233095971,150.691087907422
2.43220807969009,290.351826289336,294.059362089721,3.70753580038513,-292.205594189528,143.322145244475,148.883448945053
2.4349750968456,290.526934443643,292.152231569332,1.62529712568806,-291.339583006487,144.450818658978,146.88876434751
2.43774211400111,290.654736042316,290.760324205875,0.10558816355973,-290.707530124096,145.274573939378,145.432956184718
2.44050913115661,289.937542609605,290.28476168675,0.34721907714561,-290.111152148177,144.795161766229,145.315990381948
2.44327614831212,285.902072683523,288.857050488813,2.95497780529081,-287.379561586168,141.473547439116,145.906014147052
2.44604316546763,281.876185178306,287.544888127886,5.66870294957999,-284.710536653096,138.103741114363,146.606795538733
2.44881018262313,280.55885346215,285.776745944133,5.21789248198246,-283.167799703142,137.670480490084,145.497319213058
2.45157719977864,281.488500575311,284.756434566664,3.26793399135329,-283.122467570988,139.110283291979,144.012184279009
2.45434421693415,283.247622593489,283.741610433991,0.493987840501234,-283.49461651374,141.376817376494,142.117799137246
2.45711123408965,283.721038235402,283.271103556588,-0.449934678814145,-283.496070895995,142.085486457108,141.410584438887
2.45987825124516,281.364995582138,283.197863246715,1.83286766457712,-282.281429414426,139.76606395878,142.515365455646
2.46264526840066,277.754359003986,283.684721685257,5.93036268127082,-280.719540344622,135.911998161358,144.807542183264
2.46541228555617,276.740095597463,283.769896080453,7.02980048299014,-280.254995838958,134.855147557237,145.399848281722
2.46817930271168,278.16109144566,283.832060083695,5.67096863803533,-280.996575764677,136.245061403812,144.751514360865
2.47094631986718,281.089289921523,283.607273883434,2.51798396191094,-282.348281902479,139.285652979806,143.062628922673
2.47371333702269,282.956261177668,283.98352749526,1.02726631759259,-283.469894336464,140.964497430038,142.505396906426
2.4764803541782,282.427765068477,283.987977644741,1.56021257626338,-283.207871356609,140.433776246107,142.774095110502
2.4792473713337,279.340483347419,283.721069346824,4.3805859994053,-281.530776347121,137.479948674007,144.050827673115
2.48201438848921,276.81709374923,283.526267983589,6.70917423435941,-280.171680866409,135.053959757435,145.117721108974
2.48478140564472,277.136663220937,283.384093418713,6.24743019777628,-280.260378319825,135.44461651158,144.815761808245
2.48754842280022,277.910211438481,281.659390924479,3.74917948599762,-279.78480118148,137.080515976242,142.704285205238
2.49031543995573,278.744937011746,279.320002675206,0.575065663460521,-279.032469843476,139.084935674143,139.947534169333
2.49308245711123,278.273531438698,277.342458481582,-0.931072957115646,-277.80799496014,139.602302197907,138.205692762233
2.49584947426674,274.68760446706,275.899160136116,1.21155566905634,-275.293382301588,136.738024399002,138.555357902586
2.49861649142225,270.71965688277,275.115934016134,4.39627713336381,-272.917795449452,133.161689874703,139.756105574749
2.50138350857775,268.634143622372,274.544301297765,5.91015767539278,-271.589222460068,131.36199297349,140.227229486579
2.50415052573326,269.543450631056,274.127098709172,4.5836480781162,-271.835274670114,132.47990127647,139.355373393644
2.50691754288877,272.098196185947,275.173387050855,3.07519086490794,-273.635791618401,134.51150266052,139.124288957882
2.50968456004427,277.204635901893,280.799825911313,3.59519000942032,-279.002230906603,136.804722946236,142.197507960367
2.51245157719978,284.983882386102,293.010933719051,8.02705133294944,-288.997408052577,138.478415526576,150.518992526
2.51521859435528,296.064641346354,311.648758526074,15.5841171797198,-303.856699936214,140.240262083317,163.616437852897
2.51798561151079,313.337175644878,334.43677038934,21.099594744462,-323.886973017109,146.118790450208,177.768182566901
2.5207526286663,335.398894923397,359.443301859561,24.0444069361639,-347.421098391479,155.677243993617,191.743854397862
2.5235196458218,359.335033838534,383.367443965043,24.032410126509,-371.351238901788,167.651311856012,203.699927045776
2.52628666297731,381.12717552747,403.529892585745,22.4027170582752,-392.328534056607,179.362229234597,212.96630482201
2.52905368013282,395.681253709794,415.543768346305,19.8625146365107,-405.61251102805,187.909369536642,217.703141491408
2.53182069728832,399.549551966307,417.017803220961,17.468251254654,-408.283677593634,191.040650355827,217.243027237808
2.53458771444383,394.538275275174,408.097838578463,13.5595633032895,-401.318056926818,190.489355985942,210.828700940876
2.53735473159934,384.397077026638,391.051565530817,6.65448850417937,-387.724321278728,188.871294261229,198.853027017498
2.54012174875484,371.05214981959,369.96545025636,-1.08669956322927,-370.508800037975,186.069424691409,184.439375346566
2.54288876591035,355.098844721453,347.011506075134,-8.08733864631904,-351.055175398293,181.593091683886,169.462083714407
2.54565578306586,338.862768493643,327.01683795896,-11.8459305346825,-332.939803226302,175.354349514163,157.585453712139
2.54842280022136,321.880001089636,310.26260394371,-11.6173971459261,-316.071302516673,166.748699117781,149.322603398892
2.55118981737687,306.783671675877,299.385411382189,-7.39826029368766,-303.084541529033,157.090965984782,145.993575544251
2.55395683453237,297.386646700935,292.527384806374,-4.85926189456137,-294.957015753654,151.122954297748,143.834061455906
2.55672385168788,293.500004726675,289.143033982425,-4.3569707442494,-291.32151935455,148.928487735462,142.393031619088
2.55949086884339,292.554456708183,288.293923827949,-4.260532880234,-290.424190268066,148.407494794209,142.016695473858
2.56225788599889,292.674822996125,288.754830903755,-3.91999209237031,-290.71482694994,148.297407544248,142.417419405692
2.5650249031544,290.871578100578,288.821064858065,-2.05051324251383,-289.846321479322,146.461045671546,143.385275807775
2.56779192030991,286.31361647263,288.329092874437,2.01547640180769,-287.321354673534,142.149070035411,145.172284638123
2.57055893746541,282.716860280072,287.42971775451,4.71285747443835,-285.073289017291,139.002001402817,146.071287614474
2.57332595462092,282.253039810495,286.503158198163,4.25011838766807,-284.378099004329,139.001460711413,145.376638292916
2.57609297177643,283.805616805069,285.826914461632,2.02129765656309,-284.81626563335,140.892159574253,143.924106059097
2.57885998893193,286.019380327636,286.41398701875,0.394606691114404,-286.216683673193,142.812386818261,143.404296854932
2.58162700608744,287.094769459224,287.112614489616,0.0178450303920954,-287.10369197442,143.538462214416,143.565229760004
2.58439402324294,285.448229629889,288.703128256929,3.25489862704029,-287.075678943409,141.096665501424,145.979013441985
2.58716104039845,282.08526306857,288.243017578706,6.15775451013587,-285.164140323638,137.963754279217,147.200386044421
2.58992805755396,281.251760085337,287.637052446481,6.38529236114357,-284.444406265909,137.433233862097,147.011172403812
2.59269507470946,282.804682805612,286.38432392329,3.57964111767751,-284.594503364451,139.612520843967,144.981982520484
2.59546209186497,285.018698653934,285.470027792427,0.451329138492611,-285.244363223181,142.283684757721,142.96067846546
2.59822910902048,286.904740579522,286.153515500165,-0.751225079356402,-286.529128039844,143.827982829439,142.701145210405
2.60099612617598,285.579694444345,286.65235475792,1.07266031357534,-286.116024601133,142.253517065385,143.862507535748
2.60376314333149,282.45136805863,287.556741915211,5.10537385658108,-285.00405498692,138.672997101024,146.331057885896
2.606530160487,281.518959538136,288.486959475894,6.96799993775829,-285.002959507015,137.275479800189,147.727479706826
2.6092971776425,282.999696666428,289.70618540791,6.70648874148151,-286.352941037169,138.146603962473,148.206337074696
2.61206419479801,285.701340732593,290.325873668845,4.6245329362514,-288.013607200719,140.538403898171,147.475203302548
2.61483121195351,288.213431295761,291.048305508536,2.83487421277476,-289.630868402148,142.689278541493,146.941589860655
2.61759822910902,289.23639635289,291.845724110952,2.60932775806219,-290.541060231921,143.313534297414,147.227525934507
2.62036524626453,288.091907562206,293.238183760079,5.14627619787228,-290.665045661142,141.472815682167,149.192229978975
2.62313226342003,286.716297104,294.524617997085,7.80832089308456,-290.620457550542,139.453988105458,151.166469445085
2.62589928057554,287.603409839295,294.382889186313,6.77947934701723,-290.993149512804,140.411965246139,150.581184266665
2.62866629773105,289.87180082975,295.089917929787,5.21811710003664,-292.480859379768,142.326841864857,150.154017514912
2.63143331488655,292.337840538795,295.065626042496,2.72778550370151,-293.701733290645,144.805027517547,148.896705773099
2.63420033204206,293.867508089847,295.047896759455,1.18038866960825,-294.457702424651,146.343559710119,148.114142714532
2.63696734919757,292.822676754911,296.385738211718,3.56306145680713,-294.604207483315,144.629807649052,149.974399834263
2.63973436635307,290.439175824236,297.362153485153,6.92297766091656,-293.900664654695,141.75809908166,152.142565573035
2.64250138350858,290.320529747215,298.074784107103,7.75425435988774,-294.197656927159,141.283137693664,152.914519233495
2.64526840066408,292.66534255176,298.865049351635,6.19970679987455,-295.765195951697,143.232817875943,152.532378075755
2.64803541781959,295.997626882711,300.252288166945,4.25466128423392,-298.124957524828,145.871482799238,152.253474725589
2.6508024349751,298.969986325676,301.534912010821,2.56492568514506,-300.252449168249,148.202530320266,152.049918847983
2.6535694521306,299.518407129979,302.200870843908,2.68246371392894,-300.859638986944,148.417971708025,152.441667278918
2.65633646928611,296.946950316692,303.227229185129,6.28027886843705,-300.08708975091,145.333335724127,154.753754026783
2.65910348644162,295.340344746946,304.516622868606,9.17627812166052,-299.928483807776,143.082033312643,156.846450495133
2.66187050359712,296.86933577061,304.9173664152,8.04803064459031,-300.893351092905,144.41065256301,156.482698529895
2.66463752075263,299.876353854437,305.480002815187,5.6036489607493,-302.678178334812,147.136352446844,155.541825887968
2.66740453790814,302.34116353558,305.890639496691,3.54947596111151,-304.115901516136,149.395843787234,154.720057728901
2.67017155506364,303.599777146537,305.650027704122,2.05025055758489,-304.62490242533,150.774763294476,153.850139130853
2.67293857221915,302.627274989046,307.365512165066,4.73823717601977,-304.996393577056,148.944518906513,156.051874670543
2.67570558937465,300.836875482974,308.347391630646,7.51051614767152,-304.59213355681,146.663179667651,157.928953889159
2.67847260653016,301.4212570083,309.604322683033,8.18306567473223,-305.512789845667,146.619095666784,158.893694178882
2.68123962368567,304.00901392943,309.711217368108,5.70220343867805,-306.860115648769,149.153405245376,157.706710403393
2.68400664084117,307.788765726604,311.950483484967,4.1617177583633,-309.869624605786,151.81352398412,158.056100621665
2.68677365799668,311.357862732054,313.314641738452,1.95677900639834,-312.336252235253,154.700541862828,157.635710372425
2.68954067515219,311.801496315735,315.390889013268,3.5893926975329,-313.596192664502,154.106051809101,159.490140855401
2.69230769230769,309.964029836017,317.176381401283,7.21235156526564,-313.57020561865,151.375839135376,162.194366483274
2.6950747094632,309.433434975516,317.939199505683,8.50576453016669,-313.686317240599,150.463835222675,163.222482017925
2.69784172661871,310.937277095668,317.955625136907,7.01834804123962,-314.446451116288,151.959464527214,162.486986589073
2.70060874377421,314.466252832231,318.237769493694,3.77151666146335,-316.352011162963,155.347368085384,161.004643077579
2.70337576092972,317.852322487632,319.254159435466,1.40183694783337,-318.553240961549,158.2252427699,160.32799819165
2.70614277808522,319.242999544311,320.806433956399,1.56343441208827,-320.024716750355,158.839782566111,161.184934184244
2.70890979524073,317.826570648575,322.749820508587,4.92324986001177,-320.288195578581,156.451660394282,163.836535184299
2.71167681239624,316.252486393953,323.898032899761,7.64554650580806,-320.075259646857,154.303469944073,165.771789702785
2.71444382955174,317.805212897444,325.816673428399,8.01146053095522,-321.810943162921,154.896876183244,166.914066979677
2.71721084670725,321.369866597523,327.75729372362,6.3874271260965,-324.563580160571,157.491219735713,167.072360424858
2.71997786386276,325.322288016713,329.443799603074,4.12151158636084,-327.383043809893,160.600388215176,166.782655594717
2.72274488101826,327.936782025703,331.48515407845,3.54837205274782,-329.710968052077,162.194204986477,167.516763065599
2.72551189817377,327.953860754161,332.975023961672,5.02116320751105,-330.464442357916,161.466348773325,168.998093584592
2.72827891532928,326.345388286806,334.602708664804,8.25732037799855,-330.474048475805,159.044033954404,171.430014521401
2.73104593248478,326.792391919361,335.790664234417,8.998272315056,-331.291528076889,158.897059802152,172.394468274736
2.73381294964029,329.550040650697,336.117373803728,6.56733315303097,-332.833707227212,161.491353748833,171.342353478379
2.73657996679579,332.91347450646,337.436445600898,4.52297109443742,-335.174960053679,164.195251706011,170.979708347668
2.7393469839513,335.36825581287,337.858849534414,2.49059372154431,-336.613552673642,166.438831045663,170.174721627979
2.74211400110681,336.07923785308,339.247763268859,3.16852541577879,-337.66350056097,166.455356218651,171.208144342319
2.74488101826231,334.166737771754,340.531609542061,6.36487177030762,-337.349173656908,163.900933000723,173.448240656185
2.74764803541782,332.500755255731,340.658148133855,8.15739287812391,-336.579451694793,162.171681188804,174.407770505989
2.75041505257333,333.175941748383,340.210189115291,7.03424736690783,-336.693065431837,163.070847190738,173.622218241099
2.75318206972883,335.829972110846,339.613092796384,3.78312068553771,-337.721532453615,166.023425712654,171.698106740961
2.75594908688434,338.037155896266,340.257930604602,2.22077470833631,-339.147543250434,167.908190593965,171.239352656469
2.75871610403985,339.107742847568,341.268873897023,2.16113104945515,-340.188308372296,168.473305899057,171.715002473239
2.76148312119535,336.647229541168,340.926079731661,4.27885019049262,-338.786654636414,166.184189675338,172.602464961077
2.76425013835086,332.690189493912,339.595268691978,6.90507919806589,-336.142729092945,162.892555147923,173.250173945022
