t,leadI,leadII,leadIII,aVR,aVL,aVF
0,1.77073117973944,-0.00658242712017254,-1.77731360685961,-0.882074376309635,1.77402239329953,-0.891948016989894
0.00216356555603635,2.54239717046541,0.0106738522834747,-2.53172331818193,-1.27653551137444,2.53706024432367,-1.26052473294923
0.0043271311120727,3.71888671230795,0.023549698049361,-3.69533701425859,-1.87121820517866,3.70711186328327,-1.83589365810461
0.00649069666810904,5.10886419374214,0.0317122201966444,-5.07715197354549,-2.57028820696939,5.09300808364381,-2.52271987667442
0.00865426222414539,6.61371843576299,0.0359837721466102,-6.57773466361638,-3.3248511039548,6.59572654968969,-3.27087544573489
0.0108178277801817,8.18946184088793,0.037562486821827,-8.1518993540661,-4.11351216385488,8.17068059747702,-4.05716843362214
0.0129813933362181,9.79484588615583,0.037575030195785,-9.75727085596004,-4.91621045817581,9.77605837105793,-4.85984791288213
0.0151449588922544,11.3613369885968,0.0368793751652611,-11.3244576134315,-5.69910818188103,11.3428973010142,-5.64378911913314
0.0173085244482908,12.7962334779361,0.0360267597692613,-12.7602067181669,-6.41613011885269,12.7782200980515,-6.3620899791988
0.0194720900043271,13.9965024980558,0.0353068568082514,-13.9611956412476,-7.01590467743205,13.9788490696517,-6.96294439221967
0.0216356555603635,14.8581676623398,0.0348231221626316,-14.8233445401771,-7.44649539225119,14.8407561012584,-7.39426070900724
0.0237992211163998,15.278684618433,0.0345673237042809,-15.2441172947287,-7.65662597106863,15.2614009565808,-7.60477498551221
0.0259627866724362,15.1673438950273,0.0344792922242446,-15.1328646028031,-7.60091159362577,15.1501042489152,-7.54919265528941
0.0281263522284725,14.4838200586273,0.0344890218805082,-14.4493310367468,-7.25915454025391,14.466575547687,-7.20742100743314
0.0302899177845089,13.2766241248756,0.0345440564269897,-13.2420800684486,-6.65558409065129,13.2593520966621,-6.6037680060108
0.0324534833405452,11.6943222261054,0.0346268870960955,-11.6596953390093,-5.86447455660073,11.6770087825573,-5.81253422595659
0.0346170488965816,9.97011160572029,0.03476609244413,-9.93534551327616,-5.00243884908221,9.95272855949823,-4.95028971041602
0.0367806144526179,8.35004397277616,0.0350421414003696,-8.31500183137579,-4.19254305708827,8.33252290207598,-4.13997984498771
0.0389441800086543,6.9935484182632,0.0355848994703884,-6.95796351879281,-3.5145666588668,6.97575596852801,-3.46118930966121
0.0411077455646906,5.94377655965036,0.0365556467758739,-5.90722091287449,-2.99016610321312,5.92549873626242,-2.93533263304931
0.043271311120727,5.16641665446016,0.0381028488959589,-5.12831380556421,-2.60225975167806,5.14736523001219,-2.54510547833412
0.0454348766767633,4.59371695834832,0.0402796467192719,-4.55343731162905,-2.3169983025338,4.57357713498869,-2.25657883245489
0.0475984422327997,4.16278596225426,0.0429145217255562,-4.11987144052871,-2.10285024198991,4.14132870139148,-2.03847845940157
0.049762007788836,3.82924112884714,0.0454381293106437,-3.7838029995365,-1.93733962907889,3.80652206419182,-1.86918243511293
0.0519255733448723,3.54402597085026,0.0466924476132199,-3.49733352323704,-1.79535920923174,3.52067974704365,-1.72532053781191
0.0540891389009087,3.22733560616908,0.0447857579603543,-3.18254984820872,-1.63606068206472,3.2049427271889,-1.56888204512418
0.056252704456945,2.76279872657918,0.0371079032586623,-2.72569082332052,-1.39995331491892,2.74424477494985,-1.34429146003093
0.0584162700129814,2.03664106074332,0.0206774928775403,-2.01596356786578,-1.02865927681043,2.02630231430455,-0.99764303749412
0.0605798355690177,1.00158844205532,-0.00696185596704718,-1.00855029802237,-0.497313293044137,1.00506937003885,-0.507756076994708
0.0627434011250541,-0.307742124948376,-0.0460785693828243,0.261663555565552,0.1769103471656,-0.284702840256964,0.107792493091364
0.0649069666810904,-1.78749223472703,-0.0922001767779949,1.69529205794903,0.93984620575251,-1.74139214633803,0.801545940585518
0.0670705322371268,-3.26206787333473,-0.132800680340845,3.12926719299388,1.69743427683779,-3.19566753316431,1.49823325632652
0.0692340977931631,-4.53309744571742,-0.149534110929761,4.38356333478766,2.34131577832359,-4.45833039025254,2.11701461192895
0.0713976633491995,-5.498590648993,-0.132718635561719,5.36587201343128,2.81565464227736,-5.43223133121214,2.61657668893478
0.0735612289052358,-6.22214109376257,-0.0917758944419212,6.13036519932065,3.15695849410225,-6.17625314654161,3.01929465243937
0.0757247944612722,-6.86612993573269,-0.0447850130527782,6.82134492267991,3.45545747439273,-6.8437374292063,3.38827995481357
0.0778883600173085,-7.54414790437237,-0.00401598783838031,7.54013191653399,3.77408194610537,-7.54213991045318,3.7680579643478
0.0800519255733449,-8.21779884261748,0.0262389455034432,8.24403778812093,4.09577994855702,-8.23091831536921,4.13513836681218
0.0822154911293812,-8.70783863278902,0.0462209044146558,8.75405953720368,4.33080886418718,-8.73094908499635,4.40014022080917
0.0843790566854176,-8.7939920836241,0.0579443337004096,8.85193641732451,4.36802387496185,-8.82296425047431,4.45494037551246
0.0865426222414539,-8.34538517187049,0.0632667082699777,8.40865188014047,4.14105923180026,-8.37701852600548,4.23595929420522
0.0887061877974903,-7.40262939773962,0.0627212099847086,7.46535060772433,3.66995409387745,-7.43399000273197,3.76403590885452
0.0908697533535266,-6.16724873931642,0.0550136848970608,6.22226242421348,3.05611752720968,-6.19475558176495,3.13863805455527
0.093033318909563,-4.94096069475019,0.0371657348106909,4.97812642956088,2.45189747996975,-4.95954356215553,2.50764608218579
0.0951968844655993,-4.03998542962009,0.0054133410325054,4.04539877065259,2.01728604429379,-4.04269210013634,2.02540605584255
0.0973604500216357,-3.69623293646153,-0.0429217261270403,3.65331121033449,1.86957733129428,-3.67477207339801,1.80519474210372
0.099524015577672,-3.99087239391926,-0.106357763051246,3.88451463086802,2.04861507848525,-3.93769351239364,1.88907843390838
0.101687581133708,-4.85442566474882,-0.174918293055047,4.67950737169377,2.51467197890193,-4.76696651822129,2.25229453931936
0.103851146689745,-6.13167048051483,-0.230631518418353,5.90103896209648,3.18115099946659,-6.01635472130565,2.83520372183906
0.106014712245781,-7.63969605735092,-0.259440961337735,7.38025509601318,3.94956850934433,-7.50997557668205,3.56040706733772
0.108178277801817,-9.17278291282619,-0.258353868175262,8.91442904465093,4.71556839050073,-9.04360597873856,4.32803758823783
0.110341843357854,-10.5274684665201,-0.22728245757123,10.3001860089488,5.37737546204565,-10.4138272377345,5.03645177568881
0.11250540891389,-11.5935321500172,-0.169133638038205,11.424398511979,5.88133289402769,-11.5089653309981,5.62763243697039
0.114668974469926,-12.4384914389563,-0.0981497648089017,12.3403416741474,6.26832060188259,-12.3894165565518,6.12109595466924
0.116832540025963,-13.2936926532931,-0.0329416084999695,13.2607510447932,6.66331713089655,-13.2772218490431,6.61390471814659
0.118996105581999,-14.4081945282389,0.0152694995956038,14.4234640278345,7.19646251432164,-14.4158292780367,7.21936676371504
0.121159671138035,-15.8379540899993,0.043094480340284,15.8810485703396,7.89742980482949,-15.8595013301694,7.96207152533992
0.123323236694072,-17.3483736764152,0.050798184371727,17.3991718607869,8.64878774602173,-17.373772768601,8.72498502257932
0.125486802250108,-18.527860799506,0.0397594535205304,18.5676202530265,9.24405067299273,-18.5477405262663,9.30368985327353
0.127650367806145,-18.9674035262805,0.011699403267862,18.9791029295483,9.4778520615063,-18.9732532279144,9.49540116640809
0.129813933362181,-18.3220369717596,-0.0304010846268097,18.2916358871328,9.17621902819319,-18.3068364294462,9.13061740125298
0.131977498918217,-16.2650026014266,-0.0799073185987781,16.1850952828278,8.17245496001267,-16.2250489421272,8.0525939821145
0.134141064474254,-12.4429137375911,-0.123077325719613,12.3198364118715,6.28299553165536,-12.3813750747313,6.09837954307594
0.13630463003029,-6.45876121233999,-0.141060642477376,6.31770056986262,3.29991092740868,-6.38823089110131,3.08831996369262
0.138468195586326,2.1238470085045,-0.124178908828493,-2.24802591733299,-0.999834049838002,2.18593646291874,-1.18610241308074
0.140631761142363,13.7135497935604,-0.0822513110593164,-13.7958011046197,-6.81564924125053,13.75467544909,-6.9390262078395
0.142795326698399,28.5482428699497,-0.0341309074042045,-28.5823737773539,-14.2570559812728,28.5653083236518,-14.3082523423791
0.144958892254435,46.5330749578818,0.00671866390189874,-46.5263562939799,-23.2698968108918,46.5297156259308,-23.259818815039
0.147122457810472,67.1045155682239,0.0343607234288314,-67.070154844795,-33.5694381458263,67.0873352065095,-33.5178970606831
0.149286023366508,89.1259936845401,0.04703306926282,-89.0789606152773,-44.5865133769015,89.1024771499087,-44.5159637730072
0.151449588922544,110.86714945516,0.0447473573755884,-110.822402097784,-55.4559484062677,110.844775776472,-55.3888273702043
0.153613154478581,130.154559203409,0.0281466757715875,-130.126412527637,-65.0913529395901,130.140485865523,-65.0491329259327
0.155776720034617,144.723026619273,-0.00131048372888676,-144.724337103002,-72.360858067772,144.723681861137,-72.3628237933654
0.157940285590653,152.716553215027,-0.0399096844317872,-152.756462899458,-76.3383217652974,152.736508057243,-76.3981862919451
0.16010385114669,153.179156544605,-0.0792038461889759,-153.258360390794,-76.5499763492081,153.2187584677,-76.6687821184916
0.162267416702726,146.31050240621,-0.102989450900651,-146.413491857111,-73.1037564776547,146.36199713166,-73.2582406540057
0.164430982258762,133.375767256149,-0.0903866468561966,-133.466153903005,-66.6426903046465,133.420960579577,-66.7782702749308
0.166594547814799,116.34243388789,-0.0320118141569525,-116.374445702047,-58.1552110368664,116.358439794968,-58.2032287581019
0.168758113370835,97.3898863899762,0.0569239224990514,-97.3329624674771,-48.7234051562376,97.3614244287267,-48.638019272489
0.170921678926871,78.4553686826329,0.143619228117865,-78.311749454515,-39.2994939553754,78.3835590685739,-39.0840651131986
0.173085244482908,61.0039094147495,0.1943592878069,-60.8095501269426,-30.5991343512782,60.9067297708461,-30.3075954195679
0.175248810038944,46.0645102735659,0.191452285740955,-45.873057987825,-23.1279812796534,45.9687841306955,-22.840802851042
0.177412375594981,34.3397728999987,0.141080779122369,-34.1986921208763,-17.2404268395605,34.2692325104375,-17.028805670877
0.179575941151017,26.2200742242413,0.0618121009873952,-26.1582621232539,-13.1409431626144,26.1891681737476,-13.0482250111333
0.181739506707053,21.7113911606025,-0.0290087106901962,-21.7403998712927,-10.8411912249561,21.7258955159476,-10.8847042909914
0.18390307226309,20.370869912126,-0.114761508308237,-20.4856314204342,-10.1280542019089,20.4282506662801,-10.3001964643712
0.186066637819126,21.3446544610357,-0.177955747251321,-21.522610208287,-10.5833493568922,21.4336323346614,-10.8502829777692
0.188230203375162,23.5062072821338,-0.210544338930867,-23.7167516210647,-11.6478314716015,23.6114794515992,-11.9636479799978
0.190393768931199,25.6563963215926,-0.220026126960729,-25.8764224485533,-12.7181850973159,25.7664093850729,-13.048224287757
0.192557334487235,26.8133310265846,-0.214610235731123,-27.0279412623157,-13.2993603954267,26.9206361444502,-13.6212757490234
0.194720900043271,26.4843840958812,-0.190445544050768,-26.6748296399319,-13.1469692759152,26.5796068679065,-13.4326375919913
0.196884465599308,24.6858528798473,-0.143728519744868,-24.8295813995921,-12.2710621800512,24.7577171397197,-12.4866549596685
0.199048031155344,21.7483167795917,-0.0845187497933733,-21.8328355293851,-10.8318990148992,21.7905761544884,-10.9586771395892
0.20121159671138,18.1572784485185,-0.028983617463969,-18.1862620659824,-9.06414741552725,18.1717702572505,-9.1076228417232
0.203375162267417,14.454166356317,0.0132845205714138,-14.4408818357456,-7.23372543844423,14.4475240960313,-7.21379865758711
0.205538727823453,11.0796484596892,0.040493782283247,-11.0391546774059,-5.56007112098621,11.0594015685476,-5.49933044756134
0.207702293379489,8.24469320612431,0.0549186649905191,-8.18977454113379,-4.14980593555741,8.21723387362905,-4.06742793807164
0.209865858935526,5.9792944617338,0.0602932682543128,-5.91900119347949,-3.01979386499406,5.94914782760664,-2.92935396261259
0.212029424491562,4.26259777880499,0.0602823710939445,-4.20231540771104,-2.16144007494947,4.23245659325802,-2.07101651830855
0.214192990047598,3.05858963890117,0.0577823774715603,-3.00080726142961,-1.55818600818636,3.02969845016539,-1.47151244197902
0.216356555603635,2.30266445800612,0.0547601518934736,-2.24790430611265,-1.1787123049498,2.27528438205938,-1.09657207710959
0.218520121159671,1.92862438024142,0.0523752576998683,-1.87624912254155,-0.990499818970642,1.90243675139148,-0.91193693242084
0.220683686715707,1.86061168330077,0.0511987355916083,-1.80941294770917,-0.955905209446192,1.83501231550497,-0.879107106058779
0.222847252271744,1.97080569692847,0.0514093621458527,-1.91939633478261,-1.01110752953716,1.94510101585554,-0.93399348631838
0.22501081782778,2.11491566906041,0.0529033884775671,-2.06201228058284,-1.08390952876899,2.08846397482163,-1.00455444605264
0.227174383383817,2.19231264994241,0.0552947940381991,-2.13701785590421,-1.1238037219903,2.16466525292331,-1.04086153093301
0.229337948939853,2.13207637405887,0.0578155055793972,-2.07426086847947,-1.09494593981913,2.10316862126917,-1.00822268145004
0.231501514495889,1.85486286095544,0.0591568502151355,-1.7957060107403,-0.957009855585286,1.82528443584787,-0.868274580262582
0.233665080051926,1.28204191538948,0.0573319319098728,-1.22470998347961,-0.669686923649679,1.25337594943455,-0.58368902578487
0.235828645607962,0.398789436608027,0.0496866747116414,-0.349102761896385,-0.224238055659834,0.373946099252206,-0.149708043592372
0.237992211163998,-0.69957776123357,0.0332401410330257,0.732817902266596,0.333168810100272,-0.716197831750083,0.383029021649811
0.240155776720035,-1.87063315910645,0.0055756400509881,1.87620879915743,0.932528759527729,-1.87342097913194,0.940892219604212
0.242319342276071,-3.02805170024619,-0.0334994324493257,2.99455226779687,1.53077556634776,-3.01130198402153,1.48052641767377
0.244482907832107,-4.13222210571809,-0.0794051714185023,4.05281693429958,2.10581363856829,-4.09251952000883,1.98670588144054
0.246646473388144,-5.11088733162238,-0.119489101142239,4.99139823048014,2.61518821638231,-5.05114278105126,2.43595456466895
0.24881003894418,-5.84926933241232,-0.13528939141519,5.71397994099713,2.99227936191375,-5.78162463670472,2.78934527479097
0.250973604500216,-6.23408147706053,-0.117075457082442,6.11700601997809,3.17557846707148,-6.17554374851931,2.99996528144782
0.253137170056253,-6.17947433246398,-0.0743777639842517,6.10509656847973,3.12692604822412,-6.14228545047186,3.01535940224774
0.255300735612289,-5.63798057624376,-0.0256652490213153,5.61231532722245,2.83182291263254,-5.6251479517331,2.79332503910057
0.257464301168325,-4.60932509732888,0.0159823589971664,4.62530745632604,2.29667136916586,-4.61731627682746,2.32064490766161
0.259627866724362,-3.15659400930805,0.0449326982989572,3.20152670760701,1.55583065550455,-3.17906035845753,1.62322970295298
0.261791432280398,-1.44020149353427,0.0595549323148879,1.49975642584916,0.690323280609694,-1.46997895969172,0.779655679082025
0.263954997836434,0.260948379213787,0.0596896845786823,-0.201258694635104,-0.160319031896234,0.231103536924445,-0.070784505028211
0.266118563392471,1.58550807797769,0.045336945779395,-1.5401711321983,-0.815422511878544,1.562839605088,-0.747417093209451
0.268282128948507,2.19480754974614,0.01665604867885,-2.17815150106729,-1.1057317992125,2.18647952540672,-1.08074772619422
0.270445694504543,1.91097679899376,-0.024722287035135,-1.93569908602889,-0.943127255979312,1.92333794251133,-0.980210686532014
0.27260926006058,0.808048469656981,-0.0731659293677013,-0.881214399024682,-0.36744127014464,0.844631434340832,-0.477190164196192
0.274772825616616,-0.795922154271153,-0.115595511054005,0.680326643217148,0.455758832662579,-0.738124398744151,0.282365566081572
0.276936391172653,-2.42920866629289,-0.133542565018408,2.29566610127449,1.28137561565565,-2.36243738378369,1.08106176812804
0.279099956728689,-3.61150376936401,-0.117477106720226,3.49402666264378,1.86449043804212,-3.55276521600389,1.68827477796178
0.281263522284725,-4.02532281529082,-0.0771300075662975,3.94819280772452,2.05122641142856,-3.98675781150767,1.93553140007911
0.283427087840762,-3.63890688031861,-0.0309628419377311,3.60794403838088,1.83493486112817,-3.62342545934975,1.78849059822158
0.285590653396798,-2.68820007684808,0.00837320436172882,2.69657328120981,1.33991343624317,-2.69238667902894,1.35247324278577
0.287754218952834,-1.52758852554541,0.0363011334983234,1.56388965904373,0.745643696023544,-1.54573909229457,0.800095396271029
0.289917784508871,-0.467955057775384,0.0530185949845957,0.52097365275998,0.207468231395394,-0.494464355267682,0.286996123872288
0.292081350064907,0.312221234263745,0.060949623935515,-0.25127161032823,-0.18658542909963,0.281746422295988,-0.0951609931963577
0.294244915620943,0.777208941330258,0.0630841315960912,-0.714124809734167,-0.420146536463175,0.745666875532212,-0.325520339069038
0.29640848117698,1.02134688519403,0.06208466669987,-0.959262218494165,-0.541715775946952,0.9903045518441,-0.448588775897147
0.298572046733016,1.25446457662633,0.0599418161620156,-1.19452276046432,-0.657203196394174,1.22449366854533,-0.567290472151151
0.300735612289052,1.69791957864022,0.0579562159691173,-1.63996336267111,-0.877937897304671,1.66894147065567,-0.791003573350995
0.302899177845089,2.42398682431529,0.0568666477565785,-2.36712017655871,-1.24042673603594,2.395553500437,-1.15512676440107
0.305062743401125,3.32183919695693,0.0569977880488551,-3.26484140890807,-1.68941849250289,3.2933403029325,-1.60392181042961
0.307226308957161,4.20267863047545,0.0583512473913544,-4.14432738308409,-2.1305149389334,4.17350300677977,-2.04298806784637
0.309389874513198,4.90533013887485,0.0606047567115267,-4.84472538216332,-2.48296744779319,4.87502776051908,-2.3920603127259
0.311553440069234,5.34475752354207,0.0630194030019459,-5.28173812054013,-2.70388846327201,5.3132478220411,-2.60935935876909
0.31371700562527,5.50956684537417,0.0642899413436475,-5.44527690403052,-2.78692839335891,5.47742187470234,-2.69049348134344
0.315880571181307,5.41640717949703,0.0624146749791287,-5.3539925045179,-2.73941092723808,5.38519984200746,-2.64578891476939
0.318044136737343,5.08204253414895,0.0547118790468191,-5.02733065510213,-2.56837720659789,5.05468659462554,-2.48630938802766
0.320207702293379,4.56454185990569,0.0381644004279857,-4.5263774594777,-2.30135313016684,4.5454596596917,-2.24410652952486
0.322371267849416,4.00689330646243,0.0103162117836023,-3.99657709467883,-2.00860475912302,4.00173520057063,-1.99313044144761
0.324534833405452,3.6067364315271,-0.0290581648762505,-3.63579459640335,-1.78883913332542,3.62126551396522,-1.8324263806398
0.326698398961489,3.54657752586165,-0.0753885058578662,-3.62196603171952,-1.73559451000189,3.58427177879058,-1.84867726878869
0.328861964517525,3.94474792889476,-0.115982963803455,-4.06073089269821,-1.91438248254565,4.00273941079648,-2.08835692825083
0.331025530073561,4.81342754024374,-0.132256977066505,-4.94568451731024,-2.34058528158862,4.87955602877699,-2.53897074718837
0.333189095629598,6.02117936635794,-0.114236788475464,-6.1354161548334,-2.95347128894124,6.07829776059567,-3.12482647165443
0.335352661185634,7.34660983878861,-0.0710628424431833,-7.41767268123179,-3.63777349817271,7.3821412600102,-3.74436776183749
0.33751622674167,8.62619583616411,-0.0206752556238433,-8.64687109178796,-4.30276029027014,8.63653346397604,-4.3337731737059
0.339679792297707,9.8479987032734,0.0244362559988482,-9.82356244727456,-4.93621747963613,9.83578057527398,-4.89956309563785
0.341843357853743,11.1150473281624,0.0590998316795728,-11.0559474964828,-5.58707357992097,11.0854974123226,-5.49842383240161
0.344006923409779,12.5386690250736,0.0816695534323673,-12.4569994716412,-6.31016928925296,12.4978342483574,-6.18766495910441
0.346170488965816,14.1385931418593,0.0909729123285618,-14.0476202295307,-7.11478302709391,14.093106685695,-6.97832365860107
0.348334054521852,15.8140905744444,0.0843329033500494,-15.7297576710944,-7.94921173889725,15.7719241227694,-7.82271238387218
0.350497620077888,17.4031895075019,0.0568916491758697,-17.3462978583261,-8.7300405783389,17.374743682914,-8.6447031045751
0.352661185633925,18.7615059577974,0.00252080435370666,-18.7589851534437,-9.38201338107555,18.7602455556205,-9.37823217454499
0.354824751189961,19.7909289778146,-0.0832932425545414,-19.8742222203692,-9.85381786763005,19.8325755990919,-9.97875773146186
0.356988316745997,20.4238968762163,-0.198205173909523,-20.6221020501258,-10.1128458511534,20.522999463171,-10.4101536120177
0.359151882302034,20.6073505481809,-0.325313714161374,-20.9326642623422,-10.1410184170097,20.7700074052615,-10.6289889882518
0.36131544785807,20.327682430339,-0.429389404189682,-20.7570718345287,-9.94914651307465,20.5423771324338,-10.5932306193592
0.363479013414106,19.674311965621,-0.470191843405826,-20.1445038090268,-9.60206006110757,19.9094078873239,-10.3073478262163
0.365642578970143,18.8652133772081,-0.429586150025385,-19.2947995272335,-9.21781361359135,19.0800064522208,-9.86219283862943
0.367806144526179,18.173416649088,-0.326000990302705,-18.4994176393907,-8.92370782939262,18.3364171442393,-9.41270931484668
0.369969710082216,17.7960205959141,-0.19991517619136,-17.9959357721054,-8.79805270986136,17.8959781840098,-9.0979254741484
0.372133275638252,17.7854771379263,-0.0866623855697361,-17.872139523496,-8.84940737617828,17.8288083307112,-8.97940095453288
0.374296841194288,18.0919972117968,-0.00299468151787809,-18.0949918933147,-9.04450126513946,18.0934945525557,-9.04899328741628
0.376460406750325,18.6185698414496,0.049307198469688,-18.5692626429799,-9.33393851995966,18.5939162422148,-9.25997772225513
0.378623972306361,19.249921911083,0.0759180154932163,-19.1740038955897,-9.66291996328809,19.2119629033364,-9.54904294004827
0.380787537862397,19.908089138248,0.084861804031079,-19.8232273342169,-9.99647547113954,19.8656582362325,-9.86918276509292
0.382951103418434,20.5790788934507,0.0836071023506858,-20.4954717911,-10.3313429979007,20.5372753422753,-10.2059323443747
0.38511466897447,21.2591513397949,0.0778076730381143,-21.1813436667567,-10.6684795064165,21.2202475032758,-10.5517679968593
0.387278234530506,21.9050099508951,0.0710836603087736,-21.8339262905863,-10.9880468056019,21.8694681207407,-10.8814213151388
0.389441800086543,22.4197472521495,0.0653406213544031,-22.3544066307951,-11.242543936752,22.3870769414723,-11.1445330047204
0.391605365642579,22.6394690215895,0.0612767975509956,-22.5781922240385,-11.3503729095703,22.608830622814,-11.2584577132438
0.393768931198615,22.3872188433227,0.0588740115556246,-22.3283448317671,-11.2230464274392,22.3577818375449,-11.1347354101057
0.395932496754652,21.6058861818497,0.0577787208534494,-21.5481074609962,-10.8318324513516,21.576996821423,-10.7451643700714
0.398096062310688,20.4243656488677,0.0575517821729032,-20.3668138666948,-10.2409587155203,20.3955897577813,-10.154631042261
0.400259627866724,19.0841057058229,0.0578040391920821,-19.0263016666308,-9.57095487250749,19.0552036862269,-9.48424881371937
0.402423193422761,17.7871040577137,0.0582495786716944,-17.728854479042,-8.92267681819271,17.7579792683779,-8.83530245018517
0.404586758978797,16.5835677036989,0.0587089314224136,-16.5248587722765,-8.32113831756067,16.5542132379877,-8.23307492042705
0.406750324534833,15.3958620847355,0.0590881098753761,-15.3367739748601,-7.72747509730544,15.3663180297978,-7.63884293249238
0.40891389009087,14.1271406839901,0.0593511274660907,-14.067789556524,-7.09324590572811,14.0974651202571,-7.00421921452897
0.411077455646906,12.7298181633516,0.05949624116389,-12.6703219221877,-6.39465720225776,12.7000700427697,-6.30541284051193
0.413241021202942,11.1986923693541,0.0595406408932568,-11.1391517284609,-5.6291165051237,11.1689220489075,-5.53980554378382
0.415404586758979,9.51626165786698,0.0595146731546301,-9.45674698471235,-4.7878881655108,9.48650432128966,-4.69861615577886
0.417568152315015,7.61099752708878,0.0594643806774485,-7.55153314641134,-3.83523095388312,7.58126533675006,-3.74603438286694
0.419731717871052,5.40106314497231,0.0594594353423015,-5.34160370963001,-2.73026129015731,5.37133342730116,-2.64107213714385
0.421895283427088,2.87608030292228,0.0596017825164518,-2.81647852040582,-1.46784104271936,2.84627941166405,-1.37843836894469
0.424058848983124,0.11121112979103,0.0600281159500394,-0.0511830138409909,-0.0856196228705348,0.0811970718160106,0.00442255105452422
0.426222414539161,-2.78635222166329,0.060896731901701,2.84724895356499,1.3627277448808,-2.81680058761414,1.45407284273335
0.428385980095197,-5.73373903762601,0.0623470879362263,5.79608612556224,2.83569597484489,-5.76491258159412,2.92921660674923
0.430549545651233,-8.67528874879361,0.064420075852772,8.73970882464638,4.30543433647042,-8.70749878671999,4.40206445024957
0.43271311120727,-11.5336653129778,0.0669311189598579,11.6005964319377,5.73336709700899,-11.5671308724578,5.83376377544877
0.434876676763306,-14.1913000123676,0.0693000570960376,14.2606000694637,7.0609999776358,-14.2259500409157,7.16495006327985
0.437040242319342,-16.5445252721928,0.0703649738792205,16.614890246072,8.23708014915677,-16.5797077591324,8.34262760997561
0.439203807875379,-18.5694797935007,0.0682441860803224,18.6377239795811,9.25061780371021,-18.6036018865409,9.35298408283069
0.441367373431415,-20.3311863170585,0.0603607724646451,20.3915470895231,10.1354127722969,-20.3613667032908,10.2259539309939
0.443530938987451,-21.9203375068652,0.0437998336115764,21.9641373404768,10.9382688366268,-21.942237423671,11.0039685870442
0.445694504543488,-23.3498721025389,0.0162119313815844,23.3660840339205,11.6668300855786,-23.3579780682297,11.691147982651
0.447858070099524,-24.4777014107631,-0.0225261232662533,24.4551752874969,12.2501137670147,-24.46643834913,12.2163245821153
0.45002163565556,-25.044545574154,-0.0677794759894956,24.9767660981645,12.5561625250717,-25.0106558361592,12.4544933110875
0.452185201211597,-24.8489430992664,-0.106894697239575,24.7420484020268,12.477918898253,-24.7954957506466,12.3175768523936
0.454348766767633,-23.9186598043116,-0.121528045712669,23.7971317585989,12.0200939250121,-23.8578957814552,11.8378018564431
0.456512332323669,-22.5212726664185,-0.102272775791657,22.4189998906268,11.3117727211051,-22.4701362785226,11.1583635574176
0.458675897879706,-21.0221477996686,-0.0592812805217562,20.9628665191469,10.5407145400952,-20.9925071594078,10.4517926193126
0.460839463435742,-19.7278297136313,-0.012005332990562,19.7158243806408,9.86991752331094,-19.721827047136,9.8519095238251
0.463003028991778,-18.8334277463905,0.0251588390625965,18.8585865854531,9.40413445366393,-18.8460071659218,9.44187271225782
0.465166594547815,-18.4378282907126,0.0451340450475752,18.4829623357601,9.1963471228325,-18.4603953132364,9.26404819040386
0.467330160103851,-18.5453430876944,0.0452073728054435,18.5905504604998,9.25006785744448,-18.5679467740971,9.31787891665265
0.469493725659888,-19.0902477381082,0.0253790033007453,19.115626741409,9.53243436740374,-19.1029372397586,9.57050287235486
0.471657291215924,-20.0108143353029,-0.0116377688594486,19.9991765664435,10.0112260520812,-20.0049954508732,9.99376939879202
0.47382085677196,-21.2945884232817,-0.0587653269943492,21.2358230962874,10.676676875138,-21.2652057597846,10.5885288846465
0.475984422327997,-22.923736312806,-0.101607005037869,22.8221293077681,11.5126716589219,-22.8729328102871,11.3602611513651
0.478147987884033,-24.7590947498083,-0.120710702566554,24.6383840472417,12.4399027261874,-24.698739398525,12.2588366723376
0.480311553440069,-26.4969139026176,-0.105924058077828,26.3909898445397,13.3014189803477,-26.4439518735787,13.142532893231
0.482475118996106,-27.7705829454637,-0.0666545953133041,27.7039283501504,13.9186187703885,-27.737255647807,13.8186368774185
0.484638684552142,-28.304943817301,-0.0212480817372707,28.2836957355637,14.1630959495191,-28.2943197764323,14.1312238269132
0.486802250108178,-28.0105574654117,0.0176382647779757,28.0281957301897,13.9964596003169,-28.0193765978007,14.0229169974838
0.488965815664215,-27.0088264761036,0.0453637283152506,27.0541902044188,13.4817313738942,-27.0315083402612,13.549776966367
0.491129381220251,-25.5946110329363,0.0620438192176283,25.6566548521539,12.7662836068593,-25.6256329425451,12.8593493356858
0.493292946776287,-24.1389227486454,0.0700198220885939,24.2089425707339,12.0344514632784,-24.1739326596897,12.1394811964113
0.495456512332324,-22.9733613822249,0.072201055290133,23.045562437515,11.4505801634674,-23.0094619098699,11.5588817464026
0.49762007788836,-22.2807247762141,0.0711667426386185,22.3518915188527,11.1047790167877,-22.3163081475334,11.2115291307457
0.499783643444396,-22.0308378035342,0.0688165154447319,22.099654318979,10.9810106440448,-22.0652460612566,11.0842354172119
0.501947209000433,-22.0456622797609,0.0663554152077121,22.1120176949686,10.9896534322766,-22.0788399873647,11.0891865550882
0.504110774556469,-22.1697054610636,0.0644409896861445,22.2341464507497,11.0526322356887,-22.2019259559067,11.1492937202179
0.506274340112505,-22.3579414140101,0.0633736192071502,22.4213150332173,11.1472838974015,-22.3896282236137,11.2423443262122
0.508437905668542,-22.5932525551135,0.0632585405514939,22.6565110956649,11.264997007281,-22.6248818253892,11.3598848181082
0.510601471224578,-22.8077175360843,0.0641023386235846,22.8718198747079,11.3718075987304,-22.8397687053961,11.4679611066657
0.512765036780614,-22.9280194071812,0.0658284537518409,22.993847860933,11.4310954767147,-22.9609336340571,11.5298381573424
0.514928602336651,-22.9287814275417,0.0682101633978986,22.9969915909396,11.4302856320719,-22.9628865092406,11.5326008771687
0.517092167892687,-22.8004373605309,0.0707320865957081,22.8711694471267,11.3648526369676,-22.8358034038288,11.4709507668612
0.519255733448724,-22.498566498946,0.0724092936417726,22.5709757925877,11.2130786026521,-22.5347711457669,11.3216925431148
0.52141929900476,-21.9754868782068,0.0716220103279479,22.0471088885347,10.9519324339394,-22.0112978833708,11.0593654494313
0.523582864560796,-21.267759157421,0.0660658006346695,21.3338249580556,10.6008466783932,-21.3007920577383,10.6999453793452
0.525746430116833,-20.5247065657327,0.0529680313272043,20.5776745970599,10.2358692672027,-20.5511905813963,10.3153213141935
0.527909995672869,-19.9557952551677,0.0297677430650966,19.9855629982328,9.96301375605129,-19.9706791267002,10.0076653706489
0.530073561228905,-19.7491087492291,-0.00452932783997634,19.7445794213891,9.87681903853455,-19.7468440853091,9.87002504677458
0.532237126784942,-19.9923247026817,-0.0471690811850852,19.9451556214966,10.0197468919334,-19.9687401620892,9.94899327015577
0.534400692340978,-20.6350982774331,-0.0886823041194447,20.5464159733137,10.3618902907763,-20.5907571253734,10.2288668345971
0.536564257897014,-21.5156185430391,-0.115260967888689,21.4003575751504,10.8154397554639,-21.4579880590947,10.6425483036308
0.538727823453051,-22.4144422361611,-0.122894388458095,22.291547847703,11.2686683123096,-22.352995041932,11.0843267296224
0.540891389009087,-23.1072250106878,-0.126576997569091,22.9806480131187,11.6169010041285,-23.0439365119033,11.4270355077748
0.543054954565123,-23.4046892480585,-0.147304423638815,23.2573848244197,11.7759968358487,-23.3310370362391,11.5550402003905
0.54521852012116,-23.1636915841147,-0.193369229105931,22.9703223550088,11.6785304066103,-23.0670069695617,11.3884765629514
0.547382085677196,-22.3144729866095,-0.252265757659599,22.0622072289499,11.2833693721346,-22.1883401077797,10.9049707356452
0.549545651233232,-20.9325899847697,-0.292938343696748,20.639651641073,10.6127641642332,-20.7861208129213,10.1733566486881
0.551709216789269,-19.2720757180849,-0.285074504140796,18.9870012139441,9.77857511111284,-19.1295384660145,9.35096335490165
0.553872782345305,-17.6939570955903,-0.225712754509591,17.4682443410807,8.95983492504996,-17.5811007183355,8.62126579328558
0.556036347901341,-16.5225582456901,-0.140135491290978,16.3824227543991,8.33134686849054,-16.4524905000446,8.12114363155407
0.558199913457378,-15.9022130978464,-0.0572629999630513,15.8449500978834,7.97973804890473,-15.8735815978649,7.89384354896016
0.560363479013414,-15.741727701069,0.00708429867923491,15.7488119997482,7.86732170119486,-15.7452698504086,7.87794814921372
0.56252704456945,-15.79945814647,0.0492851218904996,15.8487432683605,7.87508651228977,-15.8241007074153,7.94901419512551
0.564690610125487,-15.8438022435297,0.0722700634528088,15.9160723069826,7.88576609003847,-15.8799372752562,7.99417118521768
0.566854175681523,-15.7589963235485,0.0814975673071313,15.8404938908556,7.83874937812068,-15.7997451072021,7.96099572908138
0.56901774123756,-15.5368723508371,0.0825297434350989,15.6194020942722,7.72717130370102,-15.5781372225547,7.85096591885367
0.571181306793596,-15.2055158936913,0.0798569980321512,15.2853728917235,7.56282944782959,-15.2454443927074,7.68261494487782
0.573344872349632,-14.7910475375717,0.0765352735646098,14.8675828111363,7.35725613200352,-14.829315174354,7.47205904235044
0.575508437905669,-14.3407675862711,0.0742482029510991,14.4150157892222,7.13325969165998,-14.3778916877466,7.24463199608663
0.577672003461705,-13.9298170073194,0.0735115946667535,14.0033286019862,6.92815270632634,-13.9665728046528,7.03842009832647
0.579835569017741,-13.5782716718778,0.0738542409928671,13.6521259128707,6.75220871544247,-13.6151987923742,6.86299007693177
0.581999134573778,-13.1565988921616,0.0739170258773913,13.230515918039,6.54134093314209,-13.1935574051003,6.65221647195818
0.584162700129814,-12.4428924486264,0.0715073148212763,12.5143997634476,6.18569256690254,-12.478646106037,6.29295353913446
0.58632626568585,-11.31744607888,0.0637293305391377,11.3811754094192,5.62685837417044,-11.3493107441496,5.72245236997915
0.588489831241887,-9.90371978710088,0.0473826585866713,9.95110244568755,4.9281685642571,-9.92741111639421,4.99924255213711
0.590653396797923,-8.53274002352218,0.0198689224092798,8.55260894593146,4.25643555055645,-8.54267448472682,4.28623893417037
0.592816962353959,-7.5560102525671,-0.019156349991068,7.53685390257603,3.78758330127908,-7.54643207757156,3.75884877629248
0.594980527909996,-7.14758957204712,-0.0652497562087277,7.0823398158384,3.60641966412793,-7.11496469394276,3.50854502981483
0.597144093466032,-7.24048253196354,-0.105886157907129,7.13459637405642,3.67318434493534,-7.18753945300998,3.51435510807464
0.599307659022068,-7.608104575987,-0.122707013626311,7.48539756236069,3.86540579480666,-7.54675106917385,3.68134527436719
0.601471224578105,-7.98945058484235,-0.106014295949309,7.88343628889304,4.04773244039583,-7.93644343686769,3.88871099647186
0.603634790134141,-8.15141350416543,-0.0652152224608714,8.08619828170456,4.10831436331315,-8.11880589293499,4.01049152962184
0.605798355690177,-7.89119673902015,-0.0183783957197538,7.8728183433004,3.95478756736995,-7.88200754116027,3.92721997379032
0.607961921246214,-7.08539649722031,0.0222327631384327,7.10762926035875,3.53158186704094,-7.09651287878953,3.56493101174859
0.61012548680225,-5.78988657652819,0.0523297217530704,5.84221629828126,2.86877842738756,-5.81605143740472,2.94727301001716
0.612289052358286,-4.26467786851142,0.0721559637745638,4.33683383228599,2.09626095236843,-4.3007558503987,2.20449489803027
0.614452617914323,-2.90005672803835,0.0837285269474208,2.98378525498577,1.40816410054546,-2.94192099151206,1.53375689096659
0.616616183470359,-2.09881902059012,0.0889089887775537,2.18772800936767,1.00495501590628,-2.1432735149789,1.13831849907261
0.618779749026396,-2.10892014769573,0.0882368317649466,2.19715697946068,1.01034165796539,-2.1530385635782,1.14269690561281
0.620943314582432,-2.89387800414718,0.0804260791841458,2.97430408333133,1.40672596248152,-2.93409104373926,1.52736508125774
0.623106880138468,-4.17428557358689,0.0625065007222263,4.23679207430911,2.05588953643233,-4.205538823948,2.14964928751567
0.625270445694505,-5.57288092974544,0.0307181548627887,5.60359908460823,2.77108138744133,-5.58824000717683,2.81715861973551
0.627434011250541,-6.74884017409318,-0.0176239754485429,6.73121619864464,3.38323207477086,-6.74002818636891,3.35679611159805
0.629597576806577,-7.50769170504699,-0.0810652653554561,7.42662643969153,3.79437848520122,-7.46715907236926,3.67278058716804
0.631761142362614,-7.84861599842738,-0.149687496654377,7.698928501773,3.99915174754088,-7.77377225010019,3.77462050255931
0.63392470791865,-7.91842988243901,-0.205617528146064,7.71281235429295,4.06202370529254,-7.81562111836598,3.75359741307344
0.636088273474686,-7.91499882250595,-0.234939609939533,7.68005921256642,4.07496921622274,-7.79752901753619,3.72255980131344
0.638251839030723,-7.98950823242528,-0.234828812808933,7.75467941961635,4.11216852261711,-7.87209382602081,3.75992530340371
0.640415404586759,-8.19243654093182,-0.205348720852167,7.98708782007965,4.19889263089199,-8.08976218050574,3.89086954961374
0.642578970142795,-8.49828793332193,-0.149456341455338,8.34883159186659,4.32387213738863,-8.42355976259426,4.09968762520563
0.644742535698832,-8.85740380620156,-0.0812081335981971,8.77619567260337,4.46930596989988,-8.81679973940247,4.34749376950259
0.646906101254868,-9.1942798861618,-0.0186119243901188,9.17566796177168,4.60644590527596,-9.18497392396674,4.57852801869078
0.649069666810904,-9.39690044946417,0.0283303838579775,9.42523083332215,4.6842850328031,-9.41106564139316,4.72678060859006
0.651233232366941,-9.38438261154579,0.0582163483960859,9.44259895994187,4.66308313157485,-9.41349078574383,4.75040765416898
0.653396797922977,-9.21917019663771,0.0740462744594544,9.29321647109716,4.57256196108913,-9.25619333386743,4.68363137277831
0.655560363479013,-9.14471743763481,0.0803156374688768,9.22503307510369,4.53220090008297,-9.18487525636925,4.65267435628628
0.65772392903505,-9.48371065064284,0.0812991932706993,9.56500984391354,4.70120572868607,-9.52436024727819,4.82315451859212
0.659887494591086,-10.4776356005625,0.0802206613983926,10.5578562619609,5.19870746958204,-10.5177459312617,5.31903846167963
0.662051060147122,-12.1960985546215,0.0789683099166756,12.2750668645382,6.05856512235241,-12.2355827095798,6.17701758722742
0.664214625703159,-14.5392455210822,0.0780795645125301,14.6173250855947,7.23058297828484,-14.5782853033385,7.34770232505363
0.666378191259195,-17.2755093251193,0.0768232954189323,17.3523326205383,8.59934301485019,-17.3139209728288,8.71457795797859
0.668541756815232,-20.0873238921362,0.0733257599950671,20.1606496521313,10.0069990660706,-20.1239867721337,10.1169877060632
0.670705322371268,-22.6545547638788,0.0647992709006833,22.7193540347794,11.294877746489,-22.6869543993291,11.3920766528401
0.672868887927304,-24.7482874970888,0.0480306797700462,24.7963181768588,12.3501284086594,-24.7723028369738,12.4221744283144
0.675032453483341,-26.2445551930032,0.0203543985889544,26.2649095915922,13.1121003972071,-26.2547323922977,13.1426319950906
0.677196019039377,-27.0894515972827,-0.0186558798433945,27.0707957174393,13.554053738563,-27.080123657361,13.5260699187979
0.679359584595413,-27.320206493218,-0.0646361349608667,27.2555703582571,13.6924213140894,-27.2878884257376,13.5954671116481
0.68152315015145,-27.1002875873376,-0.105137425416573,26.995150161921,13.6027125063771,-27.0477188746293,13.4450063682522
0.683686715707486,-26.6718519912427,-0.121882637722668,26.54996935352,13.3968673144827,-26.6109106723813,13.2140433578987
0.685850281263522,-26.2476977578812,-0.10527050422133,26.1424272536598,13.1764841310512,-26.1950625057705,13.0185783747192
0.688013846819559,-25.9126277457907,-0.0648240780519715,25.8478036677387,12.9887259119213,-25.8802157067647,12.8914897948434
0.690177412375595,-25.5891551366982,-0.0187352051689718,25.5704199315292,12.8039451709336,-25.5797875341137,12.7758423631801
0.692340977931631,-25.107468625499,0.0206389830961236,25.1281076085951,12.5434148212014,-25.117788117047,12.5743732958456
0.694504543487668,-24.3312118872821,0.0490169961436039,24.3802288834257,12.1410974455692,-24.3557203853539,12.2146229397846
0.696668109043704,-23.2387013624616,0.0668598395972029,23.3055612020589,11.5859207614322,-23.2721312822602,11.686210520828
0.69883167459974,-21.950007589167,0.0767534957143657,22.0267610848813,10.9366270467263,-21.9883843370242,11.0517572902979
0.700995240155777,-20.7173273220577,0.0816236738885327,20.7989509959462,10.3178518240846,-20.7581391590019,10.4402873349174
0.703158805711813,-19.8340936313466,0.0836551378242543,19.9177487691709,9.87521924676118,-19.8759212002587,10.0007019534976
0.705322371267849,-19.4965982373718,0.0837142003204041,19.5803124376922,9.70644201852571,-19.538455337532,9.83201331900632
0.707485936823886,-19.7421689541565,0.0811100700458219,19.8232790242023,9.83052944205535,-19.7827239891794,9.95219454712408
0.709649502379922,-20.4896205876183,0.0736304807297876,20.5632510683481,10.2079950534443,-20.5264358279832,10.3184407745389
0.711813067935958,-21.607757182601,0.0579124681981817,21.6656696507992,10.7749223572014,-21.6367134167001,10.8617910594987
0.713976633491995,-22.9696031594416,0.0303276545972758,22.9999308140389,11.4696377524222,-22.9847669867402,11.5151292343181
0.716140199048031,-24.4839537731096,-0.0113648104263561,24.4725889626832,12.247659291768,-24.4782713678964,12.2306120761284
0.718303764604068,-26.0797345109795,-0.0653668309888205,26.0143676799906,13.0725506709841,-26.0470510954851,12.9745004245009
0.720467330160104,-27.6581355581536,-0.122147781608512,27.5359877765451,13.8901416698811,-27.5970616673494,13.7069199974683
0.72263089571614,-29.0959683794271,-0.165793731598737,28.9301746478284,14.6308810555129,-29.0130715136278,14.3821904581148
0.724794461272177,-30.2862676168073,-0.186884171968077,30.0993834448392,15.2365758943877,-30.1928255308233,14.9562496364356
0.726958026828213,-31.0824910245568,-0.190476489182551,30.8920145353742,15.6364837568697,-30.9872527799655,15.3507690230958
0.729121592384249,-31.1366716846841,-0.182482631653214,30.9541890530309,15.6595771581687,-31.0454303688575,15.3858532106888
0.731285157940286,-29.7743420674162,-0.157590466684929,29.6167516007312,14.9659662670506,-29.6955468340737,14.7295805670232
0.733448723496322,-26.0253185402103,-0.111710700135098,25.9136078400752,13.0685146201727,-25.9694631901427,12.90094856997
0.735612289052358,-18.84722805617,-0.0558914315884408,18.7913366245816,9.45155974387923,-18.8192823403758,9.36772259649657
0.737775854608395,-7.4743161234978,-0.00844186395756275,7.46587425954024,3.74137899372768,-7.47009519151902,3.72871619779134
0.739939420164431,8.29087374854561,0.0181743342824957,-8.27269941426311,-4.15452404141405,8.28178658140436,-4.12726253999031
0.742102985720467,27.9787684582135,0.019460856025031,-27.9593076021884,-13.9991146571192,27.9690380302009,-13.9699233730817
0.744266551276504,50.5007687127748,-0.00326877618742188,-50.5040374889622,-25.2487499682937,50.5024031008685,-25.2536531325748
0.74643011683254,74.2699766418012,-0.0430900855910764,-74.3130667273922,-37.113443278105,74.2915216845967,-37.1780784064917
0.748593682388576,97.3897954249831,-0.08581564358564,-97.4756110685687,-48.6519898906987,97.4327032467759,-48.7807133560772
0.750757247944613,117.838653595558,-0.112921100608062,-117.951574696166,-58.862866247475,117.895114145862,-59.0322478983871
0.752920813500649,133.618991334967,-0.115863207144068,-133.734854542112,-66.7515640639117,133.676922938539,-66.9253588746278
0.755084379056685,143.023124568007,-0.10552084678201,-143.128645414789,-71.4588018606125,143.075884991398,-71.6170831307855
0.757247944612722,145.051083219381,-0.0998751742144675,-145.150958393595,-72.4756040225831,145.101020806488,-72.6254167839048
0.759411510168758,139.734888991191,-0.106774218253682,-139.841663209445,-69.8140573864687,139.788276100318,-69.9742187138492
0.761575075724794,128.150297178151,-0.118277373534013,-128.268574551685,-64.0160099023087,128.209435864918,-64.1934259626097
0.763738641280831,112.129459554861,-0.116206669740272,-112.245666224601,-56.0066264425603,112.187562889731,-56.1809364471707
0.765902206836867,93.81596517343,-0.0892926954823912,-93.9052578689124,-46.8633362389738,93.8606115211712,-46.9972752821974
0.768065772392904,75.2240207704105,-0.0454431342601943,-75.2694639046707,-37.5892888180752,75.2467423375406,-37.6574535194655
0.77022933794894,57.9519587039886,-0.00232729432867557,-57.9542859983173,-28.97481570483,57.9531223511529,-28.978306646323
0.772392903504976,43.088768305653,0.0267830239799655,-43.0619852816731,-21.5577756648165,43.075376793663,-21.5176011288465
0.774556469061013,31.2247676567969,0.0355789684794236,-31.1891886883175,-15.6301733126382,31.2069781725572,-15.576804859919
0.776720034617049,22.4949010702561,0.0224386695181815,-22.4724624007379,-11.2586698698872,22.483681735497,-11.2250118656099
0.778883600173085,16.6608478907138,-0.0102795644271473,-16.6711274551409,-8.32528416314331,16.6659876729273,-8.34070350978403
0.781047165729122,13.2260484939542,-0.0551840601025157,-13.2812325540567,-6.58543221692582,13.2536405240054,-6.6682083070796
0.783210731285158,11.5357517477981,-0.097315623034578,-11.6330673708326,-5.71921806238174,11.5844095593153,-5.86519149693361
0.785374296841194,10.8671415927703,-0.116657425354565,-10.9837990181248,-5.37524208370784,10.9254703054475,-5.55022822173969
0.787537862397231,10.5524222313884,-0.102598544499703,-10.6550207758881,-5.22491184344434,10.6037215036382,-5.37880966019389
0.789701427953267,10.1021950718509,-0.0642095205393482,-10.1664045923902,-5.01899277565577,10.1342998321206,-5.1153070564648
0.791864993509303,9.24584701384195,-0.0195840739216923,-9.26543108776364,-4.61313146996013,9.2556390508028,-4.64250758084267
0.79402855906534,7.89127361485866,0.0188434139570759,-7.87243020090159,-3.95505851440787,7.88185190788012,-3.92679339347225
0.796192124621376,6.08803893757239,0.0466742904352711,-6.04136464713711,-3.06735661400383,6.06470179235475,-2.99734517835092
0.798355690177412,3.99321534281775,0.0643032372460018,-3.92891210557175,-2.02875929003188,3.96106372419475,-1.93230443416287
0.800519255733449,1.79757383672402,0.0743519752218277,-1.72322186150219,-0.935962905972924,1.76039784911311,-0.824434943140182
0.802682821289485,-0.323669542293594,0.0798986589687424,0.403568201262336,0.121885441662426,-0.363618871777965,0.241733430115539
0.804846386845521,-2.2100910761003,0.0833711199101398,2.29346219601044,1.06335997809508,-2.25177663605538,1.18841665796029
0.807009952401558,-3.73828222624405,0.0858902219483539,3.8241724481924,1.82619600214785,-3.78122733721822,1.95503133507038
0.809173517957594,-4.8575588838877,0.0868816361613731,4.94444052004907,2.38533862386316,-4.90099970196838,2.51566107810522
0.81133708351363,-5.60267516923858,0.0838773097823033,5.68655247902088,2.75939892972814,-5.64461382412973,2.88521489440159
0.813500649069667,-6.11018281018607,0.0725710672601081,6.18275387744618,3.01880587146298,-6.14646834381613,3.12766247235315
0.815664214625703,-6.60578830957464,0.0473501501044127,6.65313845967905,3.27921907973511,-6.62946338462685,3.35024430489173
0.81782778018174,-7.31683404223725,0.00266334964083867,7.31949739187809,3.6570853462982,-7.31816571705767,3.66108037075946
0.819991345737776,-8.36867775483077,-0.064345129045777,8.30433262578499,4.21651144193827,-8.33650519030788,4.11999374836961
0.822154911293812,-9.7359659425927,-0.149589293305269,9.58637664928743,4.94277761794898,-9.66117129594006,4.71839367799108
0.824318476849849,-11.2631061743353,-0.236179391680868,11.0269267826545,5.7496427830081,-11.1450164784949,5.3953736954868
0.826482042405885,-12.7265252389144,-0.293369531787707,12.4331557071267,6.50994738535106,-12.5798404730206,6.0698930876695
0.828645607961921,-13.886467049799,-0.293313589851413,13.5931534599476,7.08989031982523,-13.7398102548733,6.64991993504811
0.830809173517958,-14.5227996135628,-0.236024631301733,14.2867749822611,7.37941212243229,-14.404787297912,7.02537517547969
0.832972739073994,-14.4916252485074,-0.149383206667433,14.34224204184,7.32050422758741,-14.4169336451737,7.09642941758626
0.83513630463003,-13.7965576748613,-0.0641928271988195,13.7323648476625,6.93037525103007,-13.7644612612619,6.83408601023184
0.837299870186067,-12.6322001475279,0.00256678926106746,12.6347669367889,6.3148166791334,-12.6334835421584,6.318666863025
0.839463435742103,-11.3569799549071,0.0466897346832636,11.4036696895904,5.65514511011192,-11.3803248222487,5.72517971213682
0.841627001298139,-10.367837717652,0.0709039559572478,10.4387416736092,5.14846688084736,-10.4032896956306,5.25482281478323
0.843790566854176,-9.93142570152516,0.0806761221102829,10.0121018236354,4.92537478970744,-9.97176376258031,5.04638897287287
0.845954132410212,-10.0996531992996,0.0816667847275332,10.1813199840272,5.00899320728606,-10.1404865916634,5.13149338437736
0.848117697966248,-10.7587352071579,0.0784913693498905,10.8372265765078,5.340121918904,-10.7979808918328,5.45785897292884
0.850281263522285,-11.7299738624226,0.0743456710599728,11.8043195334825,5.8278140956813,-11.7671466979526,5.93933260227126
0.852444829078321,-12.8296947652389,0.0710974647819749,12.9007922300209,6.37929865022847,-12.8652434976299,6.48594484740143
0.854608394634357,-13.8725229171307,0.0695471019582032,13.9420700190889,6.90148790758627,-13.9072964681098,7.00580856052357
0.856771960190394,-14.668739226243,0.0696708836862213,14.7384101099292,7.2995341712784,-14.7035746680861,7.40404049680773
0.85893552574643,-15.0612756085214,0.0707594330930963,15.1320350416145,7.49525808771418,-15.096655325068,7.60139723735382
0.861099091302467,-14.9832329314499,0.0714448399259935,15.0546777713759,7.45589404576197,-15.0189553514129,7.56306130565096
0.863262656858503,-14.4897948444531,0.0696796534326929,14.5594744978858,7.21005759551018,-14.5246346711694,7.31457707565922
0.865426222414539,-13.7231303079302,0.0627938016751744,13.7859241096054,6.83016825312751,-13.7545272087678,6.92435895564028
0.867589787970576,-12.8130751844238,0.0478127897272817,12.860887974151,6.38263119734824,-12.8369815792874,6.45435038193917
0.869753353526612,-11.8148865208839,0.0222614933245891,11.8371480142085,5.89631251377967,-11.8260172675462,5.92970475376655
0.871916919082648,-10.7500587394592,-0.0143238035550905,10.7357349359041,5.38219127150712,-10.7428968376816,5.36070556617449
0.874080484638685,-9.67432198009794,-0.0580409820806877,9.61628099801726,4.86618148108932,-9.6453014890576,4.77912000796828
0.876244050194721,-8.69837508068875,-0.0975257183238222,8.60084936236493,4.39795039950629,-8.64961222152684,4.25166182202056
0.878407615750757,-7.9664056160106,-0.116353895486697,7.8500517205239,4.04137975574865,-7.90822866826725,3.8668489125186
0.880571181306794,-7.59499379579246,-0.107530936798934,7.48746285899353,3.8512623662957,-7.54122832739299,3.6899659610973
0.88273474686283,-7.59143459952406,-0.0835970750080451,7.50783752451602,3.83751583726605,-7.54963606202004,3.71212022475399
0.884898312418866,-7.81985500911979,-0.0652830809487699,7.75457192817102,3.94256904503428,-7.7872134686454,3.84464442361112
0.887061877974903,-8.03930322203498,-0.0653510825268145,7.97395213950817,4.0523271522809,-8.00662768077158,3.95430052849068
0.889225443530939,-8.00110912774056,-0.0837997778252159,7.91730934991534,4.04245445278289,-7.95920923882795,3.91675478604506
0.891389009086975,-7.58741453361444,-0.107863426542379,7.47955110707206,3.84763898007841,-7.53348282034325,3.68584384026484
0.893552574643012,-6.88552496759527,-0.116804799106316,6.76872016848896,3.50116488335079,-6.82712256804211,3.32595768469132
0.895716140199048,-6.10178238216407,-0.0980731390891073,6.00370924307496,3.09992776062659,-6.05274581261952,2.95281805199293
0.897879705755084,-5.40906414619745,-0.0586484971956973,5.35041564900176,2.73385632169658,-5.37973989759961,2.64588357590303
0.900043271311121,-4.88354141521908,-0.014938760667101,4.86860265455198,2.44924008794309,-4.87607203488553,2.42683194694244
0.902206836867157,-4.53584978319782,0.0217039596402346,4.55755374283806,2.25707291177879,-4.54670176301794,2.28962885123915
0.904370402423193,-4.35377212857572,0.0473754676829881,4.40114759625871,2.15319833044637,-4.37745986241722,2.22426153197085
0.90653396797923,-4.30729961398888,0.0625077941835232,4.3698074081724,2.12239590990268,-4.33855351108064,2.21615760117796
0.908697533535266,-4.32257568414725,0.0694955276605326,4.39207121180778,2.12654007824336,-4.35732344797751,2.23078336973416
0.910861099091303,-4.28031365561071,0.0711646686886059,4.35147832429932,2.10457449346105,-4.31589598995501,2.21132149649396
0.913024664647339,-4.06261323517581,0.0699583698667348,4.13257160504254,1.99632743265454,-4.09759242010918,2.10126498745464
0.915188230203375,-3.60494791718825,0.0676310969602533,3.67257901414851,1.768658410114,-3.63876346566838,1.87010505555438
0.917351795759412,-2.90395822801737,0.0652468498716414,2.96920507788902,1.41935568907287,-2.9365816529532,1.51722596388033
0.919515361315448,-1.96937463542825,0.0633214799378995,2.03269611536615,0.953026577745175,-2.0010353753972,1.04800879765202
0.921678926871484,-0.797352479542168,0.0620033991351352,0.859355878677303,0.367674540203516,-0.828354179109735,0.460679638906219
0.923842492427521,0.57138520043102,0.0612346603493072,-0.510150540081713,-0.316309930390164,0.540767870256367,-0.224457939866203
0.926006057983557,1.99152899519858,0.0608691020304908,-1.93065989316809,-1.02619904861454,1.96109444418334,-0.934895395568801
0.928169623539593,3.244097546529,0.0607456813762611,-3.18335186515274,-1.65242161395263,3.21372470584087,-1.56130309188824
0.93033318909563,4.15257696643371,0.0607258856035091,-4.0918510808302,-2.10665142601861,4.12221402363195,-2.01556259761334
0.932496754651666,4.7003736073327,0.0607076465967883,-4.63966596073591,-2.38054062696474,4.6700197840343,-2.28947915706956
0.934660320207702,5.03322948192762,0.0606275532901029,-4.97260192863752,-2.54692851760886,5.00291570528257,-2.45598718767371
0.936823885763739,5.32517974413715,0.0604605405615942,-5.26471920357556,-2.69282014234937,5.29494947385635,-2.60212933150698
0.938987451319775,5.63391293790009,0.0602228594633495,-5.57369007843674,-2.84706789868172,5.60380150816841,-2.75673360948669
0.941151016875811,5.89794079063292,0.0599804360769078,-5.83796035455601,-2.97896061335491,5.86795057259446,-2.88898995923955
0.943314582431848,6.07048575083552,0.059860629989329,-6.01062512084619,-3.06517319041242,6.04055543584085,-2.97538224542843
0.945478147987884,6.2166688982423,0.0600606650505906,-6.15660823319171,-3.13836478164645,6.18663856571701,-3.04827378407056
0.94764171354392,6.47552457209951,0.0608406018250002,-6.41468397027451,-3.26818258696226,6.44510427118701,-3.17692168422476
0.949805279099957,6.98005191989606,0.0624832842084456,-6.91756863568761,-3.52126760205225,6.94881027779183,-3.42754267573958
0.951968844655993,7.81861738635196,0.0651999620707807,-7.75341742428118,-3.94190867421137,7.78601740531657,-3.8441087311052
0.954132410212029,9.0165200193067,0.0689615068680526,-8.94755851243865,-4.54274076308738,8.98203926587267,-4.4392985027853
0.956295975768066,10.5250779782458,0.0732461806302632,-10.4518317976155,-5.29916207943803,10.4884548879307,-5.18929280849263
0.958459541324102,12.2165895659458,0.0767219096448768,-12.1398676563009,-6.14665573779534,12.1782286111234,-6.03157287332802
0.960623106880139,13.8899156232292,0.0769299294187824,-13.8129856938104,-6.98342277632397,13.8514506585198,-6.86802788219579
0.962786672436175,15.3207834543379,0.070110516863729,-15.2506729374742,-7.69544698560083,15.2857281959061,-7.59028121030524
0.964950237992211,16.3322342899008,0.0514057063571829,-16.2808285835436,-8.19181999812898,16.3065314367222,-8.1147114385932
0.967113803548247,16.8216467491995,0.0157697244081998,-16.8058770247913,-8.41870823680384,16.8137618869954,-8.39505365019154
0.969277369104284,16.7531456305797,-0.0400248325990809,-16.7931704631788,-8.3565603989903,16.7731580468792,-8.41659764788892
0.97144093466032,16.1594007548429,-0.113946355351321,-16.2733471101942,-8.0227271997458,16.2163739325186,-8.19364673277278
0.973604500216357,15.1730707012275,-0.193743268128337,-15.3668139693559,-7.4896637165496,15.2699423352917,-7.78027861874211
0.975768065772393,14.0488223158193,-0.256645885326269,-14.3054682011456,-6.89608821524654,14.1771452584825,-7.28105704323594
0.977931631328429,13.0884269479472,-0.280563906869815,-13.368990854817,-6.40393152053868,13.2287089013821,-6.82477738084341
0.980095196884466,12.5072099782154,-0.256784079556614,-12.763994057772,-6.12521294932941,12.6356020179937,-6.51038906866433
0.982258762440502,12.3705400839903,-0.194019608058521,-12.5645596920488,-6.08826023796587,12.4675498880195,-6.37928965005366
0.984422327996538,12.5902606541534,-0.114360747456173,-12.7046214016096,-6.2379499533486,12.6474410278815,-6.40949107453286
0.986585893552575,12.9411339356591,-0.0405771487031737,-12.9817110843623,-6.45027839347796,12.9614225100107,-6.51114411653272
0.988749459108611,13.1442227353234,0.0150796239531149,-13.1291431113703,-6.57965117963827,13.1366829233469,-6.5570317437086
0.990913024664647,12.9928249960829,0.0505779291947287,-12.9422470668881,-6.52170146263879,12.9675360314855,-6.4458345688467
0.993076590220684,12.4362290738258,0.0691450685133212,-12.3670840053125,-6.25268707116956,12.4016565395691,-6.14896946839958
0.99524015577672,11.5837972990997,0.075826615648076,-11.5079706834516,-5.82981195737388,11.5458839912757,-5.71607203390177
0.997403721332756,10.6223630209698,0.0754802223947885,-10.546882798575,-5.34892162168231,10.5846229097724,-5.23570128809013
0.999567286888793,9.69894157043116,0.0718651987162838,-9.62707637171488,-4.88540338457372,9.66300897107302,-4.7776055864993
1.00173085244483,8.87276028693574,0.0674398713595927,-8.80532041557615,-4.47010007914767,8.83904035125595,-4.36894027210828
1.00389441800087,8.16028494680832,0.0635360203562641,-8.09674892645206,-4.11191048358229,8.12851693663019,-4.0166064530479
1.0060579835569,7.56826034238264,0.0606755274064911,-7.50758481497615,-3.81446793489457,7.5379225786794,-3.72345464378483
1.00822154911294,7.03150184168707,0.0588885301524522,-6.97261331153462,-3.54519518591976,7.00205757661085,-3.45686239069108
1.01038511466897,6.33835217778129,0.0579661776390835,-6.28038600014221,-3.19815917771019,6.30936908896175,-3.11120991125156
1.01254868022501,5.18530095828249,0.0576299127193167,-5.12767104556317,-2.6214654355009,5.15648600192283,-2.53502056642193
1.01471224578105,3.35397820008721,0.0576260728756993,-3.29635212721151,-1.70580213648146,3.32516516364936,-1.61936302716791
1.01687581133708,0.845178391306838,0.0577654887983032,-0.787412902508535,-0.451471940052571,0.816295646907687,-0.364823706855116
1.01903937689312,-2.14362114797149,0.0579288236412311,2.20154997161273,1.04284616216513,-2.17258555979211,1.12973939762698
1.02120294244916,-5.33328995828946,0.0580545889235787,5.39134454721304,2.63761768468294,-5.36231725275125,2.72469956806831
1.02336650800519,-8.46202785042932,0.0581214520834364,8.52014930251276,4.20195319917294,-8.49108857647104,4.2891353772981
1.02553007356123,-11.33079700972,0.0581315188855665,11.3889285286056,5.63633274541723,-11.3598627691628,5.72353002374558
1.02769363911727,-13.799242411515,0.0580975510626397,13.8573399625776,6.87057243022618,-13.8282911870463,6.95771875682014
1.0298572046733,-15.7619008883706,0.0580347025162894,15.8199355908868,7.85193309292713,-15.7909182396287,7.93898514670157
1.03202077022934,-17.1645222063865,0.0579561112050519,17.2224783175916,8.55328304759074,-17.1935002619891,8.64021721439832
1.03418433578537,-18.0406493830444,0.0578712318018494,18.0985206148462,8.99138907562125,-18.0695849989453,9.07819592332402
1.03634790134141,-18.4800379914844,0.0577858119415552,18.537823803426,9.21112608977144,-18.5089308974552,9.29780480768377
1.03851146689745,-18.5733445022012,0.0577026512645459,18.6310471534657,9.25782092546832,-18.6021958278335,9.34437490236513
1.04067503245348,-18.419399829675,0.0576225732064164,18.4770224028815,9.18088862823431,-18.4482111162783,9.26732248804394
1.04283859800952,-18.1407800482613,0.0575452955388592,18.1983253438002,9.04161737636123,-18.1695526960307,9.12793531966951
1.04500216356556,-17.8578343757077,0.0574700720966705,17.9153044478044,8.90018215180551,-17.886569411756,8.98638725995052
1.04716572912159,-17.6571376043807,0.0573960928649006,17.7145336972456,8.79987075575792,-17.6858356508132,8.88596489505527
1.04932929467763,-17.5623905767648,0.0573226865677311,17.6197132633325,8.75253394509852,-17.5910519200486,8.83851797495012
1.05149286023367,-17.5244223116168,0.0572493876891254,17.5816716993059,8.73358646196384,-17.5530470054614,8.81946054349753
1.0536564257897,-17.485707399175,0.0571759254052531,17.5428833245802,8.71426573688485,-17.5142953618776,8.80002962499273
1.05581999134574,-17.4743972141154,0.0571021778587586,17.5314993919741,8.7086475181283,-17.5029483030447,8.79430078491644
1.05798355690177,-17.6191694887199,0.0570281195315487,17.6761976082515,8.78107068459418,-17.6476835484857,8.86661286389151
1.06014712245781,-18.075730484804,0.0569537762883176,18.1326842610924,9.00938835425786,-18.1042073729482,9.09481901869034
1.06231068801385,-18.9260497738754,0.0568791933965839,18.982928967272,9.4345852902394,-18.9544893705737,9.51990408033428
1.06447425356988,-20.1105949391086,0.0568044163425798,20.1673993554512,10.026895261383,-20.1389971472799,10.1121018858969
1.06663781912592,-21.4471660861018,0.0567294817046081,21.5038955678064,10.6952183021986,-21.4755308269541,10.7803125247555
1.06880138468196,-22.7235286399905,0.0566544147041174,22.7801830546946,11.3334371126432,-22.7518558473426,11.4184187346994
1.07096495023799,-23.7836993185541,0.0565792304509936,23.8402785490051,11.8635600440515,-23.8119889337796,11.948428889728
1.07312851579403,-24.5650470649794,0.056503936700167,24.6215510016796,12.2542715641396,-24.5932990333295,12.3390274691899
1.07529208135007,-25.0810996299474,0.0564285367559772,25.1375281667034,12.5123355465957,-25.1093138983254,12.5969783517297
1.0774556469061,-25.3682063134897,0.0563530318112732,25.424559345301,12.6559266408392,-25.3963828293953,12.7404561885561
1.07961921246214,-25.466420190012,0.0562774224370213,25.522697612449,12.7050713837875,-25.4945589012305,12.789487517443
1.08178277801817,-25.4324425022583,0.0562017091708237,25.4886442114291,12.6881203965437,-25.4605433568437,12.7724229603
1.08394634357421,-25.3175232911627,0.0561258922526209,25.3736491834154,12.6306986994551,-25.3455862372891,12.714887537834
1.08610990913025,-25.1463637526809,0.0560499705991104,25.20241372328,12.5451568910409,-25.1743887379804,12.6292318469395
1.08827347468628,-24.9391994181981,0.0559739401702569,24.9951733583684,12.4416127390139,-24.9671863882832,12.5255736492693
1.09043704024232,-24.727895740519,0.0558977920273937,24.7837935325464,12.3359989742458,-24.7558446365327,12.4198456622869
1.09260060579836,-24.5347490727374,0.0558215106594339,24.5905705833969,12.239463781039,-24.5626598280671,12.3231960470281
1.09476417135439,-24.323765078833,0.0557450735729595,24.379510152406,12.13401000263,-24.3516376156195,12.2176276129895
1.09692773691043,-23.9595163633577,0.0556684536535563,24.0151848170113,11.9519239548521,-23.9873505901845,12.0354266353324
1.09909130246646,-23.2477216256546,0.0555916262633862,23.303313251918,11.5960649996956,-23.2755174387863,11.6794524390907
1.1012548680225,-22.0560479000064,0.0555145831630382,22.1115624831695,11.0002666584217,-22.0838051915879,11.0835385331662
1.10341843357854,-20.3945064744491,0.0554373546946098,20.4499438291437,10.1695345598773,-20.4222251517964,10.2526905919192
1.10558199913457,-18.4056717931512,0.0553600396545771,18.4610318328058,9.17515587674832,-18.4333518129785,9.25819593623018
1.10774556469061,-16.3270698819763,0.0552828382873719,16.3823527202637,8.13589352184446,-16.35471130112,8.21881777927552
1.10990913024665,-14.4491909011189,0.0552060773844828,14.5043969785034,7.19699241186722,-14.4767939398112,7.27980152794394
1.11207269580268,-13.0443039336241,0.0551302076854512,13.0994341413096,6.49458686296933,-13.0718690374668,6.57728217449751
1.11423626135872,-12.2780690238514,0.0550557438994816,12.3331247677509,6.11150663997597,-12.3055968958012,6.19409025582519
1.11639982691476,-12.1642227092878,0.0549831098255073,12.2192058191133,6.05461979973115,-12.1917142642006,6.13709446446941
1.11856339247079,-12.5898493490103,0.0549123509549826,12.6447616999653,6.26746849902766,-12.6173055244878,6.34983702546013
1.12072695802683,-13.3742709208932,0.0548426932596083,13.4291136141528,6.6597141138168,-13.401692267523,6.74197815370622
1.12289052358286,-14.3284077777755,0.0547719706967045,14.3831797484722,7.13681790353942,-14.3557937631239,7.21897585958448
1.1250540891389,-15.2876166167153,0.0546960266841014,15.3423126433994,7.61646029501562,-15.3149646300574,7.69850433504177
1.12721765469494,-16.0990835404205,0.0546083233665802,16.1536918637871,8.02223760852697,-16.1263877021038,8.10415009357684
1.12938122025097,-16.6023457782531,0.0545001614965192,16.6568459397497,8.27392280837831,-16.6295958590014,8.35567305062309
1.13154478580701,-16.6579439000005,0.0543620939773614,16.7123059939778,8.30179090301155,-16.6851249469891,8.38333404397759
1.13370835136305,-16.2200161784313,0.0541872409317924,16.2742034193631,8.08291446874974,-16.2471097988972,8.16419533014743
1.13587191691908,-15.3757024891368,0.0539771670833107,15.4296796562201,7.66086266102675,-15.4026910726785,7.74182841165172
1.13803548247512,-14.3018799578289,0.0537505926451354,14.3556305504741,7.12406468259189,-14.3287552541515,7.20469057155959
1.14019904803116,-13.1908729703184,0.0535542666385447,13.244427236957,6.56865935183995,-13.2176501036377,6.64899075179776
1.14236261358719,-12.2018680470407,0.053473635225329,12.255341682266,6.07419720590769,-12.2286048646534,6.15440765874568
1.14452617914323,-11.4348264681481,0.0536383927952511,11.4884648609434,5.69059403767644,-11.4616456645458,5.77105162686932
1.14668974469926,-10.908255891861,0.0542147832008174,10.9624706750618,5.4270205543301,-10.9353632834614,5.50834272913133
1.1488533102553,-10.5558565766253,0.0553732848164062,10.6112298614417,5.25024164590443,-10.5835432190335,5.33330157312904
1.15101687581134,-10.274738842415,0.0572184709593569,10.3319573133744,5.10876018572783,-10.3033480778947,5.19458789216687
1.15318044136737,-10.0112462039752,0.0596697442432789,10.0709159482185,4.97578822986598,-10.0410810760969,5.0652928462309
1.15534400692341,-9.80881005751627,0.0622906350137375,9.87110069253001,4.87325971125127,-9.83995537502314,4.96669566377187
1.15750757247945,-9.76285997066869,0.0640843670749354,9.82694433774362,4.84938780179688,-9.79490215420615,4.94551435240928
1.15967113803548,-9.93853064185647,0.0633079078722038,10.0018385497287,4.93761136699213,-9.97018459579258,5.03257322880044
1.16183470359152,-10.338600044857,0.0574067201621004,10.3960067650191,5.14059666234747,-10.3673034049381,5.22670674259062
1.16399826914756,-10.9176599927299,0.0432331999169916,10.9608931926468,5.43721339640643,-10.9392765926883,5.50206319628192
1.16616183470359,-11.5958305104559,0.0177686238691826,11.6135991343251,5.78903094329334,-11.6047148223905,5.81568387909712
1.16832540025963,-12.258238228108,-0.0204079891993911,12.2378302389086,6.1393231086537,-12.2480342335083,6.10871112485461
1.17048896581566,-12.7475781705397,-0.0687177449770203,12.6788604255627,6.40814795775836,-12.7132192980512,6.30507134029283
1.1726525313717,-12.866387344384,-0.117262468822072,12.7491248755619,6.49182490660302,-12.8077561099729,6.31593120336991
1.17481609692774,-12.4203349281339,-0.150721552716817,12.269613375417,6.28552824042534,-12.3449741517754,6.05944591135011
1.17697966248377,-11.3122229044035,-0.161950079565796,11.1502728248377,5.73708649198464,-11.2312478646206,5.49416137263595
1.17914322803981,-9.62466684060935,-0.160760596724752,9.4639062438846,4.89271371866705,-9.54428654224697,4.65157282357992
1.18130679359585,-7.60985696765518,-0.160917025008244,7.44893994264693,3.88538699633171,-7.52939845515105,3.64401145881934
1.18347035915188,-5.60227075317795,-0.16232496051686,5.43994579266109,2.8822978568474,-5.52110827291952,2.63881041607211
1.18563392470792,-3.9277722332604,-0.151030351782207,3.77674188147819,2.0394012925213,-3.8522570573693,1.81285576484799
1.18779749026395,-2.81827517967683,-0.117035245749911,2.70123993392692,1.46765521271337,-2.75975755680188,1.29210234408851
1.18996105581999,-2.34729265014744,-0.0673356007293777,2.27995704941806,1.20731412543841,-2.31362484978275,1.10631072434434
1.19212462137603,-2.44318252410433,-0.0172119018279164,2.42597062227641,1.23019721296612,-2.43457657319037,1.20437936022425
1.19428818693206,-2.95548794200512,0.0232467055507634,2.97873464755588,1.46612061822718,-2.9671112947805,1.50099067655332
1.1964517524881,-3.70282587584583,0.0508708877026898,3.75369676354852,1.82597749407157,-3.72826131969718,1.90228382562561
1.19861531804414,-4.49035930767974,0.0659048578291233,4.55626416550886,2.21222722492531,-4.5233117365943,2.31108451166899
1.20077888360017,-5.11803914643448,0.0694640967148255,5.18750324314931,2.52428752485983,-5.1527711947919,2.62848366993207
1.20294244915621,-5.39119519675342,0.0620889213646241,5.45328411811804,2.6645531376944,-5.42223965743573,2.75768651974133
1.20510601471225,-5.13969161485753,0.043379828729492,5.18307144358702,2.54815589306402,-5.16138152922227,2.61322563615825
1.20726958026828,-4.25085226215673,0.0126874274753604,4.26353968963209,2.11908241734068,-4.25719597589441,2.13811355855372
1.20943314582432,-2.7239850402548,-0.0291484249149599,2.69483661533984,1.37656673258488,-2.70941082779732,1.33284409521244
1.21159671138035,-0.71360048723615,-0.0770564789473009,0.636544008288849,0.395328483091725,-0.675072247762499,0.279743764670774
1.21376027693639,1.50389940258691,-0.11823183191372,-1.62213123450063,-0.692833785336595,1.56301531854377,-0.870181533207176
1.21592384249243,3.6236544040771,-0.134245553275494,-3.75789995735259,-1.7447044254008,3.69077718071485,-1.94607275531404
1.21808740804846,5.39999934429657,-0.115503521655257,-5.51550286595183,-2.64224791132066,5.4577511051242,-2.81550319380354
1.2202509736045,6.69956413884009,-0.0717682519763841,-6.77133239081647,-3.31389794343185,6.73544826482828,-3.42155032139643
1.22241453916054,7.50483254463421,-0.0218901534360957,-7.52672269807031,-3.74147119559906,7.51577762135226,-3.7743064257532
1.22457810471657,7.86302101419585,0.0204289310414215,-7.84259208315443,-3.94172497261864,7.85280654867514,-3.9110815760565
1.22674167027261,7.80206628339971,0.048605619845561,-7.75346066355415,-3.92533595162264,7.77776347347693,-3.85242752185429
1.22890523582865,7.2771745145491,0.0597059533006527,-7.21746856124845,-3.66844023392488,7.24732153789878,-3.5788813039739
1.23106880138468,6.21129085144382,0.0520453722667304,-6.15924547917709,-3.13166811185528,6.18526816531045,-3.05360005345518
1.23323236694072,4.61403165996194,0.0242709184906356,-4.5897607414713,-2.31915128922629,4.60189620071662,-2.28274491149033
1.23539593249675,2.68774707293682,-0.0238650012178005,-2.71161207415462,-1.33194103585951,2.69967957354572,-1.36773853768621
1.23755949805279,0.816557325106643,-0.0889627622699896,-0.905520087376633,-0.363797281418327,0.861038706241638,-0.497241424823311
1.23972306360883,-0.579433669084025,-0.159797109387113,0.419636559696913,0.369615389235569,-0.499535114390469,0.1299197251549
1.24188662916486,-1.22561989217076,-0.217762670656291,1.00785722151446,0.721691281413523,-1.11673855684261,0.395047275429086
1.2440501947209,-1.1063640816901,-0.248637499981319,0.857726581708784,0.677500790835711,-0.982045331699443,0.304544540863732
1.24621376027694,-0.4716617048948,-0.249557945793574,0.222103759101226,0.360609825344187,-0.346882731998013,-0.0137270933461738
1.24837732583297,0.273373555900349,-0.220685544483099,-0.494059100383448,-0.0263440057086253,0.383716328141898,-0.357372322433273
1.25054089138901,0.755341096448689,-0.1651203560434,-0.920461452492089,-0.295110370202644,0.837901274470389,-0.542790904267745
1.25270445694505,0.767516250710955,-0.0970512583925798,-0.864567509103535,-0.335232496159187,0.816041879907245,-0.480809383748057
1.25486802250108,0.247798970900504,-0.0345782977963103,-0.282377268696815,-0.106610336552097,0.26508811979866,-0.158477783246563
1.25703158805712,-0.840274811809508,0.0122582911996118,0.852533103009119,0.414008260304948,-0.846403957409314,0.432395697104366
1.25919515361315,-2.55676016405353,0.0420770126706998,2.59883717672423,1.25734157569141,-2.57779867038888,1.32045709469746
1.26135871916919,-4.90718373920942,0.0579586653209447,4.96514240453036,2.42461253694424,-4.93616307186989,2.51155053492565
1.26352228472523,-7.73888052729502,0.0645319804322265,7.80341250772725,3.8371742734314,-7.77114651751114,3.93397224407974
1.26568585028126,-10.7201130276289,0.0662369634619617,10.7863499910909,5.32693803208348,-10.7532315093599,5.42629347727642
1.2678494158373,-13.4342578901309,0.0664489257425613,13.5007068158734,6.68390448219416,-13.4674823530022,6.783577870808
1.27001298139334,-15.550948375086,0.0671112260123168,15.6180596010983,7.74191857453683,-15.5845039880921,7.84258541355531
1.27217654694937,-16.9422910166516,0.0685910367251423,17.0108820533767,8.43684998996321,-16.9765865350141,8.53973654505092
1.27434011250541,-17.6305234100693,0.0695895745199289,17.7001129845892,8.78046691777467,-17.6653181973292,8.88485127955457
1.27650367806145,-17.6674094123476,0.0670787382868753,17.7344881506345,8.80016533703037,-17.7009487814911,8.90078344446069
1.27866724361748,-17.115867330896,0.0563864937472308,17.1722538246432,8.52974041857438,-17.1440605777696,8.61432015919522
1.28083080917352,-16.1245249932335,0.0317021022193199,16.1562270954528,8.04641144550708,-16.1403760443431,8.09396459883606
1.28299437472955,-14.9653040575353,-0.012603177452652,14.9527008800827,7.488953617494,-14.959002468809,7.47004885131502
1.28515794028559,-13.9612245357092,-0.0793898368580897,13.8818346988511,7.02030718628363,-13.9215296172801,6.90122243099649
1.28732150584163,-13.3808462554461,-0.164541576814472,13.2163046786316,6.77269391613029,-13.2985754670389,6.52588155090859
1.28948507139766,-13.3959127896792,-0.251128667296161,13.144784122383,6.82352072848767,-13.2703484560311,6.44682772754343
1.2916486369537,-14.0517786657552,-0.308369624493475,13.7434090412617,7.18007414512435,-13.8975938535085,6.71751970838414
1.29381220250974,-15.1911677837662,-0.308392702871639,14.8827750808946,7.74978024331894,-15.0369714323304,7.28719118901148
1.29597576806577,-16.4228992197502,-0.251195330639478,16.1717038891108,8.33704727519486,-16.2973015544305,7.96025427923564
1.29813933362181,-17.2486742627199,-0.164649189862983,17.0840250728569,8.70666172629144,-17.1663496677884,8.45968794149697
1.30030289917785,-17.3018661532051,-0.0795508675592136,17.2223152856459,8.69070851038215,-17.2620907194255,8.57138220904333
1.30246646473388,-16.5185085745679,-0.0128697701789773,16.505638804389,8.26568917237346,-16.5120736894785,8.246384517105
1.30463003028992,-15.1211404057135,0.031206775817417,15.1523471815309,7.54496681494803,-15.1367437936222,7.59177697867415
1.30679359584595,-13.4792918740021,0.0554367666347478,13.5347286406369,6.71192755368368,-13.5070102573195,6.79508270363581
1.30895716140199,-11.971494901717,0.0653280110590914,12.036822912776,5.95308344532893,-12.0041589072465,6.05107546191757
1.31112072695803,-10.9032273955744,0.0665866197489056,10.9698140153233,5.41832038791274,-10.9365207054488,5.5182003175361
1.31328429251406,-10.496806645077,0.0638616824787853,10.5606683275558,5.21647248129909,-10.5287374863164,5.31226500501727
1.3154478580701,-10.914579899873,0.0603416388228233,10.9749215386958,5.42711913052509,-10.9447507192844,5.51763158875933
1.31761142362614,-12.2310557414566,0.057802647073945,12.2888583885306,6.08662654719133,-12.2599570649936,6.17333051780225
1.31977498918217,-14.3579447354249,0.0568151157618307,14.4147598511867,7.15056480983151,-14.3863522933058,7.23578748347426
1.32193855473821,-17.0053107707829,0.0569338245481763,17.0622445953311,8.47418847311737,-17.033777683057,8.55958920993963
1.32410212029424,-19.7405161336524,0.0568080651453756,19.7973241987978,9.84185403425352,-19.7689201662251,9.92706613197159
1.32626568585028,-22.1336566103372,0.0542457450768529,22.187902355414,11.0397054326302,-22.1607794828756,11.1210740502454
1.32842925140632,-23.8834127351587,0.0463508023285612,23.9297635374872,11.918530966415,-23.9065881363229,11.9880571699079
1.33059281696235,-24.8238783065403,0.0299255992181284,24.8538039057584,12.3969763536611,-24.8388411061493,12.4418647524883
1.33275638251839,-24.8052610430063,0.0023781255403284,24.8076391685466,12.401441458733,-24.8064501057764,12.4050086470435
1.33491994807443,-23.5220979260429,-0.036629251794733,23.4854686742482,11.7793635889188,-23.5037833001456,11.7244197112267
1.33708351363046,-20.4042189694853,-0.0826529725370798,20.3215659969482,10.2434359710112,-20.3628924832167,10.1194565122056
1.3392470791865,-14.6505158168085,-0.123185801618605,14.5273300151898,7.38685080921353,-14.5889229159991,7.20207210678562
1.34141064474254,-5.4270034099807,-0.139920092448386,5.28708331753231,2.78346175121454,-5.35704336375651,2.57358161254196
1.34357421029857,7.82937984607202,-0.12325764590407,-7.95263749197608,-3.85306110008397,7.89100866902405,-4.03794756894008
1.34573777585461,25.1486538092959,-0.0827657839770329,-25.2314195932729,-12.5329440126594,25.1900367012844,-12.657092688625
1.34790134141064,45.9200010530407,-0.0367304371350003,-45.9567314901756,-22.9416353079528,45.9383662716082,-22.9967309636553
1.35006490696668,68.9193007877377,0.00234229272987316,-68.9169584950078,-34.4608215402338,68.9181296413728,-34.457308101139
1.35222847252272,92.3950181528016,0.0299744247005345,-92.3650437281011,-46.2124962887511,92.3800309404514,-46.1675346517003
1.35439203807875,114.20498257539,0.0464159025850792,-114.158566672805,-57.1256992389875,114.181774624097,-57.0560753851099
1.35655560363479,132.06441034867,0.0541015353144434,-132.010308813356,-66.0592559419922,132.037359581013,-65.9781036390205
1.35871916919083,143.914664097437,0.0559964614396482,-143.858667635997,-71.9853302794384,143.886665866717,-71.9013355872789
1.36088273474686,148.336781402611,0.0547083117515559,-148.282073090859,-74.1957448571812,148.309427246735,-74.1136823895539
1.3630463003029,144.904761238215,0.0521493718694615,-144.852611866345,-72.478455305042,144.87868655228,-72.4002312472378
1.36520986585894,134.341676727799,0.0495313168653763,-134.292145410934,-67.1956040223322,134.316911069366,-67.1213070470342
1.36737343141497,118.371287394445,0.0475183665665226,-118.323769027878,-59.2094028805056,118.347528211161,-59.1381253306558
1.36953699697101,99.3107235848135,0.0464190263181489,-99.2643045584954,-49.6785713055658,99.2875140716544,-49.6089427660886
1.37170056252704,79.5622175530256,0.0463441865781861,-79.5158733664474,-39.8042808698019,79.5390454597365,-39.7347645899346
1.37386412808308,61.1765073542094,0.0472938487267736,-61.1292135054826,-30.6119006014681,61.152860429846,-30.5409598283779
1.37602769363912,45.591460351243,0.04915710177774,-45.5423032494652,-22.8203087265104,45.5668818003541,-22.7465730738437
1.37819125919515,33.5455748683095,0.0516253516274482,-33.493949516682,-16.7986001099685,33.5197621924957,-16.7211620825273
1.38035482475119,25.1543613772691,0.0540341834503592,-25.1003271938187,-12.6041977803597,25.1273442855439,-12.5231465051842
1.38251839030723,20.0946877427438,0.0551716009595893,-20.0395161417843,-10.0749296718517,20.0671019422641,-9.99217227041233
1.38468195586326,17.7614351947581,0.0531248888619235,-17.7083103058962,-8.90728004181001,17.7348727503271,-8.82759270851713
1.3868455214193,17.365176949253,0.0452859626539707,-17.3198909865991,-8.7052314559535,17.342533967926,-8.63730251197254
1.38900908697534,18.0486519385823,0.0286893918994175,-18.0199625466829,-9.03867066524084,18.0343072426326,-8.99563657739172
1.39117265253137,19.0300270596901,0.000900555745519449,-19.0291265039445,-9.5154638077178,19.0295767818173,-9.51411297409952
1.39333621808741,19.7171419788714,-0.0383293631267654,-19.7554713419982,-9.83940630787232,19.7363066604348,-9.89690035256247
1.39549978364344,19.7375048988128,-0.0845197643987529,-19.8220246632116,-9.82649256720705,19.7797647810122,-9.95327221380517
1.39766334919948,18.8735805393728,-0.125159919006245,-18.9987404583791,-9.37421031018328,18.9361604988759,-9.56195018869265
1.39982691475552,17.0039456310338,-0.141957055828067,-17.1459026868619,-8.43099428760288,17.0749241589479,-8.64392987134498
1.40199048031155,14.1534847215194,-0.125335336115005,-14.2788200576344,-7.01407469270219,14.2161523895769,-7.2020776968747
1.40415404586759,10.5752065776371,-0.0848846374292046,-10.6600912150663,-5.24516097010394,10.6176488963517,-5.37248792624775
1.40631761142363,6.71402598794712,-0.0389083481065313,-6.75293433605365,-3.33755881992029,6.73348016200038,-3.39592134208009
1.40848117697966,3.06010866475493,8.01028214995336e-05,-3.06002856193343,-1.53009438378821,3.06006861334418,-1.52997422955596
1.4106447425357,0.0195947524277003,0.0276115987692118,0.00801684634151151,-0.023603175598456,0.00578895304309437,0.0178142225553616
1.41280830809174,-2.14872640352794,0.0439685287860528,2.19269493231399,1.05237893737094,-2.17071066792096,1.11833173055002
1.41497187364777,-3.38679272245527,0.0516491892513791,3.43844191170665,1.66757176660194,-3.41261731708096,1.74504555047901
1.41713543920381,-3.87258637711377,0.0537173688816866,3.92630374599546,1.90943450411604,-3.89944506155461,1.99001055743857
1.41929900475984,-3.96648628718209,0.0529092487930747,4.01939553597517,1.95678851919451,-3.99294091157863,2.03615239238412
1.42146257031588,-4.07845812549132,0.051272237963653,4.12973036345497,2.01359294376383,-4.10409424447314,2.09050130070931
1.42362613587192,-4.51101234260392,0.0501080019569927,4.56112034456091,2.23045217032346,-4.53606634358242,2.30561417325895
1.42578970142795,-5.33550291425124,0.0500363403060891,5.38553925455733,2.64273328697257,-5.36052108440428,2.71778779743171
1.42795326698399,-6.37851574994341,0.0510572799513897,6.4295730298948,3.16372923499601,-6.4040443899191,3.24031515492309
1.43011683254003,-7.33544982519392,0.0525510716221687,7.38800089681609,3.64144937678588,-7.36172536100501,3.72027598421913
1.43228039809606,-7.93477123515109,0.0532160872459352,7.98798732239702,3.94077757395258,-7.96137927877406,4.02060170482148
1.4344439636521,-8.05683205082789,0.0510049281122828,8.10783697894018,4.00291356135781,-8.08233451488403,4.07942095352623
1.43660752920814,-7.75076265931949,0.0431813744998763,7.79394403381937,3.85379064240981,-7.77235334656943,3.91856270415962
1.43877109476417,-7.1593295885992,0.0266815223896062,7.18601111098881,3.5663240331048,-7.172670349794,3.60634631668921
1.44093466032021,-6.44298406836337,-0.000993144741194496,6.44199092362217,3.22198860655228,-6.44248749599277,3.22049888944049
1.44309822587624,-5.76874174441598,-0.0401253565150912,5.72861638790089,2.90443355046554,-5.74867906615843,2.8442455156929
1.44526179143228,-5.30435315324765,-0.086246438706839,5.21810671454081,2.69529979597725,-5.26122993389423,2.56593013791699
1.44742535698832,-5.16869880820603,-0.126843422968885,5.04185538523715,2.64777111558746,-5.10527709672159,2.45750598113413
1.44958892254435,-5.38308150508488,-0.143613215741395,5.23946828934349,2.76334736041314,-5.31127489721418,2.54792753680105
1.45175248810039,-5.86679579253064,-0.12696575182252,5.73983004070812,2.99688077217658,-5.80331291661938,2.8064321444428
1.45391605365643,-6.48099670068814,-0.0864757427701104,6.39452095791803,3.28373622172912,-6.43775882930308,3.15402260757396
1.45607961921246,-7.08569231577864,-0.0404333393868453,7.0452589763918,3.56306282758274,-7.06547564608522,3.50241281850247
1.4582431847685,-7.56779950930508,-0.00134464303371618,7.56645486627137,3.7845720761694,-7.56712718778822,3.78255511161883
1.46040675032453,-7.85133404458134,0.0263165863968142,7.87765063097815,3.91250872909226,-7.86449233777975,3.95198360868748
1.46257031588057,-7.92222235841369,0.0428076817738802,7.96503004018757,3.9397073383199,-7.94362619930063,4.00391886098072
1.46473388143661,-7.85037521096492,0.0505715832337457,7.90094679419867,3.89990181386559,-7.8756610025818,3.97575918871621
1.46689744699264,-7.75769606741166,0.0525779762320073,7.81027404364367,3.85255904558983,-7.78398505552766,3.93142600993784
1.46906101254868,-7.72758558684528,0.0514287475720456,7.77901433441733,3.83807841963662,-7.75329996063131,3.91522154099469
1.47122457810472,-7.7243679243788,0.0490110529971842,7.77337897737599,3.83767843569081,-7.74887345087739,3.91119501518659
1.47338814366075,-7.59967280318847,0.0464816438783811,7.64615444706685,3.77659557965504,-7.62291362512766,3.84631804547261
1.47555170921679,-7.18294441935148,0.0444112254202967,7.22735564477178,3.56926659696559,-7.20515003206163,3.63588343509604
1.47771527477283,-6.37867157582687,0.0429745555763262,6.4216461314032,3.16784851012527,-6.40015885361504,3.23231034348976
1.47987884032886,-5.22303491937874,0.042122689531252,5.26515760891,2.59045611492375,-5.24409626414437,2.65364014922062
1.4820424058849,-3.89955381982317,0.04171098215199,3.94126480197516,1.92892141883559,-3.92040931089916,1.99148789206357
1.48420597144093,-2.68669546522861,0.041579553233037,2.72827501846165,1.32255795599779,-2.70748524184513,1.38492728584734
1.48636953699697,-1.82387938791272,0.041594534036437,1.86547392194916,0.891142426938143,-1.84467665493094,0.953534227992798
1.48853310255301,-1.38114142214551,0.0416621815316963,1.42280360367721,0.669739620306908,-1.40197251291136,0.732232892604453
1.49069666810904,-1.25524359372166,0.0417272186159373,1.29697081233759,0.606758187552859,-1.27610720302962,0.669349015476765
1.49286023366508,-1.28037920180045,0.0417640540533112,1.32214325585376,0.61930757387357,-1.30126122882711,0.681953654953537
1.49502379922112,-1.30236161460464,0.041766458069976,1.34412807267462,0.630297578267334,-1.32324484363963,0.692947265372298
1.49718736477715,-1.1813503910855,0.0417386547228472,1.22308904580834,0.569805868181325,-1.20221971844692,0.632413850265595
1.49935093033319,-0.822471536637369,0.0416889397700092,0.864160476407379,0.39039129843368,-0.843316006522374,0.452924708088694
1.50151449588923,-0.233839963218063,0.0416258258604669,0.27546578907853,0.0961070686787981,-0.254652876148297,0.158545807469499
1.50367806144526,0.445544598150336,0.0415561921262094,-0.403988406024127,-0.243550395138273,0.424766502087232,-0.181216106948959
1.5058416270013,0.967550869860576,0.0414847739313571,-0.926066095929219,-0.504517821895966,0.946808482894897,-0.442290660998931
1.50800519255733,1.08046913354624,0.041414396305051,-1.03905473724119,-0.560941764925645,1.05976193539371,-0.498820170468068
1.51016875811337,0.689026838976821,0.0413465050757948,-0.647680333901026,-0.365186672026308,0.668353586438923,-0.303166914412616
1.51233232366941,-0.0432039781820315,0.0412817059591934,0.0844856841412248,0.000961136111419056,-0.0638448311616282,0.0628836950502091
1.51449588922544,-0.714888198343738,0.0412201471942651,0.756108345538003,0.336834025574736,-0.735498271940871,0.398664246366134
1.51665945478148,-0.839446577931692,0.0411616674502717,0.880608245381964,0.39914245524071,-0.860027411656828,0.460884956416118
1.51882302033752,-0.0766231808744369,0.0411056866884126,0.117728867562849,0.0177587470930122,-0.0971760242186431,0.079417277125631
1.52098658589355,1.59745485153783,0.0410508614836201,-1.55640399005421,-0.819252856510723,1.57692942079602,-0.757676564285293
1.52315015144959,3.89772000845117,0.0409945787861361,-3.85672542966503,-1.96935729361865,3.8772227190581,-1.90786542543945
1.52531371700563,6.37829820740228,0.0409324415388214,-6.33736576586346,-3.20961532447055,6.35783198663287,-3.14821666216232
1.52747728256166,8.59593574363243,0.0408580158881291,-8.5550777277443,-4.31839687976028,8.57550673568836,-4.25710985592808
1.5296408481177,10.2226412987143,0.0407632566245575,-10.1818780420898,-5.13170227766944,10.202259670402,-5.0705573927326
1.53180441367373,11.1069717886891,0.0406401721884588,-11.0663316165006,-5.57380598043878,11.0866517025949,-5.51284572215609
1.53396797922977,11.287382582631,0.0404843624263067,-11.2468982202046,-5.66393347252863,11.2671404014178,-5.60320692888917
1.53613154478581,10.9421645924229,0.0403009438304366,-10.9018636485925,-5.49123276812668,10.9220141205077,-5.43078135238103
1.53829511034184,10.2925859012813,0.0401129045599407,-10.2524729967214,-5.16634940292064,10.2725294490014,-5.10618004608073
1.54045867589788,9.54569256394838,0.0399709159399953,-9.50572164800838,-4.79283173994419,9.52570710597838,-4.73287536603419
1.54262224145392,8.89992780039039,0.0399619082637436,-8.85996589212665,-4.46994485432707,8.87994684625852,-4.41000199193145
1.54478580700995,8.53736899522271,0.0402112679093206,-8.49715772731339,-4.28879013156602,8.51726336126805,-4.22847322970204
1.54694937256599,8.58494795226093,0.0408705913738169,-8.54407736088712,-4.31290927181738,8.56451265657402,-4.25160338475665
1.54911293812203,9.1044542928816,0.0420802989186673,-9.06237399396293,-4.57326729590014,9.08341414342227,-4.51014684752213
1.55127650367806,10.1231351636006,0.0438955434979958,-10.0792396201026,-5.08351535354928,10.1011873918516,-5.01767203830229
1.5534400692341,11.6290346537852,0.0461670958032949,-11.5828675579819,-5.83760087479427,11.6059511058836,-5.76835023108932
1.55560363479013,13.4946875829033,0.0483793956678884,-13.4463081872354,-6.77153348928558,13.4704978850693,-6.69896439578375
1.55776720034617,15.4146425715385,0.0494692043643919,-15.3651733671741,-7.73205588795143,15.3899079693563,-7.65785208140485
1.55993076590221,16.957686365503,0.0476828914197824,-16.9100034740832,-8.50268462846138,16.9338449197931,-8.43116029133171
1.56209433145824,17.7413799270169,0.0405780155634698,-17.7008019114534,-8.89097897129019,17.7210909192352,-8.83011194794498
1.56425789701428,17.6266352249243,0.0253290997553017,-17.601306125169,-8.82598216233979,17.6139706750466,-8.78798851270684
1.56642146257032,16.807305651733,-0.000458098742850249,-16.8077637504759,-8.40342377649509,16.8075347011045,-8.40411092460937
1.56858502812635,15.7450778428267,-0.0372154064382069,-15.782293249265,-7.85393121819427,15.7636855460458,-7.90975432785158
1.57074859368239,14.9871987710574,-0.0810385353860922,-15.0682373064434,-7.45308011783563,15.0277180387504,-7.57463792091477
1.57291215923842,14.9669976271697,-0.120575392571931,-15.0875730197416,-7.42321111729887,15.0272853234556,-7.60407420615676
1.57507572479446,15.8519141535864,-0.139418250325296,-15.9913324039117,-7.85624795163054,15.921623278749,-8.06537532711848
1.5772392903505,17.4656822631161,-0.13058742154485,-17.5962696846609,-8.6675474207856,17.5309759738885,-8.86342855310288
1.57940285590653,19.365262029619,-0.10663430390741,-19.4718963335264,-9.62931386285581,19.4185791815727,-9.78926531871693
1.58156642146257,21.0668461262062,-0.0882970924831555,-21.1551432186894,-10.4892745168615,21.1109946724478,-10.6217201555863
1.58372998701861,22.2482641931552,-0.0883427749022837,-22.3366069680575,-11.0799607091265,22.2924355806064,-11.2124748714799
1.58589355257464,22.8058349078782,-0.106773964594037,-22.9126088724722,-11.3495304716421,22.8592218901752,-11.5096914185331
1.58805711813068,22.791611965034,-0.130829415175743,-22.9224413802097,-11.3303912749291,22.8570266726219,-11.5266353976927
1.59022068368672,22.3126518822108,-0.13977794625494,-22.4524298284658,-11.0864369679779,22.3825408553383,-11.2961038873604
1.59238424924275,21.4734196014761,-0.121076367516502,-21.5944959689926,-10.6761716169798,21.5339577852343,-10.8577861682545
1.59454781479879,20.3949352536815,-0.0817122102576708,-20.4766474639391,-10.1566115217119,20.4357913588103,-10.2791798370984
1.59671138035482,19.2486973166797,-0.0380969975313338,-19.286794314211,-9.60530015957416,19.2677458154453,-9.66244565587116
1.59887494591086,18.2125262169638,-0.00157626104941047,-18.2141024780132,-9.1054749779572,18.2133143474885,-9.10783936953132
1.6010385114669,17.3638437179163,0.0239715233609229,-17.3398721945554,-8.6939076206386,17.3518579562358,-8.65795033559722
1.60320207702293,16.6259686892293,0.0390335878390127,-16.5869351013903,-8.33250113853417,16.6064518953098,-8.27395075677565
1.60536564257897,15.8205916418095,0.0460979836372432,-15.7744936581723,-7.93334481272337,15.7975426499909,-7.86419783726751
1.60752920813501,14.7846667075562,0.0481240862739749,-14.7365426212822,-7.41639539691509,14.7606046644192,-7.34420926750413
1.60969277369104,13.481144248577,0.0477142293844366,-13.4334300191926,-6.76442923898072,13.4572871338848,-6.69285789490407
1.61185633924708,12.0091602748489,0.0467666888650534,-11.9623935859839,-6.02796348185698,11.9857769304164,-5.9578134485594
1.61401990480312,10.5050512755612,0.0463936289994167,-10.4586576465618,-5.27572245228029,10.4818544610615,-5.20613200878117
1.61618347035915,9.03939406098736,0.0469357930802618,-8.9924582679071,-4.54316492703381,9.01592616444723,-4.47276123741342
1.61834703591519,7.56654144631973,0.0479715775928822,-7.51856986872685,-3.80725651195631,7.54255565752329,-3.73529914556698
1.62051060147122,5.94606248426194,0.048288851611018,-5.89777363265093,-2.99717566793648,5.92191805845644,-2.92474239051995
1.62267416702726,4.03895210100717,0.0458596960419481,-3.99309240496522,-2.04240589852456,4.0160222529862,-1.97361635446164
1.6248377325833,1.80013462743764,0.0379301855803696,-1.76220444185727,-0.919032406509006,1.78116953464746,-0.862137128138452
1.62700129813933,-0.694028717435742,0.0214047909188139,0.715433508354556,0.336311963258464,-0.704731112895149,0.368419149636685
1.62916486369537,-3.27508650369978,-0.00624664614511922,3.26883985755466,1.64066657492245,-3.27196318062722,1.63129660570477
1.63132842925141,-5.75109728027132,-0.0453319298901369,5.70576535038119,2.89821460508073,-5.72843131532626,2.83021671024553
1.63349199480744,-7.98011661643314,-0.0913991426029231,7.88871747383021,4.03575787951803,-7.93441704513168,3.89865916561364
1.63565556036348,-9.89896025428217,-0.131944654035196,9.76701560024698,5.01545245415868,-9.83298792726458,4.81753547310589
1.63781912591952,-11.5013586420974,-0.148669257649136,11.3526893844483,5.82501394987328,-11.4270240132729,5.60201006339958
1.63998269147555,-12.795379742489,-0.131983387979416,12.6633963545096,6.46368156523422,-12.7293880484993,6.26570648326509
1.64214625703159,-13.7660614027247,-0.0914605496255645,13.6746008530991,6.92876097617511,-13.7203311279119,6.79157015173677
1.64430982258762,-14.384661558921,-0.0453891297478744,14.3392724291731,7.21502534433445,-14.3619669940471,7.14694164971264
1.64647338814366,-14.6653303719459,-0.00627356931575407,14.6590568026301,7.33580197063082,-14.662193587288,7.32639161665719
1.6486369536997,-14.6943296855585,0.0214136380526802,14.7157433236112,7.33645802375292,-14.7050365045849,7.36857848083194
1.65080051925573,-14.6059492186533,0.0379306416220979,14.6438798602753,7.28400928851558,-14.6249145394643,7.34090525094872
1.65296408481177,-14.5556793112515,0.0457208151292794,14.6014001263808,7.25497924806112,-14.5785397188162,7.32356047075504
1.65512765036781,-14.7084996721774,0.0477540061031266,14.7562536782805,7.33037283303712,-14.7323766752289,7.40200384219181
1.65729121592384,-15.2174139766758,0.0466321009306273,15.2640460776065,7.58539093787261,-15.2407300271412,7.65533908926855
1.65945478147988,-16.1841767165775,0.0442421777514031,16.2284188943289,8.06996726941303,-16.2062978054532,8.13633053604014
1.66161834703592,-17.6020280502533,0.0417408894729624,17.6437689397262,8.78014358039015,-17.6228984949897,8.84275491459959
1.66378191259195,-19.2974130191274,0.0396988528898877,19.3371118720173,9.62885708311877,-19.3172624455724,9.6884053624536
1.66594547814799,-20.9431992635887,0.0382907601029906,20.9814900236917,10.4524542517428,-20.9623446436402,10.5098903918973
1.66810904370402,-22.1812141294869,0.0374676243024066,22.2186817537893,11.0718732525922,-22.1999479416381,11.1280746890458
1.67027260926006,-22.7796690480073,0.0370847781425843,22.8167538261499,11.3712921349324,-22.7982114370786,11.4269193021462
1.6724361748161,-22.7289678516083,0.0369823335134446,22.7659501851218,11.3459927590474,-22.747459018365,11.4014662593176
1.67459974037213,-22.2228736498015,0.0370264234660416,22.2599000732675,11.0929236131677,-22.2413868615345,11.1484632483668
1.67676330592817,-21.5384456481327,0.0371233136000406,21.5755689617328,10.7506611672663,-21.5570073049327,10.8063461376664
1.67892687148421,-20.912590050925,0.0372177411048624,20.9498077920298,10.4376861549101,-20.9311989214774,10.4935127665674
1.68109043704024,-20.4771900466585,0.0372841343803462,20.5144741810388,10.2199529561391,-20.4958321138487,10.2758791577096
1.68325400259628,-20.2522247685577,0.0373162877922278,20.2895410563499,10.1074542403827,-20.2708829124538,10.1634286720711
1.68541756815232,-20.2023529631238,0.0373184508445836,20.2396714139683,10.0825172561396,-20.221012188546,10.1384949324065
1.68758113370835,-20.2890411206573,0.0372989383939324,20.3263400590513,10.1258710911317,-20.3076905898543,10.1818194987226
1.68974469926439,-20.4556331999303,0.0372662617714866,20.4928994617018,10.2091834690794,-20.4742663308161,10.2650828617367
1.69190826482042,-20.6124496783912,0.0372272569141809,20.6496769353054,10.2876112107385,-20.6310633068483,10.3434520961098
1.69407183037646,-20.6678674143001,0.0371865465887699,20.7050539608889,10.3153404338557,-20.6864606875945,10.3711202537388
1.6962353959325,-20.5547082398681,0.0371467457544744,20.5918549856225,10.2587807470568,-20.5732816127453,10.3145008656885
1.69839896148853,-20.230210834442,0.0371089759666696,20.2673198104087,10.0965509292377,-20.2487653224254,10.1522143931877
1.70056252704457,-19.7012925298272,0.0370734191647499,19.738365948992,9.83210955533124,-19.7198292394096,9.88771968407837
1.70272609260061,-19.0831677799356,0.0370397750452203,19.1202075549808,9.52306400244518,-19.1016876674582,9.57862366501301
1.70488965815664,-18.5845925434792,0.037007577786874,18.621600121266,9.27379248284614,-18.6030963323726,9.32930384952645
1.70705322371268,-18.3759357981029,0.0369763804133877,18.4129121785163,9.16947970884476,-18.3944239883096,9.22494427946484
1.70921678926871,-18.4828496919222,0.0369458381977632,18.5197955301199,9.2229519268622,-18.501322611021,9.27837068415884
1.71138035482475,-18.7932902644167,0.0369157269073505,18.830205991324,9.37818726875466,-18.8117481278703,9.43356085911568
1.71354392038079,-19.1124560275878,0.0368859263024033,19.1493419538902,9.53778505064268,-19.130898990739,9.59311394009629
1.71570748593682,-19.2383539861596,0.0368563904067038,19.2752103765663,9.60074879787645,-19.2567821813629,9.6560333834865
1.71787105149286,-19.0483963852994,0.0368271173752052,19.0852235026747,9.50578463396212,-19.066809943987,9.56102531002493
1.7200346170489,-18.5475399689314,0.0367981250248876,18.5843380939563,9.25537092195324,-18.5659390314438,9.31056810949057
1.72219818260493,-17.8577485397483,0.0367694337176478,17.894517973466,8.91048955301533,-17.8761332566071,8.96564370359181
1.72436174816097,-17.1489655745886,0.0367410560367631,17.1857066306254,8.55611225927594,-17.167336102607,8.61122384333109
1.72652531371701,-16.538836661363,0.0367129920467577,16.5755496534097,8.25106183465811,-16.5571931573864,8.30613132272825
1.72868887927304,-16.0429085744038,0.0366852292900734,16.0795938036938,8.00311167255684,-16.0612511890488,8.05813951649195
1.73085244482908,-15.6302578356303,0.0366577475213317,15.6669155831516,7.79680004405449,-15.648586709391,7.85178666533649
1.73301601038511,-15.3170907777447,0.0366305290276068,15.3537213067723,7.64023012435854,-15.3354060422585,7.69517591789995
1.73517957594115,-15.1929157342892,0.0366035757473985,15.2295193100366,7.57815607927091,-15.2112175221629,7.63306144289201
1.73734314149719,-15.3648279481173,0.0365769337501481,15.4014048818674,7.66412550718355,-15.3831164149923,7.71899090780878
1.73950670705322,-15.8606947997174,0.0365507233913491,15.8972455231088,7.91207203816304,-15.8789701614131,7.96689812325006
1.74167027260926,-16.5500073031239,0.0365251690802514,16.5865324722042,8.25674106702182,-16.568269887664,8.3115288206422
1.7438338381653,-17.153018050603,0.0365006158354565,17.1895186664384,8.55825871738376,-17.1712683585207,8.61300964113695
1.74599740372133,-17.3552156330279,0.036477511103694,17.3916931441316,8.65936906096208,-17.3734543885797,8.71408532761762
1.74816096927737,-16.9602630486162,0.0364563214116652,16.9967193700279,8.46190336360228,-16.9784912093221,8.51658784571978
1.75032453483341,-15.9811853290807,0.0364373480192838,16.0176226771,7.9723739905307,-15.9994040030903,8.02703001255963
1.75248810038944,-14.6309176774953,0.0364204101180719,14.6673380876133,7.29724863368859,-14.6491278825543,7.3518792488657
1.75465166594548,-13.2400837671471,0.0364043872203849,13.2764881543674,6.60183968996333,-13.2582859607572,6.65644627079391
1.75681523150151,-12.1274410625571,0.036386664897599,12.1638277274547,6.04552719882976,-12.1456343950059,6.10010719617616
1.75897879705755,-11.4747443830325,0.0363626196114414,11.511107002644,5.71919088171055,-11.4929256928383,5.77373481112771
1.76114236261359,-11.2813815541795,0.036325412307374,11.3177069664869,5.62252807093608,-11.2995442603332,5.67701618939714
1.76330592816962,-11.4077370979854,0.0362665250154571,11.4440036230008,5.68573528648495,-11.4258703604931,5.74013507400814
1.76546949372566,-11.6648317873921,0.0361776317833103,11.7010094191754,5.81432707780439,-11.6829206032837,5.86859352547935
1.7676330592817,-11.9062681867556,0.0360544675339345,11.9423226542895,5.93510685961081,-11.9242954205225,5.98918856091171
1.76979662483773,-12.0657852988582,0.0359032197761385,12.1016885186343,6.01494103954101,-12.0837369087462,6.06879586920522
1.77196019039377,-12.1173201552342,0.0357494446202309,12.1530695998545,6.040785355307,-12.1351948775443,6.09440952223734
1.77412375594981,-12.017316075916,0.0356484018286718,12.0529644777446,5.99083383704364,-12.0351402768303,6.04430643978665
1.77628732150584,-11.7035171644709,0.0356938504537034,11.7392110149246,5.83391165700858,-11.7213640896977,5.88745243268913
1.77845088706188,-11.1485990772522,0.0360197298753508,11.1846188071276,5.55628967368843,-11.1666089421899,5.61031926850146
1.78061445261791,-10.397003589337,0.0367860698633272,10.4337896592004,5.18010875973685,-10.4153966242687,5.23528786453184
1.78277801817395,-9.53966075030249,0.0381377635783493,9.57779851388084,4.75076149336207,-9.55872963209166,4.80796813872959
1.78494158372999,-8.65825847666501,0.0401241023924531,8.69838257905746,4.30906718713628,-8.67832052786124,4.36925334072496
1.78710514928602,-7.79680934032146,0.0425707315120783,7.83938007183354,3.87711930440469,-7.8180947060775,3.94097540167281
1.78926871484206,-6.97757361732675,0.0449072926186823,7.02248090994544,3.46633316235404,-7.0000272636361,3.53369410128206
1.7914322803981,-6.22787280358146,0.0459771113066358,6.27384991488809,3.09094784613741,-6.25086135923477,3.15991351309736
1.79359584595413,-5.58565207511879,0.0438925058853964,5.62954458100419,2.7708797846167,-5.60759832806149,2.83671854344479
1.79575941151017,-5.07526481561439,0.0360500216451567,5.11131483725955,2.51960739698462,-5.09328982643697,2.57368242945235
1.79792297706621,-4.67997043310862,0.0194768928924126,4.69944732600103,2.3302467701081,-4.68970887955483,2.35946210944672
1.80008654262224,-4.35616693598174,-0.00827474308130705,4.34789219290043,2.18222083953152,-4.35202956444109,2.16980872490956
1.80225010817828,-4.0843257067833,-0.0474688725190748,4.03685683426422,2.06589728965119,-4.06059127052376,1.99469398087257
1.80441367373431,-3.90624546332524,-0.0936391241512231,3.81260633917402,1.99994229373823,-3.85942590124963,1.8594836075114
1.80657723929035,-3.89117855589616,-0.134285094115996,3.75689346178016,2.01273182500608,-3.82403600883816,1.81130418383208
1.80874080484639,-4.03476687086218,-0.151116253665638,3.88365061719654,2.09294156226391,-3.95920874402936,1.86626718176545
1.81090437040242,-4.19314234452795,-0.134544841461053,4.0585975030669,2.1638435929945,-4.12586992379742,1.96202633080292
1.81306793595846,-4.12494904871492,-0.0941268269267786,4.03082222178814,2.10953793782085,-4.07788563525153,1.96834769743068
1.8152315015145,-3.61198605271127,-0.048101708151867,3.5638843445594,1.83004388043157,-3.58793519863533,1.75789131820377
1.81739506707053,-2.58772187691762,-0.00888444830762165,2.57883742861,1.29830316261262,-2.58327965276381,1.28497649015119
1.81955863262657,-1.18325060856945,0.0191839597682341,1.20243456833769,0.582033324400609,-1.19284258845357,0.61080926405296
1.82172219818261,0.357299415387388,0.0365205717489752,-0.320778843638413,-0.196909993568182,0.3390391295129,-0.142129135944719
1.82388576373864,1.81897813174292,0.045713292607514,-1.7732648391354,-0.932345712175215,1.79612148543916,-0.863775773263944
1.82604932929468,3.09277055217173,0.0497812164255527,-3.04298933574618,-1.57127588429864,3.06787994395895,-1.49660405966031
1.82821289485071,4.13918822752448,0.0511518719784675,-4.08803635554601,-2.09517004975147,4.11361229153524,-2.01844224178377
1.83037646040675,4.92490957400403,0.0511419329650787,-4.87376764103895,-2.48802575348455,4.89933860752149,-2.41131285403693
1.83254002596279,5.43106498252649,0.0497513981938489,-5.38131358433264,-2.74040819036017,5.40618928342956,-2.66578109306939
1.83470359151882,5.67873467325023,0.0456635916486064,-5.63307108160163,-2.86219913244942,5.65590287742593,-2.79370374497651
1.83686715707486,5.69207719179079,0.0364509823826841,-5.6556262094081,-2.86426408708674,5.67385170059945,-2.80958761351271
1.8390307226309,5.4563706095746,0.0190944742132623,-5.43727613536134,-2.73773254189393,5.44682337246797,-2.70909083057404
1.84119428818693,4.95106403317764,-0.0089938402045993,-4.96005787338224,-2.47103509648652,4.95556095327994,-2.48452585679342
1.84335785374297,4.22869377716939,-0.0482310198926652,-4.27692479706205,-2.09023137863836,4.25280928711572,-2.16257790847736
1.845521419299,3.42851186657263,-0.0942760774606131,-3.52278794403325,-1.66711789455601,3.47564990530294,-1.80853201074693
1.84768498485504,2.67363168460818,-0.134714058760866,-2.80834574336905,-1.26945881292366,2.74098871398861,-1.47152990106496
1.84984855041108,1.97055591666979,-0.151305479861804,-2.12186139653159,-0.909625218403992,2.04620865660069,-1.1365834381967
1.85201211596711,1.23697691987573,-0.134494391661207,-1.37147131153694,-0.551241264107261,1.30422411570633,-0.752982851599072
1.85417568152315,0.381510204093011,-0.0938685814476815,-0.475378785540693,-0.143820811322665,0.428444494816852,-0.284623683494187
1.85633924707919,-0.670206266727369,-0.0477186059290464,0.622487660798323,0.358962436328208,-0.646346963762846,0.287384527434638
1.85850281263522,-1.95071582592318,-0.00854489040526287,1.94217093551792,0.979630358164223,-1.94644338072055,0.966813022556329
1.86066637819126,-3.40487767283636,0.0191861941081005,3.42406386694446,1.69284573936413,-3.41447076989041,1.72162503052628
1.8628299437473,-4.90250140263028,0.0357386783338219,4.9382400809641,2.43338136214823,-4.92037074179719,2.48698937964896
1.86499350930333,-6.31374593906788,0.0435605418811357,6.35730648094901,3.13509269859337,-6.33552621000845,3.20043351141508
1.86715707485937,-7.57483131245705,0.0456247675440231,7.62045608000107,3.76460327245651,-7.59764369622906,3.83304042377255
1.8693206404154,-8.70634903801194,0.044535142033276,8.75088418004522,4.33090694798933,-8.72861660902858,4.39770966103925
1.87148420597144,-9.78887956620144,0.0421797745538815,9.83105934075533,4.87334989582378,-9.80996945347839,4.9366195576546
1.87364777152748,-10.9012131369534,0.039715779638244,10.9409289165916,5.43074867865755,-10.9210710267725,5.49032234811492
1.87581133708351,-12.0403556161904,0.03771378763928,12.0780694038297,6.00132091427557,-12.0592125100101,6.05789159573449
1.87797490263955,-13.095041422504,0.0363479492740982,13.1313893717781,6.52934673661495,-13.113215397141,6.58386866052609
1.88013846819559,-13.9259051530315,0.0355678511967993,13.9614730042283,6.94516865091733,-13.9436890786299,6.99852042771253
1.88230203375162,-14.4778443734754,0.0352260299157939,14.5130704033912,7.22130917177978,-14.4954573884333,7.27414821665347
1.88446559930766,-14.8165360835489,0.0351579520586744,14.8516940356076,7.39068906574513,-14.8341150595783,7.44342599383314
1.8866291648637,-15.0862228413664,0.0352230656009034,15.1214459069673,7.52549988788276,-15.1038343741669,7.57833448628412
1.88879273041973,-15.4309115323229,0.0353194444204791,15.4662309767434,7.69779604395122,-15.4485712545331,7.75077521058193
1.89095629597577,-15.9275721173798,0.0353839616424927,15.9629560790223,7.94609407786867,-15.9452640982011,7.9991700203324
1.8931198615318,-16.5906115366649,0.0353872805429429,16.6259988172078,8.27761212806097,-16.6083051769364,8.33069304887539
1.89528342708784,-17.4175409252039,0.0353297260733563,17.4528706512772,8.69110559956526,-17.4352057882406,8.7441001886753
1.89744699264388,-18.3862979226487,0.0352409637580096,18.4215388864067,9.17552847944532,-18.4039184045277,9.22838992508234
1.89961055819991,-19.4046132595908,0.0351834756198987,19.4397967352107,9.68471489198546,-19.4222049974008,9.73749010541531
1.90177412375595,-20.2677770917166,0.0352569156195295,20.3030340073361,10.1162600880485,-20.2854055495264,10.1691454614778
1.90393768931199,-20.6756627354338,0.0355973796810423,20.7112601151149,10.3200326778764,-20.6934614252743,10.373428747398
1.90610125486802,-20.3608341772745,0.0363625422600254,20.3971967195345,10.1622358175072,-20.3790154484045,10.2167796308973
1.90826482042406,-19.267594403782,0.0376911434900262,19.305285547272,9.61495163014599,-19.286439975527,9.67148834538103
1.9104283859801,-17.6189118344144,0.039624897358186,17.6585367317726,8.78964346852812,-17.6387242830935,8.8490808145654
1.91259195153613,-15.8209756428364,0.0419848973548296,15.8629605401912,7.88949537274079,-15.8419680915138,7.95247271877304
1.91475551709217,-14.3047637217265,0.0442062073139351,14.3489699290404,7.13027875720628,-14.3268668253835,7.19658806817719
1.9169190826482,-13.408200758518,0.0451569892043192,13.4533577477224,6.68152188465686,-13.4307792531202,6.74925736846334
1.91908264820424,-13.3293974697183,0.0430046773293295,13.3724021470476,6.64319639619449,-13.350899808383,6.70770341218848
1.92124621376028,-14.1229752382365,0.0352405782283244,14.1582158164648,7.0438673300041,-14.1405955273507,7.09672819734658
1.92340977931631,-15.7045331034834,0.0190286020958187,15.7235617055792,7.84275225069377,-15.7140474045313,7.8712951538375
1.92557334487235,-17.8636995890513,-0.00791413345811046,17.8557854555932,8.9358068612547,-17.8597425223222,8.92393566106753
1.92773691042839,-20.3040720816938,-0.0456994644153553,20.2583726172784,10.1748857730546,-20.2812223494861,10.1063365764315
1.92990047598442,-22.6926334077169,-0.0898029163102456,22.6028304914067,11.3912181620136,-22.6477319495618,11.2565137875482
1.93206404154046,-24.708509706376,-0.127890286055097,24.5806194203209,12.4181999962156,-24.6445645633485,12.2263645671329
1.93422760709649,-26.1014050893776,-0.142238249869721,25.9591668395079,13.1218216696237,-26.0302859644428,12.9084642948191
1.93639117265253,-26.6885963377297,-0.124424521784139,26.5641718159456,13.4065104297569,-26.6263840768376,13.2198736470807
1.93855473820857,-26.2508388376355,-0.0859229385148323,26.1649158991207,13.1683808880752,-26.2078773683781,13.0394964803029
1.9407183037646,-24.4356206379738,-0.0476385551482316,24.3879820828256,12.241629596561,-24.4118013603997,12.1701717638387
1.94288186932064,-20.7335124760971,-0.0250613604678627,20.7084511156292,10.3792869182825,-20.7209817958631,10.3416948775807
1.94504543487668,-14.5099370975568,-0.0251224115109457,14.4848146860459,7.26752975453389,-14.4973758918014,7.22984613726748
1.94720900043271,-5.13121359674334,-0.0478327918484923,5.08338080489484,2.58952319429591,-5.10729720081909,2.51777400652318
1.94937256598875,7.816141036521,-0.0862766822075144,-7.90241771872852,-3.86493217715674,7.85927937762476,-3.99434720046802
1.95153613154479,24.3335462199124,-0.124957952485589,-24.458504172398,-12.1042941337134,24.3960251961552,-12.2917310624418
1.95369969710082,43.9109863461055,-0.142928472685116,-44.0539148187906,-21.8840289367102,43.982450582448,-22.0984216457378
1.95586326265686,65.4975420141201,-0.128619241967002,-65.6261612560871,-32.6844613860765,65.5618516351036,-32.877390249027
1.95802682821289,87.5616548577659,-0.0902953854524902,-87.6519502432184,-43.7356797361567,87.6068025504922,-43.8711228143355
1.96019039376893,108.22510817191,-0.0454656934055206,-108.270573865315,-54.0898212392522,108.247841018613,-54.1580197793604
1.96235395932497,125.425723813792,-0.0062256771393757,-125.431949490931,-62.7097490683264,125.428836652362,-62.7190875840354
1.964517524881,137.207602021811,0.0230836743649278,-137.184518347446,-68.6153428480878,137.196060184628,-68.5807173365404
1.96668109043704,142.178418037767,0.042559995866547,-142.1358580419,-71.1104890168168,142.157138039834,-71.046649023017
1.96884465599308,139.88570663135,0.0540605835067059,-139.831646047843,-69.9698836074284,139.858676339597,-69.8887927321684
1.97100822154911,130.885923619249,0.0593138919799941,-130.826609727269,-65.4726187556143,130.856266673259,-65.3836479176443
1.97317178710515,116.554771412594,0.0587665412368308,-116.496004871358,-58.3067689769156,116.525388141976,-58.2186191650604
1.97533535266119,98.7647327039166,0.0510780422972496,-98.7136546616193,-49.4079053731069,98.7391936827679,-49.331288309661
1.97749891821722,79.5232457744168,0.0332531297844191,-79.4899926446324,-39.7782494521006,79.5066192095246,-39.728369757424
1.97966248377326,60.6789874371029,0.00152597959893144,-60.677461457504,-30.3402567083509,60.6782244473035,-30.3379677389525
1.98182604932929,43.7531059144482,-0.0467840215859785,-43.7998899360342,-21.8531609464311,43.7764979252412,-21.9233369788101
1.98398961488533,29.8566094359228,-0.110213892203485,-29.9668233281263,-14.8731977718597,29.9117163820246,-15.0385186101649
1.98615318044137,19.6171083017603,-0.178836922595563,-19.7959452243558,-9.71913568958235,19.7065267630581,-9.9873910734757
1.9883167459974,13.1148393387973,-0.234773179415975,-13.3496125182133,-6.44003307969066,13.2322259285053,-6.79219284881463
1.99048031155344,9.91132076427112,-0.264102333292606,-10.1754230975637,-4.82360921548926,10.0433719309174,-5.21976271542817
1.99264387710948,9.22424820856695,-0.263996869375549,-9.4882450779425,-4.4801256695957,9.35624664325472,-4.87612097365902
1.99480744266551,10.1868827441813,-0.234519260055841,-10.4214020042372,-4.97618174206275,10.3041423742093,-5.32796063214651
1.99697100822155,12.0253969726164,-0.178626321234262,-12.2040232938507,-5.92338532569109,12.1147101332336,-6.19132480754248
1.99913457377759,14.0800803843918,-0.110374788115988,-14.1904551725078,-6.98485279813792,14.1352677784498,-7.15041498031191
2.00129813933362,15.7795984252695,-0.0477729252623564,-15.8273713505318,-7.86591275000356,15.8034848879006,-7.93757213789709
2.00346170488966,16.6642374180866,-0.000823066514759829,-16.6650604846013,-8.3317071757859,16.6646489513439,-8.33294177555804
2.00562527044569,16.4461855597588,0.0290719774338057,-16.417113582325,-8.23762876859629,16.4316495710419,-8.19402080244558
2.00778883600173,15.0596827851414,0.0449121916048074,-15.0147705935366,-7.55229748837311,15.037226689339,-7.48492920096589
2.00995240155777,12.6672877890129,0.0511927241717689,-12.6160950648412,-6.35924025659236,12.6416914269271,-6.2824511703347
2.0121159671138,9.61648796102871,0.0521879356629397,-9.56430002536577,-4.83433794834582,9.59039399319724,-4.75605604485142
2.01427953266984,6.34584592078548,0.051121048568549,-6.29472487221693,-3.19848348467701,6.3202853965012,-3.12180191182419
2.01644309822588,3.2659428187335,0.0498797641272422,-3.21606305460626,-1.65791129143037,3.24100293666988,-1.58309164523951
2.01860666378191,0.673476247922707,0.049001012479205,-0.624475235443502,-0.361238630200956,0.648975741683105,-0.287737111482149
2.02077022933795,-1.2824654984281,0.0477535330512682,1.33021903147937,0.617355982688417,-1.30634226495374,0.688986282265319
2.02293379489399,-2.59558320733797,0.0442642905393295,2.6398474978773,1.27565945839932,-2.61771535260763,1.34205589420831
2.02509736045002,-3.36719780296286,0.035747779785045,3.40294558274791,1.66572501158891,-3.38507169285539,1.71934668126648
2.02726092600606,-3.76053046160965,0.0189952064464058,3.77952566805605,1.87076762758162,-3.77002806483285,1.89926043725123
2.02942449156209,-3.96074748289362,-0.00865197555053591,3.95209550734309,1.98469972922208,-3.95642149511836,1.97172176589628
2.03158805711813,-4.13399768291905,-0.0476104367899363,4.08638724612912,2.09080405985449,-4.11019246452408,2.01938840466959
2.03375162267417,-4.38812297582098,-0.0935052646479654,4.29461771117301,2.24081412023447,-4.34137034349699,2.10055622326252
2.0359151882302,-4.75644740649624,-0.13387875336712,4.62256865312911,2.44516307993168,-4.68950802981268,2.244344949881
2.03807875378624,-5.21287939189032,-0.150453368108228,5.06242602378209,2.68166637999927,-5.1376527078362,2.45598632783693
2.04024231934228,-5.69158325038821,-0.133645233273573,5.55793801711463,2.91261424183089,-5.62476063375142,2.71214639192053
2.04240588489831,-6.08961992298016,-0.0930247968276394,5.99659512615252,3.0913223599039,-6.04310752456634,2.95178516466244
2.04456945045435,-6.29828222665104,-0.0468738846263654,6.25140834202467,3.1725780556387,-6.27484528433786,3.10226722869915
2.04673301601039,-6.29340438901211,-0.00769008101468885,6.28571430799742,3.1505472350134,-6.28955934850477,3.13901211349137
2.04889658156642,-6.19223965351345,0.020059691469263,6.21229934498271,3.08608998102209,-6.20226949924808,3.11617951822599
2.05106014712246,-6.1959045136178,0.0366373855638777,6.23254189918168,3.07963356402696,-6.21422320639974,3.13458964237278
2.05322371267849,-6.48424232183375,0.0444885485992697,6.52873087043302,3.21987688661724,-6.50648659613338,3.28660970951614
2.05538727823453,-7.14798051061653,0.0465839740079013,7.19456448462444,3.55069826830432,-7.17127249762049,3.62057422931617
2.05755084379057,-8.15158373984303,0.0455257103933741,8.1971094502364,4.05302901472483,-8.17434659503971,4.12131758031489
2.0597144093466,-9.3321716336994,0.0432005870632445,9.37537222076265,4.64448552331808,-9.35377192723102,4.70928640391295
2.06187797490264,-10.4833845903633,0.0407648609696262,10.5241494513329,5.22130986469683,-10.5037670208481,5.28245715615127
2.06404154045868,-11.4713064469214,0.0387887677869976,11.5100952147084,5.7162588395672,-11.4907008308149,5.7744419912477
2.06620510601471,-12.251818328981,0.0374467196752144,12.2892650486562,6.10718580465289,-12.2705416888186,6.16335588416571
2.06836867157075,-12.7891554704815,0.0366895913750496,12.8258450618565,6.37623293955322,-12.807500266169,6.43126732661579
2.07053223712678,-13.0042667977039,0.0363727360074902,13.0406395337114,6.48394703084819,-13.0224531657076,6.53850613485943
2.07269580268282,-12.8049472262167,0.0363364510030376,12.8412836772197,6.38430538760682,-12.8231154517182,6.43881006411138
2.07485936823886,-12.1461582798724,0.0364472127255871,12.182605492598,6.05485553357341,-12.1643818862352,6.10952635266179
2.07702293379489,-11.0911102667624,0.0366117506598903,11.1277220174223,5.52724925805125,-11.1094161420923,5.58216688404108
2.07918649935093,-9.82793587570713,0.036775290334438,9.86471116604157,4.89558029268635,-9.84632352087435,4.950743228188
2.08135006490697,-8.59529851610005,0.0369125814574442,8.6322110975575,4.2791929673213,-8.61375480682877,4.33456183950747
2.083513630463,-7.58973629086073,0.0370172529243454,7.62675354378507,3.77635951896819,-7.6082449173229,3.83188539835471
2.08567719601904,-6.92403971206375,0.0370924440984374,6.96113215616218,3.44347363398265,-6.94258593411296,3.49911230013031
2.08784076157508,-6.60986175599179,0.0371438618970543,6.64700561788884,3.28635894704737,-6.62843368694031,3.34207473989295
2.09000432713111,-6.56671824984434,0.0371753984207491,6.60389364826509,3.2647714257118,-6.58530594905472,3.32053452334292
2.09216789268715,-6.66716383263619,0.0371870543484806,6.70435088698467,3.31498838914385,-6.68575735981043,3.37076897066657
2.09433145824318,-6.76577785064809,0.0371749390889189,6.80295278973701,3.36430145577959,-6.78436532019255,3.42006386441297
2.09649502379922,-6.71043652304338,0.0371333477934247,6.74756987083681,3.33665158762498,-6.72900319694009,3.39235160931511
