t,leadI,leadII,leadIII,aVR,aVL,aVF
0,-29.8037498857138,-28.5468372305137,1.25691265520001,29.1752935581138,-15.5303312704569,-13.6449622876569
0.00214431218720349,-123.688984581336,-36.8942482988052,86.7947362825303,80.2916164400704,-105.241860431933,24.9502439918626
0.00428862437440697,-211.629115520805,-45.9459841444431,165.683131376362,128.787549832624,-188.656123448583,59.8685736159593
0.00643293656161045,-288.774616156105,-56.1864298117399,232.588186344366,172.480522983923,-260.681401250235,88.2008782663128
0.00857724874881394,-352.144089522224,-67.7141248886152,284.429964633609,209.92910720542,-318.287027077916,108.357919872497
0.0107215609360174,-400.856490903272,-80.1497611790787,320.706729724193,240.503126041175,-360.781610313732,120.278484272557
0.0128658731232209,-435.844872558775,-92.6552529830743,343.189619575701,264.250062770925,-389.517246067238,125.267183296313
0.0150101853104244,-459.23570877462,-104.079366581897,355.156342192723,281.657537678259,-407.196025483671,125.538487805413
0.0171544974976279,-473.648542723829,-113.218529725865,360.430012997964,293.433536224847,-417.039277860896,123.605741636049
0.0192988096848314,-481.637688099749,-119.146425125764,362.491262973984,300.392056612756,-422.064475536867,121.67241892411
0.0214431218720348,-485.391948999439,-121.528804729894,363.863144269546,303.460376864666,-424.627546634492,121.167169769826
0.0235874340592383,-486.679649852975,-120.815739484412,365.863910368563,303.747694668693,-426.271780110769,122.524085442075
0.0257317462464418,-486.929184419853,-118.215971220583,368.71321319927,302.572577820218,-427.821198809562,125.248620989344
0.0278760584336453,-487.308186857634,-115.421357881739,371.886828975895,301.364772369687,-429.597507916765,128.232735547078
0.0300203706208488,-488.710776895947,-114.145532224429,374.565244671518,301.428154560188,-431.638010783733,130.209856223545
0.0321646828080523,-491.650230529008,-115.622855812939,376.027374716068,303.636543170974,-433.838802622538,130.202259451565
0.0343089949952558,-496.134351077444,-120.238975671289,375.895375406155,308.186663374367,-436.014863241799,127.828199867433
0.0364533071824592,-501.629814438846,-127.421444377427,374.208370061419,314.525629408137,-437.919092250132,123.393462841996
0.0385976193696627,-507.185231555901,-135.827050865588,371.358180690314,321.506141210745,-439.271706123107,117.765564912363
0.0407419315568662,-511.703007814593,-143.758962452854,367.944045361739,327.730985133723,-439.823526588166,112.092541454442
0.0428862437440697,-514.272702799721,-149.672021855185,364.600680944537,331.972362327453,-439.436691872129,107.464329544676
0.0450305559312732,-514.444197362602,-152.603590852175,361.840606510426,333.523894107389,-438.142401936514,104.618507829126
0.0471748681184767,-512.342322026606,-152.400598043882,359.941723982723,332.371460035244,-436.142023004665,103.770562969421
0.0493191803056802,-508.589793020913,-149.684377355456,358.905415665457,329.137085188185,-433.747604343185,104.610519155
0.0514634924928836,-504.077547304106,-145.580459946662,358.497087357444,324.829003625384,-431.287317330775,106.458313705391
0.0536078046800871,-499.669776371019,-141.316028569344,358.353747801675,320.492902470182,-429.011762086347,108.518859616165
0.0557521168672906,-495.944063113048,-137.829818150221,358.114244962827,316.886940631635,-427.029154037937,110.142213406303
0.0578964290544941,-493.05027395615,-135.53082683036,357.51944712579,314.290550393255,-425.28486054097,110.994310147715
0.0600407412416976,-490.733120373658,-134.281920171191,356.451200202467,312.507520272425,-423.592160288063,111.084640015638
0.0621850534289011,-488.508508802056,-133.593623592055,354.914885210001,311.051066197056,-421.711697006029,110.660630808973
0.0643293656161045,-485.924591639304,-132.930276676619,352.994314962685,309.427434157961,-419.459453300994,110.032019143033
0.066473677803308,-482.798976097097,-131.992429028404,350.806547068692,307.395702562751,-416.802761582895,109.407059020144
0.0686179899905115,-479.330632464531,-130.862674972252,348.467957492279,305.096653718392,-413.899294978405,108.802641260013
0.070762302177715,-476.042780862237,-129.972000782456,346.070780079781,303.007390822346,-411.056780471009,108.049389648663
0.0729066143649185,-473.590440858016,-129.920736078299,343.669704779717,301.755588468157,-408.630072818866,106.874484350709
0.075050926552122,-472.519417472903,-131.235853069469,341.283564403433,301.877635271186,-406.901490938168,105.023855666982
0.0771952387393255,-473.070131509472,-134.154131289585,338.916000219887,303.612131399528,-405.99306586468,102.380934465151
0.0793395509265289,-475.089028834799,-138.499982988005,336.589045846795,306.794505911402,-405.839037340797,99.0445314293952
0.0814838631137324,-478.063797033761,-143.690693572675,334.373103461086,310.877245303218,-406.218450247424,95.3412049442058
0.0836281753009359,-481.252917786817,-148.858045002376,332.394872784441,315.055481394597,-406.823895285629,91.7684138910326
0.0857724874881394,-483.848781042905,-153.035474999679,330.813306043226,318.442128021292,-407.331043543066,88.8889155217734
0.0879167996753429,-485.111603583075,-155.343592517109,329.768011065966,320.227598050092,-407.43980732452,87.2122092744283
0.0900611118625464,-484.443595530274,-155.126015955058,329.317579575216,319.784805742666,-406.880587552745,87.0957818100792
0.0922054240497499,-481.419620721357,-152.0292572043,329.390363517057,316.724438962829,-405.404992119207,88.6805531563786
0.0943497362369533,-475.817086211321,-146.051091852532,329.765994358789,310.934089031926,-402.791540285055,91.8574512531288
0.0964940484241568,-467.673589868112,-137.575523639502,330.09806622861,302.624556753807,-398.885828048361,96.2612712945541
0.0986383606113603,-457.358320059185,-127.377766969572,329.980553089613,292.368043514379,-393.669436574399,101.301393060021
0.100782672798564,-445.605814822485,-116.556663678495,329.04915114399,281.08123925049,-387.327482983238,106.246243732747
0.102926984985767,-433.45685185005,-106.364933639606,327.091918210444,269.910892744828,-380.274385030247,110.363492285419
0.105071297172971,-422.086675935981,-97.9574471751211,324.12922876086,260.022061555551,-373.107952348421,113.085890792869
0.107215609360174,-412.556957983558,-92.1326606931252,320.424297290433,252.344809338342,-366.490627636996,114.145818298654
0.109359921547378,-405.572881517558,-89.1635184699072,316.409363047651,247.368199993733,-360.991122282605,113.622922288872
0.111504233734581,-401.333684724792,-88.7824469617432,312.551237763049,245.058065843268,-356.94246124392,111.884395400653
0.113648545921785,-399.529345416587,-90.3174761903885,309.211869226198,244.923410803488,-354.370607321392,109.447196517905
0.115792858108988,-399.478208408163,-92.9150781606917,306.563130247472,246.196643284427,-353.020669327817,106.82402604339
0.117937170296192,-400.349809884176,-95.7652762946028,304.584533589574,248.05754308939,-352.467171736875,104.409628647485
0.120081482483395,-401.394516093999,-98.2683043796818,303.126211714317,249.83141023684,-352.260363904158,102.428953667318
0.122225794670599,-402.111145099319,-100.121343810964,301.989801288355,251.116244455142,-352.050473193837,100.934228738695
0.124370106857802,-402.315655818272,-101.328639234211,300.987016584061,251.822147526242,-351.651336201166,99.8291886749247
0.126514419045006,-402.111515904013,-102.144347609809,299.967168294204,252.127931756911,-351.039342099109,98.9114103421977
0.128658731232209,-401.791003919281,-102.962546400043,298.828457519239,252.376775159662,-350.30973071926,97.932955559598
0.130803043419413,-401.708730944971,-104.183102018313,297.525628926658,252.945916481642,-349.617179935814,96.6712634541723
0.132947355606616,-402.163186051057,-106.093379383136,296.069806667921,254.128282717096,-349.116496359489,94.9882136423928
0.13509166779382,-403.306765482077,-108.797751859966,294.509013622111,256.052258671022,-348.907889552094,92.8556308810728
0.137235979981023,-405.092769302583,-112.201613093363,292.891156209221,258.647191197973,-348.991962755902,90.344771557929
0.139380292168227,-407.264956449722,-116.03313851564,291.231817934082,261.649047482681,-349.248387191902,87.5993397092213
0.14152460435543,-409.393318800678,-119.881369944299,289.511948856379,264.637344372488,-349.452633828529,84.81528945604
0.143668916542634,-410.950121754601,-123.24210699693,287.70801475767,267.096114375765,-349.329068256135,82.23295388037
0.145813228729837,-411.40778464751,-125.577016446536,285.830768200974,268.492400547023,-348.619276424242,80.1268758772186
0.14795754091704,-410.336546813924,-126.393799929357,283.942746884568,268.36517337164,-347.139646849246,78.7744734776055
0.150101853104244,-407.487735138567,-125.348164652267,282.1395704863,266.417949895417,-344.813652812433,78.3957029170161
0.152246165291447,-402.858510409269,-122.357128190965,280.501382218304,262.607819300117,-341.679946313786,79.0721270136691
0.154390477478651,-396.734890513721,-117.697283049833,279.037607463888,257.216086781777,-337.886248988804,80.6701622070272
0.156534789665854,-389.699092801868,-112.044290045829,277.654802756039,250.871691423849,-333.676947778953,82.8052563551047
0.158679101853058,-382.576719771293,-106.407844413103,276.168875358191,244.492282092198,-329.372797564742,84.8805154725439
0.160823414040261,-376.307965106072,-101.9458605503,274.362104555772,239.126912828186,-325.335034830922,86.208122002736
0.162967726227465,-371.759378950476,-99.6944439005631,272.064935049913,235.726911425519,-321.912157000194,86.1852455746748
0.165112038414668,-369.527561143511,-100.294732689093,269.232828454418,234.911146916302,-319.380194798964,84.4690478826621
0.167256350601872,-369.795604771882,-103.805502968119,265.990101803763,236.800553870001,-317.892853287823,81.0922994178219
0.169400662789075,-372.281469023329,-109.658469069324,262.622999954005,240.969969046327,-317.452234488667,76.4822654423402
0.171544974976279,-376.283836320018,-116.763586369089,259.520249950929,246.523711344553,-317.902043135473,71.3783317909201
0.173689287163482,-380.807026583181,-123.731775311632,257.075251271549,252.269400947406,-318.941138927365,66.6717379799585
0.175833599350686,-384.738199872355,-129.162934533029,255.575265339326,256.950567202692,-320.15673260584,63.2061654031486
0.177977911537889,-387.049176830972,-131.940759944786,255.108416886186,259.494968387879,-321.078796858579,61.5838284706998
0.180122223725093,-386.992096015624,-131.474840366322,255.517255649303,259.233468190973,-321.254675832464,62.0212076414907
0.182266535912296,-384.252229630857,-127.835777815578,256.416451815278,256.044003723218,-320.334340723067,64.2903369998498
0.1844108480995,-379.02153696728,-121.746155475205,257.275381492075,250.383846221243,-318.148459229678,67.7646130084347
0.186555160286703,-371.970576050405,-114.421485066793,257.549090983612,243.196030558599,-314.759833517008,71.5638029584092
0.188699472473907,-364.119667495633,-107.294876197127,256.824791298505,235.70727184638,-310.472229397069,74.764957550689
0.19084378466111,-356.631647849077,-101.692104489603,254.939543359475,229.16187616934,-305.785595604276,76.623719434936
0.192988096848314,-350.564657467177,-98.5353457033335,252.029311763843,224.550001585255,-301.29698461551,76.7469830302549
0.195132409035517,-346.636214603877,-98.1423144301781,248.493900173699,222.389264517027,-297.565057388788,75.1757928717604
0.197276721222721,-345.055001529272,-100.163018703755,244.891982825517,222.609010116513,-294.973492177395,72.3644820608811
0.199421033409924,-345.466345876468,-103.667632080982,241.798713795486,224.566988978725,-293.632529835977,69.0655408572517
0.201565345597128,-347.030608962271,-107.367188377154,239.663420585117,227.198898669713,-293.347014773694,66.1481161039812
0.203709657784331,-348.617996753528,-109.914868228708,238.703128524819,229.266432491118,-293.660562639173,64.3941301480557
0.205853969971535,-349.070455860422,-110.210426735493,238.860029124929,229.640441297958,-293.965242492675,64.3248011947176
0.207998282158738,-347.464303418942,-107.630993896401,239.833309522541,227.547648657671,-293.648806470741,66.1011578130702
0.210142594345942,-343.312313156873,-102.142477899385,241.169835257488,222.727395528129,-292.241074207181,69.5136786790513
0.212286906533145,-336.665545934468,-94.2877346389884,242.37781129548,215.476640286728,-289.521678614974,74.0450383282458
0.214431218720348,-328.101412263341,-85.0740589713079,243.027353292033,206.587735617324,-285.564382777687,78.9766471603624
0.216575530907552,-318.605323076079,-75.7855384133121,242.819784662767,197.195430744695,-280.712553869423,83.5171231247272
0.218719843094755,-309.366237935733,-67.7403941822649,241.625843753468,188.553316058999,-275.4960408446,86.9427247856014
0.220864155281959,-301.517712624484,-62.0197737078911,239.497938916593,181.768743166188,-270.507825770539,88.739082604351
0.223008467469162,-295.873103999851,-59.2181573153921,236.654946684459,177.545630657621,-266.264025342155,88.7183946845333
0.225152779656366,-292.722405031423,-59.2897789248811,233.432626106542,176.006091978152,-263.077515568983,87.0714235908305
0.227297091843569,-291.760590774198,-61.5607545554816,230.199836218716,176.66067266484,-260.980213496457,84.3195408316173
0.229441404030773,-292.185984417536,-64.9266802182208,227.259304199315,178.556332317878,-259.722644308426,81.1663119905472
0.231585716217976,-292.946115566347,-68.1784844845979,224.767631081749,180.562300025472,-258.856873324048,78.2945732985755
0.23373002840518,-293.04677287661,-70.3387592996502,222.70801357696,181.69276608813,-257.877393226785,76.1846271386549
0.235874340592383,-291.811811485354,-70.8829418946986,220.928869590655,181.347376690026,-256.370340538004,75.0229638479782
0.238018652779587,-289.003582714345,-69.7707635050652,219.232819209279,179.387173109705,-254.118200961812,74.7310278521071
0.24016296496679,-284.77636750864,-67.298768329136,217.477599179504,176.037567918888,-251.126983344072,75.0894154251839
0.242307277153994,-279.506731609857,-63.8623690727007,215.644362537156,171.684550341279,-247.575547073506,75.8909967322277
0.244451589341197,-273.590506183704,-59.7476671128399,213.842839070864,166.669086648272,-243.716672627284,77.047585979012
0.246595901528401,-267.296711608245,-55.0452400914611,212.251471516784,161.170975849853,-239.774091562515,78.6031157126616
0.248740213715604,-260.728428541526,-49.7069757919873,211.021452749539,155.217702166757,-235.874940645532,80.6572384787758
0.250884525902808,-253.882410746106,-43.6915111824412,210.190899563665,148.786960964274,-232.036655154886,83.2496941906119
0.253028838090011,-246.753370908855,-37.1049972732401,209.648373635615,141.929184091047,-228.200872272235,86.2716881811873
0.255173150277215,-239.418099749266,-30.2597660728193,209.158333676447,134.838932911043,-224.288216712856,89.4492838018137
0.257317462464418,-232.060294371904,-23.6270384039938,208.43325596791,127.843666387949,-220.246775169907,92.4031087819581
0.259461774651622,-224.938053545474,-17.7148707094782,207.223182835996,121.326462127476,-216.080618190735,94.7541560632587
0.261606086838825,-218.325463263968,-12.9319044565663,205.393558807402,115.628683860267,-211.859511035685,96.2308271754177
0.263750399026029,-212.464405442699,-9.49638555031621,202.968019892383,110.980395496508,-207.716212667541,96.7358171710333
0.265894711213232,-207.54805426485,-7.42722299775363,200.120831267097,107.487638631302,-203.834442765974,96.3468041346716
0.268039023400436,-203.736548616137,-6.61895039567598,197.117598220461,105.177749505907,-200.427073418299,95.2493239123926
0.270183335587639,-201.187092537743,-6.96414339658205,194.222949141161,104.075617967163,-197.705020839452,93.6294028722896
0.272327647774843,-200.069616579846,-8.45850167721078,191.611114902635,104.264059128528,-195.84036574124,91.576306612712
0.274471959962046,-200.540255207105,-11.222199630751,189.318055576354,105.881227418928,-194.929155391729,89.0479279728013
0.27661627214925,-202.662964988537,-15.4063403586885,187.256624629848,109.034652673613,-194.959794809193,85.9251421355799
0.278760584336453,-206.301609273846,-21.0158763469421,185.285732926904,113.658742810394,-195.793671100375,82.1349282899809
0.280904896523657,-211.036122931664,-27.7383621182146,183.29776081345,119.387242524939,-197.166941872557,77.7796993476175
0.28304920871086,-216.165986649558,-34.8853605779907,181.280626071567,125.525673613774,-198.723306360562,73.1976327467881
0.285193520898063,-220.839488662832,-41.5158910156491,179.323597647183,131.177689839241,-200.081543155008,68.903853315767
0.287337833085267,-224.295546040725,-46.7335868249013,177.561959215824,135.514566432813,-200.928752628274,65.4141861954611
0.28948214527247,-226.14856149893,-50.0622132489519,176.086348249978,138.105387373941,-201.117454874454,63.0120675005131
0.291626457459674,-226.608885992701,-51.7437301145215,174.86515587818,139.176308053611,-200.73702093544,61.560712881829
0.293770769646877,-226.529676479408,-52.8027065447184,173.72696993469,139.666191512063,-200.128323207049,60.4621316949857
0.295915081834081,-227.217061626823,-54.7969525149739,172.420109111849,141.007007070898,-199.818585369336,58.8115782984375
0.298059394021284,-230.03031134647,-59.3072432678565,170.723068078613,144.668777307163,-200.376689712542,55.7079124053784
0.300203706208488,-235.899037416111,-67.3497769347752,168.549260481335,151.624407175443,-202.224148948723,50.5997417732801
0.302348018395691,-244.941906682269,-78.9501351604806,165.991771521788,161.946020921375,-205.466839102029,43.5208181806539
0.304492330582895,-256.346554405516,-93.0583668963189,163.288187509197,174.702460650917,-209.817370957356,35.1149103064389
0.306636642770098,-268.569326747362,-107.840451578761,160.728875168601,188.204889163062,-214.649100957982,26.4442117949199
0.308780954957302,-279.78504349235,-121.228278828602,158.556764663748,200.506661160476,-219.170904078049,18.6642429175731
0.310925267144505,-288.420211553744,-131.518183971624,156.90202758212,209.969197762684,-222.661119567932,12.6919218052478
0.313069579331709,-293.576285024985,-137.805391411197,155.770893613788,215.690838218091,-224.673589319386,8.98275110129529
0.315213891518912,-295.199617855669,-140.118242626331,155.081375229338,217.658930241,-225.140496542503,7.48156630150373
0.317358203706116,-293.959081143624,-139.238940048079,154.720141095545,216.599010595851,-224.339611119585,7.74060052373329
0.319502515893319,-290.906786436286,-136.319415077476,154.58737135881,213.613100756881,-222.747078897548,9.13397814066693
0.321646828080523,-287.073962407492,-132.469437758151,154.60452464934,209.771700082821,-220.839243528416,11.0675434455945
0.323791140267726,-283.162664658993,-128.478022447283,154.68464221171,205.820343553138,-218.923653435352,13.1033098822137
0.32593545245493,-279.43672305897,-124.745033568895,154.691689490075,202.090878313932,-217.064206274522,14.9733279605902
0.328079764642133,-275.823519026737,-121.40008911222,154.423429914517,198.611804069478,-215.123474470627,16.5116704011484
0.330224076829337,-272.152116862015,-118.51463216635,153.637484695665,195.333374514182,-212.89480077884,17.5614262646576
0.33236838901654,-268.402737936463,-116.285150095376,152.117587841087,192.343944015919,-210.260162888775,17.9162188728555
0.334512701203744,-264.843553924314,-115.083983275072,149.759570649242,189.963768599693,-207.301562286778,17.3377936870852
0.336657013390947,-261.985230243067,-115.339674926364,146.645555316702,188.662452584715,-204.315392779885,15.652940195169
0.338801325578151,-260.371903194328,-117.300840048989,143.071063145339,188.836371621659,-201.721483169834,12.8851115481752
0.340945637765354,-260.310087996955,-120.809422548662,139.500665448293,190.559755272809,-199.905376722624,9.34562144981513
0.343089949952558,-261.674711301952,-125.219322700654,136.455388601298,193.447017001303,-199.065049951625,5.61803295032203
0.345234262139761,-263.903133542321,-129.537851269048,134.365282273272,196.720492405684,-199.134207907797,2.41371550211218
0.347378574326965,-266.202538493976,-132.767493633631,133.435044860345,199.485016063804,-199.81879167716,0.333775613356579
0.349522886514168,-267.893282560856,-134.328391677536,133.56489088332,201.110837119196,-200.729086722088,-0.381750397107766
0.351667198701372,-268.742606368785,-134.391126433565,134.35147993522,201.566866401175,-201.547043152003,-0.0198232491724752
0.353811510888575,-269.141060556128,-133.967824645673,135.173235910455,201.554442600901,-202.157148233292,0.602705632391149
0.355955823075778,-270.032618327414,-134.688006887078,135.344611440336,202.360312607246,-202.688614883875,0.328302276628733
0.358100135262982,-272.597383320865,-138.28949852874,134.307884792125,205.443440924803,-203.452634056495,-1.99080686830771
0.360244447450185,-277.76737626557,-145.945040716032,131.822335549538,211.856208490801,-204.794855907554,-7.06135258324716
0.362388759637389,-285.704578985234,-157.594452592549,128.110126392685,221.649515788891,-206.907352688959,-14.7421630999321
0.364533071824592,-295.37445717834,-171.45035663162,123.92410054672,233.41240690498,-209.64927886253,-23.7631280424496
0.366677384011796,-304.315413356885,-183.802706681789,120.512706675096,244.059060019337,-212.414060015991,-31.6450000033468
0.368821696198999,-308.659853150285,-189.189275297026,119.470577853258,248.924564223655,-214.065215501771,-34.8593487218841
0.370966008386203,-303.42777823591,-180.947224313309,122.480553922601,242.187501274609,-212.954166079255,-29.233335195354
0.373110320573406,-283.088418588603,-152.114550378318,130.973868210285,217.60148448346,-207.031143399444,-10.5703410840164
0.37525463276061,-242.35349406282,-96.5961011150559,145.757392947764,169.474797588938,-194.055443505292,24.580645916354
0.377398944947813,-177.120828423366,-10.4437252059902,166.677103217376,93.7822768146782,-171.898965820371,78.1166890056928
0.379543257135017,-85.4406455744707,106.959243531043,192.399889105514,-10.7592989782864,-138.920267339992,149.679566318279
0.38168756932222,31.6542296142645,252.045376912267,220.391147298003,-141.849803263266,-94.3684588418691,236.218262105135
0.383831881509424,169.619006295858,416.753507460892,247.134501165034,-293.186256878375,-38.7577474345875,331.944004312963
0.385976193696627,320.313824710304,588.901802610791,268.587977900487,-454.607813660548,25.8629234049089,428.744890255639
0.388120505883831,472.472357899575,753.289542863724,280.817184964149,-612.88095038165,95.827586467713,517.053363913937
0.390264818071034,612.76687017997,893.473054782718,280.706184602748,-753.119962481344,166.030342788611,587.089619692733
0.392409130258238,727.424157601639,994.045662801487,266.621505199848,-860.734910201563,230.401326200895,630.333584000667
0.394553442445441,804.220108026196,1043.11000443334,238.889896407144,-923.665056229769,282.665105809526,640.999950420242
0.396697754632645,834.535062753839,1034.48891835426,199.953855600422,-934.51199055405,317.290603576708,617.221386977342
0.398842066819848,815.040219980951,969.150103089173,154.109883108222,-892.095161535062,330.465168436365,561.629993098698
0.400986379007052,748.57542280671,855.399941275757,106.824518469047,-801.987682041233,320.875452168831,481.112229872402
0.403130691194255,643.913859201757,707.660278840023,63.7464196382667,-675.78706902089,290.083719781745,385.703349239145
0.405275003381459,514.371244996492,544.013926463762,29.6426814672692,-529.192585730127,242.364281764612,286.828303965515
0.407419315568662,375.523939408313,383.05433538476,7.53039597644749,-379.289137396536,183.996771715933,195.292365680604
0.409563627755866,242.543699647307,240.76707157742,-1.7766280698871,-241.655385612364,122.160163858597,119.495221753767
0.411707939943069,127.752281213992,128.139709779023,0.387428565031229,-127.945995496507,63.6824263244802,64.263569172027
0.413852252130273,38.9187887318035,49.9669933628291,11.0482046310256,-44.4428910473163,13.935292050389,30.5075989969273
0.415996564317476,-21.3987890885176,4.98129713428958,26.3800862228071,8.20874597711399,-23.8894376556623,15.6806916785484
0.41814087650468,-55.4464304359011,-12.8886217077723,42.5578087281288,34.1675260718367,-49.0021195820149,14.8345935101782
0.420285188691883,-69.0250679327678,-12.5511409204362,56.4739270123316,40.788104426602,-62.7494974725497,21.9613930459477
0.422429500879087,-69.7729103582759,-3.58149399426617,66.1914163640097,36.677202176271,-67.9821633611428,31.3049611848718
0.42457381306629,-65.3934425278176,5.68797399209491,71.0814165199125,29.8527342678614,-68.2374295238651,38.3846952560037
0.426718125253494,-62.1940160862305,9.4762365405446,71.6702526267751,26.3588897728429,-66.9321343565028,40.5732445836598
0.428862437440697,-64.1848538180355,5.09035165838811,69.2752054764236,29.5472510798237,-66.7300296472295,37.1827785674058
0.4310067496279,-72.8345424899648,-7.29590522884728,65.5386372611175,40.065223859406,-69.1865898755411,29.1213660161351
0.433151061815104,-87.4188446532343,-25.443216402155,61.9756282510793,56.4310305276946,-74.6972364521568,18.2662059244621
0.435295374002307,-105.770583055732,-46.1340940106844,59.6364890450478,75.9523385332083,-82.70353605039,6.75119751718167
0.437439686189511,-125.168564455606,-66.2146910352503,58.9538734203559,95.6916277454283,-92.0612189379811,-3.6304088074472
0.439583998376714,-143.109637238513,-83.3165362775703,59.7931009609422,113.213086758041,-101.451369099727,-11.7617176583141
0.441728310563918,-157.787897091073,-96.1266291803123,61.6612679107608,126.957263135693,-109.724582500917,-17.2326806347758
0.443872622751121,-168.23084073961,-104.251870573394,63.9789701662154,136.241355656502,-116.104905452912,-20.1364502035894
0.446016934938325,-174.165255053817,-107.86015030692,66.3051047468974,141.012702680369,-120.235179900357,-20.7775227800113
0.448161247125528,-175.75904152436,-107.319312825468,68.4397286988921,141.539177174914,-122.099385111626,-19.4397920632878
0.450305559312732,-173.388272349442,-102.994996916646,70.3932754327963,138.191634633044,-121.890773891119,-16.3008607419248
0.452449871499935,-167.52355781191,-95.2563772126209,72.2671805992888,131.389967512265,-119.895369205599,-11.494598306666
0.454594183687139,-158.748873627547,-84.6335259150349,74.1153477125119,121.691199771291,-116.432110670029,-5.25908910126152
0.456738495874342,-147.854709657435,-72.0073734534868,75.8473362039481,109.931041555461,-111.851022930691,1.91998137523065
0.458882808061546,-135.911739374826,-58.7029607343954,77.2087786404304,97.3073500546106,-106.560259007628,9.2529089530175
0.461027120248749,-124.240992808938,-46.395541681292,77.8454511276456,85.3182672451148,-101.043221968292,15.7249547231768
0.463171432435953,-114.24256983715,-36.8140136802081,77.4285561569417,75.528291758679,-95.8355629970458,20.3072712383668
0.465315744623156,-107.105911202341,-31.3111749509328,75.7947362514085,69.2085430766371,-91.450323726875,22.2417806502379
0.46746005681036,-103.479548961246,-30.4336481744315,73.045900786814,66.9565985678385,-88.2627248740298,21.3061263061913
0.469604368997563,-103.211219686648,-33.6435107675074,69.5677089191401,68.4273652270775,-86.3894643028938,17.9620990758163
0.471748681184767,-105.268777600435,-39.3150263915182,65.9537512089164,72.2919019959764,-85.6112644046755,13.3193624086991
0.47389299337197,-107.914962808209,-45.0641122506752,62.8508505575338,76.4895375294421,-85.3829066828714,8.89336915342928
0.476037305559174,-109.141161068312,-48.3779325262416,60.7632285420707,78.759546797277,-84.9521948051915,6.19264800791452
0.478181617746377,-107.278548460373,-47.4075338164631,59.8710146439097,77.3430411384179,-83.5747815521412,6.23174041372332
0.480325929933581,-101.617651048609,-41.6890774833375,59.9285735652713,71.6533642659732,-80.77311230694,9.1197480409669
0.482470242120784,-92.8136768148263,-32.5155482467822,60.2981285680441,62.6646125308043,-76.5559026914352,13.8912901606309
0.484614554307988,-82.879591073716,-22.7453482352786,60.1342428384373,52.8124696544973,-71.5069169560766,18.6944473015793
0.486758866495191,-74.6930344303484,-16.0196541227008,58.6733803076475,45.3563442765246,-66.6832073689979,21.3268630924733
0.488903178682395,-71.1319529802567,-15.6027506131979,55.5292023670588,43.3673517967273,-63.3305776736578,19.9632258769305
0.491047490869598,-74.1213812402045,-23.2411565052228,50.8802247349817,48.6812688727137,-62.5008029875931,13.8195341148795
0.493191803056802,-83.9297549110628,-38.4571313978119,45.4726235132508,61.1934431544373,-64.7011892121568,3.50774605771947
0.495336115244005,-98.961321661584,-58.5305782255472,40.4307434360368,78.7459499435656,-69.6960325488104,-9.04991739475522
0.497480427431209,-116.099306913425,-79.1587765832238,36.940530330201,97.6290417483243,-76.5199186218129,-21.1091231265114
0.499624739618412,-131.463243403017,-95.547539632988,35.9157037700289,113.505391518002,-83.6894735865229,-29.8159179314795
0.501769051805615,-141.336112213622,-103.583504848241,37.7526073653809,122.459808530932,-89.5443597895016,-32.9154487414302
0.503913363992819,-143.010845969566,-100.778006123406,42.23283984616,121.894426046486,-92.6218429078631,-29.2725831386231
0.506057676180022,-135.367891663729,-86.7918962466962,48.5759954170328,111.079893955213,-91.9719435403809,-19.1079504148317
0.508201988367226,-119.082436120527,-63.4725308418201,55.6099052787069,91.2774834811736,-87.346170699617,-3.9313127815566
0.510346300554429,-96.4443745789672,-34.4291180801013,62.0152564988659,65.4367463295343,-79.2298155389166,13.7930692093823
0.512490612741633,-70.8471661251789,-4.2496890962921,66.5974770288868,37.5484276107355,-68.7223215770328,31.1738939662973
0.514634924928836,-46.0618958177147,22.4696538054866,68.5315496232013,11.7961210061141,-57.296722720458,45.5006017143439
0.51677923711604,-25.4556186434232,42.0677689118532,67.5233875552764,-8.30607513421502,-46.4895030993498,54.7955782335648
0.518923549303243,-11.328025427863,52.5184057757598,63.8464312036227,-20.5951901739484,-37.5872283157429,58.1824184896913
0.521067861490447,-4.51733569053856,53.7263068358583,58.2436425263969,-24.6044855726599,-31.3804891084677,55.9849746811276
0.52321217367765,-4.36419978833871,47.3576517447522,51.7218515330909,-21.4967259782067,-28.0430256607148,49.5397516389216
0.525356485864854,-9.03274350445396,36.2635637485203,45.2963072529743,-13.6154101220332,-27.1645253787141,40.7799355007473
0.527500798052057,-16.0895880708652,23.6700217139241,39.7596097847893,-3.79021682152949,-27.9245989278272,31.7148157493567
0.529645110239261,-23.1614568115835,12.3808768667462,35.5423336783297,5.39028997241862,-29.3518952449566,23.9616052725379
0.531789422426464,-28.4668729913149,4.23257112973258,32.6994441210474,12.1171509307911,-30.5831585561811,18.46600762539
0.533933734613668,-31.0740225619975,-0.0664565748722225,31.0075659871253,15.5702395684349,-31.0407942745614,15.4705547061265
0.536078046800871,-30.8568515058034,-0.740659009059657,30.1161924967438,15.7987552574316,-30.4865220012736,14.6877667438421
0.538222358988075,-28.2421145841685,1.44136303283264,29.6834776170011,13.4003757756679,-28.9627961005848,15.5624203249169
0.540366671175278,-23.898062124113,5.55167097725369,29.4497331013667,9.17319557342964,-26.6738976127398,17.5007020393102
0.542510983362482,-18.4903990239827,10.7521412940364,29.2425403180191,3.86912886497315,-23.8664696710009,19.9973408060277
0.544655295549685,-12.5544351839718,16.3879398954454,28.9423750794172,-1.91675235573684,-20.7484051316945,22.6651574874313
0.546799607736889,-6.46013539103712,21.9912694421332,28.4514048331703,-7.76556702554803,-17.4557701121037,25.2213371376518
0.548943919924092,-0.418681139722359,27.2772623439527,27.695943483675,-13.4292906021152,-14.0573123116987,27.4866029138138
0.551088232111296,5.50459802872572,32.1654200789606,26.6608220502349,-18.8350090538432,-10.5781120107546,29.4131210645977
0.553232544298499,11.3738444390116,36.7961591572513,25.4223147182397,-24.0850017981314,-7.02423513961402,31.1092369377455
0.555376856485703,17.3474460656198,41.4887023481511,24.1412562825313,-29.4180742068855,-3.39690510845572,32.8149793153412
0.557521168672906,23.6154038389902,46.6220153267439,23.0066114877538,-35.1187095828671,0.304396175618216,34.8143134072489
0.55966548086011,30.3226183561019,52.4823314255105,22.1597130694086,-41.4024748908062,4.08145264334666,37.3210222474595
0.561809793047313,37.5089662110039,59.1565192150336,21.6475530040297,-48.3327427130187,7.93070660348712,40.4020361095316
0.563954105234517,45.0952491210347,66.5291793809801,21.4339302599453,-55.8122142510074,11.8306594305447,43.9815548204627
0.56609841742172,52.9200935467139,74.3743762103641,21.4542826636502,-63.647234878539,15.7329054415319,47.9143294370072
0.568242729608924,60.8000538570096,82.4678886069684,21.6678347499587,-71.633971231989,19.5661095535254,52.0678616784636
0.570387041796127,68.5682885135199,90.6338635809343,22.0655750674145,-79.6010760472271,23.2513567230527,56.3497193241744
0.57253135398333,76.0627494833712,98.6929975917608,22.6302481083896,-87.377873537566,26.7162506874908,60.6616228500752
0.574675666170534,83.074312944423,106.35837668225,23.2840637378266,-94.7163448133363,29.8951246032982,64.8212202100381
0.576819978357737,89.3012986291734,113.171460062059,23.8701614328852,-101.236379345616,32.7155685981441,68.5208107474719
0.578964290544941,94.3643464709491,118.553594711996,24.1892482410467,-106.458970591472,35.0875491149512,71.3714214765212
0.581108602732144,97.9076178583416,121.98289907347,24.0752812151284,-109.945258465906,36.9161683216066,73.0290901442992
0.583252914919348,99.7626309559405,123.233777660431,23.471146704491,-111.498204308186,38.1457421257247,73.3524621824612
0.585397227106551,100.106815440382,122.574210603386,22.4673951630035,-111.340513021884,38.8197101386894,72.5208028831946
0.587541539293755,99.5358308767454,120.822325945805,21.28649506906,-110.179078411275,39.1246679038427,71.0544105074327
0.589685851480958,98.9965429147524,119.214939797066,20.2183968823136,-109.105741355909,39.3890730162194,69.7166683396898
0.591830163668162,99.5835265149575,119.113806426704,19.5302799117468,-109.348666470831,40.0266233016054,69.3220431692255
0.593974475855365,102.258323449706,121.638482998645,19.3801595489383,-111.948403224175,41.439081950384,70.5093212737914
0.596118788042569,107.581938494524,127.343423005847,19.7614845113229,-117.462680750186,43.9102269916006,73.552453758585
0.598263100229772,115.546891123351,136.042630156764,20.4957390334128,-125.794760640058,47.5255760449692,78.2691845950884
0.600407412416976,125.561084578302,146.835322711974,21.274238133672,-136.198203645138,52.1434232223149,84.0547804228229
0.602551724604179,136.586399733594,158.320652779449,21.734253045855,-147.453526256521,57.4260733438694,90.0274529126519
0.604696036791383,147.386992595499,168.932855740295,21.5458631447959,-158.159924167897,62.9205647253514,95.2393594425453
0.606840348978586,156.811437603212,177.298263554462,20.48682595125,-167.054850578837,68.1623058259812,98.8925447528561
0.60898466116579,164.030058882217,182.519830003326,18.4897711211092,-173.274944442771,72.7701438805536,100.504800562218
0.611128973352993,168.672374197579,184.327674164008,15.6552999664289,-176.500024180794,76.5085371155752,99.9914870652186
0.613273285540197,170.844541635728,183.077127406618,12.2325857708894,-176.960834521173,79.3059779324195,97.6548565887536
0.6154175977274,171.038015423072,179.610547309877,8.57253188680519,-175.324281366475,81.2327417681334,94.0915395983412
0.617561909914604,169.963292041487,175.022923683277,5.05963164179042,-172.493107862382,82.4518301998483,90.0412776625339
0.619706222101807,168.356133171989,170.390179767448,2.03404659545961,-169.373156469718,83.1610432882645,86.2121131814539
0.621850534289011,166.805277308516,166.529482818338,-0.275794490178441,-166.667380063427,83.5405358993474,83.1268441640798
0.623994846476214,165.639670427222,163.850096070091,-1.78957435713087,-164.744883248657,83.7146223921765,81.0302608564802
0.626139158663418,164.894648360706,162.319712786221,-2.57493557448572,-163.607180573463,83.734791967596,79.8723886058674
0.628283470850621,164.356499217035,161.533371190797,-2.82312802623795,-162.944935203916,83.5898136216364,79.3551215822795
0.630427783037825,163.666942676225,160.851093340569,-2.81584933565512,-162.259018008397,83.2413960059398,79.0176220024572
0.632572095225028,162.454440918229,159.567540186926,-2.88690073130314,-161.010990552578,82.6706708247663,78.3403197278116
0.634716407412232,160.44899461365,157.076800344025,-3.37219426962491,-158.762897478838,81.9105944416375,76.8523030372001
0.636860719599435,157.536967322463,152.991325179018,-4.54564214344461,-155.264146250741,81.0413047329538,74.2228415177868
0.639005031786638,153.73125878907,147.178769022791,-6.55248976627902,-150.45501390593,80.1418742776745,70.313139628256
0.641149343973842,149.068065581388,139.70589297658,-9.36217260480771,-144.386979278984,79.2151190930979,65.1718601858863
0.643293656161046,143.477201049692,130.716171432954,-12.7610296167386,-137.096686241323,78.1191153332154,58.9775709081076
0.645437968348249,136.690620093517,120.298035704663,-16.3925843888541,-128.49432789909,76.5416022411854,51.9527256579043
0.647582280535452,128.247790855501,108.412382709896,-19.835408145605,-118.330086782698,74.0415995005529,44.2884872821454
0.649726592722656,117.628145515844,94.9355208830914,-22.692624632753,-106.281833199468,70.1603850742987,36.1214481251692
0.651870904909859,104.491700341593,79.8287098756876,-24.6629904659057,-92.1602051086404,64.5773454037495,27.582859704891
0.654015217097063,88.9488174731922,63.3711536620225,-25.5776638111697,-76.1599855676074,57.263240642181,18.8967449254264
0.656159529284266,71.7359853849609,46.3267204995057,-25.4092648854552,-59.0313529422333,48.5726251352081,10.4587278070253
0.65830384147147,54.1816302371558,29.9111529186021,-24.2704773185537,-42.046391577879,39.2260537778548,2.82033780002419
0.660448153658673,37.9206425889203,15.5100393209564,-22.4106032679639,-26.7153409549384,30.1656229284421,-3.45028197350376
0.662592465845877,24.4326764462485,4.23050642185065,-20.2021700243978,-14.3315914340496,22.3174232353232,-7.98583180127359
0.66473677803308,14.5755915675392,-3.52659552820205,-18.1021870957412,-5.52449801966855,16.3388893316402,-10.8143913119716
0.666881090220284,8.3027022733254,-8.27739183616269,-16.5800941094881,-0.012655218581358,12.4413981914067,-12.4287429728254
0.669025402407487,4.67672556176319,-11.3453464981626,-16.0220720599258,3.3343104681997,10.3493988108445,-13.6837092790442
0.671169714594691,2.16576629997879,-14.4731347796883,-16.6389010796671,6.15368423985475,9.40233368982293,-15.5560179296777
0.673314026781894,-0.904310362396831,-19.3148407127105,-18.4105303503137,10.1095755375537,8.75310999395842,-18.8626855315121
0.675458338969098,-5.90896121595139,-26.9977684007282,-21.0888071847769,16.4533648083398,7.58992298441273,-24.0432877927526
0.677602651156301,-13.6280637118969,-37.8844085427335,-24.2563448308366,25.7562361273152,5.31414055946986,-31.070376686785
0.679746963343505,-24.1445718072664,-51.5638621307635,-27.4192903234971,37.8542169690149,1.63735925811538,-39.4915762271303
0.681891275530708,-36.9111282361593,-67.0161915620282,-30.1050633258688,51.9636598990938,-3.40303245514527,-48.5606274439485
0.684035587717912,-50.9166728746746,-82.8582651452272,-31.9415922705526,66.8874690099509,-9.48754030206097,-57.3999287078899
0.686179899905115,-64.8920103547726,-97.5986623139894,-32.7066519592168,81.245336334381,-16.0926791977779,-65.1526571366031
0.688324212092319,-77.5250585961096,-109.875024086275,-32.3499654901658,93.7000413411925,-22.5875465529719,-71.1124947882206
0.690468524279522,-87.6786263217293,-118.677550367154,-30.998924045425,103.178088344442,-28.3398511381522,-74.8382372062896
0.692612836466726,-94.5986814760986,-123.552236285696,-28.953554809597,109.075458880897,-32.8225633332508,-76.2528955476463
0.694757148653929,-98.0794558513311,-124.741245019531,-26.6617891682002,111.410350435431,-35.7088333415655,-75.7015170938657
0.696901460841133,-98.5360173339615,-123.193406551051,-24.6573892170894,110.864711942506,-36.939314058436,-73.9253978840702
0.699045773028336,-96.9419878781029,-120.395014362854,-23.4530264847511,108.668501120478,-36.7444806966759,-71.9240204238026
0.70119008521554,-94.6239969377627,-118.032499566828,-23.4085026290648,106.328248252295,-35.6077471543489,-70.7205010979462
0.703334397402743,-92.9542269465387,-117.575108057737,-24.6208811111988,105.264667502138,-34.1666729176699,-71.0979945844681
0.705478709589947,-93.0239940320377,-119.910269616911,-26.8862755848738,106.467131824475,-33.068859223582,-73.3982726008926
0.70762302177715,-95.3916477100859,-125.146234156013,-29.7545864459269,110.268940933049,-32.8185306320795,-77.4504103009699
0.709767333964354,-99.9728753775271,-132.629021929819,-32.6561465522916,116.300948653673,-33.6583644126177,-82.6425842410552
0.711911646151557,-106.096767523356,-141.147811512966,-35.0510439896096,123.622289518161,-35.5228617668734,-88.0994277512878
0.71405595833876,-112.706242173114,-149.258009732627,-36.5517675595135,130.982125952871,-38.0772373068002,-92.9048886460704
0.716200270525964,-118.646023157192,-155.635895219334,-36.9898720621419,137.140959188263,-40.8280755475249,-96.3128836407379
0.718344582713167,-122.958156086924,-159.379064383603,-36.4209082966796,141.168610235264,-43.2686238951221,-97.8999863401416
0.720488894900371,-125.100057363916,-160.17821072273,-35.0781533588137,142.639134043323,-45.0109520025513,-97.6281820407718
0.722633207087574,-125.021788778543,-158.315034466559,-33.2932456880157,141.668411622551,-45.8642715452638,-95.8041400772874
0.724777519274778,-123.087537725686,-154.492420953955,-31.4048832282695,138.789979339821,-45.8413272487082,-92.9486520911125
0.726921831461981,-119.885400095675,-149.564893315485,-29.6794932198096,134.72514670558,-45.1029534379329,-89.6221932676473
0.729066143649185,-116.013404490551,-144.281522866076,-28.2681183755257,130.147463678314,-43.8726430575125,-86.274820620801
0.731210455836388,-111.934834577286,-139.149107816731,-27.2142732394452,125.541971197008,-42.3602806689202,-83.1816905280879
0.733354768023592,-107.955345342724,-134.461329300336,-26.5059839576116,121.20833732153,-40.7246806925564,-80.4836566289738
0.735499080210795,-104.306419844437,-130.44810057417,-26.141680729733,117.377260209304,-39.082369557352,-78.2948906519516
0.737643392397999,-101.261220943297,-127.431916397484,-26.170695454187,114.346568670391,-37.545262744555,-76.8013059258355
0.739787704585202,-99.1925878445554,-125.876409870655,-26.6838220260999,112.534498857605,-36.2543829092278,-76.2801159483776
0.741932016772406,-98.5175303360323,-126.276572627335,-27.7590422913029,112.397051481684,-35.3792440223647,-77.017807459319
0.744076328959609,-99.5393381878102,-128.931075192825,-29.3917370050146,114.235206690318,-35.0738005913978,-79.1614060989198
0.746220641146813,-102.260497010593,-133.704001167357,-31.443504156764,117.982249088975,-35.4084964269146,-82.5737526620606
0.748364953334016,-106.26118720701,-139.893622634564,-33.6324354275543,123.077404920787,-36.3143758897276,-86.763029031059
0.75050926552122,-110.70845194824,-146.281535119307,-35.5730831710662,128.494993533774,-37.5676843885871,-90.9273091451865
0.752653577708423,-114.502740822462,-151.365318712525,-36.862577890063,132.934029767494,-38.8200814661996,-94.1139483012941
0.754797889895627,-116.517245395376,-153.71315047011,-37.1959050747336,135.115197932743,-39.6606701603214,-95.4545277724219
0.75694220208283,-115.861228886716,-152.336426881597,-36.475197994881,134.098827884156,-39.6930154459175,-94.4058124382389
0.759086514270034,-112.098247428674,-146.964267765657,-34.8660203369837,129.531257597166,-38.616113545845,-90.9151440513205
0.761230826457237,-105.362965724047,-138.128421303444,-32.7654555793971,121.745693513745,-36.2987550723248,-85.4469384414204
0.763375138644441,-96.3410566664408,-127.02474812606,-30.6836914596194,111.682902396251,-32.8286826034107,-78.8542197928398
0.765519450831644,-86.1053526228317,-115.186997659623,-29.0816450367915,100.646175141227,-28.5118537930201,-72.1343213482074
0.767663763018848,-75.838628781413,-104.067095179843,-28.2284663984297,89.9528619806279,-23.8050811914916,-66.1477807891362
0.769808075206051,-66.5161303759866,-94.6515699626263,-28.1354395866397,80.5838501693064,-19.1903453946735,-61.393504774633
0.771952387393255,-58.6545608976733,-87.24595282069,-28.5913919230166,72.9502568591816,-15.0315844873283,-57.9186723718533
0.774096699580458,-52.2319604122056,-81.5146370346248,-29.2826766224192,66.8732987234152,-11.4746418948932,-55.398656828522
0.776241011767662,-46.8259326366977,-76.7725462416981,-29.9466136050003,61.7992394391979,-8.43965951584871,-53.3595799233492
0.778385323954865,-41.9218970439222,-72.4170950223141,-30.4951979783919,57.1694960331182,-5.71334953276513,-51.456146500353
0.780529636142068,-37.2588453861727,-68.3173022698032,-31.0584568836305,52.788073827988,-3.10019425127112,-49.6878795767169
0.782673948329272,-33.0567708999175,-64.9844040205724,-31.9276331206549,49.020587460245,-0.56456888963131,-48.4560185706137
0.784818260516476,-30.0192372096415,-63.4365985000002,-33.4173612903587,46.7279178548209,1.69906204035856,-48.4269798951794
0.786962572703679,-29.0982292025808,-64.7987094313086,-35.7004802287278,46.9484693169447,3.30112551307352,-50.2495948300182
0.789106884890882,-31.1036759132194,-69.7888293926253,-38.6851534794059,50.4462526529224,3.79073878309321,-54.2369914360156
0.791251197078086,-36.3030285853531,-78.2948805945918,-41.9918520092387,57.2989545899725,2.84441171194278,-60.1433663019152
0.793395509265289,-44.1685476209226,-89.217110524778,-45.0485629038554,66.6928290728503,0.440007641466387,-67.1328367143167
0.795539821452493,-53.3856340912938,-100.657410438778,-47.2717763474844,77.021522265036,-3.05692887190465,-73.9645933931313
0.797684133639696,-62.1438834078471,-110.407078921762,-48.263195513915,86.2754811648046,-6.94034394696604,-79.3351372178386
0.7998284458269,-68.6242716903934,-116.570544614914,-47.9462729245206,92.5974081526537,-10.3389993829364,-82.2584087697173
0.801972758014103,-71.5166394079136,-118.108987992671,-46.5923485847575,94.8128137002924,-12.4621454115781,-82.3506682887143
0.804117070201307,-70.3877594100938,-115.116795967655,-44.7290365575612,92.7522776888744,-12.8293614262663,-79.9229162626081
0.80626138238851,-65.7772602016472,-108.744490198585,-42.9672299969379,87.2608752001162,-11.4050151023547,-75.8558600977615
0.808405694575714,-59.000720154996,-100.813625052334,-41.8129048973377,79.9071726036648,-8.59390762882916,-71.3132649748357
0.810550006762917,-51.7441683140257,-93.277377053238,-41.5332087392124,72.5107726836318,-5.10547978740666,-67.4052928962252
0.812694318950121,-45.6005123788476,-87.7200246012747,-42.119512222427,66.6602684900611,-1.7405000782103,-64.9197684118508
0.814838631137324,-41.7013777132068,-85.0470887851729,-43.3457110719661,63.3742332491899,0.822166679379606,-64.1963999285695
0.816982943324528,-40.5412038934341,-85.4237533313739,-44.8825494379398,62.982478612404,2.17067277225288,-65.1531513846569
0.819127255511731,-42.0051184175931,-88.4215096552425,-46.4163912376494,65.2133140364178,2.20563641002812,-67.4189504464459
0.821271567698935,-45.5399463702077,-93.2712655195998,-47.7313191493921,69.4056059449037,1.0956863895922,-70.5012923344959
0.823415879886138,-50.3771814548485,-99.1103941000909,-48.7332126452424,74.7437877774697,-0.821984404803018,-73.9218033726667
0.825560192073342,-55.7279489598998,-105.145910932554,-49.4179619726547,80.4369299462271,-3.15499349362258,-77.2819364526046
0.827704504260545,-60.9040837793567,-110.71570924091,-49.811625461553,85.8098965101332,-5.54622915890186,-80.2636673512313
0.829848816447749,-65.3585311819652,-115.282953710895,-49.9244225289297,90.32074244643,-7.71705432651778,-82.6036881199123
0.831993128634952,-68.6704195336194,-118.417350373142,-49.7469308395221,93.5438849533805,-9.46174434704865,-84.0821406063318
0.834137440822156,-70.5143903292804,-119.797443333325,-49.2830530040448,95.1559168313028,-10.6156686626178,-84.540248168685
0.836281753009359,-70.6453908596172,-119.233725970601,-48.588335110984,94.9395584151092,-11.0285278743166,-83.9110305407926
0.838426065196563,-68.9093345319018,-116.692886175406,-47.7835516435041,92.8011103536538,-10.5628914441989,-82.238218909455
0.840570377383766,-65.2739274470288,-112.309778811713,-47.0358513646846,88.7918531293711,-9.1190380411721,-79.672815088199
0.84271468957097,-59.8690415168026,-106.389763329675,-46.5207218128721,83.1294024232386,-6.67415985196525,-76.4552425712734
0.844859001758173,-53.0245083545347,-99.4062939294902,-46.3817855749555,76.2154011420124,-3.32136138978959,-72.8940397522229
0.847003313945377,-45.286296274732,-91.9831646880921,-46.6968684133601,68.6347304814121,0.705286069314035,-69.3400165507261
0.84914762613258,-37.3829450664173,-84.8357286494283,-47.4527835830109,61.1093368579228,5.0349192582968,-66.1442561162196
0.851291938319784,-30.117126775441,-78.6500974783069,-48.5329707028659,54.383612126874,9.20792196371246,-63.5915340905864
0.853436250506987,-24.1832649919822,-73.908522692277,-49.7252577002948,49.0458938421296,12.7709963541563,-61.8168901962859
0.85558056269419,-19.9556037079138,-70.7112078532371,-50.7556041453232,45.3334057805755,15.4000002187047,-60.7334059992802
0.857724874881394,-17.3291710266924,-68.675557411061,-51.3463863843687,43.0023642188767,17.0086076788381,-60.0109718977148
0.859869187068597,-15.700668424716,-66.9873088270781,-51.2866404023621,41.3439886258971,17.7929859888231,-59.1369746147201
0.862013499255801,-14.1325704178375,-64.6256391207671,-50.4930687029296,39.3791047693023,18.1802491425461,-57.5593539118484
0.864157811443004,-11.6653006582663,-60.707127631046,-49.0418269727797,36.1862141446561,18.6882631572567,-54.8744773019128
0.866302123630208,-7.66860479103593,-54.8303342837642,-47.1617294927283,31.2494695374001,19.7465623508462,-50.9960318882463
0.868446435817411,-2.09482864991598,-47.2858433395218,-45.1910146896058,24.6903359947189,21.5480930198449,-46.2384290145638
0.870590748004615,4.47136296218467,-39.0346375237158,-43.5060004859004,17.2816372807655,23.9886817240426,-41.2703190048081
0.872735060191818,10.9969272589892,-31.4367029266739,-42.4336301856631,10.2198878338424,26.7152787223262,-36.9351665561685
0.874879372379022,16.3607917119798,-25.8056896436172,-42.166481355597,4.72244896581869,29.2636365337884,-33.9860854996071
0.877023684566225,19.7640579367043,-22.9420759770969,-42.7061339138012,1.58900902019628,31.2350959252527,-32.824104945449
0.879167996753429,21.0377805595637,-22.8213946333652,-43.8591751929289,0.891807036900715,32.4484778762463,-33.340284913147
0.881312308940632,20.7301981112518,-24.5633239000564,-45.2935220113081,1.91656289440229,33.01186006128,-34.9284229556823
0.883456621127836,19.9410126630669,-26.6971199087623,-46.6381325718292,3.37805362284769,33.289572617448,-36.6676262402957
0.885600933315039,19.969334603231,-27.6224729935356,-47.5918075967666,3.8265691951523,33.7805710999988,-37.6071402951511
0.887745245502243,21.9075268653684,-26.0982671849857,-48.005794050354,2.09537015980863,34.9566604578612,-37.0520306176698
0.889889557689446,26.3197251735644,-21.5973212608847,-47.9170464344491,-2.36120195633989,37.1183858040068,-34.7571838476669
0.89203386987665,33.0974427957213,-14.4284848159782,-47.5259276116995,-9.33447898987153,40.3116852037104,-30.9772062138388
0.894178182063853,41.5138670605464,-5.6140143652764,-47.1278814258228,-17.949926347635,44.3208742431846,-26.3709478955496
0.896322494251057,50.435945289117,3.41598144107202,-47.019963848045,-26.9259633650945,48.727954568581,-21.8019912034865
0.89846680643826,58.6188931194054,11.2099632032851,-47.4089299161203,-34.9144281613453,53.0139115177628,-18.0994833564176
0.900611118625464,65.0017493256073,16.6540526496147,-48.3476966759926,-40.827900987611,56.6747230008,-15.846822013189
0.902755430812667,68.9347203218678,19.2149170402992,-49.7198032815687,-44.0748186810835,59.3272618017182,-15.2524431206347
0.904899742999871,70.2907696610578,19.0140740240093,-51.2766956370484,-44.6524218425335,60.7837326490531,-16.1313108065196
0.907044055187074,69.4417844942183,16.7254408018736,-52.7163436923448,-43.0836126480459,61.0790640932815,-17.9954514452356
0.909188367374278,67.1104817524307,13.3293304230308,-53.7811513293999,-40.2199060877307,60.4458165409153,-20.2259104531845
0.911332679561481,64.137264860976,9.7885880699914,-54.3486767909846,-36.9629264654837,59.2429708259803,-22.2800443604966
0.913476991748685,61.2215472912685,6.73411867103969,-54.4874286202288,-33.9778329811541,57.8544879557486,-23.8766549745945
0.915621303935888,58.7076367485499,4.25405633349463,-54.4535804150553,-31.4808465410223,56.5806085818026,-25.0997620407803
0.917765616123092,56.483098070684,1.86586322846741,-54.6172348422166,-29.1744806495757,55.5501664564503,-26.3756858068746
0.919909928310295,54.0351777637797,-1.29421644965141,-55.3293942134311,-26.3704806570642,54.6822859886054,-28.3118053315413
0.922054240497499,50.6630814530472,-6.10468498675633,-56.7677664398036,-22.2791982331455,53.7154239464254,-31.4362257132799
0.924198552684702,45.7810461432774,-13.0398910385532,-58.8209371818306,-16.3705775523621,52.300991662554,-35.9304141101919
0.926342864871906,39.1994437576089,-21.8726263273156,-61.0720700849246,-8.66340871514664,50.1357569212668,-41.4723482061201
0.928487177059109,31.2699993666837,-31.6426512000911,-62.9126505667748,0.186325916703684,47.0913249667293,-47.277650883433
0.930631489246312,22.8323956542057,-40.9260735797596,-63.7584692339653,9.04683896277695,43.2954324440855,-52.3422714068625
0.932775801433516,14.9781693111189,-48.3055844485047,-63.2837537596236,16.6637075686929,39.1309615353713,-55.7946691040641
0.934920113620719,8.71755043287754,-52.8539676912023,-61.5715181240798,22.0682086291624,35.1445342784787,-57.212742907641
0.937064425807923,4.66772771222275,-54.4442159212141,-59.1119436334368,24.8882441044957,31.8898356728298,-56.7780797773255
0.939208737995126,2.86722119246376,-53.7797211982088,-56.6469423906726,25.4562500028725,29.7570817915682,-55.2133317944407
0.94135305018233,2.77189704029979,-52.1519191909359,-54.9238162312357,24.6900110753181,28.8478566357678,-53.5378677110858
0.943497362369533,3.42689993388728,-51.0281234557072,-54.4550233895945,23.80061176091,28.9409616617409,-52.7415734226508
0.945641674556737,3.75501475956647,-51.6166663225555,-55.371681082122,23.9308257814945,29.5633479208442,-53.4941737023387
0.94778598674394,2.86723894693114,-54.5464517631681,-57.4136907100992,25.8396064081185,30.1404648285152,-55.9800712366336
0.949930298931144,0.294948480244411,-59.7489251736396,-60.043873653884,29.7269883466976,30.1694110670642,-59.8963994137618
0.952074611118347,-3.92896494370086,-66.5617176861365,-62.6327527424356,35.2453413149187,29.3518938993674,-64.597235214286
0.954218923305551,-9.35645465888526,-74.0028617091505,-64.6464070502653,41.6796581840179,27.64497619569,-69.3246343797079
0.956363235492754,-15.3315573389608,-81.1111498507841,-65.7795925118233,48.2213535948724,25.2240175864312,-73.4453711813037
0.958507547679958,-21.2293003729218,-87.2314399795638,-66.0021396066419,54.2303701762428,22.38641961686,-76.6167897931029
0.960651859867161,-26.6349880102524,-92.1545627244918,-65.5195747142394,59.3947753673721,19.4422933519935,-78.8370687193656
0.962796172054365,-31.4109656326803,-96.0882021870309,-64.6772365543506,63.7495839098556,16.6331354608352,-80.3827193706908
0.964940484241568,-35.6539618288678,-99.5034762429565,-63.8495144140887,67.5787190359121,14.0977762926104,-81.6764953285225
0.967084796428772,-39.5886624979857,-102.937597133319,-63.3489346353334,71.2631298156524,11.8801360686738,-83.1432658843263
0.969229108615975,-43.4531140155496,-106.823652210346,-63.3705381947968,75.138383112948,9.95871208962357,-85.0970952025716
0.971373420803179,-47.4102663090125,-111.377741569201,-63.9674752601884,79.3940039391067,8.27860447558793,-87.6726084146947
0.973517732990382,-51.4875317291169,-116.53231352885,-65.0447817997327,84.0099226289833,6.77862503530792,-90.7885476642912
0.975662045177586,-55.5308794171277,-121.895240411123,-66.364360993995,88.7130599141252,5.41674078843364,-94.1298007025588
0.977806357364789,-59.1760407909513,-126.745992716287,-67.5699519253353,92.961016753619,4.19695556719197,-97.1579723208109
0.979950669551993,-61.8700270336291,-130.120431689104,-68.250404655475,95.9952293613666,3.19018881092296,-99.1854181722896
0.982094981739196,-62.9845584863794,-131.031495288723,-68.0469368023434,97.0080268875511,2.53118915798196,-99.5392160455331
0.9842392939264,-62.0265758278359,-128.804931779338,-66.7783559515018,95.4157538035868,2.37589006183294,-97.7916438654197
0.986383606113603,-58.886009795867,-123.417936697747,-64.5319269018801,91.151973246807,2.82295855300658,-93.9749317998136
0.988527918300807,-54.0134217534665,-115.683812285878,-61.670390532412,84.8486170196725,3.82848438947278,-88.6771014091452
0.99067223048801,-48.4293845981325,-107.170115668245,-58.7407310701128,77.7997501331889,5.15567323599017,-82.955423369179
0.992816542675213,-43.5349429863636,-99.8534271146251,-56.3184841282615,71.6941850504943,6.39177057094899,-78.0859556214433
0.994960854862417,-40.7811340802514,-95.6341956637257,-54.8530615834743,68.2076648719886,7.03596375161145,-75.2436286236
0.99710516704962,-41.3158654259249,-95.8904236320362,-54.5745582061113,68.6031445289805,6.62934639009324,-75.2324909190738
0.999249479236824,-45.727085804463,-101.212634595583,-55.4855487911199,73.469860200023,4.87923149332845,-78.3490916933514
1.00139379142403,-53.9462869480189,-111.363481133844,-57.4171941858248,82.6548840409313,1.73545361890297,-84.3903376598343
1.00353810361123,-65.2995695745736,-125.401278409774,-60.1017088352005,95.3504239921739,-2.59893036968654,-92.7514936224873
1.00568241579843,-78.6339872514208,-141.846519944785,-63.2125326933644,110.240253598103,-7.71072727902822,-102.529526319075
1.00782672798564,-92.4283618693457,-158.774231655962,-66.3458697866162,125.601296762654,-13.0412460413648,-112.560050721289
1.00997104017284,-104.823001804652,-173.77440665565,-68.9514048509977,139.298704230151,-17.9357984768273,-121.362905753324
1.01211535236004,-113.558103322684,-183.809633169063,-70.2515298463793,148.683868245873,-21.6532867381523,-127.030581507721
1.01425966454725,-115.872895037369,-185.079377145694,-69.2064821083251,150.476136091531,-23.333206464522,-127.14292962701
1.01640397673445,-108.461518704106,-173.043863654874,-64.5823449507685,140.75269117949,-21.9395868766687,-118.813104302821
1.01854828892166,-87.5885308666188,-142.743877258175,-55.1553463915557,115.166204062397,-16.2165922375316,-98.9496118248651
1.02069260110886,-49.4332500761124,-89.4712899236043,-40.0380398474919,69.4522699998583,-4.69760511431021,-64.7546648855481
1.02283691329606,9.3288950922353,-9.72638691427195,-19.0552820065072,0.198745911018329,14.1920885493713,-14.3908344603896
1.02498122548327,90.7680362591614,97.7080092826583,6.93997302349689,-94.2380227709099,41.9140316178323,52.3239911530776
1.02712553767047,194.88358489732,230.801558906611,35.9179740092911,-212.842571901966,79.4828054440146,133.359766457951
1.02926984985767,318.890783054763,383.650581231933,64.7597981771693,-351.270682143348,127.065492438797,224.205189704551
1.03141416204488,456.793129393062,546.393659507103,89.6005301140403,-501.593394450083,183.596299639511,317.997094810572
1.03355847423208,599.4222974627,705.820762207937,106.398464745237,-652.621529835318,246.511916358732,406.109613476587
1.03570278641928,735.087893832413,846.741365460623,111.653471628209,-790.914629646518,311.717211102102,479.197418544416
1.03784709860649,850.883214828643,954.034061457531,103.150846628888,-902.458638143087,373.866184099878,528.592454043209
1.03999141079369,934.535470309076,1015.10377326527,80.5683029561967,-974.819621787174,426.983583676439,547.836038110735
1.04213572298089,976.498903368695,1022.27136749941,45.7724641307129,-999.385135434052,465.363219618991,534.021915815061
1.0442800351681,971.833798432879,974.505632343779,2.67183391090043,-973.169715388329,484.580982260989,488.58873312734
1.0464243473553,921.376082334492,877.971821887112,-43.4042604473808,-899.673952110802,482.390171390937,417.283780719865
1.0485686595425,831.831704661016,745.141653466292,-86.6900511947233,-788.486679063654,459.26087792787,329.225801135785
1.05071297172971,714.702460794077,592.608083258492,-122.094377535584,-653.655272026285,418.398419164831,235.256852861454
1.05285728391691,584.267020796019,438.117829773074,-146.149191022944,-511.192425284547,365.208105909482,145.984319375065
1.05500159610411,455.084671382548,297.529690566414,-157.554980816134,-376.307180974481,306.319826099341,69.9873548751401
1.05714590829132,339.585593163479,182.374207280812,-157.211385882668,-260.979900222146,248.398489523073,12.5814106990722
1.05929022047852,246.253868911261,98.4801618601363,-147.773707051124,-172.367015385698,197.013787981192,-24.646772595494
1.06143453266573,178.737278463748,45.8422880943261,-132.894990369422,-112.289783279037,155.816134416585,-43.5263511375481
1.06357884485293,135.984504535126,19.6159620560835,-116.368542479042,-77.8002332956045,126.176523507084,-48.3762902114793
1.06572315704013,113.26993928111,11.8926207078579,-101.377318573252,-62.5812799944838,107.323628927181,-44.742348932697
1.06786746922734,103.776027536598,13.7744875054776,-90.0015400311201,-58.7752575210376,96.8887837838589,-38.1135262628213
1.07001178141454,100.313743071811,17.2603412841585,-83.0534017876523,-58.7870421779847,91.6835724297316,-32.8965302517469
1.07215609360174,96.7928771315385,16.5761289663331,-80.2167481652054,-56.6845030489358,88.5048126483719,-31.8203095994361
1.07430040578895,89.1801002785637,8.78564116125642,-80.3944591173072,-48.98287071991,84.7872796979354,-35.8044089780254
1.07644471797615,75.8485381348364,-6.28397502690169,-82.1325131617381,-34.7822815539674,78.9905256482873,-44.2082440943199
1.07858903016335,57.3711828412585,-26.6346295728997,-84.0058124141582,-15.3682766341794,70.6884976277084,-55.3202209935289
1.08073334235056,35.9094745536575,-48.9885610132204,-84.8980355668779,6.53954322978143,60.4037550602677,-66.9432982900491
1.08287765453776,14.395504777487,-69.7585141297761,-84.1540189072632,27.6815046761446,49.2747618423751,-76.9562665185196
1.08502196672496,-4.28827588347637,-85.8979161637092,-81.6096402802328,45.0930960235928,38.6606821983782,-83.753778221971
1.08716627891217,-17.9598042420718,-95.4765174924809,-77.5167132504091,56.7181608672763,29.7784545041686,-86.4966153714449
1.08931059109937,-25.5129484011636,-97.9077577682907,-72.3948093671271,61.7103530847272,23.4409304829817,-85.1512835677089
1.09145490328657,-26.9975013802709,-93.8576916529454,-66.8601902726745,60.4275965166082,19.9313444462018,-80.35894096281
1.09359921547378,-23.4590002063813,-84.9459280301133,-61.4869278237319,54.2024641182473,19.0139638086753,-73.2164279269226
1.09574352766098,-16.6337560217444,-73.3662088742211,-56.7324528524766,44.9999824479827,20.0493484153661,-65.0493308633488
1.09788783984818,-8.5906253142755,-61.5118300759139,-52.9212047616384,35.0512276950947,22.1652897236814,-57.2165174187761
1.10003215203539,-1.378633916733,-51.6341758109641,-50.2555418942311,26.5064048638486,24.4384539887491,-50.9448588525976
1.10217646422259,3.29167842034352,-45.5358581481612,-48.8275365685047,21.1220898639088,26.0596074944241,-47.181697358333
1.10432077640979,4.31216557269144,-44.3124031540621,-48.6245687267536,20.0001187906853,26.4683671497225,-46.4684859404079
1.106465088597,1.35023736294543,-48.1827293875535,-49.5329667504989,23.416246012304,25.4416020567222,-48.8578480690262
1.1086094007842,-5.11427029779256,-56.4561612398632,-51.3418909420706,30.7852157688279,23.113810322139,-53.8990260909669
1.11075371297141,-13.912530444176,-67.6591015393698,-53.7465710951938,40.7858159917729,19.9170203255089,-60.7028363172818
1.11289802515861,-23.4455697385597,-79.8009379058686,-56.3553681673089,51.6232538222142,16.4548992143746,-68.0781530365887
1.11504233734581,-32.0091164237111,-90.7227938496913,-58.7136774259802,61.3659551367012,13.3522805011345,-74.7182356378357
1.11718664953302,-38.1042221215684,-98.4630552428161,-60.3588331212478,68.2836386821922,11.1273054998397,-79.410944182032
1.11933096172022,-40.6769086112785,-101.586004456762,-60.9090958454838,71.1314565340204,10.1160936171027,-81.2475501511231
1.12147527390742,-39.2641608701357,-99.4327580944147,-60.1685972242789,69.3484594822752,10.4522181770716,-79.8006776593468
1.12361958609463,-34.0443995374315,-92.2530046414783,-58.2086051040467,63.1487020894549,12.0821027833076,-75.2308048727625
1.12576389828183,-25.7920070641117,-81.1717428079486,-55.3797357438369,53.4818749360301,14.7938643398626,-68.2757392758927
1.12790821046903,-15.7304222183552,-67.960649472905,-52.2302272545499,41.8455358456301,18.2499025180974,-60.0954383637275
1.13005252265624,-5.28706023427413,-54.6333391904923,-49.3462789562182,29.9601997123832,22.029609360972,-51.9898090733553
1.13219683484344,4.21435172825728,-42.9574461215919,-47.1717978498492,19.3715471966673,25.6930747890532,-45.0646219857205
1.13434114703064,11.8467972963547,-34.0358246504023,-45.882621946757,11.0945136770238,28.8647096215558,-39.9592232985796
1.13648545921785,17.2633613576704,-28.1062492512694,-45.3696106089398,5.42144394679948,31.3164859833051,-36.7379299301046
1.13862977140505,20.7068766290614,-24.6259403775606,-45.332817006622,1.95953187424962,33.0198468178417,-34.9793786920913
1.14077408359225,22.8506119280225,-22.583547177577,-45.4341591055995,-0.133532375222762,34.142385516811,-34.0088531415883
1.14291839577946,24.5408114301039,-20.8912818389586,-45.4320932690625,-1.82476479557265,34.9864523495832,-33.1616875540106
1.14506270796666,26.5383412604131,-18.7037952219135,-45.2421364823267,-3.9172730192498,35.8902388713699,-31.9729658521201
1.14720702015386,29.3370971219459,-15.5769042687144,-44.9140013906603,-6.88009642661578,37.1255492563031,-30.2454528296874
1.14935133234107,33.0918534863102,-11.4657080694317,-44.5575615557419,-10.8130727084393,38.8247075210261,-28.0116348125868
1.15149564452827,37.6458101420845,-6.62032536411681,-44.2661355062013,-15.5127423889839,40.9559728241429,-25.4432304351591
1.15363995671547,42.6239914016386,-1.4526099863702,-44.0766013880088,-20.5856907076342,43.3502963948238,-22.7646056871895
1.15578426890268,47.5510005496046,3.57030899079617,-43.9806915588084,-25.5606547702004,45.7658460542065,-20.2051912840061
1.15792858108988,51.9539161255761,7.98205254544772,-43.9718635801284,-29.9679843355119,47.9628898528522,-17.9949055173403
1.16007289327709,55.4247488289408,11.3334437327477,-44.0913050961931,-33.3790962808442,49.758026962567,-16.3789306817227
1.16221720546429,57.6426801140567,13.2053630974203,-44.4373170166364,-35.4240216057385,51.0399985653466,-15.615976959608
1.16436151765149,58.380452202592,13.2546095249239,-45.1258426776682,-35.817530863758,51.7531474401301,-15.9356165763722
1.1665058298387,57.5225667121694,11.3010481565465,-46.2215185556229,-34.411807434358,51.8720426338962,-17.4602351995382
1.1686501420259,55.1038658906474,7.42715260766172,-47.6767132829857,-31.2655092491545,51.3902895868165,-20.124780337662
1.1707944542131,51.354409685309,2.0445140621876,-49.3098956231214,-26.6994618737483,50.3321526542152,-23.6326907804669
1.17293876640031,46.728147187924,-4.10388243055414,-50.8320296184781,-21.3121323786849,48.780088403201,-27.4679560245161
1.17508307858751,41.8993364551852,-10.0080500160665,-51.9073864712517,-15.9456432195594,46.9033614632185,-30.9577182436591
1.17722739077471,37.7203074172586,-14.5051710207499,-52.2254784380084,-11.6075681982543,44.9728929276335,-33.3653247293792
1.17937170296192,35.1381554356346,-16.4264138555659,-51.5645692912005,-9.35587079003436,43.3513623634176,-33.9954915733832
1.18151601514912,35.0688818222085,-14.7681012470091,-49.8369830692177,-10.1503902875997,42.4529324457131,-32.3025421581134
1.18366032733632,38.2341342897214,-8.88096999881103,-47.1151042885324,-14.6765821454552,42.6746192891269,-27.9980371436717
1.18580463952353,44.981398324802,1.34079165477717,-43.6406066700248,-23.1610949897896,44.3110024974134,-21.1499075076238
1.18794895171073,55.1276775101363,15.3115679556316,-39.8161095545047,-35.219622732884,47.4718935323205,-12.2522707994366
1.19009326389793,67.8805901505723,31.7092537779083,-36.171336372664,-49.7949219642403,52.0259632616182,-2.23104129737782
1.19223757608514,81.8905861162097,48.5971674600886,-33.2934186561211,-65.2438767881492,57.5920023861654,7.65187440198378
1.19438188827234,95.4646367493428,63.7457314576608,-31.718905291682,-79.6051841035018,63.5917710205124,16.0134130829894
1.19652620045954,106.921797645145,75.1198678814606,-31.8019297636842,-91.0208327633027,69.3618637044145,21.6589690588882
1.19867051264675,115.00686643496,81.4139724093697,-33.5928940255903,-98.2104194221649,74.2998802302752,23.9105391918897
1.20081482483395,119.230911291553,82.4563982908775,-36.7745130006751,-100.843654791215,78.0027121461139,22.8409426451012
1.20295913702115,120.011335428414,79.3166425922003,-40.6946928362135,-99.6639890103071,80.3530141323137,19.3109748779934
1.20510344920836,118.549690553586,74.04473629928,-44.5049542543058,-96.2972134264329,81.5273224039458,14.7698910224871
1.20724776139556,116.483418357164,69.1125750141669,-47.3708433429975,-92.7979966856657,81.9271308500809,10.8708658355847
1.20939207358277,115.428460946467,66.7412398850844,-48.687221061383,-91.0848504157759,82.0578410039252,9.02700941185068
1.21153638576997,116.55972582665,68.3351129633894,-48.2246128632609,-92.4474193950198,82.3921693449556,10.0552500500643
1.21368069795717,120.353168080789,74.1929112209319,-46.1602568598566,-97.2730396508602,83.2567124703226,14.0163271805377
1.21582501014438,126.552035899439,83.5556724972753,-42.9963634021635,-105.053854198357,84.7741996508012,20.2796545475559
1.21796932233158,134.341591534776,94.9322177416808,-39.4093737930955,-114.636904638229,86.8754826639359,27.7614219742926
1.22011363451878,142.6484529805,106.561917781988,-36.0865351985114,-124.605185381244,89.3674940895055,35.2376912917384
1.22225794670599,150.450601724614,116.857463911003,-33.593137813611,-133.654032817808,92.0218697691124,41.6321630486959
1.22440225889319,157.003907663264,124.713239393376,-32.2906682698878,-140.85857352832,94.6472879665759,46.2112855617442
1.22654657108039,161.945540260321,129.642119381729,-32.3034208785917,-145.793829821025,97.1244805694562,48.6693492515687
1.2286908832676,165.290962398335,131.774598545193,-33.5163638531415,-148.532780471764,99.4036631257381,49.1291173460258
1.2308351954548,167.371077829286,131.782446720747,-35.5886311085386,-149.576762275016,101.479854468912,48.0969078061041
1.232979507642,168.752333292586,130.768476241689,-37.9838570508971,-149.760404767138,103.368095171742,46.3923095953961
1.23512381982921,170.158059311789,130.122872797537,-40.0351865142518,-150.140466054663,105.09662291302,45.0438431416427
1.23726813201641,172.384371067465,131.322437536313,-41.0619335311519,-151.853404301889,106.723152299308,45.1302520025806
1.23941244420361,176.194161341127,135.661859658482,-40.5323016826444,-155.928010499805,108.363231511886,47.564778987919
1.24155675639082,182.182038555163,143.947918802385,-38.2341197527778,-163.064978678774,110.20807915397,52.8568995248035
1.24370106857802,190.622929320882,156.229309701233,-34.3936196196493,-173.426119511057,112.508274470266,60.9178450407917
1.24584538076522,201.335320495316,171.648640313446,-29.68668018187,-186.491980404381,115.511000338593,70.9809800657878
1.24798969295243,213.602071153685,188.484540157904,-25.1175309957814,-201.043305655794,119.359801074733,81.6835045810611
1.25013400513963,226.196617356051,204.413689126678,-21.7829282293726,-215.305153241365,123.989772792712,91.3153804486528
1.25227831732684,237.551011630465,216.969959587697,-20.5810520427687,-227.260485609081,129.066031836617,98.194453772464
1.25442262951404,246.062084432422,224.109522747589,-21.9525616848331,-235.085803590006,134.007323058628,101.078480531378
1.25656694170124,250.470267372752,224.728413061515,-25.741854311236,-237.599340217133,138.106060841994,99.4932793751397
1.25871125388845,250.196386596714,218.966625633474,-31.2297609632408,-234.581506115094,140.713073779978,93.8684323351164
1.26085556607565,245.52046767086,208.193282286331,-37.3271853845284,-226.856874978595,141.423826527694,85.4330484509014
1.26299987826285,237.53791734007,194.674388279283,-42.863529060787,-216.106152809677,140.200723200429,75.905429609248
1.26514419045006,227.903234291751,181.024588513353,-46.8786457783983,-204.463911402552,137.390940035075,67.0729713674774
1.26728850263726,218.433919549428,169.598059732534,-48.8358598168939,-194.015989640981,133.634889683161,60.3810999578201
1.26943281482446,210.679771374712,161.973861231254,-48.705910143458,-186.326816302983,129.692840759085,56.6339755438982
1.27157712701167,205.565315763338,158.650045044533,-46.915270718805,-182.107680403936,126.240293241072,55.867387162864
1.27372143919887,203.191132419018,158.997611974007,-44.1935204450114,-181.094372196513,123.692326432015,57.4020457644978
1.27586575138607,202.839416774209,161.462523005279,-41.3768937689294,-182.150969889744,122.108155271569,60.042814618175
1.27801006357328,203.179287632374,163.958626258725,-39.2206613736494,-183.56895694555,121.199974503012,62.3689824425378
1.28015437576048,202.618893447636,164.365869594314,-38.2530238533223,-183.492381520975,120.435958650479,63.0564228704957
1.28229868794768,199.71392248201,161.02637502949,-38.6875474525207,-180.37014875575,119.200734967266,61.1694137884845
1.28444300013489,193.524838507727,153.120180869875,-40.4046576378517,-173.322509688801,116.964748072789,56.3577616160116
1.28658731232209,183.827225951799,140.823160909253,-43.0040650425462,-162.325193430526,113.415645497172,48.9095479333532
1.28873162450929,171.12417615417,125.210987639587,-45.9131885145825,-148.167581896879,108.518682334376,39.6488995625024
1.2908759366965,156.474408027718,107.953842462837,-48.5205655648803,-132.214125245277,102.497486796299,29.7166384489785
1.2930202488837,141.207072829058,90.9074839879775,-50.2995888410803,-116.057278408518,95.753330835069,20.3039475734486
1.2951645610709,126.617017676523,75.7182596866682,-50.8987579898544,-101.167638681595,88.7578878331885,12.4097508484069
1.29730887325811,113.716598846457,63.5248261174762,-50.1917727289811,-88.6207124819668,81.9541857877192,6.66652669424755
1.29945318544531,103.080371880548,54.7884224973494,-48.2919493831983,-78.9343971889486,75.6861606318731,3.24823655707554
1.30159749763252,94.7842236196688,49.2504789470723,-45.5337446725965,-72.0173512833705,70.1589841461326,1.85836713723788
1.30374180981972,88.4265750466854,46.010540910511,-42.4160341361744,-67.2185579785982,65.4213045914299,1.79725338716828
1.30588612200692,83.2220288050581,43.7188515053906,-39.5031772996675,-63.4704401552243,61.3626030523628,2.10783710286152
1.30803043419413,78.1600159266476,40.8612545002308,-37.2987614264167,-59.5106352134392,57.7293886765322,1.78124653690705
1.31017474638133,72.2091246307786,36.0792065488887,-36.1299180818899,-54.1441655898337,54.1695213563343,-0.0253557665005886
1.31231905856853,64.526265760732,28.44218785122,-36.084077909512,-46.484226805976,50.305171835122,-3.82094502914599
1.31446337075574,54.6184038156932,17.6006702916251,-37.0177335240682,-36.1095370536591,45.8180686698807,-9.70853161622155
1.31660768294294,42.4188634964573,3.79449825814433,-38.624365238313,-23.1066808773008,40.5216143673851,-17.4149334900843
1.31875199513014,28.2748263995441,-12.2525010883628,-40.5273274879069,-8.01116265559063,34.4010769437255,-26.3899142881348
1.32089630731735,12.8746740707384,-29.4868986238222,-42.3615726945605,8.30611227654191,27.6181233826494,-35.9242356591914
1.32304061950455,-2.84847000098203,-46.6700629279059,-43.8215929269239,24.759266464444,20.4865614629709,-45.2458279274149
1.32518493169175,-17.8207016909694,-62.4946878411863,-44.6739861502168,40.1576947660778,13.4266422296237,-53.5843369957016
1.32732924387896,-30.951320770188,-75.7040427949977,-44.7527220248097,53.3276817825929,6.90070062731087,-60.2283824099037
1.32947355606616,-41.299106771501,-85.2620686249773,-43.9629618534763,63.2805876982391,1.33192754098766,-64.6125152392268
1.33161786825336,-48.2792512713756,-90.587227095758,-42.3079758243824,69.4332391835668,-2.98563772349658,-66.4476014600702
1.33376218044057,-51.8630887086221,-91.7916541936253,-39.9285654850032,71.8273714511237,-5.96726161180949,-65.8601098393142
1.33590649262777,-52.6856484676172,-89.8087077654909,-37.1230592978736,71.2471781165541,-7.78129458487182,-63.4658835316822
1.33805080481497,-51.9794096818008,-86.2943941741255,-34.3149844923247,69.1369019279632,-8.83221259473806,-60.3046893332251
1.34019511700218,-51.3059462837371,-83.2639606762705,-31.9580143925334,67.2849534800038,-9.67396594560184,-57.6109875344019
1.34233942918938,-52.1400339008911,-82.5423600737168,-30.4023261728256,67.341196987304,-10.8688538640328,-56.4723431232712
1.34448374137659,-55.4338053091842,-85.2075535484125,-29.7737482392284,70.3206794287984,-12.8300285349779,-57.4906508938205
1.34662805356379,-61.3139217559047,-91.234260418848,-29.9203386629433,76.2740910873763,-15.6967915464807,-60.5772995408956
1.34877236575099,-69.0270106742334,-99.484176954005,-30.4571662797716,84.2555938141192,-19.2849221972309,-64.9706716168883
1.3509166779382,-77.1640482998328,-108.064443390817,-30.9003950909846,92.6142458453251,-23.1318266044241,-69.482419240901
1.3530609901254,-84.0989697049041,-114.942217624725,-30.8432479198207,99.5205936648145,-26.6278608925417,-72.8927327722728
1.3552053023126,-88.5034354378236,-118.609069256697,-30.1056338188729,103.55625234726,-29.1989008094753,-74.3573515377848
1.35734961449981,-89.7689845388998,-118.567061695794,-28.7980771568946,104.168023117347,-30.4854536910026,-73.6825694263446
1.35949392668701,-88.1923655307463,-115.469015820605,-27.2766502898584,101.830690675675,-30.457857620444,-71.3728330552315
1.36163823887421,-84.8592771071714,-110.869394540073,-26.010117432902,97.8643358236224,-29.4245798371347,-68.4397559864877
1.36378255106142,-81.2710539746745,-106.683480509655,-25.4124265349803,93.9772672421647,-27.9293137198471,-66.0479535223176
1.36592686324862,-78.8529709013019,-104.555061657833,-25.7020907565316,91.7040162795677,-26.5754400723852,-65.1285762071825
1.36807117543582,-78.5200004212609,-105.354488531646,-26.834488110385,91.9372444764534,-25.842756155438,-66.0944883210155
1.37021548762303,-80.4416525698648,-108.963973121837,-28.5223205519719,94.7028128458507,-25.9596660089464,-68.7431468369043
1.37235979981023,-84.0624902604057,-114.390316283833,-30.3278260234271,99.2264032721193,-26.8673321184893,-72.3590711536299
1.37450411199743,-88.3394304880173,-120.128984449605,-31.789553961588,104.234207468811,-28.2749382632147,-75.9592692055966
1.37664842418464,-92.0881524904334,-124.629690493283,-32.5415380028495,108.358921491858,-29.773307243792,-78.5856142480663
1.37879273637184,-94.3102773008085,-126.703066888362,-32.3927895875535,110.506672094585,-30.9587438566275,-79.5479282379577
1.38093704855904,-94.4028856103948,-125.756409661347,-31.3535240509523,110.079647635871,-31.5246807797212,-78.5549668561497
1.38308136074625,-92.2147451904247,-121.827399256983,-29.612654066558,107.021072223704,-31.3010455619334,-75.7200266617703
1.38522567293345,-87.9783305226436,-115.462040937608,-27.4837104149645,101.720185730126,-30.2473100538396,-71.4728756762863
1.38736998512065,-82.1854249891609,-107.52565070065,-25.3402257114894,94.8555378449056,-28.4225996388358,-66.4329382060698
1.38951429730786,-75.4754510659349,-99.0305860109209,-23.555134944986,87.2530185384279,-25.9601580604745,-61.2928604779534
1.39165860949506,-68.5752307857828,-91.0232070971265,-22.4479763113437,79.7992189414547,-23.0636272372195,-56.7355917042351
1.39380292168227,-62.2823520750248,-84.521132846662,-22.2387807716372,73.4017424608434,-20.0217856516938,-53.3799568091496
1.39594723386947,-57.4443422674787,-80.4542928114441,-23.0099505439654,68.9493175394614,-17.2171958617566,-51.7321216777048
1.39809154605667,-54.8773722938126,-79.5577289279519,-24.6803566341393,67.2175506108823,-15.0985078298367,-52.1190427810456
1.40023585824388,-55.2028512451825,-82.2002404614107,-26.9973892162283,68.7015458532966,-14.1027310144771,-54.5988148388195
1.40238017043108,-58.641627070145,-88.1973176730451,-29.5556906029001,73.4194723715951,-14.5429682336224,-58.8765041379726
1.40452448261828,-64.8555963695621,-96.7079939654291,-31.8523975958671,80.7817951674956,-16.5015993868475,-64.2801957806481
1.40666879480549,-72.9303651878108,-106.311447597578,-33.3810824097672,89.6209063926944,-19.7746413890218,-69.8462650036726
1.40881310699269,-81.5415049287056,-115.292738287292,-33.751233358586,98.4171216079987,-23.8951357850598,-74.5219858229389
1.41095741917989,-89.2658352952528,-122.069552259966,-32.8037169647137,105.66769377761,-28.2310591652695,-77.4366346123401
1.4131017313671,-94.9322771693401,-125.613094804042,-30.6808176347021,110.272685986691,-32.125729767319,-78.1469562193721
1.4152460435543,-97.8888865265615,-125.69962832989,-27.8107418033286,111.794257428226,-35.0390723616164,-76.7551850666094
1.4173903557415,-98.0979947157789,-122.889808144188,-24.7918134284092,110.493901429983,-36.6530906436848,-73.8408107862986
1.41953466792871,-96.0383433718262,-118.245597581398,-22.2072542095715,107.141970476612,-36.9155445811274,-70.2264258954846
1.42167898011591,-92.4638467125871,-112.904868531575,-20.4410218189877,102.684357622081,-36.0114124467997,-66.6729451752813
1.42382329230311,-88.1194202449947,-107.689772999928,-19.5703527549333,97.9045966224614,-34.2745337450307,-63.6300628774307
1.42596760449032,-83.5253400001419,-102.902227119701,-19.3768871195593,93.2137835599216,-32.0742264402913,-61.1395571196303
1.42811191667752,-78.9046683830559,-98.3707284129755,-19.4660600299196,88.6376983980157,-29.7193041765681,-58.9183942214476
1.43025622886472,-74.2606320573712,-93.7018760621281,-19.4412440047569,83.9812540597497,-27.4096940263072,-56.5715600334425
1.43240054105193,-69.5487266430441,-88.6113521055072,-19.0626254624631,79.0800393742757,-25.2430505902905,-53.8369887839852
1.43454485323913,-64.8589759072347,-83.192638162272,-18.3336622550374,74.0258070347534,-23.2626568260987,-50.7631502086547
1.43668916542633,-60.5289356268209,-78.0191675928872,-17.4902319660664,69.2740516098541,-21.5193518303773,-47.7546997794768
1.43883347761354,-57.1352630417337,-74.037957803136,-16.9026947614023,65.5866104224349,-20.1162841401657,-45.4703262822691
1.44097778980074,-55.3510706049791,-72.2768582974762,-16.925787692497,63.8139644512276,-19.2126414562411,-44.6013229949866
1.44312210198795,-55.702568549058,-73.4452964700833,-17.7427279210253,64.5739325095707,-18.9799203140164,-45.5940121955543
1.44526641417515,-58.3033659816297,-77.5553364929871,-19.2519705113574,67.9293512373084,-19.5256977351362,-48.4036535021722
1.44741072636235,-62.6715727779297,-83.7111223009184,-21.0395495229888,73.191347539424,-20.8160116274705,-52.3753359119536
1.44955503854956,-67.7237899550308,-90.1872243493028,-22.463434394272,78.9555071521668,-22.6301777803794,-56.3253293717874
1.45169935073676,-71.9849609620018,-94.8291747957372,-22.8442138337355,83.4070678788695,-24.5703735641332,-58.8366943147363
1.45384366292396,-73.9731724756546,-95.6851474404187,-21.7119749647641,84.8291599580367,-26.1305987554453,-58.6985612025914
1.45598797511117,-72.6487200038532,-91.669512344501,-19.0207923406478,82.1591161741771,-26.8139638316027,-55.3451523425744
1.45813228729837,-67.784171320722,-83.0202357345832,-15.2360644138612,75.4022035276526,-26.2740534534304,-49.1281500742222
1.46027659948557,-60.1245005744841,-71.3647726199754,-11.2402720454913,65.7446365972297,-24.4421142644964,-41.3025223327334
1.46242091167278,-51.2591760906603,-59.3353183399671,-8.07614224930679,55.2972472153137,-21.5915169206768,-33.705730294637
1.46456522385998,-43.2128591059376,-49.8289251491622,-6.61606604322463,46.5208921275499,-18.2983965313565,-28.2224955961934
1.46670953604718,-37.8609347806448,-45.1385809561078,-7.27764617546298,41.4997578683763,-15.2916443025909,-26.2081135657854
1.46885384823439,-36.3569822767822,-46.2437068726784,-9.88672459589628,41.3003445747303,-13.2351288404429,-28.0652157342874
1.47099816042159,-38.7794884608005,-52.5140641110126,-13.7345756502121,45.6467762859066,-12.5224564052942,-33.1243198806124
1.47314247260879,-44.1392431295402,-61.946186521876,-17.8069433923358,53.0427148257081,-13.1661498686022,-39.8765649571059
1.475286784796,-50.7527227629968,-71.8542403660837,-21.1015176030868,61.3034815645402,-14.825602579955,-46.4778789845852
1.4774310969832,-56.8386282577493,-79.7577341957502,-22.9191059380009,68.2981812267497,-16.9597611598742,-51.3384200668756
1.4795754091704,-61.1053202649934,-84.1321578853509,-23.0268376203574,72.6187390751721,-19.039241322318,-53.5794977528542
1.48171972135761,-63.1078241640639,-84.7540103080664,-21.6461861440025,73.9309172360652,-20.7308190100307,-53.2000982260345
1.48386403354481,-63.2559294272294,-82.5463403831787,-19.2904109559493,72.9011349052041,-21.9827592356401,-50.918375669564
1.48600834573202,-62.5002924443163,-79.0323299663054,-16.532037521989,70.7663112053109,-22.9841274611637,-47.7821837441472
1.48815265791922,-61.8466354032766,-75.6454927479703,-13.7988573446937,68.7460640756235,-24.0238890292915,-44.722175046332
1.49029697010642,-61.9001311481098,-73.1740305227142,-11.2738993746044,67.537080835412,-25.3131158867527,-42.2239649486593
1.49244128229363,-62.6121587175747,-71.5354208799706,-8.9232621623959,67.0737897987727,-26.8444482775894,-40.2293415211833
1.49458559448083,-63.313741856552,-69.9323942046081,-6.61865234805609,66.6230680305801,-28.347544754248,-38.2755232763321
1.49672990666803,-63.0108998815811,-67.2965342597796,-4.28563437819846,65.1537170706804,-29.3626327516913,-35.791084318989
1.49887421885524,-60.8215201625988,-62.8295690419705,-2.00804887937167,61.8255446022846,-29.4067356416136,-32.4188089606711
1.50101853104244,-56.380758705038,-56.4270274989522,-0.0462687939142086,56.4038931019951,-28.1672449555619,-28.2366481464332
1.50316284322964,-50.0526422151121,-48.8166013647306,1.23604085038158,49.4346217899213,-25.6443415327469,-23.7902802571745
1.50530715541685,-42.8596647521292,-41.3511501141363,1.50851463799286,42.1054074331327,-22.184089695061,-19.9213177380717
1.50745146760405,-36.1526416730687,-35.5297390152451,0.622902657823573,35.8411903441569,-18.3877721654461,-17.4534181787108
1.50959577979125,-31.1447302039549,-32.4289960896851,-1.28426588573018,31.78686314682,-14.9302321591124,-16.8566309877076
1.51174009197846,-28.4851835046692,-32.2665242215605,-3.78134071689128,30.3758538631148,-12.3519213938889,-18.0239324692259
1.51388440416566,-28.0309575124255,-34.2694601460698,-6.23850263364428,31.1502088292477,-10.8962274393906,-20.2539813898571
1.51602871635286,-28.8956805289577,-36.9011952317127,-8.00551470275499,32.8984378803352,-10.4450829131014,-22.4533549672339
1.51817302854007,-29.7465450654951,-38.355854477091,-8.60930941159591,34.051199771293,-10.5686178269496,-23.4825819443434
1.52031734072727,-29.2249571507425,-37.1238225543807,-7.89886540363825,33.1743898525616,-10.6630458735521,-22.5113439790095
1.52246165291447,-26.3281222781623,-32.4099230777913,-6.08180079962902,29.3690226779768,-10.1231607392666,-19.2458619387102
1.52460596510168,-20.6230314753911,-24.2618945672921,-3.63886309190097,22.4424630213416,-8.49208419174507,-13.9503788295965
1.52675027728888,-12.2512814635294,-13.4055760807084,-1.15429461717892,12.8284287721189,-5.54849342317526,-7.27993534894363
1.52889458947608,-1.77716069646236,-0.913051052262028,0.864109644200328,1.34510587436219,-1.32063517033134,-0.0244707040308499
1.53103890166329,10.0118894216924,12.1142453273879,2.10235590569553,-11.0630673745401,3.95476675799842,7.10830061654171
1.53318321385049,22.2458670297355,24.7037603348241,2.4578933050886,-23.4748136822798,9.89398686232345,13.5808268199563
1.5353275260377,34.0021853535526,35.9728226957879,1.97063734223524,-34.9875040246703,16.0157740056587,18.9717300190116
1.5374718382249,44.2508231655455,44.9718779051339,0.721054739588361,-44.6113505353397,21.7648842129786,22.8464663223611
1.5396161504121,51.8020995388533,50.5632037269987,-1.23889581185455,-51.182651632926,26.5204976753539,24.6621539575721
1.54176046259931,55.3607353470261,51.4810623608004,-3.87967298622573,-53.4208988539133,29.6202041666259,23.8006946872873
1.54390477478651,53.7498196451974,46.6314017460848,-7.11841789911266,-50.1906106956411,30.4341187721551,19.7564919234861
1.54604908697371,46.2818454585073,35.5576700526371,-10.7241754058702,-40.9197577555722,28.5030104321888,12.4167473233834
1.54819339916092,33.1539603047046,18.882493152605,-14.2714671520995,-26.0182267286548,23.7127137284021,2.30551300025275
1.55033771134812,15.6835390406875,-1.50626016372624,-17.1897992044137,-7.08863943848062,16.4366691225506,-9.34802968406998
1.55248202353532,-3.77542248738926,-22.6851300640862,-18.9097075766969,13.2302762757377,7.56714254465384,-20.7974188203916
1.55462633572253,-22.281189939774,-41.3350799301478,-19.0538899903738,31.8081349349609,-1.61364997470013,-30.1944849602608
1.55677064790973,-37.0126042625399,-54.6060434226029,-17.593439160063,45.8093238425714,-9.70958255123846,-36.099741291333
1.55891496009693,-46.0158996039478,-60.9173062713136,-14.9014066673657,53.4666029376307,-15.557246468291,-37.9093564693397
1.56105927228414,-48.7446363980524,-60.4238539761364,-11.6792175780841,54.5842451870944,-18.5327094099842,-36.0515357771102
1.56320358447134,-46.2177848673317,-54.9972348719783,-8.77945000464668,50.607509869655,-18.7191674313425,-31.8883424383125
1.56534789665854,-40.7481219188091,-47.7286388666571,-6.98051694784803,44.2383803927331,-16.8838024854805,-27.3545779072526
1.56749220884575,-35.3239306154073,-42.1022427963989,-6.77831218099155,38.7130867059031,-14.2728092172079,-24.4402774886952
1.56963652103295,-32.8200692900277,-41.0696600283805,-8.24959073835285,36.9448646592041,-12.2852392758374,-24.6596253833667
1.57178083322015,-35.2521281896836,-46.2715792417244,-11.0194510520408,40.761853715704,-12.1163385688214,-28.6455151468826
1.57392514540736,-43.2695897753843,-57.6103534358998,-14.3407636605155,50.439971605642,-14.4644130574344,-35.9755585482076
1.57606945759456,-56.0166313145972,-73.2882992786538,-17.2716679640566,64.6524652966255,-19.3724816752703,-45.2799836213552
1.57821376978176,-71.3860517247943,-90.3012561268201,-18.9152044020259,80.8436539258072,-26.2354236613842,-54.608230264423
1.58035808196897,-86.5822042133427,-105.24479432425,-18.6625901109068,95.9134992687961,-33.9598070512179,-61.9536922175782
1.58250239415617,-98.83039671665,-115.200821001301,-16.3704242846509,107.015608858975,-41.2299862159996,-65.7856226429759
1.58464670634338,-106.047518278652,-118.463487675432,-12.4159693967806,112.255502977042,-46.8157744409356,-65.4397285361065
1.58679101853058,-107.320769042754,-114.933476360244,-7.61270731749043,111.127122701499,-49.8540308626316,-61.2730918388672
1.58893533071778,-103.10602455611,-106.119069602775,-3.01304504666489,104.612547079442,-50.0464897547225,-54.5660573247198
1.59107964290499,-95.1248180615902,-94.7799691006789,0.344848960911264,94.9523935811346,-47.7348335112507,-47.2175600698838
1.59322395509219,-85.9906705119377,-84.307978747972,1.68269176396572,85.1493246299549,-43.8366811379517,-41.3126434920031
1.59536826727939,-78.6340289125413,-77.9671854946983,0.666843417843012,78.3006072036198,-39.6504361651922,-38.6501710384276
1.5975125794666,-75.6309962432437,-78.1369249162727,-2.50592867302908,76.8839605797582,-36.5625337851073,-40.3214267946509
1.5996568916538,-78.572364712395,-85.7137606459024,-7.1413959335074,82.1430626791487,-35.7154843894438,-46.4275782897049
1.601801203841,-87.6206426843187,-99.8163085975433,-12.1956659132246,93.718475640931,-37.712488385547,-56.0059872553839
1.60394551602821,-101.380581080417,-117.888866792207,-16.5082857117898,109.634723936312,-42.4361476843137,-67.1985762519984
1.60608982821541,-117.15000937935,-136.218650162547,-19.0686407831976,126.684329770948,-49.040684298076,-77.6436454728724
1.60823414040261,-131.526657341322,-150.776321986427,-19.249664645105,141.151489663875,-56.1384963481086,-85.0129933157661
1.61037845258982,-141.239549070644,-158.185920269524,-16.9463711988794,149.712734670084,-62.1465889358824,-87.5661457342016
1.61252276477702,-143.987790629582,-156.571143102822,-12.5833524732405,150.279466866202,-65.7022190781706,-84.5772477880314
1.61466707696422,-139.049455773514,-146.045591977104,-6.99613620359096,142.547523875309,-66.0266597849613,-76.5208640903477
1.61681138915143,-127.487698751173,-128.715702240746,-1.22800348957371,128.101700495959,-63.1298476307994,-64.97185286516
1.61895570133863,-111.905838129553,-108.209083772424,3.69675435712955,110.057460950989,-57.8012962433415,-52.2561647076472
1.62110001352583,-95.835215534838,-88.870841493415,6.96437404142306,92.3530285141265,-51.3997947881305,-40.953233725996
1.62324432571304,-82.9315386730543,-74.8412626694414,8.09027600361289,78.8864006712479,-45.5109073383336,-33.3754933329143
1.62538863790024,-76.1883625345943,-69.2312152321072,6.95714730248717,72.7097888833508,-41.5727549185408,-31.13703396481
1.62753295008745,-77.355472244688,-73.5669139426126,3.78855830207537,75.4611930936503,-40.5720152733817,-34.8891778202686
1.62967726227465,-86.6841178137963,-87.6023446417297,-0.918226827933381,87.143231227763,-42.8829454929314,-44.2602857348315
1.63182157446185,-103.019626175426,-109.500022109312,-6.48039593388657,106.259824142369,-48.2696151207695,-57.9902090215993
1.63396588664906,-124.150295707053,-136.270453658973,-12.1201579519203,130.210374683013,-56.0150688775661,-74.1953058054466
1.63611019883626,-147.242838815754,-164.277149747004,-17.0343109312503,155.759994281379,-65.1042639422519,-90.6557303391274
1.63825451102346,-169.185801581451,-189.606909450351,-20.4211078689001,179.396355515901,-74.3823468562755,-105.014008659626
1.64039882321067,-186.730973935568,-208.194287003353,-21.4633130677848,197.46263046946,-82.6338304338916,-114.828800035569
1.64254313539787,-196.443126654118,-215.743140486953,-19.3000138328352,206.093133570535,-88.5715564106413,-117.521577159894
1.64468744758507,-194.589239397204,-207.634176318153,-13.0449369209481,201.111707857678,-90.7721512381281,-110.33955661955
1.64683175977228,-177.160480173303,-179.064761801912,-1.90428162860937,178.112620987608,-87.6280992723467,-90.4845217152608
1.64897607195948,-140.185873804017,-125.592649881425,14.5932239225926,132.889261842721,-77.389548863305,-55.4997129794161
1.65112038414668,-80.3762484086891,-44.0745557242314,36.3016926844577,62.2254020664602,-58.3389705465734,-3.88643151988682
1.65326469633389,4.01214762403171,66.2103082478489,62.1981606238172,-35.1112279359403,-29.0930064998928,64.2042344358331
1.65540900852109,112.313249150174,202.584090555364,90.2708414051892,-157.448669852769,11.0212038724926,146.427465980276
1.65755332070829,240.830868823605,358.462613086621,117.631744263015,-299.646740955113,61.599562280295,238.047178674818
1.6596976328955,382.655009814267,523.512251282858,140.857241468592,-453.083630548563,120.898884172838,332.184746375725
1.6618419450827,528.013447019819,684.50708406739,156.493637047571,-606.260265543605,185.759904986124,420.50036055748
1.6639862572699,665.161664118671,826.79625023821,161.63458611954,-745.978957178441,251.763538999566,494.215418178875
1.66613056945711,781.73188044681,936.206853367899,154.474972921089,-858.969366907355,313.62845376286,545.340913144494
1.66827488164431,866.382313251244,1001.12783749898,134.745524247732,-933.75507537511,365.818394501756,567.936680873354
1.67041919383151,910.505526954061,1014.43483089088,103.929303936821,-962.470178922471,403.28811150862,559.182067413851
1.67256350601872,909.691721015047,974.868497371342,65.1767763562949,-942.280109193194,422.257472329376,520.022636863818
1.67470781820592,864.635364597138,887.525272538585,22.8899079414471,-876.080318567862,420.872728327846,455.207590240016
1.67685213039313,781.244569930859,763.274817742804,-17.9697521880555,-772.259693836832,399.607161059457,372.652532777374
1.67899644258033,669.857961119238,617.144740989674,-52.7132201295633,-643.501351054456,361.2855906244,282.215760430056
1.68114075476753,543.663404580826,465.944068545892,-77.7193360349338,-504.803736563359,310.69137030788,194.112366255479
1.68328506695474,416.598529496746,325.573070242476,-91.0254592542692,-371.085799869611,253.811994375507,117.273805494104
1.68542937914194,301.143257819654,208.550305346807,-92.5929524728474,-254.84678158323,196.868105146251,57.9786764369797
1.68757369132914,206.45195554315,122.256842032,-84.1951135111494,-164.354398787575,145.32353452715,19.0308642604255
1.68971800351635,137.201860054502,68.2457644877921,-68.9560955667097,-102.723812271147,103.078977810606,-0.355165539458795
1.69186231570355,93.3665781552106,42.7150708689951,-50.6515072862155,-68.0408245121028,72.009042720713,-3.9682182086102
1.69400662789075,70.9019107484034,37.9604714317277,-32.9414393166756,-54.4311910900655,51.9216750325395,2.50951605752604
1.69615094007796,63.1220586582599,44.4043258765392,-18.7177327817207,-53.7631922673995,40.9198957199903,12.8432965474093
1.69829525226516,62.4075597545499,52.7083684331423,-9.69919132140757,-57.5579640938461,36.0533755379787,21.5045885558674
1.70043956445236,61.8509521071205,55.52913451841,-6.32181758871053,-58.6900433127652,34.0863848479155,24.6036584648497
1.70258387663957,56.5060402326649,48.6175546208551,-7.88848561180981,-52.56179742676,32.1972629222374,20.3645345045227
1.70472818882677,44.0322990713076,31.1354921685274,-12.8968069027802,-37.5838956199175,28.4645529870439,9.1193426328736
1.70687250101397,24.6800221590221,5.22424484680894,-19.4557773122131,-14.9521335029155,22.0678997356176,-7.11576623270209
1.70901681320118,0.710548540433247,-24.9987710792375,-25.7093196196707,12.1441112694021,13.209934080052,-25.3540453494541
1.71116112538838,-24.5387250769323,-54.7315745165559,-30.1928494396235,39.6351497967441,2.82706218134558,-42.4622119780897
1.71330543757558,-47.6760671004059,-79.7370349864663,-32.0609678860603,63.7065510434361,-7.8075496071728,-55.8990014362633
1.71544974976279,-66.1063204601519,-97.2563285667934,-31.1500081066414,81.6813245134726,-17.4781561767552,-64.2031683367174
1.71759406194999,-78.5293712133917,-106.409026378288,-27.8796551648961,92.4691987958398,-25.3248580242478,-67.1443407715919
1.71973837413719,-85.021661321658,-108.063832224502,-23.0421709028439,96.5427467730799,-30.9897452094071,-65.5530015636729
1.7218826863244,-86.7581948640469,-104.313824533684,-17.5556296696375,95.5360096988656,-34.6012825972047,-60.9347271016609
1.7240269985116,-85.5224067065889,-97.7750241606629,-12.252617454074,91.6487154336259,-36.6348946262574,-55.0138208073685
1.72617131069881,-83.1844553247689,-90.9281655395176,-7.74371021474875,87.0563104321432,-37.7203725550101,-49.3359378771332
1.72831562288601,-81.2999033892685,-85.6599349046605,-4.360031515392,83.4799191469645,-38.4699359369383,-45.0099832100263
1.73045993507321,-80.9056402447566,-83.0643472281677,-2.15870698341112,81.9849937364621,-39.3734666306727,-42.6115271057894
1.73260424726042,-82.500228310053,-83.4689361822621,-0.96870787220908,82.9845822461576,-40.765760218922,-42.2188220272356
1.73474855944762,-86.1307620312863,-86.5875124060286,-0.456750374742327,86.3591372186575,-42.837005828272,-43.5221313903855
1.73689287163482,-91.4960157840107,-91.696203709733,-0.200187925722332,91.5961097468719,-45.6479139291442,-45.9481958177277
1.73903718382203,-98.0143703897873,-97.7761290680966,0.238241321690751,97.8952497289419,-49.126305855739,-48.7689438732029
1.74118149600923,-104.862325256101,-103.62761170699,1.23471354911088,104.244968481545,-53.0485194026057,-51.1964490789394
1.74332580819643,-111.026874226754,-107.997265547729,3.02960867902483,109.512069887242,-57.0282414528895,-52.4838284343522
1.74547012038364,-115.41550084562,-109.752945632906,5.66255521271424,112.584223239263,-60.5390280291672,-52.0451952100958
1.74761443257084,-117.038593938269,-108.103092216627,8.93550172164259,112.570843077448,-62.987047829956,-49.5837952474921
1.74975874475804,-115.23814067924,-102.813734595711,12.4244060835287,109.025937637476,-63.8312733813844,-45.1946642560913
1.75190305694525,-109.900975945395,-94.3524741046638,15.5485018407307,102.126725025029,-62.7247388930626,-39.4019861319665
1.75404736913245,-101.579352219556,-83.8915730926148,17.6877791269416,92.7354626560856,-59.633565673249,-33.1018969828366
1.75619168131965,-91.454166075443,-73.1278479585967,18.3263181168463,82.2910070170198,-54.8902420961446,-27.4007649208752
1.75833599350686,-81.1162701317274,-63.9234332371013,17.1928368946261,72.5198516844144,-49.1545535131768,-23.3652981712376
1.76048030569406,-72.2006763411744,-57.8358004984829,14.3648758426915,65.0182384198287,-43.282776091933,-21.7354623278957
1.76262461788126,-65.9684063692049,-55.6674602516611,10.3009461175438,60.817933310433,-38.1346762433743,-22.6832570670586
1.76476893006847,-62.9641785346144,-57.1890857402113,5.77509279440306,60.0766321374129,-34.3696356645087,-25.7069964729041
1.76691324225567,-62.8649628058782,-61.1490851455747,1.71587766030344,62.0070239757264,-32.2904202330908,-29.7166037426356
1.76905755444288,-64.5757290912828,-65.5882879537049,-1.01255886242214,65.0820085224938,-31.7815851144303,-33.3004234080635
1.77120186663008,-66.5470231837659,-68.3726087635485,-1.82558557978257,67.4598159736572,-32.3607188019917,-35.0990971716655
1.77334617881728,-67.2181784348744,-67.7858931761932,-0.567714741318795,67.5020358055338,-33.3252318467778,-34.176803958756
1.77549049100449,-65.4569016520985,-63.012832313482,2.4440693386165,64.2348669827903,-33.9504854953575,-30.2843814874328
1.77763480319169,-60.8746561448443,-54.3802949694627,6.49436117538163,57.6274755571535,-33.684508660113,-23.9429668970405
1.77977911537889,-53.933590155889,-43.2915080748786,10.6420820810103,48.6125491153838,-32.2878361184496,-16.3247129969342
1.7819234275661,-45.8119188666335,-31.8631023703355,13.9488164962979,38.8375106184845,-29.8803676814657,-8.9571429370188
1.7840677397533,-38.0561389450062,-22.3519276832639,15.7042112617423,30.2040333141351,-26.8801751033743,-3.32385821076078
1.7862120519405,-32.1130912082446,-16.5247828708845,15.5883083373601,24.3189370395646,-23.8506997728024,-0.468237266762223
1.78835636412771,-28.8831264416709,-15.1550128870977,13.7281135545732,22.0190696643843,-21.3056199981221,-0.713449666262235
1.79050067631491,-28.4405812359848,-17.8014000002799,10.6391812357049,23.1209906181323,-19.5398812358449,-3.58110938228748
1.79264498850211,-30.0150722796614,-22.9372469472813,7.07782533238008,26.4761596134713,-18.5464488060207,-7.92971080745061
1.79478930068932,-32.2341238320968,-28.3828065926394,3.85131723945737,30.3084652123681,-18.0427205357771,-12.265744676591
1.79693361287652,-33.5376967238689,-31.8995398195913,1.63815690427759,32.7186182717301,-17.5879268140732,-15.1306914576569
1.79907792506372,-32.6272332702682,-31.7674389397345,0.85979433053371,32.1973361050013,-16.743513800401,-15.4538223046004
1.80122223725093,-28.8169961662202,-27.1945441217748,1.62245204444545,28.0057701439975,-15.2197241053329,-12.7860460386647
1.80336654943813,-22.1999443199416,-18.4758811259471,3.72406319399447,20.3379127229444,-12.962003756968,-7.37590896597633
1.80551086162533,-13.601130859193,-6.89040739025858,6.71072346893445,10.2457691247258,-10.1559271640637,-0.0898419606620662
1.80765517381254,-4.34802360618051,5.62218121062549,9.970204816806,-0.637078802222486,-7.15911421149326,7.79619301371574
1.80979948599974,4.07292787360337,16.9272174107276,12.8542895371242,-10.5000726421655,-4.39068083176043,14.8907534739259
1.81194379818694,10.3831709759321,25.1996064956007,14.8164355196686,-17.7913887357664,-2.21663227186828,20.0080210076347
1.81408811037415,13.809030438506,29.3466953774068,15.5376649389008,-21.5778629079564,-0.86431725019742,22.4421801581538
1.81623242256135,14.2335166918503,29.2368501618084,15.0033334699581,-21.7351834268293,-0.384908389053926,22.1200918158832
1.81837673474856,12.1703859348877,25.6713527316598,13.5009667967722,-18.9208693332738,-0.665290430942262,19.586159764216
1.82052104693576,8.58667568046839,20.1235354026823,11.5368597222139,-14.3551055415753,-1.47509202087276,15.8301975624481
1.82266535912296,4.65069185829583,14.3509635116734,9.70027165337756,-9.50082768498461,-2.52478989754087,12.0256175825255
1.82480967131017,1.49793228347646,10.0173071349423,8.51937485146581,-5.75761970920936,-3.51072128399468,9.26834099320403
1.82695398349737,0.0774444656010216,8.42607977970793,8.3486353141069,-4.25176212265447,-4.13559542425294,8.38735754690742
1.82909829568457,1.08466519145439,10.3966080216226,9.31194283016817,-5.74063660653848,-4.11363881935689,9.85427542589537
1.83124260787178,4.94241435715236,16.2499920170929,11.3075776599406,-10.5962031871226,-3.18258165139411,13.7787848385168
1.83338692005898,11.787683213182,25.8511377224858,14.0634545093038,-18.8194104678339,-1.1378856480609,19.9572961158948
1.83553123224618,21.4522693303427,38.6702077581864,17.2179384278437,-30.0612385442645,2.11716545124948,27.9440730930151
1.83767554443339,33.456809071738,53.8553352183117,20.3985261465737,-43.6560721450248,6.52914146258214,37.1269306824427
1.83981985662059,47.0421338505652,70.3212800830225,23.2791462324573,-58.6817069667938,11.8814938090539,46.8002131577399
1.84196416880779,61.2415694240157,86.850901164929,25.6093317409132,-74.0462352944724,17.8161188415513,56.2301164529211
1.844108480995,74.977516547834,102.19417736465,27.2166608168164,-88.5858469562422,23.8804278655088,64.7054190907334
1.8462527931822,87.1634633448818,115.153059790048,27.9895964451658,-101.158261567465,29.586933449858,71.5713281176068
1.8483971053694,96.8056638565768,124.663418149414,27.8577542928371,-110.734541002995,34.4739547818699,76.2605862211255
1.85054141755661,103.112923612457,129.907673750311,26.7947501378542,-116.510298681384,38.1590867373015,78.3512119440827
1.85268572974381,105.625599900725,130.48465367101,24.8590537702852,-118.055126785868,40.3832730652198,77.6718537206477
1.85483004193101,104.359007047938,126.617027117696,22.2580200697576,-115.488017082817,41.0504934890903,74.4375235937267
1.85697435411822,99.9245197371468,119.314292394266,19.389772657119,-109.619406065706,40.2673735400139,69.3520325256924
1.85911866630542,93.562177485361,110.375099512598,16.8129220272374,-101.96863849898,38.3746277290618,63.5940107699179
1.86126297849262,87.0195566887453,102.144782620694,15.1252259319486,-94.5821696547196,35.9471653783983,58.6350042763213
1.86340729067983,82.2576146166057,97.0418383190269,14.7842237024212,-89.6497264678163,33.7366954570923,55.9130310107241
1.86555160286703,81.0374310680171,96.9805823367075,15.9431512686904,-89.0090067023623,32.5471398996633,56.4618668026989
1.86769591505424,84.5015576204295,102.878052389116,18.3764947686865,-93.6898050047727,33.0625314258715,60.6272735789012
1.86984022724144,92.8762187852301,114.40627201708,21.5300532318503,-103.641245401155,35.6730827766899,67.9681626244654
1.87198453942864,105.381703438205,130.057270205804,24.6755667675989,-117.719486822005,40.3530683353031,77.3664184867015
1.87412885161585,120.372674281083,147.483102203717,27.1104279226342,-133.9278882424,46.6311231792243,87.2967650631756
1.87627316380305,135.67046814731,164.004399171771,28.3339310244612,-149.837433659541,53.6682685614246,96.1691650981163
1.87841747599025,149.011921621794,177.161899047404,28.14997742561,-163.086910334599,60.4309720980919,102.655938236507
1.88056178817746,158.519430660867,185.198891851873,26.6794611910058,-171.85916125637,65.9199847349308,105.93917652144
1.88270610036466,163.088775790456,187.385585790077,24.2968099996204,-175.237180790267,69.3959828954181,105.841197894849
1.88485041255186,162.600909823455,184.121282425475,21.5203726020193,-173.361096124465,70.540268610718,102.820827513747
1.88699472473907,157.901564160745,176.787486279392,18.885922118647,-167.344525220069,69.507821021049,97.8367041990195
1.88913903692627,150.555893892831,167.384160879677,16.8282669868467,-158.970027386254,66.863813452992,92.106213933262
1.89128334911347,142.452628653236,158.045879093404,15.5932504401684,-150.24925387332,63.4296891065337,86.8195647667863
1.89342766130068,135.371582979584,150.568397065922,15.1968140863372,-142.969990022753,60.0873844466236,82.8826055761294
1.89557197348788,130.622239353638,146.060389201843,15.4381498482045,-138.34131427774,57.5920447527168,80.7492695250236
1.89771628567508,128.822068627012,144.786734484406,15.9646658573945,-136.804401555709,56.4287013848086,80.3757001709003
1.89986059786229,129.840440968381,146.217479449215,16.3770384808348,-138.028960208798,56.7317012437729,81.2972589650251
1.90200491004949,132.903295781521,149.252164779179,16.3488689976571,-141.07773028035,58.2772133919322,82.8005168884178
1.90414922223669,136.828295861021,152.551271962601,15.7229761015808,-144.689783911811,60.5526598797199,84.1371240320911
1.9062935344239,140.330668831156,154.880043686618,14.5493748554618,-147.605356258887,62.890646987847,84.7147092710398
1.9084378466111,142.315155686307,155.367546573134,13.0523908868263,-148.841351129721,64.6313823997406,84.2099687299801
1.91058215879831,142.070106847226,153.612534143285,11.5424272960584,-147.841320495255,65.2638397755839,82.5774807196715
1.91272647098551,139.315682483174,149.622033071505,10.3063505883303,-144.46885777734,64.5046659474221,79.9641918299176
1.91487078317271,134.116547556485,143.631520058577,9.51497250209275,-138.874033807531,62.300787527196,76.5732462803351
1.91701509535992,126.721801060333,135.899659271907,9.17785821157429,-131.31073016612,58.7719714243793,72.5387587417407
1.91915940754712,117.413992941875,126.570639306369,9.15664636449473,-121.992316124122,54.1286732886899,67.863642835432
1.92130371973432,106.427099528758,115.652094846424,9.22499531766532,-111.039597187591,48.6010521055465,62.4385450820445
1.92344803192153,93.9471742293178,103.094136966441,9.14696273712333,-98.5206555978795,42.4001057460972,56.1205498517822
1.92559234410873,80.1669216928439,88.9109201452638,8.74399845241992,-84.5389209190539,35.711461620212,48.8274592988419
1.92773665629593,65.3463968577534,73.2800212531779,7.93362439542445,-69.3132090554657,28.7063862311645,40.6068228243012
1.92988096848314,49.8410475456895,56.5812755038388,6.74022795814935,-53.2111615247641,21.5504097937701,31.6607517309941
1.93202528067034,34.0866104299839,39.3733779246764,5.2867674946925,-36.7299941773302,14.3999214676457,22.3300727096845
1.93416959285754,18.5583797022941,22.3308133352971,3.77243363300302,-20.4445965187956,7.39297303464554,13.0516234841501
1.93631390504475,3.72982546566673,6.16565413849278,2.43582867282605,-4.94773980207976,0.646998396420339,4.30074140565942
1.93845821723195,-9.96056520980654,-8.45453309549164,1.5060321143149,9.20754915264909,-5.73329866206072,-3.47425049058837
1.94060252941915,-22.1450244133487,-20.9926412620336,1.15238315131513,21.5688328376912,-11.6487037823319,-9.92012905535924
1.94274684160636,-32.576066473399,-31.1283132304563,1.44775324294265,31.8521898519276,-17.0119098581708,-14.8402799937568
1.94489115379356,-41.1822962892766,-38.8273520533924,2.35494423588419,40.0048241713345,-21.7686202625804,-18.2362039087541
1.94703546598076,-48.1059594397522,-44.3691917009198,3.73676773883236,46.237575570336,-25.9213635892923,-20.3162119810437
1.94917977816797,-53.699510693259,-48.3150028781766,5.38450781508243,51.0072567857178,-29.5420092541707,-21.4652475315471
1.95132409035517,-58.4759229595379,-51.4176842180295,7.05823874150838,54.9468035887837,-32.7670808505231,-22.1797227382606
1.95346840254237,-63.0262347608454,-54.4936489413055,8.53258581953981,58.7599418510755,-35.7794102901926,-22.9805315608829
1.95561271472958,-67.9260737016025,-58.2858396276941,9.64023407390837,63.1059566646483,-38.7831538877554,-24.3228027768929
1.95775702691678,-73.647954955162,-63.3451777940565,10.3027771611055,68.4965663746092,-41.9753660581338,-26.5212003164755
1.95990133910399,-80.4866558703438,-69.9489603782586,10.5376954920851,75.2178081243012,-45.5121756812145,-29.7056324430868
1.96204565129119,-88.5036211619804,-78.0670830640301,10.4365380979503,83.2853521130052,-49.4700796299653,-33.8152724830399
1.96418996347839,-97.5040540835985,-87.3811845369492,10.1228695466493,92.4426193102738,-53.8134618151239,-38.62915749515
1.9663342756656,-107.062839710775,-97.3517737488031,9.71106596197218,102.207306729789,-58.3869528363737,-43.8203538934155
1.9684785878528,-116.602075501551,-107.313240521468,9.28883498008328,111.95765801151,-62.9454552408172,-49.0122027706923
1.97062290004,-125.501534213959,-116.569425672978,8.93210854098044,121.035479943469,-67.2168213774697,-53.818658565999
1.97276721222721,-133.210929337858,-124.475611198209,8.7353181396485,128.843270268033,-70.9731237387531,-57.8701465292804
1.97491152441441,-139.338101413658,-130.514554117863,8.82354729579512,134.926327765761,-74.0808243547268,-60.8455034110341
1.97705583660161,-143.703508851901,-134.376836559471,9.32667229243003,139.040172705686,-76.5150905721655,-62.5250821335204
1.97920014878882,-146.363063529295,-136.032616286165,10.3304472431301,141.19783990773,-78.3467553862124,-62.8510845215173
1.98134446097602,-147.599077968415,-135.758383974834,11.8406939935811,141.678730971625,-79.7198859809983,-61.9588449906266
1.98348877316322,-147.87030662291,-134.085636234101,13.784670388809,140.977971428505,-80.8274885058593,-60.1504829226459
1.98563308535043,-147.713049725587,-131.668855849122,16.0441938764653,139.690952787354,-81.8786218010261,-57.8123309863281
1.98777739753763,-147.60306139936,-129.107916205691,18.4951451936691,138.355488802526,-83.0491032965147,-55.306385506011
1.98992170972483,-147.813595126279,-126.785623284677,21.0279718416026,137.299609205478,-84.420783483941,-52.8788257215372
1.99206602191204,-148.322118479798,-124.783503986209,23.5386144935885,136.552811233004,-85.9303664866933,-50.6224447463105
1.99421033409924,-148.812917946341,-122.913529808421,25.89938813792,135.863223877381,-87.3561530421306,-48.5070708352507
1.99635464628644,-148.789498022948,-120.855490250016,27.9340077729317,134.822494136482,-88.3617528979399,-46.4607412385423
1.99849895847365,-147.761456707331,-118.33995666646,29.421500040871,133.050706686896,-88.5914783741011,-44.4592283127946
2.00064327066085,-145.433413683572,-115.294245810578,30.1391678729947,130.363829747075,-87.7862907782836,-42.5775389687915
2.00278758284805,-141.821534668949,-111.888917610324,29.9326170586254,126.855226139637,-85.8770758637874,-40.9781502758493
2.00493189503526,-137.25637409579,-108.472162019973,28.784212075817,122.864268057882,-83.0202930858036,-39.8439749720781
2.00707620722246,-132.27998037412,-105.429583503565,26.8503968705548,118.854781938843,-79.5651886223374,-39.2895933165052
2.00922051940967,-127.486099441299,-103.035397908571,24.4507015327273,115.260748674935,-75.9684004870129,-39.292348187922
2.01136483159687,-123.367423571644,-101.360680085618,22.0067434860257,112.364051828631,-72.6870835288349,-39.6769682997964
2.01350914378407,-120.220186030935,-100.276217457513,19.9439685734216,110.248201744224,-70.0820773021783,-40.1661244420459
2.01565345597128,-118.125369597657,-99.541806844358,18.5835627532991,108.833588221008,-68.3544661754781,-40.4791220455295
2.01779776815848,-116.994601978184,-98.9335294416134,18.0610725365701,107.964065709898,-67.5278372573768,-40.4362284525217
2.01994208034568,-116.650033028375,-98.3497753093863,18.3002577189891,107.499904168881,-67.4751453736822,-40.0247587951986
2.02208639253289,-116.903914417018,-97.857534080798,19.0463803362202,107.380724248908,-67.9751473766192,-39.4055768722889
2.02423070472009,-117.610717756346,-97.6699588690669,19.9407588872788,107.640338312706,-68.7757383218123,-38.864599990894
2.02637501690729,-118.67673259231,-98.0639520007894,20.6127805915205,108.37034229655,-69.6447565919152,-38.7255857046344
2.0285193290945,-120.026121407209,-99.2547175117063,20.7714038955028,109.640419459458,-70.3987626513559,-39.2416568081018
2.0306636412817,-121.537852666772,-101.256155539701,20.2816971270715,111.397004103236,-70.9097748969218,-40.4872292063146
2.0328079534689,-122.983497092542,-103.77435160605,19.2091454864924,113.378924349296,-71.0963212895174,-42.2826030597788
2.03495226565611,-124.004812430477,-106.192894982587,17.8119174478903,115.098853706532,-70.9083649391838,-44.1904887673484
2.03709657784331,-124.161885817317,-107.693360850499,16.468524966818,115.927623333908,-70.3152053920676,-45.6124179418406
2.03924089003051,-123.05464885988,-107.50304230476,15.55160655512,115.27884558232,-69.3031277075001,-45.9757178748201
2.04138520221772,-120.484636274543,-105.194155846869,15.2904804276736,112.839396060706,-67.8875583511082,-44.9518377095977
2.04352951440492,-116.597209807303,-100.915610722622,15.6815990846806,108.756410264962,-66.1394044459916,-42.6170058189707
2.04567382659212,-111.938673519854,-95.4504383288511,16.4882351910024,103.694555924352,-64.213454355428,-39.4811015689243
2.04781813877933,-107.382858854844,-90.0548873593776,17.3279714954665,98.7188731071108,-62.3554151751553,-36.3634579319556
2.04996245096653,-103.926869592558,-86.1189132524425,17.8079563401155,95.0228914225002,-60.8674129663367,-34.1554784561635
2.05210676315374,-102.412454814232,-84.7573162706327,17.6551385435996,93.5848855424325,-60.0337966789159,-33.5510888635166
2.05425107534094,-103.270469357407,-86.4692005330429,16.8012688243644,94.8698349452251,-60.0358690908859,-34.8339658543392
2.05639538752814,-106.384062223142,-90.9794412709582,15.404620952184,98.6817517470502,-60.8943415876631,-37.7874101593871
2.05853969971535,-111.11823219086,-97.3090328380993,13.8091993527608,104.21363251448,-62.4637157718105,-41.7499167426693
2.06068401190255,-116.496430886969,-104.040859484051,12.4555714029178,110.26864518551,-64.4760011449433,-45.7926440405666
2.06282832408975,-121.455636912086,-109.688832654762,11.7668042573237,115.572234783424,-66.6112205847046,-48.9610141987191
2.06497263627696,-125.097885021732,-113.060653273216,12.0372317485158,119.079269147474,-68.5675583851237,-50.51171076235
2.06711694846416,-126.871460655778,-113.521426274723,13.3500343810546,120.196443465251,-70.1107475184164,-50.0856959468344
2.06926126065136,-126.642004410558,-111.098109443268,15.5438949672898,118.870056926913,-71.092949688924,-47.7771072379893
2.07140557283857,-124.642987578834,-106.401400601031,18.2415869778032,115.522194089932,-71.4422872783185,-44.0799068116138
2.07354988502577,-121.325869783129,-100.384406182449,20.9414636006797,110.855137982789,-71.1336666919044,-39.7214712908849
2.07569419721297,-117.161451044507,-94.0094419171537,23.152009127353,105.58544648083,-70.1567300859298,-35.4287163949004
2.07783850940018,-112.466477591412,-87.9394490259201,24.5270285654916,100.202963308666,-68.4967530784516,-31.7062102302143
2.07998282158738,-107.328677384918,-82.3761706378865,24.9525067470319,94.8524240114025,-66.1405920659752,-28.7118319454273
2.08212713377458,-101.668014140995,-77.1139197289853,24.5540944120101,89.3909669349904,-63.1110542765027,-26.2799126584876
2.08427144596179,-95.4089657263074,-71.7825988497632,23.6263668765442,83.5957822880353,-59.5176663014258,-24.0781159866095
2.08641575814899,-88.6786443639369,-66.1641933985533,22.5144509653836,77.4214188812451,-55.5965476646602,-21.8248712165849
2.08856007033619,-81.925445973145,-60.4318919051784,21.4935540679665,71.1786689391617,-51.7095000205558,-19.469168918606
2.0907043825234,-75.8870268501186,-55.1982001969263,20.6888266531923,65.5426135235225,-48.2879267516555,-17.254686771867
2.0928486947106,-71.4054861476738,-51.3448118698155,20.0606742778583,61.3751490087447,-45.7330802127661,-15.6420687959786
2.0949930068978,-69.1547881111364,-49.6987008119509,19.4560872991855,59.4267444615436,-44.305437705161,-15.1213067563827
2.09713731908501,-69.3816286202543,-50.680215377058,18.7014132431963,60.0309219986561,-44.0415209317253,-15.9894010669308
2.09928163127221,-71.7578990375302,-54.0633184427345,17.6945805947957,62.9106087401324,-44.726239816163,-18.1843689239694
2.10142594345942,-75.4082997752413,-58.9537877796967,16.4545119955446,67.181043777469,-45.9314058853929,-21.2496378920761
