t,ecgI,ecgII,leadIII_f,aVR_f,aVL_f,aVF_f
0,-20.6166478806235,-13.7374144420757,6.87923343854785,17.1770311613496,-13.7479406595857,-3.42909050176392
0.00214431218720349,-115.176042835664,-22.9462789592051,92.2297638764586,69.0611608974344,-103.702903356061,34.6417424586268
0.00428862437440697,-203.615035190038,-32.6489451920545,170.966089997984,118.131990191046,-187.290562594011,69.1585724029647
0.00643293656161045,-280.899714488001,-43.251126049421,237.64858843858,162.075420268711,-259.274151463291,97.1987311945797
0.00857724874881394,-344.058100699765,-54.9054050220059,289.152695677759,199.481752860885,-316.605398188762,117.123645327876
0.0107215609360174,-392.396649280902,-67.3739745935525,325.02267468735,229.885311937227,-358.709661984126,128.824350046899
0.0128658731232209,-427.096495304094,-79.9577258518286,347.138769452265,253.527110577961,-387.11763237818,133.590521800218
0.0150101853104244,-450.446481860486,-91.5622846618453,358.88419719864,271.004383261165,-404.665339529563,133.660956268398
0.0171544974976279,-465.054525189857,-100.936147404523,364.118377785334,282.99533629719,-414.586451487595,131.591115190406
0.0192988096848314,-473.30786738947,-107.044566531074,366.263300858396,290.176216960272,-419.785584123933,129.609367163661
0.0214431218720348,-477.182048000129,-109.464656460609,367.717391539519,293.323352230369,-422.449719769824,129.126367539455
0.0235874340592383,-478.317001180829,-108.642152529887,369.674848650942,293.479576855358,-423.995924915886,130.516348060527
0.0257317462464418,-478.171689586886,-105.874108150897,372.297581435989,292.022898868892,-425.234635511438,133.211736642546
0.0278760584336453,-478.078889579191,-102.981214723411,375.09767485578,290.530052151301,-426.588282217486,136.058230066185
0.0300203706208488,-479.128677062784,-101.767585016796,377.361092045988,290.44813103979,-428.244884554386,137.796753514596
0.0321646828080523,-481.943818275861,-103.463936278784,378.479881997077,292.703877277323,-430.211850136469,137.507972859147
0.0343089949952558,-486.495602055797,-108.360006802598,378.135595253199,297.427804429197,-432.315598654498,134.8877942253
0.0364533071824592,-492.099906545777,-115.752905922995,376.347000622783,303.926406234386,-434.22345358428,130.297047349894
0.0385976193696627,-497.64006718601,-124.212022613484,373.428044572526,310.926044899747,-435.534055879268,124.608010979521
0.0407419315568662,-501.942811745323,-132.04622108359,369.896590661734,316.994516414456,-435.919701203528,118.925184789072
0.0428862437440697,-504.155853784047,-137.802238370214,366.353615413833,320.979046077131,-435.25473459894,114.275688521809
0.0450305559312732,-503.980307234692,-140.637720110169,363.342587124523,322.30901367243,-433.661447179607,111.352433507177
0.0471748681184767,-501.687614696324,-140.476248548583,361.21136614774,321.081931622453,-431.449490422032,110.367558799578
0.0493191803056802,-497.950216529414,-137.929828390203,360.020388139211,317.940022459808,-428.985302334312,111.045279874504
0.0514634924928836,-493.582243795358,-134.040090044692,359.542153750666,313.811166920025,-426.562198773012,112.751031852987
0.0536078046800871,-489.294235843181,-129.931413293454,359.362822549728,309.612824568317,-424.328529196455,114.715704628137
0.0557521168672906,-485.529338394839,-126.484857181726,359.044481213113,306.007097788283,-422.286909803977,116.279812015694
0.0578964290544941,-482.404022571085,-124.129896088596,358.274126482489,303.26695932984,-420.339074526787,117.072115196947
0.0600407412416976,-479.748343137295,-122.811235898811,356.937107238484,301.279789518053,-418.34272518789,117.062935669836
0.0621850534289011,-477.226987592768,-122.128331564442,355.098656028326,299.677659578605,-416.162821810547,116.485162231942
0.0643293656161045,-474.508049550747,-121.584552845678,352.923496705069,298.046301198213,-413.715773127908,115.669471929695
0.066473677803308,-471.428208240862,-120.845141428257,350.583066812605,296.13667483456,-411.005637526733,114.868962692174
0.0686179899905115,-468.095902979082,-119.905497249489,348.190405729593,294.000700114286,-408.143154354338,114.142454240052
0.070762302177715,-464.892311255259,-119.112218770604,345.780092484656,292.002265012932,-405.336201869958,113.333936857026
0.0729066143649185,-462.366870321622,-119.036823639991,343.330046681631,290.701846980807,-402.848458501627,112.14661152082
0.075050926552122,-461.059799243213,-120.251165120188,340.808634123026,290.655482181701,-400.934216683119,110.278734501419
0.0771952387393255,-461.306551512667,-123.082816877002,338.223734635665,292.194684194835,-399.765143074166,107.570458879331
0.0793395509265289,-463.08774837843,-127.436570965816,335.651177412614,295.262159672122,-399.369462895522,104.107303223399
0.0814838631137324,-465.980110164069,-132.75012408442,333.229986079649,299.365117124245,-399.605048121859,100.239930997614
0.0836281753009359,-469.231758734717,-138.103974820504,331.127783914213,303.66786677761,-400.179771324465,96.5119045468546
0.0857724874881394,-471.93421907646,-142.44171702106,329.4925020554,307.18796804876,-400.71336056593,93.5253925171697
0.0879167996753429,-473.221431889613,-144.812244916918,328.409186972695,309.016838403265,-400.815309431154,91.7984710278886
0.0900611118625464,-472.423636194319,-144.550122986775,327.873513207545,308.486879590547,-400.148574700932,91.6616951103851
0.0922054240497499,-469.142848882883,-141.36055121756,327.782297665324,305.251700050222,-398.462573274104,93.210873223882
0.0943497362369533,-463.265780037554,-135.331238896356,327.934541141198,299.298509466955,-395.600160589376,96.301651122421
0.0964940484241568,-454.954129628573,-126.91262399042,328.041505638153,290.933376809497,-391.497817633363,100.564440823866
0.0986383606113603,-444.640088740357,-116.883342572529,327.756746167828,280.761715656443,-386.198417454093,105.43670179765
0.100782672798564,-433.021908210387,-106.281470573338,326.740437637048,269.651689391863,-379.881172923717,110.229483531855
0.102926984985767,-421.026888601873,-96.2713734823247,324.755515119548,258.649131042099,-372.89120186071,114.242070818612
0.105071297172971,-409.707677587793,-87.943431000712,321.764246587081,248.825554294252,-365.735962087437,116.910407793184
0.107215609360174,-400.066469950531,-82.0910237333842,317.975446217146,241.078746841957,-359.020958083839,117.942211241881
0.109359921547378,-392.845108199601,-79.0410194342106,313.80408876539,235.943063816906,-353.324598482495,117.38153466559
0.111504233734581,-388.350612709737,-78.6042867097602,309.746325999977,233.477449709749,-349.048469354857,115.571019645108
0.113648545921785,-386.385339619184,-80.1649606289468,306.220378990238,233.275150124066,-346.302859304711,113.027709180645
0.115792858108988,-386.317637404108,-82.8720104361695,303.445626967938,234.594823920139,-344.881632186023,110.286808265884
0.117937170296192,-387.277598692536,-85.8664444322464,301.41115426029,236.572021562391,-344.344376476413,107.772354914022
0.120081482483395,-388.414748956101,-88.4810765936574,299.933672362444,238.447912774879,-344.174210659272,105.726297884393
0.122225794670599,-389.130235381719,-90.3706964745113,298.759538907207,239.750465928115,-343.944887144463,104.194421216348
0.124370106857802,-389.206199555372,-91.5492106450211,297.656988910351,240.377705100197,-343.431594232862,103.053889132665
0.126514419045006,-388.79582549444,-92.3263115831727,296.469513911267,240.561068538806,-342.632669702853,102.071601164047
0.128658731232209,-388.292108446829,-93.1617663997258,295.130342047104,240.726937423278,-341.711225246966,100.984287823689
0.130803043419413,-388.137702250539,-94.4883768049396,293.649325445599,241.313039527739,-340.893513848069,99.5804743203297
0.132947355606616,-388.651366484165,-96.5707878475461,292.080578636619,242.611077165856,-340.365972560392,97.7548953945364
0.13509166779382,-389.925042183705,-99.4468193172469,290.478222866458,244.685930750476,-340.201632525081,95.5157017746055
0.137235979981023,-391.807254670649,-102.950867598654,288.856387071995,247.379061134652,-340.331820871322,92.9527597366705
0.139380292168227,-393.955758578554,-106.778306883594,287.17745169496,250.367032731074,-340.566605136757,90.199572405683
0.14152460435543,-395.924853162763,-110.543493795643,285.38135936712,253.234173479203,-340.653106264942,87.4189327857386
0.143668916542634,-397.250673444681,-113.811291352296,283.439382092385,255.530982398489,-340.345027768533,84.8140453700444
0.145813228729837,-397.510979383076,-116.116770964417,281.394208418659,256.813875173747,-339.452593900867,82.6387187271206
0.14795754091704,-396.360778288427,-117.00454719123,279.356231097197,256.682662739828,-337.858504692812,81.1758419529838
0.150101853104244,-393.567055445696,-116.1121054282,277.454950017496,254.839580436948,-335.511002731596,80.6714222946482
0.152246165291447,-389.067234113422,-113.296685605862,275.770548507559,251.181959859642,-332.41889131049,81.2369314508483
0.154390477478651,-383.05090339055,-108.770304668567,274.280598721983,245.910604029558,-328.665751056266,82.7551470267082
0.156534789665854,-376.026227333798,-103.176583625423,272.849643708375,239.601405479611,-324.437935521087,84.836530041476
0.158679101853058,-368.809929484481,-97.5411479519546,271.268781532526,233.175538718218,-320.039355508503,86.8638167902857
0.160823414040261,-362.399239930166,-93.0708963872938,269.328343542872,227.73506815873,-315.863791736519,88.128723577789
0.162967726227465,-357.743428822381,-90.8494274843788,266.894001338002,224.29642815338,-312.318715080192,88.0222869268118
0.165112038414668,-355.493020426009,-91.5324067044728,263.960613721537,223.512713565241,-309.726817073773,86.2141035085319
0.167256350601872,-355.82225146697,-95.1516920499316,260.670559417039,225.486971758451,-308.246405442005,82.7594336835535
0.169400662789075,-358.384597599433,-101.08972491392,257.294872685512,229.737161256676,-307.839735142472,78.102573885796
0.171544974976279,-362.401187627342,-108.218394844362,254.18279278298,235.309791235852,-308.291990205161,72.9821989693092
0.173689287163482,-366.836192080885,-115.148066066284,251.688126014601,240.992129073584,-309.262159047743,68.2700299741584
0.175833599350686,-370.600882150602,-120.518230678323,250.082651472278,245.559556414463,-310.34176681144,64.7822103969776
0.177977911537889,-372.742469545653,-123.270025827101,249.472443718551,248.006247686377,-311.107456632102,63.101208945725
0.180122223725093,-372.595357374224,-122.85500702018,249.740350354043,247.725182197202,-311.167853864134,63.4426716669315
0.182266535912296,-369.885315887284,-119.346070854135,250.53924503315,244.615693370709,-310.212280460217,65.5965870895075
0.1844108480995,-364.779337070864,-113.427440853997,251.351896216867,239.10338896243,-308.065616643865,68.9622276814348
0.186555160286703,-357.872576882206,-106.257739254395,251.614837627811,232.0651580683,-304.743707255008,72.6785491867082
0.188699472473907,-350.10375931948,-99.2262510086232,250.877508310857,224.665005164052,-300.490633815168,75.8256286511167
0.19084378466111,-342.594468784219,-93.650461874612,248.944006909607,218.122465329415,-295.769237846913,77.6467725174974
0.192988096848314,-336.422909764181,-90.4805774874859,245.942332276695,213.451743625834,-291.182621020438,77.7308773946047
0.195132409035517,-332.371663450102,-90.07835729155,242.293306158552,211.225010370826,-287.332484804327,76.107474433501
0.197276721222721,-330.717194058032,-92.1256241946694,238.591569863362,211.421409126351,-284.654381960697,73.2329728343464
0.199421033409924,-331.133886011639,-95.6936302552383,235.440255756401,213.413758133439,-283.28707088402,69.8733127505813
0.201565345597128,-332.757209490623,-99.4662765526019,233.290932938022,216.111743021613,-283.024071214323,66.9123281927098
0.203709657784331,-334.397935592876,-102.062667270022,232.335268322855,218.230301431449,-283.366601957865,65.1363005264165
0.205853969971535,-334.844692090142,-102.367034305187,232.477657784955,218.605863197665,-283.661174937549,65.0553117398839
0.207998282158738,-333.162200749737,-99.772060034558,233.390140715179,216.467130392148,-283.276170732458,66.8090403403105
0.210142594345942,-328.901440558661,-94.28145762134,234.619982937321,211.59144909,-281.760711747991,70.1692626579903
0.212286906533145,-322.177367163227,-86.4739213181888,235.703445845038,204.325644240708,-278.940406504132,74.6147622634246
0.214431218720348,-313.616397805764,-77.3670035899911,236.249394215773,195.491700697878,-274.932896010769,79.441195312891
0.216575530907552,-304.206865381277,-68.2217717674992,235.985093613777,186.214318574388,-270.095979497527,83.8816609231391
0.218719843094755,-295.09223323796,-60.3131265206999,234.77910671726,177.70267987933,-264.93566997761,87.2329900982799
0.220864155281959,-287.339623537449,-54.6837205922464,232.655902945203,171.011672064848,-259.997763241326,88.9860911764783
0.223008467469162,-281.714622941033,-51.915715800989,229.798907140044,166.815169371011,-255.756765040538,88.9415956695273
0.225152779656366,-278.50518590956,-51.9818812490324,226.523304660528,165.243533579296,-252.514245285044,87.2707117057477
0.227297091843569,-277.448494503965,-54.2438392321516,223.204655271814,165.846166868059,-250.32657488789,84.4804080198312
0.229441404030773,-277.801393692199,-57.6268630844418,220.174530607757,167.71412838832,-248.987962149978,81.2738337616577
0.231585716217976,-278.550040408304,-60.9285624064071,217.621478001897,169.739301407356,-248.085759205101,78.346457797745
0.23373002840518,-278.696971522668,-63.1540067261827,215.542964796486,170.925489124425,-247.119968159577,76.1944790351515
0.235874340592383,-277.526088578921,-63.7515921302682,213.774496448653,170.638840354595,-245.650292513787,75.0114521591925
0.238018652779587,-274.751135630058,-62.6648971712211,212.086238458837,168.708016400639,-243.418687044447,74.7106706438077
0.24016296496679,-270.50164164291,-60.197664915334,210.303976727576,165.349653279122,-240.402809185243,75.0531559061209
0.242307277153994,-265.169488603986,-56.7720245782455,208.39746402574,160.970756591116,-236.783476314863,75.8127197237474
0.244451589341197,-259.195720946859,-52.7025451045673,206.493175842292,155.949133025713,-232.844448394575,76.8953153688622
0.246595901528401,-252.894703014396,-48.0899435544751,204.804759459921,150.492323284436,-228.849731237158,78.3574079527229
0.248740213715604,-246.384878355305,-42.8689044432535,203.515973912052,144.626891399279,-224.950426133678,80.323534734399
0.250884525902808,-239.637334608662,-36.9619619946562,202.675372614006,138.299648301659,-221.156353611334,82.8567053096747
0.253028838090011,-232.595303761697,-30.4414090396295,202.153894722068,131.518356400663,-217.374599241882,85.8562428412191
0.255173150277215,-225.290267732353,-23.608957591497,201.681310140856,124.449612661925,-213.485788936605,89.0361762746797
0.257317462464418,-217.895503484017,-16.956322713967,200.93918077005,117.425913098992,-209.417342127034,91.9914290280417
0.259461774651622,-210.701000986757,-11.032627137004,199.668373849753,110.86681406188,-205.184687418255,94.3178733563743
0.261606086838825,-204.03623871902,-6.28471821511853,197.751520503902,105.160478467069,-200.893879611461,95.7334011443917
0.263750399026029,-198.188090139022,-2.94321954793169,195.24487059109,100.565654843477,-196.716480365056,96.1508255215791
0.265894711213232,-193.355878988627,-1.00473909431324,192.351139894314,97.1803090414703,-192.853509441471,95.6732004000004
0.268039023400436,-189.661693755443,-0.317998741885727,189.343695013557,94.9898462486643,-189.5026943845,94.5128481358357
0.270183335587639,-187.202104325508,-0.731686778369585,186.470417547139,93.9668955519389,-186.836260936323,92.8693653843845
0.272327647774843,-186.099851024225,-2.22474859026908,183.875102433956,94.1622998072471,-184.98747672909,90.8251769218434
0.274471959962046,-186.50609005008,-4.93787547232312,181.568214577757,95.7219827612014,-184.037152313918,88.3151695527167
0.27661627214925,-188.525935681664,-9.06884768587083,179.457087995793,98.7973916837675,-183.991511838729,85.1941201549613
0.278760584336453,-192.087040799045,-14.66958766673,177.417453132315,103.378314232887,-184.75224696568,81.3739327327923
0.280904896523657,-196.818956057197,-21.4495627647418,175.369393292455,109.13425941097,-186.094174674826,76.9599152638568
0.28304920871086,-202.028600424466,-28.7069306339078,173.321669790558,115.367765529187,-187.675135107512,72.3073695783251
0.285193520898063,-206.826733322008,-35.4619262330157,171.364807088992,121.144329777512,-189.0957702055,67.9514404279882
0.287337833085267,-210.393126535478,-40.7773592230502,169.615767312428,125.585242879264,-190.004446923953,64.4192040446887
0.28948214527247,-212.296383719325,-44.1568719894495,168.139511729875,128.226627854387,-190.2179477246,61.9913198702129
0.291626457459674,-212.74015523064,-45.8522947459838,166.887860484656,129.296224988312,-189.814007857648,60.5177828693363
0.293770769646877,-212.611730405507,-46.9193258836943,165.692404521813,129.765528144601,-189.15206746366,59.3865393190592
0.295915081834081,-213.269559724594,-48.9473343083285,164.322225416265,131.108447016461,-188.79589257043,57.6874455539684
0.298059394021284,-216.110529149116,-53.5289995337673,162.581529615348,134.819764341441,-189.346029382232,54.5262650407905
0.300203706208488,-222.064165985111,-61.6656505034335,160.398515481677,141.864908244272,-191.231340733394,49.366432489122
0.302348018395691,-231.212136523197,-73.3511987479342,157.860937775263,152.281667635566,-194.53653714923,42.2548695136645
0.304492330582895,-242.691670451343,-87.5074959379797,155.184174513363,165.099583194661,-198.937922482353,33.8383392876916
0.306636642770098,-254.926347484115,-102.293036863524,152.633310620591,178.609692173819,-203.779829052353,25.1701368785336
0.308780954957302,-266.095054765654,-115.65635143893,150.438703326725,190.875703102292,-208.266879046189,17.3911759438975
0.310925267144505,-274.661371389092,-125.923075441975,148.738295947117,200.292223415533,-211.699833668104,11.4076102525708
0.313069579331709,-279.773595536487,-132.212756905762,147.560838630725,205.993176221124,-213.667217083606,7.67404086248135
0.315213891518912,-281.407411055915,-134.561059809901,146.846351246014,207.984235432908,-214.126881150964,6.14264571805663
0.317358203706116,-280.229100355759,-133.740988901937,146.488111453822,206.985044628848,-213.358605904791,6.37356127594239
0.319502515893319,-277.262651982144,-130.889873941391,146.372778040753,204.076262961767,-211.817715011449,7.74145204968144
0.321646828080523,-273.507134041331,-127.110476590529,146.396657450803,200.30880531593,-209.951895746067,9.64309043013695
0.323791140267726,-269.649878184003,-123.197432207834,146.452445976169,196.423655195919,-208.051162080086,11.6275068841676
0.32593545245493,-265.964381299811,-119.561578291193,146.402803008618,192.762979795502,-206.183592154214,13.4206123587128
0.328079764642133,-262.400334963808,-116.334089424566,146.066245539242,189.367212194187,-204.233290251525,14.8660780573384
0.330224076829337,-258.800258769635,-113.567779140112,145.232479629523,186.184018954873,-202.016369199579,15.8323502447058
0.33236838901654,-255.133581562645,-111.423512964627,143.710068598018,183.278547263636,-199.421825080331,16.1432778166954
0.334512701203744,-251.635876474429,-110.238691779314,141.397184695114,180.937284126871,-196.516530584771,15.5792464579001
0.336657013390947,-248.783215408945,-110.429748557764,138.353466851181,179.606481983355,-193.568341130063,13.9618591467081
0.338801325578151,-247.10786882651,-112.268640941608,134.839227884903,179.688254884059,-190.973548355707,11.2852934716475
0.340945637765354,-246.940472042955,-115.650295337633,131.290176705322,181.295383690294,-189.115324374138,7.81994068384455
0.343089949952558,-248.208271839897,-119.988856317019,128.219415522877,184.098564078458,-188.213843681387,4.11527960292911
0.345234262139761,-250.403943739897,-124.33205692029,126.071886819608,187.368000330094,-188.237915279752,0.869914949658821
0.347378574326965,-252.764994080935,-127.686155794333,125.078838286602,190.225574937634,-188.921916183769,-1.30365875386518
0.349522886514168,-254.602762232953,-129.440856566666,125.161905666287,192.02180939981,-189.88233394962,-2.13947545018983
0.351667198701372,-255.643508437699,-129.721288580031,125.922219857669,192.682398508865,-190.782864147684,-1.89953436118104
0.353811510888575,-256.228842155014,-129.502663356402,126.726178798611,192.865752755708,-191.477510476812,-1.38824227889558
0.355955823075778,-257.271338276125,-130.399476314359,126.871861961765,193.835407295242,-192.071600118945,-1.76380717629709
0.358100135262982,-259.948417339083,-134.151976948607,125.796440390476,197.050197143845,-192.872428864779,-4.1777682790653
0.360244447450185,-265.208487251141,-141.934793902809,123.273693348332,203.571640576975,-194.241090299736,-9.33055027723887
0.362388759637389,-273.225823467858,-153.671233047457,119.554590420401,213.448528257658,-196.39020694413,-17.0583213135281
0.364533071824592,-282.954006081273,-167.535645971835,115.418360109438,225.244826026554,-199.186183095356,-26.0586429311985
0.366677384011796,-291.893459705929,-179.774521732291,112.118937973638,235.83399071911,-202.006198839784,-33.8277918793267
0.368821696198999,-296.132459565262,-184.905761490666,111.226698074596,240.519110527964,-203.679578819929,-36.8395317080347
0.370966008386203,-290.672190828556,-176.294758039678,114.377432788878,233.483474434117,-202.524811808717,-30.9586626253996
0.373110320573406,-270.012934965074,-147.060522607437,122.952412357637,208.536728786255,-196.482673661356,-12.0540551248999
0.37525463276061,-228.948957653672,-91.221000590539,137.727957063133,160.084979122105,-183.338457358402,23.2534782362968
0.377398944947813,-163.486588659603,-4.93482820055843,158.551760459044,84.2107084300806,-161.019174559323,76.8084661292429
0.379543257135017,-71.7684451823184,112.353360949242,184.12180613156,-20.2924578834616,-127.945125656939,148.237583540401
0.38168756932222,45.1347379255315,257.082874653855,211.948136728324,-151.108806289693,-83.4066994013961,234.51550569109
0.383831881509424,182.710401184098,421.26378532954,238.553384145442,-301.987093256819,-27.921491480672,329.908584737491
0.385976193696627,332.906563971566,592.822994287545,259.916430315979,-462.864779129556,36.4950668277938,426.369712301762
0.388120505883831,484.563906911541,756.66852151887,272.104614607329,-620.616214215206,106.229646152106,514.3865680631
0.390264818071034,624.441390578117,896.434487070305,271.993096492187,-760.437938824211,176.224147042965,584.213791781246
0.392409130258238,738.809246734234,996.749226430971,257.939979696737,-867.779236582602,240.434633518748,627.344603063854
0.394553442445441,815.445969474604,1045.71651002367,230.270540549063,-930.581239749136,292.58771446277,637.993525286365
0.396697754632645,845.715185564309,1037.14610009391,191.4309145296,-941.430642829109,327.142135517355,614.288507311754
0.398842066819848,826.275624416288,971.993572378475,145.717947962187,-899.134598397382,340.278838227051,558.855760170331
0.400986379007052,759.967863662124,858.554140945214,98.5862772830903,-809.261002303669,330.690793189517,478.570209114152
0.403130691194255,655.567853349177,711.225494828453,55.6576414792763,-683.396674088815,299.95510593495,383.441568153865
0.405275003381459,526.373921934471,548.037909945669,21.6639880111979,-537.20591594007,252.354966961636,284.850948978433
0.407419315568662,387.90927950334,387.502211553274,-0.407067950065539,-387.705745528307,194.158173726703,193.547571801604
0.409563627755866,255.261860812737,245.510070584028,-9.7517902287087,-250.385965698383,132.506825520723,117.87914017766
0.411707939943069,140.665823852332,132.976422192477,-7.68940165985487,-136.821123022405,74.1776127560935,62.6435102663112
0.413852252130273,51.834430342242,54.6739926696599,2.83956232741787,-53.254211505951,24.4974340074121,28.7567774985389
0.415996564317476,-8.67404186409144,9.37327613808581,18.0473180021773,-0.349617136997185,-13.3606799331343,13.7102970701315
0.41814087650468,-43.0502602916194,-8.91520429340668,34.1350559982127,25.982732292513,-38.592658144916,12.609925852403
0.420285188691883,-57.01113699227,-9.00829159175113,48.0028454005188,33.0097142920105,-52.5069911963944,19.4972769043838
0.422429500879087,-58.1185400338055,-0.412716830488969,57.7058232033165,29.2656284321472,-57.912181618561,28.6465531864138
0.42457381306629,-54.033198077541,8.56989541651213,62.6030934940532,22.7316513305145,-58.3181457857971,35.5864944552826
0.426718125253494,-51.0556796830595,12.1598426847091,63.2155223677686,19.4479184991752,-57.135601025414,37.6876825262388
0.428862437440697,-53.2066463426893,7.65818176692052,60.8648281096098,22.7742322878844,-57.0357372261495,34.2615049382651
0.4310067496279,-61.9580162450112,-4.75631909689521,57.201697148116,33.3571676709532,-59.5798566965636,26.2226890256104
0.433151061815104,-76.5701303068301,-22.8277899144817,53.7423403923483,49.6989601106559,-65.1562353495892,15.4572752389333
0.435295374002307,-94.8516662702129,-43.3290298881195,51.5226363820934,69.0903480791662,-73.1871513261532,4.09680324698695
0.437439686189511,-114.073919241653,-63.1277182289367,50.9462010127158,88.6008187352946,-82.5100601271842,-6.09075860811043
0.439583998376714,-131.765599511306,-79.9194781364204,51.8461213748854,105.842538823863,-91.8058604430956,-14.0366783807675
0.441728310563918,-146.194185173174,-92.4839148158243,53.7102703573494,119.339049994499,-99.9522277652616,-19.3868222292374
0.443872622751121,-156.477751540992,-100.513202109526,55.9645494314656,128.495476825259,-106.221150486229,-22.2743263390304
0.446016934938325,-162.410986994575,-104.2139282543,58.1970587402747,133.312457624438,-110.304022867425,-23.0084347570129
0.448161247125528,-164.173347621708,-103.925631746548,60.2477158751598,134.049489684128,-112.210531748434,-21.8389579356943
0.450305559312732,-162.088284249625,-99.929470291322,62.1588139583031,131.008877270474,-112.123549103964,-18.8853281665094
0.452449871499935,-156.53324202401,-92.4912468670297,64.0419951569804,124.51224444552,-110.287618590495,-14.2246258550247
0.454594183687139,-148.001516288265,-82.0633032474839,65.9382130407808,115.032409767874,-106.969864664523,-8.06254510335157
0.456738495874342,-137.234811671276,-69.5035078077989,67.7313038634773,103.369159739538,-102.483057767377,-0.886101972160759
0.458882808061546,-125.312006769438,-56.16820964441,69.1437971250276,90.7401082069237,-97.2279019472325,6.4877937403088
0.461027120248749,-113.603758302885,-43.7912915330155,69.8124667698693,78.6975249179502,-91.7081125363771,13.0105876184269
0.463171432435953,-103.566422881921,-34.1511415822176,69.4152812997033,68.8587822320693,-86.4908520908121,17.6320698587428
0.465315744623156,-96.4201844381626,-28.6169151810869,67.8032692570758,62.5185498096247,-82.1117268476192,19.5931770379944
0.46746005681036,-92.8080923465795,-27.7200889330018,65.0880034135778,60.2640906397906,-78.9480478800786,18.683957240288
0.469604368997563,-92.5512719732991,-30.8996486508961,61.651623322403,61.7254603120976,-77.1014476478511,15.3759873357535
0.471748681184767,-94.5984258654814,-36.5262487912219,58.0721770742595,65.5623373283516,-76.3353014698705,10.7729641415188
0.47389299337197,-97.2219200796191,-42.2426592018093,54.9792608778098,69.7322896407142,-76.1005904787144,6.36830083800022
0.476037305559174,-98.4502396158094,-45.5792395563325,52.8710000594769,72.0147395860709,-75.6606198376431,3.64588025157221
0.478181617746377,-96.6556140908307,-44.7164863425289,51.9391277483019,70.6860502166798,-74.2973709195663,3.61132070288649
0.480325929933581,-91.1436409009249,-39.1808861191454,51.9627547817795,65.1622635100352,-71.5531978413522,6.39093433131703
0.482470242120784,-82.5426540308031,-30.2140027243064,52.3286513064967,56.3783283775547,-67.4356526686499,11.0573242910952
0.484614554307988,-72.8062326125863,-20.6045305617328,52.2017020508536,46.7053815871595,-62.5039673317199,15.7985857445604
0.486758866495191,-64.7501471139079,-13.9417734658844,50.8083736480235,39.3459602898961,-57.7792603809657,18.4333000910695
0.488903178682395,-61.2209050678836,-13.4833163028949,47.7375887649887,37.3521106853892,-54.4792469164361,17.1271362310469
0.491047490869598,-64.1589205034936,-21.0165750010291,43.1423455024645,42.5877477522614,-53.650633002979,11.0628852507177
0.493191803056802,-73.8852626616219,-36.1286246607291,37.7566380008928,55.0069436611755,-55.8209503312573,0.814006670081874
0.495336115244005,-88.8642815444146,-56.1523768127844,32.7119047316302,72.5083291785995,-60.7880931380224,-11.7202360405771
0.497480427431209,-106.013932261614,-76.7991220154785,29.214810246136,91.4065271385465,-67.6143712538752,-23.7921558846712
0.499624739618412,-121.446049293382,-93.2461725898068,28.1998767035747,107.346110941594,-74.8229629984781,-32.523147943116
0.501769051805615,-131.40216690114,-101.330830643153,30.0713362579866,116.366498772147,-80.7367515795632,-35.6297471925833
0.503913363992819,-133.129414790711,-98.5284196992888,34.6009950914219,115.828917245,-83.8652049410663,-31.9637123039334
0.506057676180022,-125.490380418594,-84.5035189638018,40.9868614547925,104.996949691198,-83.2386209366933,-21.7583287545046
0.508201988367226,-109.18513825843,-61.148854333502,48.0362839249282,85.1669962959661,-78.6107110916792,-6.55628520428686
0.510346300554429,-86.558171482546,-32.1349698382775,54.4232016442686,59.3465706604117,-70.4906865634073,11.1441159029956
0.512490612741633,-61.0531447922461,-2.08783671718758,58.9653080750586,31.5704907547169,-60.0092264336523,28.4387356789355
0.514634924928836,-36.4523962553776,24.4111266959159,60.8635229512935,6.02063477973088,-48.6579596033356,42.6373248236047
0.51677923711604,-16.0821118556502,43.7678647506292,59.8499766062794,-13.8428764474895,-37.9660442309648,51.8089206784543
0.518923549303243,-2.16665870079623,54.0439271758703,56.2105858766665,-25.938634237537,-29.1886222887314,55.1272565262684
0.521067861490447,4.52640791395253,55.2069249366464,50.6805170226939,-29.8666664252995,-23.0770545543707,52.9437209796701
0.52321217367765,4.6846239017754,48.9278778840631,44.2432539822877,-26.8062508929193,-19.7793150402562,46.5855659331754
0.525356485864854,0.115066647301411,38.0031784319501,37.8881117846487,-19.0591225396257,-18.8865225686736,37.9456451082994
0.527500798052057,-6.81798942984052,25.5745886153403,32.3925780451808,-9.37829959274989,-19.6052837375107,28.9835833302606
0.529645110239261,-13.8132231616982,14.375918882828,28.1891420445262,-0.281347860564908,-21.0011826031122,21.2825304636771
0.531789422426464,-19.1274658058247,6.22027831958409,25.3477441254088,6.45359374312031,-22.2376049656168,15.7840112224964
0.533933734613668,-21.8182764545195,1.8437934018857,23.6620698564052,9.9872415263169,-22.7401731554624,12.7529316291455
0.536078046800871,-21.7133937915453,1.07644769704266,22.7898414885879,10.3184730472513,-22.2516176400666,11.9331445928153
0.538222358988075,-19.1904208539196,3.19397147183936,22.384392325759,7.99822469104014,-20.7874065898393,12.7891818987992
0.540366671175278,-14.8969235476497,7.27603741297132,22.172960960621,3.81044306733919,-18.5349422541354,14.7244991867962
0.542510983362482,-9.51721996128788,12.4549910440842,21.9722110053721,-1.46888554139818,-15.74471548333,17.2136010247282
0.544655295549685,-3.62840422300765,18.0344369723997,21.6628411954074,-7.20301637469603,-12.6456227092075,19.8486390839035
0.546799607736889,2.36692307430324,23.5268300919528,21.1599070176496,-12.946876583128,-9.39649197167316,22.3433685548012
0.548943919924092,8.26118606428873,28.6694986067976,20.4083125425089,-18.4653423355432,-6.07356323911008,24.5389055746533
0.551088232111296,14.032250847182,33.4383895969059,19.4061387497239,-23.7353202220439,-2.68694395127099,26.4222641733149
0.553232544298499,19.8031587079258,38.0323133468389,18.229154638913,-28.9177360273823,0.787002034506379,28.130733992876
0.555376856485703,25.7700168987104,42.7930858174275,17.0230689187171,-34.281551358069,4.37347398999668,29.9080773680723
0.557521168672906,32.1127300717368,48.0670849462394,15.9543548745025,-40.0899075089881,8.07918759861714,32.010719910371
0.55966548086011,38.9194434491019,54.0654375638306,15.1459941147286,-46.4924405064663,11.8867246671867,34.6057158392796
0.561809793047313,46.1561848405884,60.7965208438644,14.6403360032761,-53.4763528422264,15.7579244186562,37.7184284235702
0.563954105234517,53.6938639055049,68.1064867021093,14.4126227966044,-60.9001753038071,19.6406205544503,41.2595547493568
0.56609841742172,61.373424420396,75.7929209056032,14.4194964852071,-68.5831726629996,23.4769639675944,45.1062086954052
0.568242729608924,69.064396914904,83.7037617616341,14.63936484673,-76.384079338269,27.212516034087,49.1715633041821
0.570387041796127,76.6728873387202,91.7425891272877,15.0697017885675,-84.2077382330039,30.8015927750763,53.4061454579276
0.57253135398333,84.0881426324226,99.7719509329206,15.683808300498,-91.9300467826716,34.2021671659623,57.7278796167093
0.574675666170534,91.1029282967966,107.487874750081,16.3849464532846,-99.295401523439,37.358990921756,61.9364106016829
0.576819978357737,97.3704091257792,114.370558747249,17.0001496214695,-105.870483936514,40.1851297521549,65.6853541843591
0.578964290544941,102.449288065926,119.776653898607,17.3273658326809,-111.112970982267,42.5609611166227,68.552009865644
0.581108602732144,105.944056489132,123.156996218549,17.2129397294168,-114.550526353841,44.3655583798578,70.184967973983
0.583252914919348,107.692559987141,124.311681519814,16.6191215326726,-116.002120753478,45.5367192272344,70.4654015262433
0.585397227106551,107.918687518825,123.568647117894,15.6499595990684,-115.743667318359,46.1343639598784,69.609303358481
0.587541539293755,107.273428555271,121.799793087364,14.5263645320932,-114.536610821317,46.3735320115888,68.1630788097285
0.589685851480958,106.731124651918,120.253149726427,13.5220250745093,-113.492137189173,46.6045497887044,66.8875874004684
0.591830163668162,107.367003861647,120.249786875292,12.8827830136447,-113.80839536847,47.2421104240013,66.5662849444683
0.593974475855365,110.087233238432,122.84028289909,12.7530496606581,-116.463758068761,48.6670917888871,67.7966662798742
0.596118788042569,115.395279082177,128.523767111818,13.1284880296408,-121.959523096998,51.1333955262683,70.8261275707296
0.598263100229772,123.259753473169,137.106968052562,13.8472145793932,-130.183360762865,54.7062694468878,75.4770913159775
0.600407412416976,133.113708949734,147.735501031948,14.621792082214,-140.424604990841,59.2459584337602,81.1786465570811
0.602551724604179,143.978699733189,159.081847988138,15.1031482549489,-151.530273860664,64.4377757391201,87.0924981215435
0.604696036791383,154.677489957964,169.637549730687,14.9600597727226,-162.157519844325,69.8587150926207,92.2988047517046
0.606840348978586,164.081274723194,178.036983027073,13.9557083038794,-171.059128875134,75.0627832096572,95.9963456654763
0.60898466116579,171.334024122505,183.338364115964,12.0043399934594,-177.336194119235,79.6648420645229,97.6713520547119
0.611128973352993,176.006856837592,185.202607940545,9.19575110295375,-180.604732389069,83.405552867319,97.1991795217496
0.613273285540197,178.152091742723,183.934469246739,5.78237750401576,-181.043280494731,86.1848571193535,94.8584233753772
0.6154175977274,178.245747134324,180.375945855304,2.13019872097971,-179.310846494814,88.0577742066723,91.2530722881419
0.617561909914604,177.031452896045,175.67228715763,-1.3591657384151,-176.351870026838,89.1953093172301,87.1565607096074
0.619706222101807,175.306749356405,170.968876539506,-4.33787281689982,-173.137812947955,89.8223110866526,83.3155018613029
0.621850534289011,173.712819344253,167.127569586383,-6.58524975787034,-170.420194465318,90.1490345510618,80.2711599142563
0.623994846476214,172.588697795279,164.548242513806,-8.04045528147381,-168.568470154543,90.3145765383766,78.2538936161659
0.626139158663418,171.929381648056,163.138528805254,-8.79085284280197,-167.533955226655,90.3601172454291,77.1738379812262
0.628283470850621,171.452260221857,162.41667215532,-9.03558806653652,-166.934466188588,90.2439241441966,76.6905420443918
0.630427783037825,170.740552786067,161.69320224545,-9.04735054061697,-166.216877515758,89.8939516633419,76.3229258524164
0.632572095225028,169.407795221619,160.268858834995,-9.13893638662395,-164.838327028307,89.2733658041217,75.5649612241858
0.634716407412232,167.220705130005,157.595789252974,-9.62491587703036,-162.40824719149,88.4228105035176,73.985436687972
0.636860719599435,164.132501043699,153.363601462794,-10.7688995809051,-158.748051253247,87.4507003123023,71.2973509409446
0.639005031786638,160.215016411284,147.493497632231,-12.721518779053,-153.854257021758,86.4682675951687,67.3859894265892
0.641149343973842,155.523590268573,140.054651054115,-15.4689392144579,-147.789120661344,85.4962647415153,62.2928559198284
0.643293656161046,149.960270422482,131.145072293761,-18.8151981287211,-140.552671358122,84.3877342756017,56.16493708252
0.645437968348249,143.202980688054,120.790544315847,-22.412436372207,-131.996762501951,82.8077085301308,49.1890539718202
0.647582280535452,134.745396094751,108.910372067651,-25.8350240270993,-121.827884081201,80.290210060925,41.537674020276
0.649726592722656,124.056280252797,95.3827676083695,-28.6735126444271,-109.719523930583,76.3648964486119,33.3546274819712
0.651870904909859,110.823765601379,80.208766221054,-30.6149993803251,-95.5162659112166,70.7193824908521,24.7968834203645
0.654015217097063,95.2047456642433,63.7168232545077,-31.4879224097356,-79.4607844593755,63.3463340369894,16.1144504223861
0.656159529284266,77.9697305953284,46.6966405740801,-31.2730900212482,-62.3331855847043,54.6214103082883,7.71177527641596
0.65830384147147,60.4461485261718,30.3488295834389,-30.097318942733,-45.3974890548053,45.2717337344524,0.125755320352944
0.660448153658673,44.2320020962542,16.0107957186093,-28.221206377645,-30.1213989074318,36.2266042369496,-6.10520532951785
0.662592465845877,30.7551547908129,4.7368554724401,-26.0182993183728,-17.7460051316265,28.3867270545928,-10.6407219229663
0.66473677803308,20.837140822032,-3.09749301148673,-23.9346338335187,-8.86982390527263,22.3858873277754,-13.5160634225027
0.666881090220284,14.4323180459392,-7.98947526858614,-22.4217933145254,-3.22142138867654,18.4270556802323,-15.2056342915558
0.669025402407487,10.642322216469,-11.2079974356651,-21.8503196521341,0.282837609598072,16.2463209343016,-16.5291585438996
0.671169714594691,7.99069452113275,-14.43486386659,-22.4255583877228,3.22208467272864,15.2081264544278,-18.4302111271564
0.673314026781894,4.8444594813507,-19.2902811045047,-24.1347405858554,7.22291081157701,14.4896000336031,-21.7125108451801
0.675458338969098,-0.167099920166349,-26.9126270620252,-26.7455271418589,13.5398634910958,13.2892136108463,-26.8290771019421
0.677602651156301,-7.85608650543475,-37.7125472326352,-29.8564607272005,22.784316869035,11.0001871108829,-33.7845039799179
0.679746963343505,-18.3536221184003,-51.3354788974263,-32.981856779026,34.8445505079133,7.31411733031287,-42.1586678382262
0.681891275530708,-31.146810541192,-66.7934129027274,-35.6466023615354,48.9701117219597,2.24989591017167,-51.2200076321314
0.684035587717912,-45.2250488205023,-82.6937803067996,-37.4687314862973,63.9594145636509,-3.8781586671025,-60.0812558965484
0.686179899905115,-59.2868863424909,-97.5027172070387,-38.2158308645479,78.3948017747648,-10.5355277389715,-67.8592740357933
0.688324212092319,-71.9773068472883,-109.810654861197,-37.8333480139085,90.8939808542426,-17.0719794166899,-73.8220014375527
0.690468524279522,-82.1346796038206,-118.586776517004,-36.4520969131835,100.360728060412,-22.8412913453186,-77.5194367150937
0.692612836466726,-89.0170623898662,-123.397104227669,-34.3800418378031,106.207083308768,-27.3185102760315,-78.8885730327362
0.694757148653929,-92.4625212749731,-124.53428194285,-32.0717606678768,108.498401608912,-30.1953803035481,-78.3030213053634
0.696901460841133,-92.9364187833116,-122.997937814901,-30.0615190315899,107.967178299107,-31.4374498758608,-76.5297284232457
0.699045773028336,-91.4383608995035,-120.293549019412,-28.8551881199087,105.865954959458,-31.2915863897974,-74.5743685696605
0.70119008521554,-89.2790144287078,-118.080615103976,-28.8016006752684,103.679814766342,-30.2387068767197,-73.4411078896223
0.703334397402743,-87.7792228869759,-117.767706477036,-29.9884835900596,102.773464682006,-28.8953696484581,-73.8780950335476
0.705478709589947,-87.971167197755,-120.180816686766,-32.2096494890106,104.07599194226,-27.8807588543722,-76.1952330878881
0.70762302177715,-90.3789591541481,-125.400574592815,-35.0216154386668,107.889766873481,-27.6786718577407,-80.2110950157408
0.709767333964354,-94.927395287082,-132.794530070144,-37.8671347830625,113.860962678613,-28.5301302520098,-85.3308324266035
0.711911646151557,-100.991170476679,-141.209004981603,-40.2178345049237,121.100087729141,-30.3866679858777,-90.7134197432633
0.71405595833876,-107.567428565599,-149.257930524485,-41.6905019588863,128.412679545042,-32.9384633033564,-95.4742162416858
0.716200270525964,-113.531978993843,-155.643725644026,-42.1117466501829,134.587852318934,-35.7101161718299,-98.8777361471043
0.718344582713167,-117.9185036875,-159.445197154169,-41.5266934666683,138.681850420834,-38.195905110416,-100.485945310418
0.720488894900371,-120.145286060158,-160.305224995413,-40.1599389352558,140.225255527786,-39.9926735624509,-100.232581965335
0.722633207087574,-120.120133849424,-158.462345676615,-38.3422118271907,139.29123976302,-40.8889610111168,-98.4022787519029
0.724777519274778,-118.190821444747,-154.610651043753,-36.4198295990057,136.40073624425,-40.8854959228707,-95.5152403213792
0.726921831461981,-114.966836259732,-149.636972691496,-34.6701364317644,132.301904475614,-40.1483499139836,-92.1535545616302
0.729066143649185,-111.092684271561,-144.343152197727,-33.2504679261654,127.717918234644,-38.921108172698,-88.7968100619461
0.731210455836388,-107.073499172859,-139.274143352561,-32.2006441797015,123.17382126271,-37.4364274965788,-85.7373937661311
0.733354768023592,-103.223776001013,-134.719665846911,-31.4958898458972,118.971720923962,-35.8639430775581,-83.1077778464039
0.735499080210795,-99.7415025947214,-130.860996806229,-31.119494211508,115.301249700475,-34.3110041916067,-80.9902455088687
0.737643392397999,-96.8401159008638,-127.951977927908,-31.1118620270441,112.396046914386,-32.8641269369099,-79.531919977476
0.739787704585202,-94.839179201041,-126.405527639634,-31.566348438593,110.622353420338,-31.636415381224,-78.9859380391135
0.741932016772406,-94.1392328012211,-126.713350788126,-32.5741179869049,110.426291794674,-30.7825574071581,-79.6437343875154
0.744076328959609,-95.0741903532414,-129.222247269136,-34.1480569158943,112.148218811189,-30.4630667186735,-81.685152092515
0.746220641146813,-97.7084036526721,-133.871637496581,-36.1632338439088,115.790020574627,-30.7725849043816,-85.0174356702449
0.748364953334016,-101.682164866448,-140.022950297476,-38.3407854310281,120.852557581962,-31.6706897177099,-89.181867864252
0.75050926552122,-106.189208532811,-146.475603771324,-40.2863952385135,126.332406152068,-32.9514066471487,-93.380999504919
0.752653577708423,-110.110202637783,-151.690850372119,-41.5806477343367,130.900526504951,-34.2647774517229,-96.635749053228
0.754797889895627,-112.264330890346,-154.166865994751,-41.9025351044056,133.215598442548,-35.1808978929701,-98.0347005495784
0.75694220208283,-111.702967319635,-152.849989380203,-41.1470220605687,132.276478349919,-35.277972629533,-96.998505720386
0.759086514270034,-107.959416784051,-147.444558464581,-39.4851416805302,127.701987624316,-34.2371375517604,-93.4648500725557
0.761230826457237,-101.181167871496,-138.510253292255,-37.3290854207597,119.845710581875,-31.9260412253679,-87.9196693565075
0.763375138644441,-92.1011512749047,-127.306708357334,-35.2055570824289,109.703929816119,-28.4477970962379,-81.2561327198812
0.765519450831644,-81.8466999724114,-115.431287626717,-33.5845876543056,98.6389937995642,-24.1310561590529,-74.5079376405113
0.767663763018848,-71.6321468953196,-104.36463125049,-32.7324843551703,87.9983890729048,-19.4498312700746,-68.5485578028301
0.769808075206051,-62.424864963417,-95.0725717044318,-32.6477067410148,78.7487183339244,-14.8885791112011,-63.8601392227233
0.771952387393255,-54.7002054570899,-87.8036032436167,-33.1033977865268,71.2519043503533,-10.7984038352816,-60.4535005150718
0.774096699580458,-48.38591989075,-82.1614292786988,-33.7755093879488,65.2736745847244,-7.30520525140061,-57.9684693333238
0.776241011767662,-43.0291569217533,-77.4301277102365,-34.4009707884832,60.2296423159949,-4.31409306663503,-55.9155492493599
0.778385323954865,-38.1208118301927,-73.0213065727288,-34.9004947425361,55.5710592014608,-1.61015854382833,-53.9609006576324
0.780529636142068,-33.4352982416263,-68.8517390254956,-35.4164407838693,51.1435186335609,0.990571271121532,-52.1340899046824
0.782673948329272,-29.2340531713751,-65.4833273559367,-36.2492741845617,47.3586902636559,3.50761050659329,-50.8663007702492
0.784818260516476,-26.24158304839,-63.957014133473,-37.715431085083,45.0992985909315,5.7369240183465,-50.836222609278
0.786962572703679,-25.3979503013034,-65.3802100307303,-39.9822597294269,45.3890801660168,7.29215471406178,-52.6812348800786
0.789106884890882,-27.477477586185,-70.4267187434977,-42.9492411573127,48.9520981648414,7.73588178556384,-56.6879799504052
0.791251197078086,-32.7125530795696,-78.9430664745635,-46.2305133949939,55.8278097770665,6.75898015771214,-62.5867899347787
0.793395509265289,-40.5643937563086,-89.8182531364072,-49.2538593800986,65.1913234463579,4.34473281189499,-69.5360562582529
0.795539821452493,-49.7392805071566,-101.180807550467,-51.4415270433101,75.4600440288117,0.851123268076762,-76.3111672968885
0.797684133639696,-58.4672087576014,-110.870179381116,-52.4029706235142,84.6686940693585,-3.03211906704362,-81.6365750023149
0.7998284458269,-64.9642615616981,-117.030450765899,-52.0661892042014,90.9973561637988,-6.44903617874832,-84.5483199850505
0.801972758014103,-67.9283505788404,-118.629211435675,-50.700860856835,93.2787810072579,-8.61374486100274,-84.6650361462552
0.804117070201307,-66.902229993015,-115.730077214931,-48.8278472219164,91.3161536039732,-9.03719138554931,-82.2789622184239
0.80626138238851,-62.3844194357056,-109.43501793247,-47.0505984967642,85.9097186840877,-7.66691046947071,-78.242808214617
0.808405694575714,-55.6582004029242,-101.529937418336,-45.8717370154117,78.59406891063,-4.89323169375626,-73.7008372168738
0.810550006762917,-48.4067645339394,-93.9680391256387,-45.5612745916994,71.1874018297891,-1.42274497112001,-69.764656858669
0.812694318950121,-42.2518754087382,-88.3696221261285,-46.1177467173903,65.3107487674334,1.93293565432608,-67.2436844217594
0.814838631137324,-38.3676048970859,-85.6891333959206,-47.3215284988348,62.0283691465032,4.47696180087445,-66.5053309473777
0.816982943324528,-37.2766505862317,-86.1207282691092,-48.8440776828775,61.6986894276705,5.78371354832286,-67.4824029759933
0.819127255511731,-38.8576766699837,-89.22275134608,-50.3650746760963,64.0402140080319,5.75369900305628,-69.7939130110882
0.821271567698935,-42.5161534206721,-94.1742928657553,-51.6581394450832,68.3452231432137,4.57099301220556,-72.9162161554192
0.823415879886138,-47.4289372912524,-100.05091073605,-52.6219734447972,73.7399240136511,2.5965180767724,-76.3364420904234
0.825560192073342,-52.7710086426645,-106.02541983561,-53.2544111929458,79.3982142391374,0.241701275140649,-79.6399155142781
0.827704504260545,-57.8600266575734,-111.453068177385,-53.5930415198119,84.6565474174793,-2.13349256888073,-82.5230548485986
0.829848816447749,-62.1973463969657,-115.861069725035,-53.6637233280698,89.0292080610006,-4.26681153444796,-84.7623965265526
0.831993128634952,-65.4293345514959,-118.897808308691,-53.4684737571947,92.1635714300932,-5.98043039715062,-86.1831410329426
0.834137440822156,-67.2815291018306,-120.29336183679,-53.0118327349596,93.7874454693104,-7.1348481834355,-86.6525972858749
0.836281753009359,-67.5166629585174,-119.85446655267,-52.3378035941531,93.6855647555939,-7.58942968218218,-86.0961350734118
0.838426065196563,-65.9418867333189,-117.490151724216,-51.548264990897,91.7160192287674,-7.19681087121091,-84.5192083575565
0.840570377383766,-62.4610408236272,-113.254194049302,-50.7931532256743,87.8576174364643,-5.83394379897642,-82.0236736374879
0.84271468957097,-57.1490257521622,-107.390357077469,-50.2413313253064,82.2696914148154,-3.4538472134279,-78.8158442013875
0.844859001758173,-50.3172211312433,-100.36148679291,-50.0442656616672,75.3393539620769,-0.136477734788023,-75.2028762272888
0.847003313945377,-42.5361051467135,-92.8343293825911,-50.2982242358776,67.6852172646523,3.88105954458206,-71.5662768092344
0.84914762613258,-34.5843858240289,-85.5934498958169,-51.009064071788,60.0889178599229,8.21233912387957,-68.3012569838025
0.851291938319784,-27.3103238113605,-79.3796426257296,-52.069318814369,53.3449832185451,12.3794975015042,-65.7244807200493
0.853436250506987,-21.4239174640777,-74.6850395374496,-53.2611220733719,48.0544785007637,15.9186023046471,-63.9730808054108
0.85558056269419,-17.278686394709,-71.5725454454843,-54.2938590507753,44.4256159200966,18.5075863280332,-62.9332022481298
0.857724874881394,-14.7282687026405,-69.6011744804941,-54.8729057778536,42.1647215915673,20.0723185376065,-62.2370401291738
0.859869187068597,-13.1347127898095,-67.9152646188358,-54.7805518290263,40.5249887043226,20.8229195196084,-61.347908223931
0.862013499255801,-11.5548108182849,-65.4960255483831,-53.9412147300982,38.525418183334,21.1932019559067,-59.7186201392407
0.864157811443004,-9.05569183322431,-61.503876768313,-52.4481849350886,35.2797843007686,21.6962465509322,-56.9760308517008
0.866302123630208,-5.04873304410893,-55.5944069197505,-50.5456738756415,30.3215699819297,22.7484704157663,-53.070040397696
0.868446435817411,0.484478474814079,-48.090935468313,-48.5754139431271,23.8032284967494,24.5299462089706,-48.33317470572
0.870590748004615,6.96216549937983,-39.9404271335735,-46.9025926329534,16.4891308170969,26.9323790661666,-43.4215098832635
0.872735060191818,13.3857042427057,-32.4491199078677,-45.8348241505733,9.531707832581,29.6102641966395,-39.1419720292205
0.874879372379022,18.6792357180416,-26.8695514397273,-45.5487871577689,4.09515786084287,32.1140114379052,-36.2091692987481
0.877023684566225,22.0719310098368,-23.9714888271062,-46.0434198369429,0.949778908634705,34.0576754233899,-35.0074543320246
0.879167996753429,23.3879274286789,-23.7501390609916,-47.1380664896704,0.181105816156341,35.2629969591747,-35.444102775331
0.881312308940632,23.1367735618194,-25.385030424666,-48.5218039864854,1.12412843142327,35.8292887741524,-36.9534172055757
0.883456621127836,22.3702162231669,-27.4706135173238,-49.8408297404907,2.55019864707841,36.1055229818288,-38.6557216289072
0.885600933315039,22.3586637037521,-28.438050086389,-50.7967137901412,3.03969319131847,36.5776887469466,-39.6173819382651
0.887745245502243,24.2025578758232,-27.0241328282876,-51.2266907041108,1.41078747623219,37.714624289967,-39.1254117661992
0.889889557689446,28.5067252862988,-22.6379812941898,-51.1447065804886,-2.93437199605451,39.8257159333937,-36.8913439373392
0.89203386987665,35.2121803874458,-15.5205914094238,-50.7327717968696,-9.84579448901104,42.9724760921577,-33.1266816031467
0.894178182063853,43.6208242627588,-6.66326658659266,-50.2840908493514,-18.4787788380831,46.9524575560551,-28.473678717972
0.896322494251057,52.5897358468369,2.47797813896545,-50.1117577078715,-27.5338569929012,51.3507467773542,-23.816889784453
0.89846680643826,60.8306444559528,10.3826365045014,-50.4480079514514,-35.6066404802271,55.6393262037021,-20.032685723475
0.900611118625464,67.2307709359353,15.8649208983337,-51.3658500376016,-41.5478459171345,59.2983104867685,-17.750464569634
0.902755430812667,71.1110279631037,18.3595034163514,-52.7515245467523,-44.7352656897275,61.931276254928,-17.1960105652005
0.904899742999871,72.3555997369899,18.0157833339004,-54.3398164030895,-45.1856915354452,63.3477080700397,-18.1620165345945
0.907044055187074,71.3822939609316,15.580399439169,-55.8018945217626,-43.4813467000503,63.5920942413471,-20.1107475412968
0.909188367374278,68.9681514164112,12.109919928221,-56.8582314881902,-40.5390356723161,62.9131914523007,-22.3741557799846
0.911332679561481,65.9850937901461,8.60364291023904,-57.381450879907,-37.2943683501925,61.6832723350265,-24.388903984834
0.913476991748685,63.1234440124854,5.66898406620914,-57.4544599462763,-34.3962140393473,60.2889519793808,-25.8927379400336
0.915621303935888,60.6835578412467,3.3250193729962,-57.3585384682505,-32.0042886071214,59.0210481547486,-27.0167595476271
0.917765616123092,58.499761296174,1.01453773921433,-57.4852235569597,-29.7571495176942,57.9924924265668,-28.2353429088727
0.919909928310295,56.0271500881579,-2.16441205250534,-58.1915621406632,-26.9313690178263,57.1093561144105,-30.1779870965843
0.922054240497499,52.5715539935473,-7.07187984318672,-59.643433836734,-22.7498370751803,56.1074939151406,-33.3576568399603
0.924198552684702,47.5875701788767,-14.1199440032726,-61.7075141821493,-16.733813087802,54.647542180513,-37.9137290927109
0.926342864871906,40.9349983745746,-23.0132801984423,-63.9482785730169,-8.96085908806617,52.4416384737957,-43.4807793857296
0.928487177059109,32.9943822553159,-32.7584620265068,-65.7528442818227,-0.117960114404507,49.3736132685693,-49.2556531541648
0.930631489246312,24.5966704138959,-41.9527058111352,-66.5493762250311,8.67801769861962,45.5730233194635,-54.2510410180831
0.932775801433516,16.7931130696914,-49.2402845663354,-66.0333976360268,16.223585748322,41.4132553528591,-57.6368411011811
0.934920113620719,10.5473773124752,-53.7572694159293,-64.3046467284045,21.6049460517271,37.4260120204399,-59.0309580721669
0.937064425807923,6.45289215498911,-55.4016990704019,-61.8545912253911,24.4744034577064,34.1537416901901,-58.6281451478965
0.939208737995126,4.56213725196817,-54.8475384222018,-59.40967567417,25.1427005851168,31.9859064630691,-57.1286070481859
0.94135305018233,4.37398461157018,-53.3202797729555,-57.6942643845257,24.4731475806927,31.0341244980479,-55.5072720787406
0.943497362369533,4.97858250528831,-52.2260851260167,-57.204667631305,23.6237513103642,31.0916250682966,-54.7153763786608
0.945641674556737,5.31716903081375,-52.7558187280069,-58.0729877588207,23.7193248485966,31.6950783948172,-55.4144032434138
0.94778598674394,4.48058608660085,-55.5764192078607,-60.0570052944616,25.5479165606299,32.2687956905312,-57.8167122511611
0.949930298931144,1.95359002714748,-60.6897637450297,-62.6433537721772,29.3680868589411,32.2984718996623,-61.6665587586035
0.952074611118347,-2.27508845753862,-67.4924642093746,-65.217375751836,34.8837763334566,31.4711436471487,-66.3549199806053
0.954218923305551,-7.7713203646681,-75.0129321542533,-67.2416117895852,41.3921262594607,29.7351457124585,-71.1272719719192
0.956363235492754,-13.8534429392708,-82.2446641386742,-68.3912211994034,48.0490535389725,27.2688891300663,-75.3179426690388
0.958507547679958,-19.8461238872175,-88.459094401821,-68.6129705146035,54.1526091445192,24.383423313693,-78.5360324582123
0.960651859867161,-25.2898676408152,-93.3906261574563,-68.1007585166411,59.3402468991357,21.4054454379129,-80.7456923370487
0.962796172054365,-30.0348677703554,-97.2423601927459,-67.2074924223905,63.6386139815506,18.5863123260176,-82.2249263075682
0.964940484241568,-34.2058643659044,-100.535818209277,-66.3299538433728,67.3708412875908,16.0620447387342,-83.432886026325
0.967084796428772,-38.0791433619651,-103.883113862934,-65.8039705009685,70.9811286124493,13.8624135695017,-84.843542181951
0.969229108615975,-41.9373955601706,-107.771316439851,-65.8339208796807,74.854356000011,11.948262659755,-86.802618659766
0.971373420803179,-45.9552337101839,-112.41697984731,-66.4617461371266,79.1861067787472,10.2532562134713,-89.4393629922185
0.973517732990382,-50.1326353671151,-117.699190289564,-67.5665549224484,83.9159128283393,8.71695977766664,-92.6328726060059
0.975662045177586,-54.2658405199991,-123.150146419099,-68.8843058991003,88.7079934695493,7.30923268955057,-96.0172261590998
0.977806357364789,-57.9476365300116,-127.995190539324,-70.0475540093123,92.9714135346678,6.04995873965036,-99.0213722743181
0.979950669551993,-60.6129332367582,-131.267998179058,-70.6550649422994,95.9404657079079,5.02106585277058,-100.961531560678
0.982094981739196,-61.6576682643299,-132.031298805511,-70.3736305411807,96.8444835349202,4.35798113842542,-101.202464673346
0.9842392939264,-60.6339273584979,-129.683382541234,-69.0494551827357,95.1586549498657,4.20776391211888,-99.3664188619846
0.986383606113603,-57.4712059363513,-124.255977336539,-66.7847714001879,90.8635916364452,4.65678273191828,-95.5203743683635
0.988527918300807,-52.6322650536789,-116.570477171248,-63.9382121175696,84.6013711124637,5.65297353194534,-90.254344644409
0.99067223048801,-47.1182009365872,-108.15623202411,-61.0380310875226,77.6372164803485,6.95991507546769,-84.5971315558162
0.992816542675213,-42.2942980366641,-100.933256158812,-58.638958122148,71.6137770977381,8.17233004274195,-79.78610714048
0.994960854862417,-39.5849134696648,-96.7653037504109,-57.180390280746,68.1751086100379,8.79773840554058,-76.9728470155784
0.99710516704962,-40.1396088557071,-97.0379232687115,-56.8983144130044,68.5887660622093,8.37935277864867,-76.968118840858
0.999249479236824,-44.5766526316737,-102.387644086267,-57.8109914545937,73.4821483589705,6.61716941145998,-80.0993177704305
1.00139379142403,-52.8664295729629,-112.627770694666,-59.7613411217027,82.7471001338143,3.44745577436987,-86.1945559081842
1.00353810361123,-64.3533719944293,-126.830378763398,-62.4770067689691,95.5918753789138,-0.938182612730103,-94.6536927661837
1.00568241579843,-77.8620854281512,-143.470302274399,-65.6082168462476,110.666193851275,-6.12693429095184,-104.539259560323
1.00782672798564,-91.8105909450588,-160.530571420106,-68.7199804750473,126.170581182583,-11.5453052350058,-114.625275947577
1.00997104017284,-104.265887302422,-175.507042797075,-71.2411554946529,139.886465049749,-16.5123659038847,-123.374099145864
1.01211535236004,-112.918436945624,-185.317488857514,-72.39905191189,149.117962901569,-20.2596925168668,-128.858270384702
1.01425966454725,-115.008083110249,-186.195317440009,-71.18723432976,150.601700275129,-21.9104243902444,-128.691275884884
1.01640397673445,-107.282936069755,-173.703829269802,-66.4208932000469,140.493382669778,-20.4310214348539,-120.062361234924
1.01854828892166,-86.0929946735635,-143.012719833154,-56.9197251595903,114.552857253359,-14.5866347569866,-99.966222496372
1.02069260110886,-47.700058286829,-89.5155349476342,-41.8154766608052,68.6077966172316,-2.94229081301188,-65.6655058042197
1.02283691329606,11.1698240199063,-9.7516995234488,-20.9215235433551,-0.709062248228745,16.0456737816307,-15.3366115334019
1.02498122548327,92.5780921283179,97.5214818744443,4.94338974612636,-95.0497870013811,43.8173511910958,51.2324358102853
1.02712553767047,196.547186858083,230.336854378912,33.7896675208285,-213.442020618498,81.3787596686274,132.06326094987
1.02926984985767,320.326533227666,382.854667259761,62.5281340320951,-351.590600243713,128.899199597785,222.691400645928
1.03141416204488,457.948142423621,545.253324527302,87.3051821036807,-501.600733475462,185.32148015997,316.279253315491
1.03355847423208,600.262823670314,704.337723359721,104.074899689408,-652.300273515017,248.093961990453,404.206311524565
1.03570278641928,735.598846991608,844.926611865946,109.327764874338,-790.262729428777,313.135541058635,477.127188370142
1.03784709860649,851.080155114829,951.925168604955,100.845013490126,-901.502661859892,375.117570812351,526.385091047541
1.03999141079369,934.481412822196,1012.79116618996,78.3097533677665,-973.636289506079,428.085829727215,545.550459778865
1.04213572298089,976.312211183115,1019.9110474082,43.598836225086,-998.111629295658,466.356687479015,531.754941816644
1.0442800351681,971.676020340128,972.30146116368,0.625440823552026,-971.988740751904,485.525289758288,486.463450993616
1.0464243473553,921.418439825805,876.126886944068,-45.2915528817371,-898.772663384936,483.354996353771,415.417667031165
1.0485686595425,832.210737287595,743.796560014495,-88.4141772731001,-788.003648651045,460.312457280348,327.691191370698
1.05071297172971,715.482678015773,591.794027718812,-123.688650296961,-653.638352867292,419.585664156367,234.052688710926
1.05285728391691,585.426718368273,437.747533281689,-147.679185086583,-511.587125824981,366.552951727428,145.034174097553
1.05500159610411,456.530381114689,297.431039552906,-159.099341561783,-376.980710333798,307.814861338236,69.1658489955617
1.05714590829132,341.186503739869,182.349491721759,-158.837012018109,-261.767997730814,250.011757878989,11.7562398518249
1.05929022047852,247.878437173353,98.3614100505681,-149.517027122785,-173.119923611961,198.697732148069,-25.5778085361084
1.06143453266573,180.27598282113,45.5184973624337,-134.757485458696,-112.897240091782,157.516734139913,-44.6194940481313
1.06357884485293,137.35396915738,19.0276084148356,-118.326360742544,-78.1907887861077,127.840164949962,-49.6493761638543
1.06572315704013,114.406529594439,11.0094225057016,-103.397107088737,-62.7079760500701,108.901818341588,-46.1938422915176
1.06786746922734,104.632612493207,12.5801652345918,-92.0524472586149,-58.6063888638992,98.3425298759108,-39.7361410120115
1.07001178141454,100.868276242113,15.7586195089292,-85.1096567331839,-58.3134478755211,92.9889664876485,-34.6755186121273
1.07215609360174,97.065915809201,14.8131765284789,-82.2527392807221,-55.93954616884,89.6593275449615,-33.7197813761216
1.07430040578895,89.2486286305817,6.86919256932725,-82.3794360612544,-48.0589105999545,85.8140323459181,-37.7551217459636
1.07644471797615,75.8421776373785,-8.18956730427137,-84.0317449416498,-33.8263051665535,79.9369612895141,-46.1106561229606
1.07858903016335,57.4450213536992,-28.345094229893,-85.7901155835922,-14.5499635619031,71.6175684686457,-57.0676049067426
1.08073334235056,36.2004130668949,-50.3571529558441,-86.5575660227391,7.07836994447459,61.378989544817,-68.4573594892916
1.08287765453776,14.9789561608038,-70.7296676706226,-85.7086238314264,27.8753557549094,50.3437899961151,-78.2191457510245
1.08502196672496,-3.42266752290503,-86.5313193645553,-83.1086518416503,44.9769934437302,39.8429921593726,-84.8199856031028
1.08716627891217,-16.9021370771017,-95.9277121920415,-79.0255751149397,56.4149246345716,31.061719018919,-87.4766436534906
1.08931059109937,-24.3986508341805,-98.3711642238685,-73.9725133896881,61.3849075290245,24.7869312777538,-86.1718388067783
1.09145490328657,-25.9591031445834,-94.496243825818,-68.5371406812346,60.2276734852007,21.2890187683256,-81.5166922535263
1.09359921547378,-22.5844270132161,-85.8385711884484,-63.2541441752323,54.2114991008323,20.3348585810081,-74.5463576818404
1.09574352766098,-15.9474761605381,-74.4956130925121,-58.548136931974,45.2215446265251,21.300330385718,-66.5218750122431
1.09788783984818,-8.06228596524324,-62.7938506231905,-54.7315646579473,35.4280682942169,23.334639346352,-58.7627076405689
1.10003215203539,-0.950524989105098,-52.9693748587984,-52.0188498696933,26.9599499239518,25.5341624402941,-52.4941123642459
1.10217646422259,3.67496152033044,-46.8540046350511,-50.5289661553816,21.5895215573603,27.101963837856,-48.6914853952164
1.10432077640979,4.68696875068414,-45.5883573320708,-50.275326082755,20.4506942906933,27.4811474167196,-47.9318417074129
1.106465088597,1.73525762318905,-49.4212459859312,-51.1565036091203,23.8429941813711,26.4458806161547,-50.2888747975258
1.1086094007842,-4.70514515772234,-57.6618650898532,-52.9567199321309,31.1835051237878,24.1257873872043,-55.309292510992
1.11075371297141,-13.459153699109,-68.8150011158791,-55.3558474167702,41.1370774074941,20.9483468588306,-62.0854242663247
1.11289802515861,-22.9224275848415,-80.8707656737237,-57.9483380888822,51.8965966292826,17.5129552520204,-69.409551881303
1.11504233734581,-31.3984531215759,-91.6751077074034,-60.2766545858275,61.5367804144897,14.4391007321258,-75.9758811466155
1.11718664953302,-37.4120265806006,-99.2998695213071,-61.8878429407065,68.3559480509538,12.237908180053,-80.5938562310068
1.11933096172022,-39.9395513427556,-102.355377498283,-62.4158261555277,71.1474644205195,11.238137406386,-82.3856018269055
1.12147527390742,-38.5390358095404,-100.214914511767,-61.675878702227,69.3769751606539,11.5684214463433,-80.9453966069972
1.12361958609463,-33.3880036935715,-93.1262894798998,-59.7382857863282,63.2571465867357,13.1751410463783,-76.432287633114
1.12576389828183,-25.2369376193193,-82.1773694246276,-56.9404318053084,53.7071535219735,15.8517470929945,-69.558900614968
1.12790821046903,-15.2737204664828,-69.0861060001922,-53.8123855337094,42.1799132333375,19.2693325336133,-61.4492457669508
1.13005252265624,-4.89570667702555,-55.8231707370101,-50.9274640599846,30.3594387070178,23.0158786914795,-53.3753173984973
1.13219683484344,4.58483289612823,-44.1441412101928,-48.728974106321,19.7796541570323,26.6569035012246,-46.4365576582569
1.13434114703064,12.2315150043852,-35.1726815033876,-47.4041965077728,11.4705832495012,29.817855756079,-41.2884390055802
1.13648545921785,17.6759237200774,-29.1844801455403,-46.8604038656177,5.75427821273149,32.2681637928475,-38.022442005579
1.13862977140505,21.1408667074504,-25.6685479620032,-46.8094146694536,2.26384062727636,33.975140688452,-36.2389813157284
1.14077408359225,23.2917494970932,-23.6218570696103,-46.9136065667035,0.165053786258571,35.1026780318983,-35.2677318181569
1.14291839577946,24.9814893533814,-21.9391108950149,-46.9206002483964,-1.52118922918327,35.9510448008889,-34.4298555717056
1.14506270796666,26.9856310350914,-19.7449101879853,-46.7305412230767,-3.62036042355308,36.8580861290841,-33.237725705531
1.14720702015386,29.8093910474998,-16.5736936772225,-46.3830847247223,-6.61784868513867,38.096237886111,-31.4783892009724
1.14935133234107,33.605868221057,-12.3846813359598,-45.9905495570168,-10.6105934425486,39.7982088890369,-29.1876154464883
1.15149564452827,38.2014652447759,-7.45956081324245,-45.6610260580183,-15.3709522157667,41.9312456513971,-26.5602934356304
1.15363995671547,43.1966649095915,-2.25377872375577,-45.4504436333473,-20.4714430929179,44.3235542714694,-23.8521111785515
1.15578426890268,48.0973094097501,2.7348787624821,-45.362430647268,-25.4160940861161,46.7298700285091,-21.313775942393
1.15792858108988,52.4296340692651,7.04238076164188,-45.3872533076232,-29.7360074154535,48.9084436884441,-19.1724362729907
1.16007289327709,55.8059144513582,10.2575656403954,-45.5483488109627,-33.0317400458768,50.6771316311604,-17.6453915852836
1.16221720546429,57.9383564536062,12.0177365610704,-45.9206198925359,-34.9780465073383,51.929488173071,-16.9514416657327
1.16436151765149,58.6300048463216,12.0267253087218,-46.6032795375997,-35.3283650775217,52.6166421919606,-17.288277114439
1.1665058298387,57.778950424033,10.1191834656714,-47.6597669583617,-33.9490669448522,52.7193586911974,-18.7702917463451
1.1686501420259,55.4118128745603,6.35447432348894,-49.0573385510714,-30.8831435990246,52.2345757128159,-21.3514321137912
1.1707944542131,51.7344367510359,1.09702919224182,-50.6374075587941,-26.4157329716389,51.185922154915,-24.7701891832761
1.17293876640031,47.1733655156039,-4.95642933945937,-52.1297948550633,-21.1084680880723,49.6515801853336,-28.5431120972613
1.17508307858751,42.3848360702043,-10.819220506161,-53.2040565763653,-15.7828077820217,47.7944463232848,-32.0116385412632
1.17722739077471,38.2184632684239,-15.3214284520524,-53.5398917204763,-11.4485174081857,45.8791774944501,-34.4306600862644
1.17937170296192,35.6308735553304,-17.2669087485599,-52.8977823038902,-9.18198240338524,44.2643279296103,-35.0823455262251
1.18151601514912,35.5506021846433,-15.6250265972861,-51.1756287819295,-9.9627877936786,43.3631154832864,-33.4003276896078
1.18366032733632,38.7055968540581,-9.73770096690222,-48.4432978209603,-14.4839479435779,43.5744473375092,-29.0904993939313
1.18580463952353,45.4400131402796,0.487544226467834,-44.9524689138118,-22.9637786833737,45.1962410270457,-22.232462343672
1.18794895171073,55.5621339483919,14.4413223248857,-41.1208116235063,-35.0017281366388,48.3414727859491,-13.3397446493103
1.19009326389793,68.2739872403275,30.7865970094599,-37.4873902308677,-49.5302921248937,52.8806887355976,-3.35039661070391
1.19223757608514,82.230265060202,47.5944876834269,-34.6357773767751,-64.9123763718144,58.4330212184885,6.47935515332588
1.19438188827234,95.7522389000934,62.6651660828362,-33.0870728172571,-79.2087024914648,64.4196558586752,14.7890466327895
1.19652620045954,107.176828637164,74.0000639614275,-33.1767646757365,-90.5884462992957,70.1767966564503,20.4116496428455
1.19867051264675,115.261043609119,80.3165759988332,-34.9444676102861,-97.7888098039762,75.1027556097027,22.6860541942736
1.20081482483395,119.515988397511,81.4393016147664,-38.0766867827447,-100.477645006139,78.7963375901279,21.6813074160108
1.20295913702115,120.346719046448,78.408580772405,-41.9381382740433,-99.3776499094266,81.1424286602458,18.2352212491809
1.20510344920836,118.936245528284,73.2348521673319,-45.7013933609519,-96.0855488478079,82.3188194446179,13.76672940319
1.20724776139556,116.906488083859,68.3599327861979,-48.546555297661,-92.6332104350284,82.7265216907599,9.90668874426849
1.20939207358277,115.867898035864,65.997876165681,-49.8700218701829,-90.9328871007725,82.8689599530234,8.06392714774903
1.21153638576997,117.00048939116,67.5686784718983,-49.4318109192615,-92.2845839315291,83.2161501552106,9.06843377631841
1.21368069795717,120.789744339336,73.395913594528,-47.3938307448082,-97.0928289669321,84.0917875420722,13.0010414248599
1.21582501014438,126.984288426309,82.737296404505,-44.2469920218044,-104.860792415407,85.6156402240569,19.2451521913503
1.21796932233158,134.765872191952,94.1001212382622,-40.6657509536893,-114.432996715107,87.7158115728204,26.7171851422865
1.22011363451878,143.05146242625,105.708019656862,-37.3434427693878,-124.379741041556,90.1974525978187,34.1822884437371
1.22225794670599,150.811895697093,115.959038738923,-34.8528569581694,-133.385467218008,92.832376327631,40.5530908903769
1.22440225889319,157.307113777738,123.75003102576,-33.5570827519789,-140.528572401749,95.4320982648586,45.0964741368903
1.22654657108039,162.19209996916,128.618581707332,-33.5735182618273,-145.405340838246,97.8828091154935,47.5225317227525
1.2286908832676,165.507540202743,130.731612638349,-34.775927564394,-148.119576420546,100.141733883568,47.9778425369774
1.2308351954548,167.604449246651,130.78821618161,-36.8162330650405,-149.19633271413,102.210341155846,46.9859915582848
1.232979507642,169.052224838124,129.890525174428,-39.161699663696,-149.471375006276,104.10696225091,45.364412755366
1.23512381982921,170.555403373904,129.394828309315,-41.1605750645896,-149.97511584161,105.857989219247,44.1171266223627
1.23726813201641,172.875755990815,130.723567141314,-42.1521888495019,-151.799661566065,107.513972420159,44.2856891459058
1.23941244420361,176.740848146206,135.121472011418,-41.6193761347883,-155.931160078812,109.180112140497,46.7510479383147
1.24155675639082,182.724911184511,143.373888742198,-39.3510224423126,-163.049399963355,111.037966813412,52.0114331499429
1.24370106857802,191.106733562491,155.547156321473,-35.5595772410182,-173.326944941982,113.333155401755,59.9937895402275
1.24584538076522,201.730608140815,170.831623938341,-30.8989842024735,-186.281116039578,116.314796171644,69.9663198679337
1.24798969295243,213.914163364306,187.559632937982,-26.3545304263241,-200.736898151144,120.134346895315,80.6025512558291
1.25013400513963,226.457714189262,203.441385364048,-23.0163288252138,-214.949549776655,124.737021507238,90.2125282694173
1.25227831732684,237.800919873687,216.01071798617,-21.790201887517,-226.905818929928,129.795560880602,97.1102580493263
1.25442262951404,246.329260784135,223.196857993616,-23.1324027905189,-234.763059388875,134.730831787327,100.032227601549
1.25656694170124,250.763742796636,223.863182901549,-26.9005598950873,-237.313462849092,138.832151345862,98.4813115032306
1.25871125388845,250.511356293125,218.132598933068,-32.3787573600569,-234.321977613096,141.445056826591,92.8769207865054
1.26085556607565,245.851359284795,207.380590439913,-38.4707688448822,-226.615974862354,142.161064064839,84.4549107975154
1.26299987826285,237.888659134361,193.893650964829,-43.9950081695317,-215.891155049595,140.941833651946,74.9493213976487
1.26514419045006,228.287451959465,180.30199117059,-47.9854607888756,-204.294721565028,138.136456374171,66.1582651908571
1.26728850263726,218.865198306169,168.954900207585,-49.9102980985846,-193.910049256877,134.387748202377,59.5223010545
1.26943281482446,211.158854925037,161.404601101341,-49.7542538236966,-186.281728013189,130.456554374367,55.825173638822
1.27157712701167,206.073142454405,158.114294836701,-47.9588476177042,-182.093718645553,127.015995036055,55.0777236094984
1.27372143919887,203.692989987009,158.432892082124,-45.2600979048844,-181.062941034566,124.476543945946,56.5863970886199
1.27586575138607,203.298615590862,160.811508639627,-42.4871069512348,-182.055062115245,122.892861271048,59.1622008441963
1.27801006357328,203.57291924934,163.195505688708,-40.377413560632,-183.384212469024,121.975166404986,61.4090460640379
1.28015437576048,202.947087299295,163.507243208802,-39.4398440904924,-183.227165254049,121.193465694894,62.033699559155
1.28229868794768,199.99810134372,160.121691133224,-39.8764102104959,-180.059896238472,119.937255777108,60.1226404613639
1.28444300013489,193.796947703266,152.228370975284,-41.5685767279822,-173.012659339275,117.682762215624,55.3298971236508
1.28658731232209,184.116585162362,139.988821318553,-44.1277638438091,-162.052703240458,114.122174503086,47.930528737372
1.28873162450929,171.448859843217,124.451977089432,-46.996882753785,-147.950418466324,109.222871298501,38.7275471678235
1.2908759366965,156.840346493552,107.264339178579,-49.5760073149725,-132.052342836066,103.208176904262,28.8441659318034
1.2930202488837,141.613099327365,90.2714435972868,-51.3416557300784,-115.942271462326,96.4773775287218,19.4648939336042
1.2951645610709,127.060864923644,75.1230291007233,-51.9378358229208,-101.091947012184,89.4993503732824,11.5925966389013
1.29730887325811,114.19701334026,62.9659204120634,-51.2310929281962,-88.5814668761615,82.7140531342279,5.86741374193358
1.29945318544531,103.593725165464,54.263010832517,-49.330714332947,-78.9283679989905,76.4622197492055,2.46614824978499
1.30159749763252,95.3182482087434,48.7450524770527,-46.5731957316907,-72.0316503428981,70.9457219702171,1.08592837268099
1.30374180981972,88.9565578026247,45.492934758795,-43.4636230438297,-67.2247462807099,66.2100904232272,1.01465585748267
1.30588612200692,83.7142043648821,43.143170855699,-40.5710335091831,-63.4286876102906,62.1426189370326,1.28606867325794
1.30803043419413,78.5830594578042,40.1865657748554,-38.3964936829488,-59.3848126163298,58.4897765703765,0.895036045953312
1.31017474638133,72.5494355201967,35.2932525721547,-37.256182948042,-53.9213440461757,54.9028092341194,-0.98146518794362
1.31231905856853,64.799103861939,27.5760678846089,-37.2230359773301,-46.187585873274,51.0110699196346,-4.82348404636058
1.31446337075574,54.8674588543727,16.7236097562643,-38.1438490981084,-35.7955343053185,46.5056539762406,-10.7101196709221
1.31660768294294,42.7020218514591,2.98836520704183,-39.7136566444172,-22.8451935292504,41.2078392479381,-18.3626457186877
1.31875199513014,28.6413470590389,-12.9275496327348,-41.5688966917737,-7.85689871315203,35.1051218754063,-27.2482231622542
1.32089630731735,13.3444412487862,-30.0184397227065,-43.3628809714926,8.33699923696016,28.3536611101394,-36.6906603470995
1.32304061950455,-2.29303619780662,-47.0975739930107,-44.8045377952041,24.6953050954087,21.2557507986987,-45.9510558941074
1.32518493169175,-17.2256149598469,-62.8896237431347,-45.6640087832878,40.0576193514908,14.2191969117204,-54.2768162632113
1.32732924387896,-30.3693961731256,-76.1363269511046,-45.7669307779789,53.2528615621151,7.69876730242665,-60.9516288645417
1.32947355606616,-40.7669400016994,-85.7705288361518,-45.0035888344524,63.2687344189256,2.1183244163765,-65.3870588353021
1.33161786825336,-47.8044627087355,-91.1687206027508,-43.3642578940153,69.4865916557432,-2.22010240736014,-67.266489248383
1.33376218044057,-51.4273815211998,-92.4125926720109,-40.9852111508112,71.9199870966054,-5.22108518519432,-66.698901911411
1.33590649262777,-52.2602235920142,-90.4300039061505,-38.1697803141362,71.3451137490824,-7.045221638939,-64.2998921101434
1.33805080481497,-51.5427330923576,-86.8941068850499,-35.3513737926923,69.2184199887037,-8.09567964983267,-61.1227403388711
1.34019511700218,-50.8535323462793,-83.844878337308,-32.9913459910287,67.3492053417937,-8.9310931776253,-58.4181121641684
1.34233942918938,-51.6816627174464,-83.1221195781122,-31.4404568606659,67.4018911477793,-10.1206029283903,-57.2812882193891
1.34448374137659,-54.9816393843869,-85.7999235725438,-30.8182841881569,70.3907814784654,-12.081677598115,-58.3091038803504
1.34662805356379,-60.8702828724747,-91.8350170066827,-30.964734134208,76.3526499395787,-14.9527743691334,-61.3998755704453
1.34877236575099,-68.5799714294671,-100.070878412433,-31.4909069829656,84.3254249209499,-18.5445322232508,-65.7808926976991
1.3509166779382,-76.6933095253874,-108.609659007824,-31.9163494824366,92.6514842666057,-22.3884800214754,-70.2630042451303
1.3530609901254,-83.5878671487716,-115.431128220301,-31.8432610715297,99.5094976845364,-25.872303038621,-73.6371946459155
1.3552053023126,-87.9495689607371,-119.050140781565,-31.100571820828,103.499854871151,-28.4244985699546,-75.0753563011966
1.35734961449981,-89.1873273571321,-118.989360009811,-29.8020326526785,104.088343683471,-29.6926473522268,-74.3956963312445
1.35949392668701,-87.6092796440447,-115.908062080968,-28.2987824369235,101.758670862506,-29.6552486035606,-72.1034222589458
1.36163823887421,-84.3008289896119,-111.350035091177,-27.0492061015656,97.8254320403946,-28.6258114440231,-69.1996205963715
1.36378255106142,-80.7518420071754,-107.209385268305,-26.4575432611298,93.9806136377402,-27.1471493730228,-66.8334642647175
1.36592686324862,-78.3710361828422,-105.10996787982,-26.7389316969781,91.7405020313313,-25.8160522429321,-65.9244497883992
1.36807117543582,-78.0597528674304,-105.913143570134,-27.8533907027035,91.9864482187822,-25.1031810823634,-66.8832671364187
1.37021548762303,-79.9821952262764,-109.505210835281,-29.5230156090044,94.7437030307786,-25.229589808636,-69.5141132221426
1.37235979981023,-83.5860170071431,-114.904191098261,-31.3181740911176,99.2451040527019,-26.1339214580127,-73.1111825946892
1.37450411199743,-87.8352050341349,-120.614653089239,-32.7794480551041,104.224929061687,-27.5278784895154,-76.6970505721715
1.37664842418464,-91.5512324234182,-125.087467211843,-33.5362347884244,108.31934981763,-29.0074988174969,-79.3118510001335
1.37879273637184,-93.7379434844332,-127.128131725071,-33.3901882406374,110.433037604752,-30.1738776218979,-80.259159982854
1.38093704855904,-93.7930495351911,-126.140240498726,-32.3471909635354,109.966645016959,-30.7229292858279,-79.2437157311309
1.38308136074625,-91.5686244512016,-122.167037057324,-30.5984126061227,106.867830754263,-30.4851059225395,-76.3827248317234
1.38522567293345,-87.3057741657241,-115.770822538589,-28.4650483728651,101.538298352157,-29.4203628964295,-72.1179354557272
1.38736998512065,-81.5081483447552,-107.836561679157,-26.3284133344013,94.6723550119559,-27.5898675051769,-67.0824875067789
1.38951429730786,-74.8235950011046,-99.3869165001913,-24.5633214990867,87.1052557506479,-25.1301367510089,-61.975118999639
1.39165860949506,-67.9765938276754,-91.4590473245541,-23.4824534968786,79.7178205761148,-22.2470701653984,-57.4707504107164
1.39380292168227,-61.7490208194314,-85.0418101832565,-23.2927893638251,73.395415501344,-19.2281157278031,-54.1672997735408
1.39594723386947,-56.9644075888373,-81.02891944014,-24.0645118513027,68.9966635144886,-16.4499478687673,-52.5467156457213
1.39809154605667,-54.4175033025121,-80.1302393445116,-25.7127360419995,67.2738713235118,-14.3523836302563,-52.9214876932555
1.40023585824388,-54.7216151952264,-82.7145865971795,-27.9929714019531,68.7181008962029,-13.3643218966366,-55.3537789995663
1.40238017043108,-58.1071975006875,-88.6236190890906,-30.516421588403,73.3654082948891,-13.7953879561422,-59.5700203387468
1.40452448261828,-64.2587169803415,-97.0551897037615,-32.79647272342,80.6569533420515,-15.7311221284608,-64.9258312135907
1.40666879480549,-72.2858210278472,-106.619260944717,-34.3334399168694,89.4525409862819,-18.9761905554889,-70.476350430793
1.40881310699269,-80.8775042395026,-115.607368863791,-34.7298646242884,98.2424365516468,-23.0738198076071,-75.1686167440397
1.41095741917989,-88.6071393061612,-122.416828722303,-33.8096894161413,105.511984014232,-27.39872494501,-78.1132590692219
1.4131017313671,-94.286212446113,-125.984398226067,-31.6981857799537,110.13530533609,-31.2940133330796,-78.8412920030102
1.4152460435543,-97.2419243581084,-126.058626477053,-28.8167021189449,111.650275417581,-34.2126111195818,-77.4376642979991
1.4173903557415,-97.4250462078993,-123.196086081279,-25.7710398733802,110.310566144589,-35.8270031672596,-74.4835629773298
1.41953466792871,-95.3198913728042,-118.481584406545,-23.1616930337407,106.900737889675,-36.0790991695317,-70.8216387201428
1.42167898011591,-91.7012499016099,-113.090571244827,-21.3893213432171,102.395910573218,-35.1559642791964,-67.239946294022
1.42382329230311,-87.3392808187785,-107.876751656907,-20.5374708381287,97.6080162378429,-33.4009049903249,-64.2071112475179
1.42596760449032,-82.7698199150374,-103.149946092115,-20.3801261770778,92.9598830035763,-31.1948468689798,-61.7650361345965
1.42811191667752,-78.2125023728298,-98.7180302877181,-20.5055279148883,88.4652663302739,-28.8534872289707,-59.6117791013032
1.43025622886472,-73.6485518616564,-94.1483770287096,-20.4998251670531,83.898464445183,-26.5743633473016,-57.3241010978814
1.43240054105193,-69.0025361183892,-89.1174651059447,-20.1149289875555,79.060000612167,-24.4438035654169,-54.6161970467501
1.43454485323913,-64.338447726233,-83.6969137071925,-19.3584659809595,74.0176807167128,-22.4899908726368,-51.527689844076
1.43668916542633,-59.9839707601725,-78.4634791498471,-18.4795083896747,69.2237249550098,-20.7522311852489,-48.4714937697609
1.43883347761354,-56.5256007011678,-74.3885597471711,-17.8629590460033,65.4570802241695,-19.3313208275823,-46.1257593965872
1.44097778980074,-54.6605382871717,-72.5328095013427,-17.872271214171,63.5966738942572,-18.3941335365004,-45.2025403577568
1.44312210198795,-54.9419042971358,-73.6326096719915,-18.6907053748557,64.2872569845637,-18.1255994611401,-46.1616575234236
1.44526641417515,-57.5014821977128,-77.7118298852127,-20.2103476874999,67.6066560414628,-18.6455672551064,-48.9610887863563
1.44741072636235,-61.8607841511632,-83.8703267454554,-22.0095425942923,72.8655554483093,-19.9256207784355,-52.9399346698738
1.44955503854956,-66.9269270543831,-90.3686215015145,-23.4416944471313,78.6477742779488,-21.7426163036259,-56.9051579743229
1.45169935073676,-71.2100776484281,-95.0374396309385,-23.8273619825104,83.1237586396833,-23.6913578329589,-59.4324008067245
1.45384366292396,-73.2163210815467,-95.9157079363629,-22.6993868548162,84.5660145089548,-25.2584671133652,-59.3075473955895
1.45598797511117,-71.9007126222022,-91.9149182318405,-20.0142056096383,81.9078154270213,-25.9432535062819,-55.9645619207394
1.45813228729837,-67.0363450814076,-83.2732138803763,-16.2368687989687,75.154779480892,-25.3997381412195,-49.7550413396725
1.46027659948557,-59.3711408591146,-71.6180087850936,-12.246867925979,65.4945748221041,-23.5621364665678,-41.9324383555363
1.46242091167278,-50.4976033224166,-59.5813329090825,-9.08372958666593,55.0394681157496,-20.7069368678753,-34.3325312478742
1.46456522385998,-42.4434196434674,-50.0629691344506,-7.61954949098325,46.253194388959,-17.4119350762421,-28.8412593127169
1.46670953604718,-37.0877537199059,-45.3635693942989,-8.27581567439296,41.2256615571024,-14.4059690227565,-26.8196925343459
1.46885384823439,-35.5881844469209,-46.4724372994625,-10.8842528525416,41.0303108731917,-12.3519657971896,-28.6783450760021
1.47099816042159,-38.0249405896211,-52.7642667357331,-14.7393261461121,45.3946036626771,-11.6428072217545,-33.7517964409226
1.47314247260879,-43.4054213776505,-62.2288530400907,-18.8234316624402,52.8171372088706,-12.2909948576052,-40.5261423512654
1.475286784796,-50.0368036470908,-72.1615635270129,-22.1247598799221,61.0991835870519,-13.9560218835844,-47.1431617034675
1.4774310969832,-56.1253671491735,-80.0591385021087,-23.9337713529352,68.0922528256411,-16.0957978981191,-51.996454927522
1.4795754091704,-60.3695773684168,-84.3832856641513,-24.0137082957345,72.3764315162841,-18.1779345363412,-54.1984969799429
1.48171972135761,-62.322960741627,-84.9161420687714,-22.5931813271445,73.6195514051992,-19.8648897072413,-53.7546616979579
1.48386403354481,-62.4050631126573,-82.6070251097801,-20.2019619971228,72.5060441112187,-21.1015505577673,-51.4044935534515
1.48600834573202,-61.5853561731693,-79.0160889285634,-17.4307327553941,70.3007225508664,-22.0773117088876,-48.2234108419788
1.48815265791922,-60.8905549367545,-75.6077628495684,-14.7172079128139,68.2491588931615,-23.0866735119703,-45.1624853811911
1.49029697010642,-60.9401413803618,-73.1799022856609,-12.2397609052992,67.0600218330113,-24.3501902375313,-42.7098315954801
1.49244128229363,-61.6861839080563,-71.6326702743079,-9.94648636625165,66.6594270911821,-25.8698487709023,-40.7895783202798
1.49458559448083,-62.4452941372945,-70.1315267019416,-7.68623256464706,66.288410419618,-27.3795307863237,-38.9088796332943
1.49672990666803,-62.1994131232695,-67.5674243126396,-5.36801118937004,64.8834187179545,-28.4157009669497,-36.4677177510048
1.49887421885524,-60.0432050306531,-63.1163985195078,-3.07319348885466,61.5798017750804,-28.4850057708992,-33.0947960041812
1.50101853104244,-55.6002172612631,-56.6743749356368,-1.07415767437362,56.13729609845,-27.2630297934448,-28.8742663050052
1.50316284322964,-49.2398894726477,-48.9940110838561,0.245878388791667,49.1169502782519,-24.7428839307197,-24.3740663475322
1.50530715541685,-42.0040839590336,-41.4643036272662,0.539780331767389,41.7341937931499,-21.2719321454005,-20.4622616477494
1.50745146760405,-35.2667579516588,-35.6132847224491,-0.346526770790248,35.440021337054,-17.4601155904343,-17.9799057466197
1.50959577979125,-30.255870677711,-32.5254808032118,-2.2696101255008,31.3906757404614,-13.9931302761051,-17.3975454643563
1.51174009197846,-27.6192673008935,-32.4026327238986,-4.78336542300513,30.010950012396,-11.4179509389442,-18.5929990734519
1.51388440416566,-27.1966239563099,-34.4414711124311,-7.24484715612122,30.8190475343705,-9.97588840009433,-20.8431591342762
1.51602871635286,-28.0768224541649,-37.0762384011785,-8.99941594701365,32.5765304276717,-9.53870325357562,-23.0378271740961
1.51817302854007,-28.9072070966212,-38.4874400856834,-9.58023298906226,33.6973235911523,-9.66348705377945,-24.0338365373728
1.52031734072727,-28.3245226269404,-37.1735295576559,-8.8490069307155,32.7490260922982,-9.73775784811247,-23.0112682441857
1.52246165291447,-25.339798815333,-32.3650727492339,-7.02527393390091,28.8524357822834,-9.15726244071603,-19.6951733415674
1.52460596510168,-19.5473310683099,-24.1419987610164,-4.59466769270649,21.8446649146631,-7.4763316878017,-14.3683332268614
1.52675027728888,-11.1188700725818,-13.2563078577413,-2.13743778515952,12.1875889651615,-4.49071614371111,-7.6968728214504
1.52889458947608,-0.640308840745941,-0.791865349159274,-0.151556508413333,0.716087094952608,-0.244376166166304,-0.471710928786304
1.53103890166329,11.0955910879206,12.1547119065679,1.05912081864727,-11.6251514972443,5.01823513463668,6.60691636260759
1.53318321385049,23.2315957862179,24.6297331641797,1.39813737796182,-23.9306644751988,10.916729204128,13.0139352710708
1.5353275260377,34.8719870765799,35.7785044624478,0.906517385867915,-35.3252457695138,16.982734845356,18.3425109241578
1.5374718382249,45.0196630980883,44.6826003308565,-0.337062767231842,-44.8511317144724,22.6783629326601,22.1727687818123
1.5396161504121,52.5141567103758,50.2316168394202,-2.28253987095558,-51.372886774898,27.3983482906657,23.9745384842323
1.54176046259931,56.0768248858855,51.1755832005192,-4.90124168536633,-53.6262040432023,30.4890332856259,23.1371707575764
1.54390477478651,54.5296019730198,46.4181423912833,-8.11145958173649,-50.4738721821516,31.3205307773782,19.1533414047734
1.54604908697371,47.1667340165431,35.4806404796282,-11.686093536915,-41.3236872480856,29.4264137767291,11.8972734713566
1.54819339916092,34.1568300499533,18.9495231028274,-15.2073069471259,-26.5531765763903,24.6820684985396,1.87110807785074
1.55033771134812,16.7885794164943,-1.32554242229067,-18.1141218387849,-7.73151849710179,17.4513506276396,-9.71983213053779
1.55248202353532,-2.60388947543571,-22.4479855760935,-19.8440961006578,12.5259375257646,8.62010331261105,-21.1460408383757
1.55462633572253,-21.0857552336894,-41.1057834088769,-20.0200281751875,31.0957693212832,-0.532863529250939,-30.5629057920322
1.55677064790973,-35.8312742340363,-54.4357306765326,-18.6044564424962,45.1335024552845,-8.61340889577006,-36.5200935595144
1.55891496009693,-44.8755792220108,-60.8313210512232,-15.9557418292124,52.853450136617,-14.4599186963992,-38.3935314402178
1.56105927228414,-47.6599331947103,-60.4205046943969,-12.7605714996866,54.0402189445536,-17.4496808475118,-36.5905380970418
1.56320358447134,-45.1930664797161,-55.0565180568969,-9.86345157718088,50.1247922683065,-17.6648074512676,-32.4599848170389
1.56534789665854,-39.7800707634389,-47.8250789091381,-8.04500814569916,43.8025748362885,-15.8675313088699,-27.9350435274186
1.56749220884575,-34.4026946091716,-42.2146959457078,-7.81200133653624,38.3086952774397,-13.2953466363177,-25.013348641122
1.56963652103295,-31.9287085296086,-41.183396964241,-9.25468843463234,36.5560527469248,-11.3370100474881,-25.2190426994367
1.57178083322015,-34.365653720838,-46.3729550166486,-12.0073012958106,40.3693043687433,-11.1791762125137,-29.1901281562296
1.57392514540736,-42.3559523495364,-57.6794154215296,-15.3234630719932,50.017683885533,-13.5162446387716,-36.5014392467614
1.57606945759456,-55.0418720653362,-73.2968631637626,-18.2549910984265,64.1693676145494,-18.3934404834548,-45.7759271310946
1.57821376978176,-70.3238683159871,-90.2211753699231,-19.897307053936,80.2725218429551,-25.2132806310255,-55.0592412119296
1.58035808196897,-85.4249512879003,-105.064073012661,-19.6391217247605,95.2445121502805,-32.8929147815699,-62.3515973687106
1.58250239415617,-97.5960600184182,-114.938214138,-17.3421541195821,106.267137078209,-40.1269529494181,-66.1401841287912
1.58464670634338,-104.777660642981,-118.170674700575,-13.3930140575939,111.474167671778,-45.6923232926935,-65.7818443790843
1.58679101853058,-106.068360689245,-114.679966083928,-8.61160539468291,110.374163386586,-48.728377647281,-61.6457857393054
1.58893533071778,-101.917565458465,-105.965487420752,-4.04792196228682,103.941526439608,-48.934821748089,-55.0067046915192
1.59107964290499,-94.0248219332374,-94.7533466859161,-0.728524752678709,94.3890843095767,-46.6481485902793,-47.7409357192974
1.59322395509219,-84.9756849046269,-84.39226466295,0.58342024167689,84.6839747837885,-42.7795525731519,-41.9044222106366
1.59536826727939,-77.6781700636,-78.1133903573783,-0.435220293778272,77.8957802104892,-38.6214748849109,-39.2743053255783
1.5975125794666,-74.6988009702125,-78.2860672055146,-3.5872662353021,76.4924340878635,-35.5557673674552,-40.9366667204083
1.5996568916538,-77.6314470738512,-85.8192581683696,-8.18781109451841,81.7253526211104,-34.7218179896664,-47.003534631444
1.601801203841,-86.6478780770922,-99.8541764575332,-13.2062983804409,93.2510272673127,-36.7207898483256,-56.5302374189871
1.60394551602821,-100.360273604166,-117.85256940869,-17.4922958045237,109.106421506428,-41.4339888998213,-67.6724326066068
1.60608982821541,-116.067925415778,-136.105502168837,-20.0375767530596,126.086713792307,-48.015174331359,-78.0715394609484
1.60823414040261,-130.366628281231,-150.57755237319,-20.2109240919584,140.472090327211,-55.0778520946365,-85.394238232574
1.61037845258982,-139.987410761048,-157.889251020311,-17.9018402592634,148.938330890679,-61.0427852508922,-87.8955456397872
1.61252276477702,-142.641620057811,-156.175069831739,-13.5334497739276,149.408344944775,-64.5540851419418,-84.8542598028331
1.61466707696422,-137.629422291057,-145.575226191847,-7.94580390078997,141.602324241452,-64.8418091951337,-76.7605150463187
1.61681138915143,-126.037782246745,-128.227725062149,-2.18994281540391,127.132753654447,-61.9239197156708,-65.2088339387766
1.61895570133863,-110.484357932036,-107.779927726167,2.704430205869,109.132142829102,-56.5943940689526,-52.5377487601491
1.62110001352583,-94.4982830507132,-88.5731530858912,5.92512996482196,91.5357180683022,-50.2117065077676,-41.3240115605346
1.62324432571304,-81.7179046483115,-74.721174804824,6.99672984348753,78.2195397265677,-44.3573172458995,-33.8622224806682
1.62538863790024,-75.112620903275,-69.2977291274769,5.81489177579813,72.2051750153759,-40.4637563395366,-31.7414186758394
1.62753295008745,-76.4107143796221,-73.7961664122681,2.61454796735406,75.1034403959451,-39.5126311734881,-35.590809222457
1.62967726227465,-85.8493399743316,-87.9503191949914,-2.10097922065981,86.8998295846615,-41.8741803768359,-45.0256492078256
1.63182157446185,-102.265233534684,-109.91365189068,-7.64841835599549,106.089442712682,-47.3084075893445,-58.7810351233377
1.63396588664906,-123.437799522882,-136.690719519932,-13.2529199970504,130.064259521407,-55.0924397629158,-74.9718197584914
1.63611019883626,-146.520332361791,-164.635495986247,-18.1151636244564,155.577914174019,-64.2025843686671,-91.3753298053517
1.63825451102346,-168.385365671488,-189.822671223364,-21.4373055518757,179.104018447426,-73.4740300598061,-105.62998838762
1.64039882321067,-185.774494272885,-208.181517064438,-22.4070227915525,196.978005668661,-81.6837357406662,-115.294269927995
1.64254313539787,-195.258478743037,-215.429602568556,-20.1711238255189,205.344040655796,-87.543677458759,-117.800363197037
1.64468744758507,-193.132187032587,-206.986902869513,-13.8547158369264,200.05954495105,-89.6387355978303,-110.42080935322
1.64683175977228,-175.433194167798,-178.110847496014,-2.67765332821597,176.772020831906,-86.3777704197912,-90.3942504121152
1.64897607195948,-138.243465644807,-124.424483810157,13.8189818346503,131.333974727482,-76.0312237397288,-55.3027509877533
1.65112038414668,-78.3177795763198,-42.8351768418059,35.4826027345139,60.5764782090628,-56.9001911554168,-3.67628705364597
1.65326469633389,6.0649374597181,67.3573690629485,61.2924316032304,-36.7111532613333,-27.6137470717562,64.3249003330895
1.65540900852109,114.241307902942,203.489909064648,89.2486011617066,-158.865608483795,12.4963533706174,146.369255113177
1.65755332070829,242.538410461726,359.021295197805,116.482884736078,-300.779852829766,63.0277628628239,237.752089966942
1.6596976328955,384.080054874989,523.674911203131,139.594856328142,-453.87748303906,122.242599273424,331.634883765637
1.6618419450827,529.128828231097,684.28031805049,155.151489819393,-606.704573140793,186.988669205852,419.715903934942
1.6639862572699,665.9717071364,826.2309338396,160.2592267032,-746.101320488,252.8562402166,493.2450802714
1.66613056945711,782.270985457354,935.386673812083,153.115688354729,-858.828829634718,314.577648551312,544.251181083406
1.66827488164431,866.718059216763,1000.16421114221,133.446151925444,-933.441135179485,366.635953645659,566.805181533826
1.67041919383151,910.742565302386,1013.46654205112,102.723976748733,-962.104553676752,404.009294276826,558.095259399925
1.67256350601872,909.96806891911,974.056479152096,64.0884102329857,-942.012274035603,422.939829343062,519.072444692541
1.67470781820592,865.103974651795,887.032521526515,21.9285468747194,-876.068248089155,421.587713888538,454.480534200617
1.67685213039313,782.04066636695,763.230477723847,-18.8101886431029,-772.635572045399,400.425427505027,372.210144540372
1.67899644258033,671.062295213761,617.604270789696,-53.458024424065,-644.333283001728,362.260159818913,282.073123182815
1.68114075476753,545.276946475244,466.864645477622,-78.4123009976229,-506.070795976433,311.844623736434,194.226172239999
1.68328506695474,418.54099382578,326.818863360543,-91.7221304652369,-372.679928593161,255.131562145508,117.548366447653
1.68542937914194,303.277247994591,209.92810074211,-93.3491472524811,-256.60267436835,198.313197623536,58.2894767448142
1.68757369132914,208.622377868,123.567591041034,-85.0547868269655,-166.094984454517,146.838582347483,19.2564021070342
1.68971800351635,139.273796106738,69.3310513433537,-69.942744763384,-104.302423725046,104.608270435061,-0.305846710015174
1.69186231570355,95.2475831099183,43.4823912551319,-51.7651918547864,-69.3649871825251,73.5063874823524,-4.14140029982723
1.69400662789075,72.5445421180769,38.383520604447,-34.16102151363,-55.464031361262,53.3527818158535,2.1112495454085
1.69615094007796,64.5132193755561,44.506603370346,-20.0066160052101,-54.5099113729511,42.2599176903831,12.2499936825679
1.69829525226516,63.5567389441965,52.5440082500113,-11.0127306941852,-58.0503735971039,37.2847348191908,20.7656387779131
1.70043956445236,62.7868072515649,55.171899775293,-7.6149074762719,-58.9793535134289,35.2008573639184,23.7784961495106
1.70258387663957,57.2820726068911,48.159902934106,-9.12216967278503,-52.7209877704986,33.2021211398381,19.5188666306605
1.70472818882677,44.7334128681593,30.6901055205288,-14.0433073476304,-37.7117591943441,29.3883601078949,8.3233990864492
1.70687250101397,25.4185108607188,4.91647621406845,-20.5020346466504,-15.1674935373936,22.9602727536846,-7.79277921629095
1.70901681320118,1.6050756394052,-25.0542161499181,-26.6592917893233,11.7245702552565,14.1321837143643,-25.8567539696207
1.71116112538838,-23.3968996807743,-54.4649804130609,-31.0680807322867,38.9309400469176,3.8355905257562,-42.7665305726738
1.71330543757558,-46.2555351280728,-79.1535854389534,-32.8980503108806,62.7045602835131,-6.67874240859611,-56.025817874917
1.71544974976279,-64.4501077974373,-96.4438391523505,-31.9937313549132,80.4469734748939,-16.228188221262,-64.2187852536318
1.71759406194999,-76.7422901824381,-105.514632618725,-28.7723424362866,91.1284614005814,-23.9849738730757,-67.1434875275057
1.71973837413719,-83.2342377273233,-107.246422645766,-24.0121849184427,95.2403301865447,-29.6110264044403,-65.6293037821044
1.7218826863244,-85.0826835604669,-103.692304284545,-18.6096207240781,94.387493922506,-33.2365314181944,-61.1509625043116
1.7240269985116,-84.0199377157348,-97.3950591340927,-13.375121418358,90.7074984249137,-35.3224081486884,-55.3850902762253
1.72617131069881,-81.8558592433487,-90.7600924243089,-8.90423318096015,86.3079758338288,-36.4758130311943,-49.8321628026345
1.72831562288601,-80.1002975818699,-85.6243520380964,-5.52405445622647,82.8623248099831,-37.2881215628217,-45.5742032471614
1.73045993507321,-79.7716283344309,-83.0692897987347,-3.29766146430386,81.4204590665828,-38.2369834350635,-43.1834756315193
1.73260424726042,-81.3745156602496,-83.4399953657365,-2.06547970548691,82.4072555129931,-39.6545179773814,-42.7527375356117
1.73474855944762,-84.9735833836355,-86.4798088122719,-1.50622542863638,85.7266960979537,-41.7336789774996,-43.9930171204541
1.73689287163482,-90.282608991107,-91.4893913934577,-1.20678240235074,90.8860001922823,-44.5379132943781,-46.3480868979042
1.73903718382203,-96.7266361048681,-97.4631043626147,-0.736468257746566,97.0948702337414,-47.9950839235608,-49.0997863101806
1.74118149600923,-103.485251690826,-103.208841466367,0.276410224458843,103.347046578596,-51.8808309576422,-51.4662156209539
1.74332580819643,-109.554806029569,-107.485433051096,2.06937297847283,108.520119540332,-55.8120895040208,-52.7080300363116
1.74547012038364,-113.863869681146,-109.18227940439,4.68159027675638,111.523074542768,-59.2727299789513,-52.2503445638167
1.74761443257084,-115.450320599637,-107.531775349611,7.91854525002613,111.491047974624,-61.6844329248316,-49.8066150497924
1.74975874475804,-113.67557957161,-102.310885149221,11.3646944223889,107.993232360415,-62.5201369969992,-45.473095363416
1.75190305694525,-108.423335907848,-93.9718721149432,14.4514637929043,101.197604011395,-61.4373998503759,-39.7602041610194
1.75404736913245,-100.216072369811,-83.6453762191017,16.5706961507093,91.9307242944564,-58.3933842602602,-33.5373400341962
1.75619168131965,-90.1894535970392,-72.9766645620873,17.2127890349518,81.5830590795632,-53.7011213159955,-27.8819377635677
1.75833599350686,-79.895105319271,-63.7911053664708,16.1039999528002,71.8431053428709,-47.9995526360356,-23.8435527068353
1.76048030569406,-70.9546023823087,-57.6428733641619,13.3117290181467,64.2987378732353,-42.1331657002277,-22.1655721730076
1.76262461788126,-64.6477708425941,-55.3660128504996,9.2817579920945,60.0068918465469,-36.9647644173443,-23.0421274292026
1.76476893006847,-61.5595045474882,-56.7806470059158,4.77885754157246,59.170075776702,-33.1691810445303,-26.0008947321717
1.76691324225567,-61.406315879135,-60.677131784164,0.729184094970989,61.0417238316495,-31.067749987053,-29.9739738445965
1.76905755444288,-63.1115636158338,-65.1110881295744,-1.99952451374067,64.1113258727041,-30.5560195510465,-33.5553063216575
1.77120186663008,-65.1154218963304,-67.932466721142,-2.81704482481165,66.5239443087362,-31.1491885357594,-35.3747557729768
1.77334617881728,-65.8269864872602,-67.3915998933691,-1.56461340610893,66.6092931903146,-32.1311865405756,-34.478106649739
1.77549049100449,-64.0833544610926,-62.6435426502262,1.43981181086638,63.3634485556594,-32.7615831359795,-30.6018654196799
1.77763480319169,-59.4835308279096,-54.0064256663793,5.47710516153032,56.7449782471445,-32.48031799472,-24.2646602524245
1.77977911537889,-52.5022815568643,-42.8986926361612,9.60358892070311,47.7004870965127,-31.0529352387837,-16.647551857729
1.7819234275661,-44.3469892692209,-31.4639307946583,12.8830584745626,37.9054600319396,-28.6150238718917,-9.29043616004782
1.7840677397533,-36.5909913164591,-21.9778836499179,14.6131076665412,29.2844374831885,-25.6020494915002,-3.68238799168833
1.7862120519405,-30.6877309968093,-16.2032247478218,14.4845062489875,23.4454778723155,-22.5861186228984,-0.859359249417167
1.78835636412771,-27.5180820226038,-14.8858919481602,12.6321900744436,21.201986985382,-20.0751360485237,-1.12685093685834
1.79050067631491,-27.1212208287913,-17.5493612784661,9.57185955032517,22.3352910536287,-18.3465401895582,-3.98875086407048
1.79264498850211,-28.6967420480939,-22.6457295262174,6.05101252187648,25.6712357871557,-17.3738772849852,-8.29735850217046
1.79478930068932,-30.8658249164566,-28.0030472145916,2.86277770186506,29.4344360655241,-16.8643013091609,-12.5701347563633
1.79693361287652,-32.0903439240554,-31.4175651151766,0.672778808878817,31.753954519616,-16.3815613664671,-15.3723931531489
1.79907792506372,-31.1095464986572,-31.2126801445425,-0.103133645885318,31.1611133215998,-15.5032064263859,-15.6579068952139
1.80122223725093,-27.2697764165552,-26.6247195040319,0.645056912523334,26.9472479602935,-13.9574166645393,-12.9898312957543
1.80336654943813,-20.6728809153974,-17.9474643310241,2.72541658437331,19.3101726232107,-11.6991487498854,-7.61102387332538
1.80551086162533,-12.1268124290864,-6.43275379282592,5.69405863626048,9.27978311095615,-8.91043553267344,-0.369347578282719
1.80765517381254,-2.92886673605618,6.01398811096809,8.94285484702427,-1.54256068745595,-5.93586079154023,7.47842147899618
1.80979948599974,5.45809906423474,17.2785030314359,11.8204039672011,-11.3683010478353,-3.18115245148319,14.5494534993185
1.81194379818694,11.7592071454528,25.5328767101376,13.7736695646848,-18.6460419277952,-1.00723120961599,19.6532731374112
1.81408811037415,15.1859414499507,29.6663318789057,14.480390428955,-22.4261366644282,0.352775510497819,22.0733611539304
1.81623242256135,15.6023396124145,29.53247057846,13.9301309660455,-22.5674050954373,0.836104323184529,21.7313007722527
1.81837673474856,13.515870977766,25.9365806947974,12.4207097170315,-19.7262258362817,0.547580630367237,19.1786452059145
1.82052104693576,9.90721460970155,20.3754936959959,10.4682790862944,-15.1413541528487,-0.280532238296404,15.4218863911451
1.82266535912296,5.97060734441738,14.6348342679348,8.66422692351739,-10.3027208061761,-1.34680978955,11.6495305957261
1.82480967131017,2.86212393466796,10.3901570695298,7.52803313486182,-6.62614050209887,-2.33295460009693,8.9590951021958
1.82695398349737,1.52999623156112,8.92798121751543,7.39798498595431,-5.22898872453828,-2.9339943771966,8.16298310173487
1.82909829568457,2.6435686757173,11.0258381255064,8.38226944978906,-6.83470340061183,-2.86935038703588,9.70405378764771
1.83124260787178,6.58538263766004,16.9573454041507,10.3719627664907,-11.7713640209054,-1.89329006441531,13.6646540853207
1.83338692005898,13.4577764399384,26.5575018434469,13.0997254035085,-20.0076391416927,0.17902551821498,19.8286136234777
1.83553123224618,23.0809186225867,39.2983984445762,16.2174798219896,-31.1896585335815,3.43171940029855,27.7579391332829
1.83767554443339,34.9923477005779,54.3596245726177,19.3672768720398,-44.6759861365978,7.81253541426905,36.8634507223287
1.83981985662059,48.4691885018923,70.7001873350038,22.2309988331115,-59.5846879184481,13.1190948343904,46.4655930840577
1.84196416880779,62.5819401361491,87.1388783888199,24.5569382526707,-74.8604092624845,19.0125009417392,55.8479083207453
1.844108480995,76.2735940519847,102.439497533285,26.1659034813,-89.3565457926347,25.0538452853423,64.3027005072924
1.8462527931822,88.4549130778017,115.395664776206,26.9407516984048,-101.925288927004,30.7570806896985,71.1682082373056
1.8483971053694,98.1132159744759,124.924467267645,26.8112512931691,-111.51884162106,35.6509823406534,75.8678592804071
1.85054141755661,104.437695853179,130.194002763478,25.7563069102993,-117.315849308329,39.3406944714398,77.9751548368888
1.85268572974381,106.962033334579,130.801853221634,23.8398198870555,-118.881943278107,41.5611067237617,77.3208365543449
1.85483004193101,105.71095129564,126.980080653479,21.2691293578391,-116.345515974559,42.2209109689002,74.1246050056589
1.85697435411822,101.312493876967,119.747192751164,18.4346988741972,-110.529843314066,41.438897501385,69.0909458126808
1.85911866630542,95.0158944988965,110.898605620345,15.8827111214489,-102.957250059621,39.5665916887238,63.3906583708972
1.86126297849262,88.5594929502543,102.759620031639,14.2001270813851,-95.6595564909468,37.1796829344346,58.4798735565122
1.86340729067983,83.8769350819446,97.7184715351462,13.8415364532016,-90.7977033085454,35.0176993143715,55.7800039941739
1.86555160286703,82.6964235884841,97.6638847452513,14.9674611567672,-90.1801541668677,33.8644812158584,56.3156729510093
1.86769591505424,86.1400485960218,103.5069160948,17.3668674987784,-94.823482345411,34.3865905486217,60.4368917967893
1.86984022724144,94.4388076363908,114.938884732699,20.5000770963079,-104.688846184545,36.9693652700414,67.7194809145033
1.87198453942864,106.842327410378,130.488199536958,23.6458721265799,-118.665263473668,41.5982276418992,77.0670358317691
1.87412885161585,121.744409967527,147.842033573984,26.0976236064569,-134.793221770755,47.8233931805349,86.9698285902202
1.87627316380305,136.994694846444,164.336913869084,27.3422190226395,-150.665804357764,54.8262379119023,95.8395664458616
1.87841747599025,150.333461669388,177.503792238334,27.170330568946,-163.918626953861,61.5815655502211,102.33706140364
1.88056178817746,159.863075254892,185.559888828205,25.6968135733123,-172.711482041549,67.0831308407901,105.628351200758
1.88270610036466,164.451581451782,187.752481443178,23.3008999913957,-176.10203144748,70.5753407301933,105.526690717287
1.88485041255186,163.96414304757,184.477679761329,20.5135367137591,-174.220911404449,71.7253031669054,102.495608237544
1.88699472473907,159.253061834152,177.135787442956,17.8827256088041,-168.194424638554,70.685168112674,97.5092565258802
1.88913903692627,151.906733894555,167.753513330819,15.8467794362639,-159.830123612687,68.0299772291457,91.8001463835415
1.89128334911347,143.836075155529,158.479300322502,14.6432251669732,-151.157687739016,64.596424994278,86.5612627447378
1.89342766130068,136.824423880267,151.096730699553,14.2723068192858,-143.96057728991,61.2760585304906,82.6845187594193
1.89557197348788,132.160442274026,146.679892491114,14.5194502170875,-139.42016738257,58.8204960284695,80.5996713541007
1.89771628567508,130.426342625614,145.454961126126,15.0286185005116,-137.94065187587,57.6988620625514,80.2417898133189
1.89986059786229,131.460993826482,146.870737480694,15.4097436542127,-139.165865653588,58.0256250861345,81.1402405674535
1.90200491004949,134.481476993573,149.834823249559,15.3533462559858,-142.158150121566,59.5640653687936,82.5940847527723
1.90414922223669,138.323156243753,153.040405787878,14.7172495441251,-145.681781015815,61.8029533498137,83.8788276660013
1.9062935344239,141.736040516175,155.292053194413,13.5560126782376,-148.514046855294,64.0900139189687,84.4240329363251
1.9084378466111,143.658558992191,155.744276642729,12.085717650538,-149.70141781746,65.7864206708263,83.9149971466333
1.91058215879831,143.395130243688,153.996261282852,10.6011310391642,-148.69569576327,66.3969996022618,82.2986961610082
1.91272647098551,140.658525985262,150.034316538124,9.37579055286162,-145.346421261693,65.6413677162004,79.7050535454928
1.91487078317271,135.490053178784,144.067383090444,8.57732991165983,-139.778718134614,63.4563616335623,76.322356501052
1.91701509535992,128.115171392129,136.338638158676,8.22346676654666,-132.226904775403,59.9458523127913,72.2810524626113
1.91915940754712,118.806695054427,126.996101760821,8.18940670639381,-122.901398407624,55.3086441740168,67.5927542336075
1.92130371973432,107.807003509191,116.065785187884,8.25878167869303,-111.936394348537,49.7741109152488,62.1622834332883
1.92344803192153,95.3209159049669,103.516602719761,8.195686814794,-99.4187593123638,43.5626145450864,55.8561447672774
1.92559234410873,81.5560282161738,89.3679092548797,7.81188103870591,-85.4619687355268,36.872073588734,48.5898951467928
1.92773665629593,66.7721922284872,73.7841705325947,7.0119783041075,-70.2781813805409,29.8801069621898,40.3980744183511
1.92988096848314,51.3086018839007,57.1215767890978,5.81297490519712,-54.2150893364992,22.7478134893518,31.4672758471475
1.93202528067034,35.5785571322699,39.9199564473616,4.34139931509164,-37.7492567898157,15.6185789085891,22.1306778812266
1.93416959285754,20.0431976737745,22.8526090473901,2.8094113736156,-21.4479033605823,8.61689315007946,12.8310102105029
1.93631390504475,5.18001722174521,6.64998390256048,1.46996668081527,-5.91500056215284,1.85502527046497,4.05997529168787
1.93845821723195,-8.55162986728346,-7.99331757704125,0.558312290242213,8.27247372216236,-4.55497107876284,-3.71750264339952
1.94060252941915,-20.7587386650872,-20.5217644967688,0.236974168318426,20.640251580928,-10.4978564167028,-10.1423951642252
1.94274684160636,-31.1804341214927,-30.6179356368263,0.562498484666442,30.8991848791595,-15.8714663030796,-15.0277185760799
1.94489115379356,-39.7532342588242,-38.2715880151415,1.48164624368275,39.0124111369829,-20.6174402512535,-18.3949708857294
1.94703546598076,-46.644575064088,-43.7931996344339,2.85137542965409,45.2188873492609,-24.747975246871,-20.4709121023899
1.94917977816797,-52.2338107888872,-47.7628749180544,4.47093587083286,49.9983428534708,-28.35237332986,-21.6459695236107
1.95132409035517,-57.0450809428925,-50.9278579397396,6.11722300315293,53.986469441316,-31.5811519730227,-22.4053174682933
1.95346840254237,-61.6567554373018,-54.0765691769497,7.58018626035208,57.8666623071258,-34.6184708488269,-23.2481914582988
1.95561271472958,-66.6146627755847,-57.9174293645361,8.69723341104861,62.2660460700604,-37.6559480933166,-24.6100979767437
1.95775702691678,-72.3619186868886,-62.9799607779606,9.38195790892806,67.6709397324246,-40.8719382979084,-26.7990014345163
1.95990133910399,-79.1816358502834,-69.5445719055969,9.63706394468649,74.3631038779402,-44.409349897485,-29.9537539804552
1.96204565129119,-87.1476388113509,-77.6052335799063,9.54240523144469,82.3764361956286,-48.3450220213978,-34.0314141742308
1.96418996347839,-96.0933366581858,-86.8731419205907,9.22019473759514,91.4832392893882,-52.6567656978905,-38.8264735914978
1.9663342756656,-105.620670498348,-96.826733340442,8.79393715790607,101.223701919395,-57.2073038281271,-44.016398091268
1.9684785878528,-115.162673864531,-106.798341192416,8.36433267211521,110.980507528474,-61.7635032683232,-49.2170042601504
1.97062290004,-124.0896896035,-116.074080268612,8.0156093348878,120.081884936056,-66.0526494691939,-54.0292354668622
1.97276721222721,-131.829695200289,-123.988832153089,7.84086304720063,127.909263676689,-69.8352791237449,-58.073984552944
1.97491152441441,-137.970981690219,-130.015552182431,7.95542950778827,133.993266936325,-72.9632055990036,-61.0300613373212
1.97705583660161,-142.328400428232,-133.851403999916,8.4769964283162,138.089902214074,-75.402698428274,-62.6872037857997
1.97920014878882,-144.968435004344,-135.484694367662,9.48374063668174,140.226564686003,-77.226087820513,-63.0004768654904
1.98134446097602,-146.192195838861,-135.209446367816,10.9827494710445,140.700821103339,-78.5874726549527,-62.1133484483859
1.98348877316322,-146.472723532695,-133.562379772951,12.9103437597439,140.017551652823,-79.6915336462192,-60.3260180066034
1.98563308535043,-146.346610103655,-131.187276021062,15.1593340825927,138.766943062358,-80.7529720931237,-58.0139709692347
1.98777739753763,-146.275473664161,-128.664031140854,17.6114425233069,137.469752402508,-81.9434580937341,-55.5262943087737
1.98992170972483,-146.512637863498,-126.358452885848,20.1541849776499,136.435545374673,-83.3334114205738,-53.1021339540989
1.99206602191204,-147.02194469069,-124.347812662275,22.6741320284157,135.684878676482,-84.848038359553,-50.8368403169295
1.99421033409924,-147.488433818791,-122.453849509653,25.034584309138,134.971141664222,-86.2615090639646,-48.7096326002576
1.99635464628644,-147.430047061875,-120.372715788963,27.0573312729124,133.901381425419,-87.2436891673938,-46.6576922580252
1.99849895847365,-146.375683929165,-117.847009844476,28.5286740846896,132.11134688682,-87.4521790069274,-44.659167879893
2.00064327066085,-144.042699202493,-114.804416266185,29.2382829363074,129.423557734339,-86.6404910694001,-42.783066664939
2.00278758284805,-140.446457530636,-111.405144384354,29.0413131462824,125.925800957495,-84.7438853384592,-41.1819156190356
2.00493189503526,-135.90492012816,-107.984811282744,27.9201088454151,121.944865705452,-81.9125144867873,-40.0323512186647
2.00707620722246,-130.944911285777,-104.924457382648,26.0204539031294,117.934684334212,-78.4826825944532,-39.4520017397591
2.00922051940967,-126.152862465014,-102.506522280724,23.6463401842901,114.329692372869,-74.8996013246521,-39.430091048217
2.01136483159687,-122.027057725188,-100.818871584324,21.2081861408635,111.422964654756,-71.6176219330257,-39.8053427217304
2.01350914378407,-118.878296715932,-99.747010863192,19.1312858527395,109.312653789562,-69.0047912843356,-40.3078625052262
2.01565345597128,-116.800613449842,-99.0530871116776,17.7475263381648,107.92685028076,-67.2740698940036,-40.6527803867564
2.01779776815848,-115.706857401722,-98.4995957783585,17.2072616233637,107.10322659004,-66.4570595125429,-40.6461670774974
2.01994208034568,-115.405345229539,-97.9608910195769,17.4444542099616,106.683118124558,-66.4248997197501,-40.2582184048077
2.02208639253289,-115.685982494861,-97.48135328043,18.2046292144308,106.583667887645,-66.9453058546458,-39.6383620329996
2.02423070472009,-116.385261790209,-97.2650467028835,19.120215087325,106.825154246546,-67.7527384387668,-39.0724158077792
2.02637501690729,-117.407455516784,-97.5989704360133,19.8084850807709,107.503212976399,-68.6079702987776,-38.8952426776212
2.0285193290945,-118.693740172811,-98.7233392599072,19.9704009129036,108.708539716359,-69.3320705428572,-39.3764691735018
2.0306636412817,-120.15128556894,-100.679679516773,19.4716060521667,110.415482542857,-69.8114458105534,-40.6040367323034
2.0328079534689,-121.576432575183,-103.190559754541,18.385872820642,112.383496164862,-69.9811526979124,-42.4023434669494
2.03495226565611,-122.619262151851,-105.637304562103,16.981957589748,114.128283356977,-69.8006098707996,-44.3276734861777
2.03709657784331,-122.827854681717,-107.183250780243,15.6446039014737,115.00555273098,-69.2362292915954,-45.7693234393849
2.03924089003051,-121.777088823575,-107.032741567165,14.7443472564093,114.40491519537,-68.260718039992,-46.144197155378
2.04138520221772,-119.244342211253,-104.74306261742,14.5012795938322,111.993702414336,-66.8728109025424,-45.1208915117941
2.04352951440492,-115.364274495167,-100.462817639188,14.901456855979,107.913546067177,-65.132865675573,-42.7806803916044
2.04567382659212,-110.690287030846,-94.9866355296863,15.7036515011593,102.838461280266,-63.1969692660025,-39.6414920142635
2.04781813877933,-106.115261295566,-89.5850450969248,16.5302161986413,97.8501531962454,-61.3227387471037,-36.5274144491417
2.04996245096653,-102.655041031032,-85.6556311252991,16.9994099057332,94.1553360781657,-59.8272254683827,-34.328110609783
2.05210676315374,-101.158504457016,-84.3103458821731,16.8481585748428,92.7344251695945,-59.0033315159294,-33.7310936536651
2.05425107534094,-102.048418158175,-86.0382571046236,16.0101610535516,94.0433376313994,-59.0292896058634,-35.014048025536
2.05639538752814,-105.190622463558,-90.5544981230728,14.6361243404851,97.8725602933154,-59.9133734020215,-37.9591868912938
2.05853969971535,-109.934911158569,-96.8769702267112,13.0579409318577,103.40594069264,-61.4964260452133,-41.9095146474267
2.06068401190255,-115.300657001242,-103.593081484754,11.7075755164884,109.446869242998,-63.5041162588653,-45.9427529841326
2.06282832408975,-120.232932825067,-109.224141559645,11.0087912654221,114.728537192356,-65.6208620452447,-49.1076751471116
2.06497263627696,-123.847254878894,-112.581618035228,11.2656368436659,118.214436457061,-67.5564458612799,-50.6579905957811
2.06711694846416,-125.601654854495,-113.027909085761,12.5737457687341,119.314781970128,-69.0877003116145,-50.2270816585134
2.06926126065136,-125.36291621871,-110.584333838774,14.7785823799368,117.973625028742,-70.0707492993236,-47.9028757294185
2.07140557283857,-123.359393251747,-105.860478359414,17.4989148923332,114.609935805581,-70.4291540720403,-44.1807817335405
2.07354988502577,-120.038217276753,-99.8180690423244,20.2201482344283,109.928143159539,-70.1291827555904,-39.7989604039481
2.07569419721297,-115.872530851873,-93.4355926142367,22.4369382376364,104.654061733055,-69.1547345447547,-35.4993271883001
2.07783850940018,-111.187952435026,-87.3903637714794,23.7975886635466,99.2891581032526,-67.4927705492862,-31.7963875539664
2.07998282158738,-106.08117320896,-81.8859969211307,24.1951762878289,93.9835850650452,-65.1381747483943,-28.8454103166509
2.08212713377458,-100.472957573643,-76.7014917580956,23.7714658155477,88.5872246658695,-62.1222116945955,-26.4650129712739
2.08427144596179,-94.2762998036643,-71.4393737639884,22.8369260396759,82.8578367838263,-58.5566129216701,-24.3012238621563
2.08641575814899,-87.5978319760933,-65.8547141438524,21.7431178322408,76.7262730599729,-54.6704749041671,-22.0557981558058
2.08856007033619,-80.8657840533879,-60.1072636083301,20.7585204450578,70.486523830859,-50.8121522492228,-19.6743715816362
2.0907043825234,-74.8083163572956,-54.8160617395375,19.9922546177581,64.8121890484166,-47.4002854875269,-17.4119035608897
2.0928486947106,-70.2744769412509,-50.886155534474,19.3883214067768,60.5803162378625,-44.8313991740139,-15.7489170638486
2.0949930068978,-67.9595123845442,-49.1738504536959,18.7856619308484,58.56668141912,-43.3725871576963,-15.1940942614238
2.09713731908501,-68.1364092578209,-50.1218095733348,18.0145996844861,59.1291094155778,-43.0755044711535,-16.0536049444244
2.09928163127221,-70.4962423837967,-53.5103486011847,16.9858937826121,62.0032954924907,-43.7410680832044,-18.2622274092863
2.10142594345942,-74.1670063142015,-58.4347042805003,15.7323020337012,66.3008552973509,-44.9496541739514,-21.3512011233995
2.10357025564662,-77.9254013514468,-63.5404702508583,14.3849311005885,70.7329358011525,-46.1551662260176,-24.5777695751349
