t,leadI,leadII,leadIII,aVR,aVL,aVF
0,1022,543,-479,-782.5,750.5,32
0.00216169476869866,1019,543,-476,-781,747.5,33.5
0.00432338953739732,1021,543,-478,-782,749.5,32.5
0.00648508430609598,1018,543,-475,-780.5,746.5,34
0.00864677907479464,1014,543,-471,-778.5,742.5,36
0.0108084738434933,1014,543,-471,-778.5,742.5,36
0.012970168612192,1005,543,-462,-774,733.5,40.5
0.0151318633808906,1001,543,-458,-772,729.5,42.5
0.0172935581495893,1001,543,-458,-772,729.5,42.5
0.0194552529182879,1003,543,-460,-773,731.5,41.5
0.0216169476869866,1010,543,-467,-776.5,738.5,38
0.0237786424556853,1017,543,-474,-780,745.5,34.5
0.0259403372243839,1021,543,-478,-782,749.5,32.5
0.0281020319930826,1021,543,-478,-782,749.5,32.5
0.0302637267617812,1019,543,-476,-781,747.5,33.5
0.0324254215304799,1011,543,-468,-777,739.5,37.5
0.0345871162991786,1001,543,-458,-772,729.5,42.5
0.0367488110678772,1000,543,-457,-771.5,728.5,43
0.0389105058365759,1017,543,-474,-780,745.5,34.5
0.0410722006052745,1023,543,-480,-783,751.5,31.5
0.0432338953739732,1022,542,-480,-782,751,31
0.0453955901426719,1023,542,-481,-782.5,752,30.5
0.0475572849113705,1022,543,-479,-782.5,750.5,32
0.0497189796800692,1022,543,-479,-782.5,750.5,32
0.0518806744487678,1022,543,-479,-782.5,750.5,32
0.0540423692174665,1022,543,-479,-782.5,750.5,32
0.0562040639861651,1023,543,-480,-783,751.5,31.5
0.0583657587548638,1021,543,-478,-782,749.5,32.5
0.0605274535235625,1021,543,-478,-782,749.5,32.5
0.0626891482922611,1021,543,-478,-782,749.5,32.5
0.0648508430609598,1022,543,-479,-782.5,750.5,32
0.0670125378296585,1020,543,-477,-781.5,748.5,33
0.0691742325983571,1020,542,-478,-781,749,32
0.0713359273670558,1021,543,-478,-782,749.5,32.5
0.0734976221357544,1021,543,-478,-782,749.5,32.5
0.0756593169044531,988,543,-445,-765.5,716.5,49
0.0778210116731518,964,543,-421,-753.5,692.5,61
0.0799827064418504,953,543,-410,-748,681.5,66.5
0.0821444012105491,951,543,-408,-747,679.5,67.5
0.0843060959792477,958,543,-415,-750.5,686.5,64
0.0864677907479464,963,543,-420,-753,691.5,61.5
0.088629485516645,971,543,-428,-757,699.5,57.5
0.0907911802853437,977,543,-434,-760,705.5,54.5
0.0929528750540424,982,543,-439,-762.5,710.5,52
0.095114569822741,984,543,-441,-763.5,712.5,51
0.0972762645914397,984,542,-442,-763,713,50
0.0994379593601383,975,543,-432,-759,703.5,55.5
0.101599654128837,967,543,-424,-755,695.5,59.5
0.103761348897536,962,543,-419,-752.5,690.5,62
0.105923043666234,963,543,-420,-753,691.5,61.5
0.108084738434933,974,543,-431,-758.5,702.5,56
0.110246433203632,987,543,-444,-765,715.5,49.5
0.11240812797233,995,543,-452,-769,723.5,45.5
0.114569822741029,1000,543,-457,-771.5,728.5,43
0.116731517509728,998,542,-456,-770,727,43
0.118893212278426,991,543,-448,-767,719.5,47.5
0.121054907047125,983,543,-440,-763,711.5,51.5
0.123216601815824,978,543,-435,-760.5,706.5,54
0.125378296584522,982,543,-439,-762.5,710.5,52
0.127539991353221,982,543,-439,-762.5,710.5,52
0.12970168612192,983,543,-440,-763,711.5,51.5
0.131863380890618,991,542,-449,-766.5,720,46.5
0.134025075659317,1007,543,-464,-775,735.5,39.5
0.136186770428016,1017,543,-474,-780,745.5,34.5
0.138348465196714,1022,543,-479,-782.5,750.5,32
0.140510159965413,1022,543,-479,-782.5,750.5,32
0.142671854734112,1021,543,-478,-782,749.5,32.5
0.14483354950281,1020,542,-478,-781,749,32
0.146995244271509,1012,543,-469,-777.5,740.5,37
0.149156939040208,1006,543,-463,-774.5,734.5,40
0.151318633808906,1004,543,-461,-773.5,732.5,41
0.153480328577605,1001,543,-458,-772,729.5,42.5
0.155642023346304,999,543,-456,-771,727.5,43.5
0.157803718115002,999,543,-456,-771,727.5,43.5
0.159965412883701,995,543,-452,-769,723.5,45.5
0.162127107652399,999,543,-456,-771,727.5,43.5
0.164288802421098,1003,543,-460,-773,731.5,41.5
0.166450497189797,1016,543,-473,-779.5,744.5,35
0.168612191958495,1023,543,-480,-783,751.5,31.5
0.170773886727194,1020,543,-477,-781.5,748.5,33
0.172935581495893,1021,543,-478,-782,749.5,32.5
0.175097276264591,1021,542,-479,-781.5,750,31.5
0.17725897103329,1021,543,-478,-782,749.5,32.5
0.179420665801989,1023,543,-480,-783,751.5,31.5
0.181582360570687,1020,543,-477,-781.5,748.5,33
0.183744055339386,1019,543,-476,-781,747.5,33.5
0.185905750108085,1023,542,-481,-782.5,752,30.5
0.188067444876783,1021,543,-478,-782,749.5,32.5
0.190229139645482,1020,543,-477,-781.5,748.5,33
0.192390834414181,1021,543,-478,-782,749.5,32.5
0.194552529182879,1022,543,-479,-782.5,750.5,32
0.196714223951578,1022,543,-479,-782.5,750.5,32
0.198875918720277,1022,543,-479,-782.5,750.5,32
0.201037613488975,1022,543,-479,-782.5,750.5,32
0.203199308257674,1022,543,-479,-782.5,750.5,32
0.205361003026373,1023,543,-480,-783,751.5,31.5
0.207522697795071,1022,543,-479,-782.5,750.5,32
0.20968439256377,1023,542,-481,-782.5,752,30.5
0.211846087332469,1020,543,-477,-781.5,748.5,33
0.214007782101167,1021,543,-478,-782,749.5,32.5
0.216169476869866,1022,543,-479,-782.5,750.5,32
0.218331171638565,1021,543,-478,-782,749.5,32.5
0.220492866407263,1020,542,-478,-781,749,32
0.222654561175962,1022,543,-479,-782.5,750.5,32
0.224816255944661,1021,543,-478,-782,749.5,32.5
0.226977950713359,1021,543,-478,-782,749.5,32.5
0.229139645482058,1020,543,-477,-781.5,748.5,33
0.231301340250757,1022,543,-479,-782.5,750.5,32
0.233463035019455,1022,543,-479,-782.5,750.5,32
0.235624729788154,1021,543,-478,-782,749.5,32.5
0.237786424556853,1022,543,-479,-782.5,750.5,32
0.239948119325551,1021,543,-478,-782,749.5,32.5
0.24210981409425,1023,543,-480,-783,751.5,31.5
0.244271508862949,1020,543,-477,-781.5,748.5,33
0.246433203631647,1021,543,-478,-782,749.5,32.5
0.248594898400346,1021,543,-478,-782,749.5,32.5
0.250756593169045,1023,543,-480,-783,751.5,31.5
0.252918287937743,1020,543,-477,-781.5,748.5,33
0.255079982706442,1021,543,-478,-782,749.5,32.5
0.25724167747514,1022,543,-479,-782.5,750.5,32
0.259403372243839,1021,543,-478,-782,749.5,32.5
0.261565067012538,1022,542,-480,-782,751,31
0.263726761781236,1021,543,-478,-782,749.5,32.5
0.265888456549935,1022,543,-479,-782.5,750.5,32
0.268050151318634,1020,542,-478,-781,749,32
0.270211846087332,1022,543,-479,-782.5,750.5,32
0.272373540856031,1022,543,-479,-782.5,750.5,32
0.27453523562473,1020,543,-477,-781.5,748.5,33
0.276696930393428,1022,543,-479,-782.5,750.5,32
0.278858625162127,1022,543,-479,-782.5,750.5,32
0.281020319930826,1021,543,-478,-782,749.5,32.5
0.283182014699524,1021,543,-478,-782,749.5,32.5
0.285343709468223,1023,543,-480,-783,751.5,31.5
0.287505404236922,1021,543,-478,-782,749.5,32.5
0.28966709900562,1021,543,-478,-782,749.5,32.5
0.291828793774319,1022,543,-479,-782.5,750.5,32
0.293990488543018,1021,543,-478,-782,749.5,32.5
0.296152183311716,1021,543,-478,-782,749.5,32.5
0.298313878080415,1022,543,-479,-782.5,750.5,32
0.300475572849114,1022,543,-479,-782.5,750.5,32
0.302637267617812,1023,543,-480,-783,751.5,31.5
0.304798962386511,1020,543,-477,-781.5,748.5,33
0.30696065715521,1021,543,-478,-782,749.5,32.5
0.309122351923908,1022,543,-479,-782.5,750.5,32
0.311284046692607,1023,543,-480,-783,751.5,31.5
0.313445741461306,1021,543,-478,-782,749.5,32.5
0.315607436230004,1021,543,-478,-782,749.5,32.5
0.317769130998703,1021,543,-478,-782,749.5,32.5
0.319930825767402,1021,543,-478,-782,749.5,32.5
0.3220925205361,1023,543,-480,-783,751.5,31.5
0.324254215304799,1023,543,-480,-783,751.5,31.5
0.326415910073498,1023,543,-480,-783,751.5,31.5
0.328577604842196,1020,543,-477,-781.5,748.5,33
0.330739299610895,1020,543,-477,-781.5,748.5,33
0.332900994379594,1021,543,-478,-782,749.5,32.5
0.335062689148292,1013,543,-470,-778,741.5,36.5
0.337224383916991,1000,543,-457,-771.5,728.5,43
0.33938607868569,992,543,-449,-767.5,720.5,47
0.341547773454388,985,543,-442,-764,713.5,50.5
0.343709468223087,993,543,-450,-768,721.5,46.5
0.345871162991786,1007,543,-464,-775,735.5,39.5
0.348032857760484,1020,543,-477,-781.5,748.5,33
0.350194552529183,1021,543,-478,-782,749.5,32.5
0.352356247297882,1021,543,-478,-782,749.5,32.5
0.35451794206658,1023,543,-480,-783,751.5,31.5
0.356679636835279,1023,543,-480,-783,751.5,31.5
0.358841331603978,1021,543,-478,-782,749.5,32.5
0.361003026372676,1013,543,-470,-778,741.5,36.5
0.363164721141375,1006,543,-463,-774.5,734.5,40
0.365326415910073,998,543,-455,-770.5,726.5,44
0.367488110678772,998,543,-455,-770.5,726.5,44
0.369649805447471,997,543,-454,-770,725.5,44.5
0.371811500216169,1002,542,-460,-772,731,41
0.373973194984868,1004,542,-462,-773,733,40
0.376134889753567,1006,543,-463,-774.5,734.5,40
0.378296584522265,1009,543,-466,-776,737.5,38.5
0.380458279290964,1007,543,-464,-775,735.5,39.5
0.382619974059663,1005,543,-462,-774,733.5,40.5
0.384781668828361,1005,543,-462,-774,733.5,40.5
0.38694336359706,1005,543,-462,-774,733.5,40.5
0.389105058365759,1005,543,-462,-774,733.5,40.5
0.391266753134457,1009,543,-466,-776,737.5,38.5
0.393428447903156,1013,543,-470,-778,741.5,36.5
0.395590142671855,1021,543,-478,-782,749.5,32.5
0.397751837440553,1021,543,-478,-782,749.5,32.5
0.399913532209252,1021,543,-478,-782,749.5,32.5
0.402075226977951,1020,542,-478,-781,749,32
0.404236921746649,1020,543,-477,-781.5,748.5,33
0.406398616515348,1017,543,-474,-780,745.5,34.5
0.408560311284047,1016,543,-473,-779.5,744.5,35
0.410722006052745,1016,543,-473,-779.5,744.5,35
0.412883700821444,1016,543,-473,-779.5,744.5,35
0.415045395590143,1011,543,-468,-777,739.5,37.5
0.417207090358841,1013,543,-470,-778,741.5,36.5
0.41936878512754,1013,543,-470,-778,741.5,36.5
0.421530479896239,1017,543,-474,-780,745.5,34.5
0.423692174664937,1021,543,-478,-782,749.5,32.5
0.425853869433636,1022,543,-479,-782.5,750.5,32
0.428015564202335,1021,543,-478,-782,749.5,32.5
0.430177258971033,1022,543,-479,-782.5,750.5,32
0.432338953739732,1019,543,-476,-781,747.5,33.5
0.434500648508431,1017,543,-474,-780,745.5,34.5
0.436662343277129,1015,543,-472,-779,743.5,35.5
0.438824038045828,1013,543,-470,-778,741.5,36.5
0.440985732814527,1009,543,-466,-776,737.5,38.5
0.443147427583225,1006,543,-463,-774.5,734.5,40
0.445309122351924,1007,543,-464,-775,735.5,39.5
0.447470817120623,1009,543,-466,-776,737.5,38.5
0.449632511889321,1019,543,-476,-781,747.5,33.5
0.45179420665802,1021,543,-478,-782,749.5,32.5
0.453955901426719,1021,543,-478,-782,749.5,32.5
0.456117596195417,1021,543,-478,-782,749.5,32.5
0.458279290964116,1022,543,-479,-782.5,750.5,32
0.460440985732815,1022,543,-479,-782.5,750.5,32
0.462602680501513,1021,543,-478,-782,749.5,32.5
0.464764375270212,1022,543,-479,-782.5,750.5,32
0.46692607003891,1021,543,-478,-782,749.5,32.5
0.469087764807609,1022,542,-480,-782,751,31
0.471249459576308,1021,543,-478,-782,749.5,32.5
0.473411154345006,1020,543,-477,-781.5,748.5,33
0.475572849113705,1019,542,-477,-780.5,748,32.5
0.477734543882404,1020,543,-477,-781.5,748.5,33
0.479896238651102,1022,543,-479,-782.5,750.5,32
0.482057933419801,1020,543,-477,-781.5,748.5,33
0.4842196281885,1023,542,-481,-782.5,752,30.5
0.486381322957198,1022,543,-479,-782.5,750.5,32
0.488543017725897,1020,543,-477,-781.5,748.5,33
0.490704712494596,1022,543,-479,-782.5,750.5,32
0.492866407263294,1023,543,-480,-783,751.5,31.5
0.495028102031993,1023,543,-480,-783,751.5,31.5
0.497189796800692,1021,543,-478,-782,749.5,32.5
0.49935149156939,1022,543,-479,-782.5,750.5,32
0.501513186338089,1020,543,-477,-781.5,748.5,33
0.503674881106788,1016,542,-474,-779,745,34
0.505836575875486,1021,543,-478,-782,749.5,32.5
0.507998270644185,1021,543,-478,-782,749.5,32.5
0.510159965412884,1023,543,-480,-783,751.5,31.5
0.512321660181582,1023,543,-480,-783,751.5,31.5
0.514483354950281,1020,543,-477,-781.5,748.5,33
0.51664504971898,1021,543,-478,-782,749.5,32.5
0.518806744487678,1022,543,-479,-782.5,750.5,32
0.520968439256377,1022,543,-479,-782.5,750.5,32
0.523130134025076,1022,542,-480,-782,751,31
0.525291828793774,1021,542,-479,-781.5,750,31.5
0.527453523562473,1020,543,-477,-781.5,748.5,33
0.529615218331172,1022,543,-479,-782.5,750.5,32
0.53177691309987,1022,543,-479,-782.5,750.5,32
0.533938607868569,1022,543,-479,-782.5,750.5,32
0.536100302637268,1021,543,-478,-782,749.5,32.5
0.538261997405966,1022,543,-479,-782.5,750.5,32
0.540423692174665,1022,543,-479,-782.5,750.5,32
0.542585386943364,1022,543,-479,-782.5,750.5,32
0.544747081712062,1021,543,-478,-782,749.5,32.5
0.546908776480761,1021,543,-478,-782,749.5,32.5
0.54907047124946,1022,543,-479,-782.5,750.5,32
0.551232166018158,1022,543,-479,-782.5,750.5,32
0.553393860786857,1022,543,-479,-782.5,750.5,32
0.555555555555556,1023,543,-480,-783,751.5,31.5
0.557717250324254,1022,543,-479,-782.5,750.5,32
0.559878945092953,1019,543,-476,-781,747.5,33.5
0.562040639861652,1021,543,-478,-782,749.5,32.5
0.56420233463035,1021,543,-478,-782,749.5,32.5
0.566364029399049,1021,543,-478,-782,749.5,32.5
0.568525724167747,1021,543,-478,-782,749.5,32.5
0.570687418936446,1021,543,-478,-782,749.5,32.5
0.572849113705145,1021,543,-478,-782,749.5,32.5
0.575010808473843,1021,543,-478,-782,749.5,32.5
0.577172503242542,1020,543,-477,-781.5,748.5,33
0.579334198011241,1019,543,-476,-781,747.5,33.5
0.581495892779939,1012,543,-469,-777.5,740.5,37
0.583657587548638,998,543,-455,-770.5,726.5,44
0.585819282317337,984,543,-441,-763.5,712.5,51
0.587980977086035,976,543,-433,-759.5,704.5,55
0.590142671854734,975,543,-432,-759,703.5,55.5
0.592304366623433,984,543,-441,-763.5,712.5,51
0.594466061392131,993,543,-450,-768,721.5,46.5
0.59662775616083,1008,543,-465,-775.5,736.5,39
0.598789450929529,1021,543,-478,-782,749.5,32.5
0.600951145698227,1021,543,-478,-782,749.5,32.5
0.603112840466926,1022,543,-479,-782.5,750.5,32
0.605274535235625,1021,543,-478,-782,749.5,32.5
0.607436230004323,1023,542,-481,-782.5,752,30.5
0.609597924773022,1014,543,-471,-778.5,742.5,36
0.611759619541721,1004,543,-461,-773.5,732.5,41
0.613921314310419,994,543,-451,-768.5,722.5,46
0.616083009079118,984,543,-441,-763.5,712.5,51
0.618244703847817,981,543,-438,-762,709.5,52.5
0.620406398616515,984,543,-441,-763.5,712.5,51
0.622568093385214,988,543,-445,-765.5,716.5,49
0.624729788153913,1002,543,-459,-772.5,730.5,42
0.626891482922611,1008,543,-465,-775.5,736.5,39
0.62905317769131,1011,543,-468,-777,739.5,37.5
0.631214872460009,1017,543,-474,-780,745.5,34.5
0.633376567228707,1015,543,-472,-779,743.5,35.5
0.635538261997406,1008,543,-465,-775.5,736.5,39
0.637699956766105,1001,543,-458,-772,729.5,42.5
0.639861651534803,995,543,-452,-769,723.5,45.5
0.642023346303502,987,543,-444,-765,715.5,49.5
0.644185041072201,981,543,-438,-762,709.5,52.5
0.646346735840899,979,543,-436,-761,707.5,53.5
0.648508430609598,986,543,-443,-764.5,714.5,50
0.650670125378297,997,543,-454,-770,725.5,44.5
0.652831820146995,1021,543,-478,-782,749.5,32.5
0.654993514915694,1021,543,-478,-782,749.5,32.5
0.657155209684393,1023,543,-480,-783,751.5,31.5
0.659316904453091,1021,543,-478,-782,749.5,32.5
0.66147859922179,1021,543,-478,-782,749.5,32.5
0.663640293990489,1022,543,-479,-782.5,750.5,32
0.665801988759187,1022,543,-479,-782.5,750.5,32
0.667963683527886,1023,543,-480,-783,751.5,31.5
0.670125378296584,1022,543,-479,-782.5,750.5,32
0.672287073065283,1022,543,-479,-782.5,750.5,32
0.674448767833982,1021,543,-478,-782,749.5,32.5
0.67661046260268,1021,543,-478,-782,749.5,32.5
0.678772157371379,1020,543,-477,-781.5,748.5,33
0.680933852140078,1021,543,-478,-782,749.5,32.5
0.683095546908776,1023,543,-480,-783,751.5,31.5
0.685257241677475,1021,543,-478,-782,749.5,32.5
0.687418936446174,993,543,-450,-768,721.5,46.5
0.689580631214872,973,543,-430,-758,701.5,56.5
0.691742325983571,956,543,-413,-749.5,684.5,65
0.69390402075227,949,543,-406,-746,677.5,68.5
0.696065715520968,951,543,-408,-747,679.5,67.5
0.698227410289667,958,543,-415,-750.5,686.5,64
0.700389105058366,965,543,-422,-754,693.5,60.5
0.702550799827064,972,543,-429,-757.5,700.5,57
0.704712494595763,972,543,-429,-757.5,700.5,57
0.706874189364462,971,543,-428,-757,699.5,57.5
0.70903588413316,975,543,-432,-759,703.5,55.5
0.711197578901859,976,543,-433,-759.5,704.5,55
0.713359273670558,975,543,-432,-759,703.5,55.5
0.715520968439256,975,543,-432,-759,703.5,55.5
0.717682663207955,973,542,-431,-757.5,702,55.5
0.719844357976654,976,543,-433,-759.5,704.5,55
0.722006052745352,981,543,-438,-762,709.5,52.5
0.724167747514051,996,543,-453,-769.5,724.5,45
0.72632944228275,1001,543,-458,-772,729.5,42.5
0.728491137051448,1001,543,-458,-772,729.5,42.5
0.730652831820147,995,543,-452,-769,723.5,45.5
0.732814526588846,992,543,-449,-767.5,720.5,47
0.734976221357544,990,543,-447,-766.5,718.5,48
0.737137916126243,989,542,-447,-765.5,718,47.5
0.739299610894942,987,542,-445,-764.5,716,48.5
0.74146130566364,994,543,-451,-768.5,722.5,46
0.743623000432339,996,543,-453,-769.5,724.5,45
0.745784695201038,994,543,-451,-768.5,722.5,46
0.747946389969736,993,543,-450,-768,721.5,46.5
0.750108084738435,991,543,-448,-767,719.5,47.5
0.752269779507134,992,542,-450,-767,721,46
0.754431474275832,999,543,-456,-771,727.5,43.5
0.756593169044531,1008,543,-465,-775.5,736.5,39
0.75875486381323,1017,543,-474,-780,745.5,34.5
0.760916558581928,1020,543,-477,-781.5,748.5,33
0.763078253350627,1021,543,-478,-782,749.5,32.5
0.765239948119325,1020,543,-477,-781.5,748.5,33
0.767401642888024,1014,543,-471,-778.5,742.5,36
0.769563337656723,1010,543,-467,-776.5,738.5,38
0.771725032425421,1008,543,-465,-775.5,736.5,39
0.77388672719412,1003,543,-460,-773,731.5,41.5
0.776048421962819,1003,543,-460,-773,731.5,41.5
0.778210116731518,1007,543,-464,-775,735.5,39.5
0.780371811500216,1013,542,-471,-777.5,742,35.5
0.782533506268915,1021,543,-478,-782,749.5,32.5
0.784695201037613,1022,543,-479,-782.5,750.5,32
0.786856895806312,1021,543,-478,-782,749.5,32.5
0.789018590575011,1022,543,-479,-782.5,750.5,32
0.791180285343709,1022,543,-479,-782.5,750.5,32
0.793341980112408,1021,543,-478,-782,749.5,32.5
0.795503674881107,1022,543,-479,-782.5,750.5,32
0.797665369649805,1021,543,-478,-782,749.5,32.5
0.799827064418504,1021,543,-478,-782,749.5,32.5
0.801988759187203,1021,543,-478,-782,749.5,32.5
0.804150453955901,1019,543,-476,-781,747.5,33.5
0.8063121487246,1023,543,-480,-783,751.5,31.5
0.808473843493299,1020,543,-477,-781.5,748.5,33
0.810635538261997,1020,543,-477,-781.5,748.5,33
0.812797233030696,1022,543,-479,-782.5,750.5,32
0.814958927799395,1020,543,-477,-781.5,748.5,33
0.817120622568093,1021,543,-478,-782,749.5,32.5
0.819282317336792,1021,543,-478,-782,749.5,32.5
0.821444012105491,1021,543,-478,-782,749.5,32.5
0.823605706874189,1022,543,-479,-782.5,750.5,32
0.825767401642888,1022,543,-479,-782.5,750.5,32
0.827929096411587,1022,543,-479,-782.5,750.5,32
0.830090791180285,1020,543,-477,-781.5,748.5,33
0.832252485948984,1022,543,-479,-782.5,750.5,32
0.834414180717683,1022,543,-479,-782.5,750.5,32
0.836575875486381,1021,543,-478,-782,749.5,32.5
0.83873757025508,1022,543,-479,-782.5,750.5,32
0.840899265023779,1022,543,-479,-782.5,750.5,32
0.843060959792477,1022,542,-480,-782,751,31
0.845222654561176,1022,543,-479,-782.5,750.5,32
0.847384349329875,1021,543,-478,-782,749.5,32.5
0.849546044098573,1023,543,-480,-783,751.5,31.5
0.851707738867272,1023,543,-480,-783,751.5,31.5
0.853869433635971,1021,543,-478,-782,749.5,32.5
0.856031128404669,1023,543,-480,-783,751.5,31.5
0.858192823173368,1023,542,-481,-782.5,752,30.5
0.860354517942067,1021,543,-478,-782,749.5,32.5
0.862516212710765,1023,542,-481,-782.5,752,30.5
0.864677907479464,1022,543,-479,-782.5,750.5,32
0.866839602248162,1022,543,-479,-782.5,750.5,32
0.869001297016861,1021,543,-478,-782,749.5,32.5
0.87116299178556,1021,543,-478,-782,749.5,32.5
0.873324686554259,1022,543,-479,-782.5,750.5,32
0.875486381322957,1022,543,-479,-782.5,750.5,32
0.877648076091656,1021,543,-478,-782,749.5,32.5
0.879809770860355,1022,543,-479,-782.5,750.5,32
0.881971465629053,1020,542,-478,-781,749,32
0.884133160397752,1021,543,-478,-782,749.5,32.5
0.88629485516645,1020,543,-477,-781.5,748.5,33
0.888456549935149,1023,543,-480,-783,751.5,31.5
0.890618244703848,1022,542,-480,-782,751,31
0.892779939472546,1021,543,-478,-782,749.5,32.5
0.894941634241245,1022,543,-479,-782.5,750.5,32
0.897103329009944,1021,543,-478,-782,749.5,32.5
0.899265023778642,1022,543,-479,-782.5,750.5,32
0.901426718547341,1022,543,-479,-782.5,750.5,32
0.90358841331604,1020,543,-477,-781.5,748.5,33
0.905750108084738,1021,543,-478,-782,749.5,32.5
0.907911802853437,1022,543,-479,-782.5,750.5,32
0.910073497622136,1022,543,-479,-782.5,750.5,32
0.912235192390834,1021,543,-478,-782,749.5,32.5
0.914396887159533,1022,543,-479,-782.5,750.5,32
0.916558581928232,1023,543,-480,-783,751.5,31.5
0.91872027669693,1021,542,-479,-781.5,750,31.5
0.920881971465629,1021,543,-478,-782,749.5,32.5
0.923043666234328,1022,543,-479,-782.5,750.5,32
0.925205361003026,1021,543,-478,-782,749.5,32.5
0.927367055771725,1022,542,-480,-782,751,31
0.929528750540424,1022,543,-479,-782.5,750.5,32
0.931690445309122,1021,543,-478,-782,749.5,32.5
0.933852140077821,1023,543,-480,-783,751.5,31.5
0.93601383484652,1022,543,-479,-782.5,750.5,32
0.938175529615218,1022,543,-479,-782.5,750.5,32
0.940337224383917,1021,543,-478,-782,749.5,32.5
0.942498919152616,1022,543,-479,-782.5,750.5,32
0.944660613921314,1021,543,-478,-782,749.5,32.5
0.946822308690013,1021,543,-478,-782,749.5,32.5
0.948984003458712,1022,543,-479,-782.5,750.5,32
0.95114569822741,1021,543,-478,-782,749.5,32.5
0.953307392996109,1021,543,-478,-782,749.5,32.5
0.955469087764808,1021,543,-478,-782,749.5,32.5
0.957630782533506,1013,543,-470,-778,741.5,36.5
0.959792477302205,1009,543,-466,-776,737.5,38.5
0.961954172070904,1011,543,-468,-777,739.5,37.5
0.964115866839602,1021,543,-478,-782,749.5,32.5
0.966277561608301,1022,543,-479,-782.5,750.5,32
0.968439256377,1021,543,-478,-782,749.5,32.5
0.970600951145698,1022,543,-479,-782.5,750.5,32
0.972762645914397,1021,543,-478,-782,749.5,32.5
0.974924340683096,1022,542,-480,-782,751,31
0.977086035451794,1021,543,-478,-782,749.5,32.5
0.979247730220493,1007,543,-464,-775,735.5,39.5
0.981409424989191,999,543,-456,-771,727.5,43.5
0.98357111975789,998,543,-455,-770.5,726.5,44
0.985732814526589,1000,543,-457,-771.5,728.5,43
0.987894509295287,1010,542,-468,-776,739,37
0.990056204063986,1016,543,-473,-779.5,744.5,35
0.992217898832685,1023,543,-480,-783,751.5,31.5
0.994379593601383,1022,543,-479,-782.5,750.5,32
0.996541288370082,1022,543,-479,-782.5,750.5,32
0.998702983138781,1022,543,-479,-782.5,750.5,32
1.00086467790748,1022,542,-480,-782,751,31
1.00302637267618,1021,543,-478,-782,749.5,32.5
1.00518806744488,1022,543,-479,-782.5,750.5,32
1.00734976221358,1021,543,-478,-782,749.5,32.5
1.00951145698227,1019,543,-476,-781,747.5,33.5
1.01167315175097,1016,543,-473,-779.5,744.5,35
1.01383484651967,1014,543,-471,-778.5,742.5,36
1.01599654128837,1012,543,-469,-777.5,740.5,37
1.01815823605707,1015,543,-472,-779,743.5,35.5
1.02031993082577,1017,543,-474,-780,745.5,34.5
1.02248162559447,1023,542,-481,-782.5,752,30.5
1.02464332036316,1022,543,-479,-782.5,750.5,32
1.02680501513186,1021,543,-478,-782,749.5,32.5
1.02896670990056,1021,543,-478,-782,749.5,32.5
1.03112840466926,1022,543,-479,-782.5,750.5,32
1.03329009943796,1020,543,-477,-781.5,748.5,33
1.03545179420666,1017,543,-474,-780,745.5,34.5
1.03761348897536,1016,543,-473,-779.5,744.5,35
1.03977518374406,1017,543,-474,-780,745.5,34.5
1.04193687851275,1022,542,-480,-782,751,31
1.04409857328145,1022,543,-479,-782.5,750.5,32
1.04626026805015,1023,543,-480,-783,751.5,31.5
1.04842196281885,1022,543,-479,-782.5,750.5,32
1.05058365758755,1021,542,-479,-781.5,750,31.5
1.05274535235625,1020,543,-477,-781.5,748.5,33
1.05490704712495,1019,543,-476,-781,747.5,33.5
1.05706874189364,1023,543,-480,-783,751.5,31.5
1.05923043666234,1020,543,-477,-781.5,748.5,33
1.06139213143104,1021,543,-478,-782,749.5,32.5
1.06355382619974,1020,542,-478,-781,749,32
1.06571552096844,1020,542,-478,-781,749,32
1.06787721573714,1021,543,-478,-782,749.5,32.5
1.07003891050584,1021,543,-478,-782,749.5,32.5
1.07220060527454,1021,543,-478,-782,749.5,32.5
1.07436230004323,1022,543,-479,-782.5,750.5,32
1.07652399481193,1021,543,-478,-782,749.5,32.5
1.07868568958063,1022,543,-479,-782.5,750.5,32
1.08084738434933,1021,543,-478,-782,749.5,32.5
1.08300907911803,1022,543,-479,-782.5,750.5,32
1.08517077388673,1023,542,-481,-782.5,752,30.5
1.08733246865543,1023,543,-480,-783,751.5,31.5
1.08949416342412,1020,543,-477,-781.5,748.5,33
1.09165585819282,1023,543,-480,-783,751.5,31.5
1.09381755296152,1022,543,-479,-782.5,750.5,32
1.09597924773022,1020,543,-477,-781.5,748.5,33
1.09814094249892,1021,543,-478,-782,749.5,32.5
1.10030263726762,1023,543,-480,-783,751.5,31.5
1.10246433203632,1020,542,-478,-781,749,32
1.10462602680501,1021,543,-478,-782,749.5,32.5
1.10678772157371,1021,543,-478,-782,749.5,32.5
1.10894941634241,1022,543,-479,-782.5,750.5,32
1.11111111111111,1023,543,-480,-783,751.5,31.5
1.11327280587981,1021,543,-478,-782,749.5,32.5
1.11543450064851,1022,543,-479,-782.5,750.5,32
1.11759619541721,1021,543,-478,-782,749.5,32.5
1.11975789018591,1021,543,-478,-782,749.5,32.5
1.1219195849546,1023,543,-480,-783,751.5,31.5
1.1240812797233,1023,543,-480,-783,751.5,31.5
1.126242974492,1022,543,-479,-782.5,750.5,32
1.1284046692607,1020,543,-477,-781.5,748.5,33
1.1305663640294,1022,543,-479,-782.5,750.5,32
1.1327280587981,1020,543,-477,-781.5,748.5,33
1.1348897535668,1021,543,-478,-782,749.5,32.5
1.13705144833549,1022,543,-479,-782.5,750.5,32
1.13921314310419,1020,543,-477,-781.5,748.5,33
1.14137483787289,1021,543,-478,-782,749.5,32.5
1.14353653264159,1022,543,-479,-782.5,750.5,32
1.14569822741029,1021,543,-478,-782,749.5,32.5
1.14785992217899,1021,543,-478,-782,749.5,32.5
1.15002161694769,1022,543,-479,-782.5,750.5,32
1.15218331171639,1022,543,-479,-782.5,750.5,32
1.15434500648508,1022,542,-480,-782,751,31
1.15650670125378,1023,543,-480,-783,751.5,31.5
1.15866839602248,1022,543,-479,-782.5,750.5,32
1.16083009079118,1021,543,-478,-782,749.5,32.5
1.16299178555988,1023,543,-480,-783,751.5,31.5
1.16515348032858,1022,543,-479,-782.5,750.5,32
1.16731517509728,1021,543,-478,-782,749.5,32.5
1.16947686986597,1020,542,-478,-781,749,32
1.17163856463467,1022,543,-479,-782.5,750.5,32
1.17380025940337,1021,543,-478,-782,749.5,32.5
1.17596195417207,1021,543,-478,-782,749.5,32.5
1.17812364894077,1022,543,-479,-782.5,750.5,32
1.18028534370947,1020,543,-477,-781.5,748.5,33
1.18244703847817,1021,543,-478,-782,749.5,32.5
1.18460873324687,1020,543,-477,-781.5,748.5,33
1.18677042801556,1020,543,-477,-781.5,748.5,33
1.18893212278426,1022,543,-479,-782.5,750.5,32
1.19109381755296,1022,543,-479,-782.5,750.5,32
1.19325551232166,1022,543,-479,-782.5,750.5,32
1.19541720709036,1021,543,-478,-782,749.5,32.5
1.19757890185906,1022,543,-479,-782.5,750.5,32
1.19974059662776,1021,542,-479,-781.5,750,31.5
1.20190229139645,1019,543,-476,-781,747.5,33.5
1.20406398616515,1010,543,-467,-776.5,738.5,38
1.20622568093385,1010,543,-467,-776.5,738.5,38
1.20838737570255,1014,543,-471,-778.5,742.5,36
1.21054907047125,1021,543,-478,-782,749.5,32.5
1.21271076523995,1023,543,-480,-783,751.5,31.5
1.21487246000865,1020,543,-477,-781.5,748.5,33
1.21703415477735,1021,543,-478,-782,749.5,32.5
1.21919584954604,1011,543,-468,-777,739.5,37.5
1.22135754431474,1008,543,-465,-775.5,736.5,39
1.22351923908344,1015,543,-472,-779,743.5,35.5
1.22568093385214,1020,543,-477,-781.5,748.5,33
1.22784262862084,1021,543,-478,-782,749.5,32.5
1.23000432338954,1019,543,-476,-781,747.5,33.5
1.23216601815824,1021,543,-478,-782,749.5,32.5
1.23432771292693,1020,543,-477,-781.5,748.5,33
1.23648940769563,1021,543,-478,-782,749.5,32.5
1.23865110246433,1022,543,-479,-782.5,750.5,32
1.24081279723303,1017,543,-474,-780,745.5,34.5
1.24297449200173,1018,543,-475,-780.5,746.5,34
1.24513618677043,1014,543,-471,-778.5,742.5,36
1.24729788153913,1012,543,-469,-777.5,740.5,37
1.24945957630783,1012,543,-469,-777.5,740.5,37
1.25162127107652,1012,542,-470,-777,741,36
1.25378296584522,1008,543,-465,-775.5,736.5,39
1.25594466061392,1002,543,-459,-772.5,730.5,42
1.25810635538262,1003,543,-460,-773,731.5,41.5
1.26026805015132,1014,543,-471,-778.5,742.5,36
1.26242974492002,1023,543,-480,-783,751.5,31.5
1.26459143968872,1021,543,-478,-782,749.5,32.5
1.26675313445741,1022,543,-479,-782.5,750.5,32
1.26891482922611,1021,543,-478,-782,749.5,32.5
1.27107652399481,1021,543,-478,-782,749.5,32.5
1.27323821876351,1022,543,-479,-782.5,750.5,32
1.27539991353221,1022,543,-479,-782.5,750.5,32
1.27756160830091,1021,543,-478,-782,749.5,32.5
1.27972330306961,1021,543,-478,-782,749.5,32.5
1.28188499783831,1023,543,-480,-783,751.5,31.5
1.284046692607,1021,543,-478,-782,749.5,32.5
1.2862083873757,1021,543,-478,-782,749.5,32.5
1.2883700821444,1022,543,-479,-782.5,750.5,32
1.2905317769131,1023,543,-480,-783,751.5,31.5
1.2926934716818,1021,543,-478,-782,749.5,32.5
1.2948551664505,1021,543,-478,-782,749.5,32.5
1.2970168612192,1022,543,-479,-782.5,750.5,32
1.29917855598789,1021,543,-478,-782,749.5,32.5
1.30134025075659,1020,543,-477,-781.5,748.5,33
1.30350194552529,985,543,-442,-764,713.5,50.5
1.30566364029399,965,543,-422,-754,693.5,60.5
1.30782533506269,961,543,-418,-752,689.5,62.5
1.30998702983139,967,543,-424,-755,695.5,59.5
1.31214872460009,977,543,-434,-760,705.5,54.5
1.31431041936879,989,543,-446,-766,717.5,48.5
1.31647211413748,994,543,-451,-768.5,722.5,46
1.31863380890618,999,543,-456,-771,727.5,43.5
1.32079550367488,1001,543,-458,-772,729.5,42.5
1.32295719844358,992,543,-449,-767.5,720.5,47
1.32511889321228,989,543,-446,-766,717.5,48.5
1.32728058798098,991,543,-448,-767,719.5,47.5
1.32944228274968,993,543,-450,-768,721.5,46.5
1.33160397751837,986,543,-443,-764.5,714.5,50
1.33376567228707,972,543,-429,-757.5,700.5,57
1.33592736705577,964,543,-421,-753.5,692.5,61
1.33808906182447,963,543,-420,-753,691.5,61.5
1.34025075659317,970,543,-427,-756.5,698.5,58
1.34241245136187,976,543,-433,-759.5,704.5,55
1.34457414613057,977,543,-434,-760,705.5,54.5
1.34673584089926,973,543,-430,-758,701.5,56.5
1.34889753566796,973,543,-430,-758,701.5,56.5
1.35105923043666,971,542,-429,-756.5,700,56.5
1.35322092520536,979,543,-436,-761,707.5,53.5
1.35538261997406,995,542,-453,-768.5,724,44.5
1.35754431474276,1004,543,-461,-773.5,732.5,41
1.35970600951146,1013,543,-470,-778,741.5,36.5
1.36186770428016,1018,543,-475,-780.5,746.5,34
1.36402939904885,1012,543,-469,-777.5,740.5,37
1.36619109381755,1000,543,-457,-771.5,728.5,43
1.36835278858625,989,543,-446,-766,717.5,48.5
1.37051448335495,973,543,-430,-758,701.5,56.5
1.37267617812365,963,543,-420,-753,691.5,61.5
1.37483787289235,963,543,-420,-753,691.5,61.5
1.37699956766105,971,543,-428,-757,699.5,57.5
1.37916126242974,992,543,-449,-767.5,720.5,47
1.38132295719844,1011,543,-468,-777,739.5,37.5
1.38348465196714,1017,543,-474,-780,745.5,34.5
1.38564634673584,1020,543,-477,-781.5,748.5,33
1.38780804150454,1020,543,-477,-781.5,748.5,33
1.38996973627324,1011,543,-468,-777,739.5,37.5
1.39213143104194,1005,543,-462,-774,733.5,40.5
1.39429312581064,1001,543,-458,-772,729.5,42.5
1.39645482057933,1000,543,-457,-771.5,728.5,43
1.39861651534803,1005,543,-462,-774,733.5,40.5
1.40077821011673,1013,543,-470,-778,741.5,36.5
1.40293990488543,1021,543,-478,-782,749.5,32.5
1.40510159965413,1021,543,-478,-782,749.5,32.5
1.40726329442283,1022,543,-479,-782.5,750.5,32
1.40942498919153,1021,543,-478,-782,749.5,32.5
1.41158668396022,1020,543,-477,-781.5,748.5,33
1.41374837872892,1022,543,-479,-782.5,750.5,32
1.41591007349762,1021,543,-478,-782,749.5,32.5
1.41807176826632,1022,543,-479,-782.5,750.5,32
1.42023346303502,1020,543,-477,-781.5,748.5,33
1.42239515780372,1021,543,-478,-782,749.5,32.5
1.42455685257242,1022,543,-479,-782.5,750.5,32
1.42671854734112,1022,543,-479,-782.5,750.5,32
1.42888024210981,1020,543,-477,-781.5,748.5,33
1.43104193687851,1021,543,-478,-782,749.5,32.5
1.43320363164721,1020,543,-477,-781.5,748.5,33
1.43536532641591,1021,543,-478,-782,749.5,32.5
1.43752702118461,1023,543,-480,-783,751.5,31.5
1.43968871595331,1022,543,-479,-782.5,750.5,32
1.44185041072201,1020,543,-477,-781.5,748.5,33
1.4440121054907,1021,543,-478,-782,749.5,32.5
1.4461738002594,1022,543,-479,-782.5,750.5,32
1.4483354950281,1022,543,-479,-782.5,750.5,32
1.4504971897968,1021,543,-478,-782,749.5,32.5
1.4526588845655,1022,543,-479,-782.5,750.5,32
1.4548205793342,1022,543,-479,-782.5,750.5,32
1.4569822741029,1023,543,-480,-783,751.5,31.5
1.4591439688716,1023,543,-480,-783,751.5,31.5
1.46130566364029,1022,543,-479,-782.5,750.5,32
1.46346735840899,1023,543,-480,-783,751.5,31.5
1.46562905317769,1020,543,-477,-781.5,748.5,33
1.46779074794639,1023,543,-480,-783,751.5,31.5
1.46995244271509,1020,543,-477,-781.5,748.5,33
1.47211413748379,1021,543,-478,-782,749.5,32.5
1.47427583225249,1021,542,-479,-781.5,750,31.5
1.47643752702118,1022,543,-479,-782.5,750.5,32
1.47859922178988,1023,543,-480,-783,751.5,31.5
1.48076091655858,1022,543,-479,-782.5,750.5,32
1.48292261132728,1022,543,-479,-782.5,750.5,32
1.48508430609598,1023,543,-480,-783,751.5,31.5
1.48724600086468,1023,543,-480,-783,751.5,31.5
1.48940769563338,1022,543,-479,-782.5,750.5,32
1.49156939040208,1021,543,-478,-782,749.5,32.5
1.49373108517077,1021,543,-478,-782,749.5,32.5
1.49589277993947,1022,543,-479,-782.5,750.5,32
1.49805447470817,1020,543,-477,-781.5,748.5,33
1.50021616947687,1021,543,-478,-782,749.5,32.5
1.50237786424557,1022,543,-479,-782.5,750.5,32
1.50453955901427,1022,543,-479,-782.5,750.5,32
1.50670125378297,1021,543,-478,-782,749.5,32.5
1.50886294855166,1023,543,-480,-783,751.5,31.5
1.51102464332036,1022,543,-479,-782.5,750.5,32
1.51318633808906,1021,543,-478,-782,749.5,32.5
1.51534803285776,1023,542,-481,-782.5,752,30.5
1.51750972762646,1022,543,-479,-782.5,750.5,32
1.51967142239516,1021,543,-478,-782,749.5,32.5
1.52183311716386,1022,543,-479,-782.5,750.5,32
1.52399481193256,1021,543,-478,-782,749.5,32.5
1.52615650670125,1023,543,-480,-783,751.5,31.5
1.52831820146995,1021,543,-478,-782,749.5,32.5
1.53047989623865,1021,543,-478,-782,749.5,32.5
1.53264159100735,1021,543,-478,-782,749.5,32.5
1.53480328577605,1021,543,-478,-782,749.5,32.5
1.53696498054475,1022,543,-479,-782.5,750.5,32
1.53912667531345,1021,543,-478,-782,749.5,32.5
1.54128837008214,1021,543,-478,-782,749.5,32.5
1.54345006485084,1022,543,-479,-782.5,750.5,32
1.54561175961954,1022,543,-479,-782.5,750.5,32
1.54777345438824,1021,543,-478,-782,749.5,32.5
1.54993514915694,1017,543,-474,-780,745.5,34.5
1.55209684392564,1008,542,-466,-775,737,38
1.55425853869434,1006,542,-464,-774,735,39
1.55642023346304,1013,543,-470,-778,741.5,36.5
1.55858192823173,1018,543,-475,-780.5,746.5,34
1.56074362300043,1019,543,-476,-781,747.5,33.5
1.56290531776913,1017,543,-474,-780,745.5,34.5
1.56506701253783,1014,543,-471,-778.5,742.5,36
1.56722870730653,1011,543,-468,-777,739.5,37.5
1.56939040207523,1002,543,-459,-772.5,730.5,42
1.57155209684393,993,543,-450,-768,721.5,46.5
1.57371379161262,988,543,-445,-765.5,716.5,49
1.57587548638132,985,543,-442,-764,713.5,50.5
1.57803718115002,989,543,-446,-766,717.5,48.5
1.58019887591872,986,543,-443,-764.5,714.5,50
1.58236057068742,985,543,-442,-764,713.5,50.5
1.58452226545612,989,543,-446,-766,717.5,48.5
1.58668396022482,993,543,-450,-768,721.5,46.5
1.58884565499351,1003,543,-460,-773,731.5,41.5
1.59100734976221,1006,543,-463,-774.5,734.5,40
1.59316904453091,998,543,-455,-770.5,726.5,44
1.59533073929961,994,543,-451,-768.5,722.5,46
1.59749243406831,984,543,-441,-763.5,712.5,51
1.59965412883701,981,543,-438,-762,709.5,52.5
1.60181582360571,983,543,-440,-763,711.5,51.5
1.60397751837441,986,543,-443,-764.5,714.5,50
1.6061392131431,992,543,-449,-767.5,720.5,47
1.6083009079118,991,543,-448,-767,719.5,47.5
1.6104626026805,989,543,-446,-766,717.5,48.5
1.6126242974492,993,543,-450,-768,721.5,46.5
1.6147859922179,997,543,-454,-770,725.5,44.5
1.6169476869866,993,543,-450,-768,721.5,46.5
1.6191093817553,991,543,-448,-767,719.5,47.5
1.62127107652399,996,543,-453,-769.5,724.5,45
1.62343277129269,999,543,-456,-771,727.5,43.5
1.62559446606139,993,543,-450,-768,721.5,46.5
1.62775616083009,990,543,-447,-766.5,718.5,48
1.62991785559879,990,543,-447,-766.5,718.5,48
1.63207955036749,993,543,-450,-768,721.5,46.5
1.63424124513619,998,543,-455,-770.5,726.5,44
1.63640293990489,1001,543,-458,-772,729.5,42.5
1.63856463467358,1001,543,-458,-772,729.5,42.5
1.64072632944228,996,542,-454,-769,725,44
1.64288802421098,993,543,-450,-768,721.5,46.5
1.64504971897968,987,543,-444,-765,715.5,49.5
1.64721141374838,979,543,-436,-761,707.5,53.5
1.64937310851708,977,543,-434,-760,705.5,54.5
1.65153480328578,984,543,-441,-763.5,712.5,51
1.65369649805447,995,543,-452,-769,723.5,45.5
1.65585819282317,1005,543,-462,-774,733.5,40.5
1.65801988759187,1015,543,-472,-779,743.5,35.5
1.66018158236057,1018,543,-475,-780.5,746.5,34
1.66234327712927,1020,543,-477,-781.5,748.5,33
1.66450497189797,1020,543,-477,-781.5,748.5,33
1.66666666666667,1014,543,-471,-778.5,742.5,36
1.66882836143537,1002,543,-459,-772.5,730.5,42
1.67099005620406,995,543,-452,-769,723.5,45.5
1.67315175097276,992,543,-449,-767.5,720.5,47
1.67531344574146,997,543,-454,-770,725.5,44.5
1.67747514051016,1002,543,-459,-772.5,730.5,42
1.67963683527886,1003,543,-460,-773,731.5,41.5
1.68179853004756,1012,543,-469,-777.5,740.5,37
1.68396022481626,1021,543,-478,-782,749.5,32.5
1.68612191958495,1021,543,-478,-782,749.5,32.5
1.68828361435365,1021,543,-478,-782,749.5,32.5
1.69044530912235,1022,543,-479,-782.5,750.5,32
1.69260700389105,1018,543,-475,-780.5,746.5,34
1.69476869865975,1009,543,-466,-776,737.5,38.5
1.69693039342845,1003,543,-460,-773,731.5,41.5
1.69909208819715,1000,543,-457,-771.5,728.5,43
1.70125378296585,1000,543,-457,-771.5,728.5,43
1.70341547773454,1004,543,-461,-773.5,732.5,41
1.70557717250324,999,543,-456,-771,727.5,43.5
1.70773886727194,1000,543,-457,-771.5,728.5,43
1.70990056204064,1005,543,-462,-774,733.5,40.5
1.71206225680934,1008,543,-465,-775.5,736.5,39
1.71422395157804,1014,543,-471,-778.5,742.5,36
1.71638564634674,1021,543,-478,-782,749.5,32.5
1.71854734111543,1022,543,-479,-782.5,750.5,32
1.72070903588413,1017,543,-474,-780,745.5,34.5
1.72287073065283,1007,543,-464,-775,735.5,39.5
1.72503242542153,1000,543,-457,-771.5,728.5,43
1.72719412019023,994,543,-451,-768.5,722.5,46
1.72935581495893,989,543,-446,-766,717.5,48.5
1.73151750972763,992,543,-449,-767.5,720.5,47
1.73367920449632,1000,543,-457,-771.5,728.5,43
1.73584089926502,1010,543,-467,-776.5,738.5,38
1.73800259403372,1021,543,-478,-782,749.5,32.5
1.74016428880242,1021,543,-478,-782,749.5,32.5
1.74232598357112,1022,543,-479,-782.5,750.5,32
1.74448767833982,1011,543,-468,-777,739.5,37.5
1.74664937310852,1009,542,-467,-775.5,738,37.5
1.74881106787722,1015,543,-472,-779,743.5,35.5
1.75097276264591,1021,543,-478,-782,749.5,32.5
1.75313445741461,1021,543,-478,-782,749.5,32.5
1.75529615218331,1021,543,-478,-782,749.5,32.5
1.75745784695201,1021,543,-478,-782,749.5,32.5
1.75961954172071,1022,543,-479,-782.5,750.5,32
1.76178123648941,1021,543,-478,-782,749.5,32.5
1.76394293125811,1023,543,-480,-783,751.5,31.5
1.7661046260268,1021,542,-479,-781.5,750,31.5
1.7682663207955,1023,543,-480,-783,751.5,31.5
1.7704280155642,1023,542,-481,-782.5,752,30.5
1.7725897103329,1020,543,-477,-781.5,748.5,33
1.7747514051016,1021,542,-479,-781.5,750,31.5
1.7769130998703,1020,543,-477,-781.5,748.5,33
1.779074794639,1022,543,-479,-782.5,750.5,32
1.7812364894077,1020,543,-477,-781.5,748.5,33
1.78339818417639,1021,543,-478,-782,749.5,32.5
1.78555987894509,1021,543,-478,-782,749.5,32.5
1.78772157371379,1023,543,-480,-783,751.5,31.5
1.78988326848249,1022,543,-479,-782.5,750.5,32
1.79204496325119,1021,543,-478,-782,749.5,32.5
1.79420665801989,1022,543,-479,-782.5,750.5,32
1.79636835278859,1022,543,-479,-782.5,750.5,32
1.79853004755728,1021,543,-478,-782,749.5,32.5
1.80069174232598,1023,543,-480,-783,751.5,31.5
1.80285343709468,1021,543,-478,-782,749.5,32.5
1.80501513186338,1019,543,-476,-781,747.5,33.5
1.80717682663208,1023,543,-480,-783,751.5,31.5
1.80933852140078,1021,543,-478,-782,749.5,32.5
1.81150021616948,1019,543,-476,-781,747.5,33.5
1.81366191093818,1019,543,-476,-781,747.5,33.5
1.81582360570687,1022,543,-479,-782.5,750.5,32
1.81798530047557,1022,543,-479,-782.5,750.5,32
1.82014699524427,1019,543,-476,-781,747.5,33.5
1.82230869001297,1016,543,-473,-779.5,744.5,35
1.82447038478167,1019,543,-476,-781,747.5,33.5
1.82663207955037,1020,543,-477,-781.5,748.5,33
1.82879377431907,1019,543,-476,-781,747.5,33.5
1.83095546908776,1016,543,-473,-779.5,744.5,35
1.83311716385646,1011,543,-468,-777,739.5,37.5
1.83527885862516,1005,543,-462,-774,733.5,40.5
1.83744055339386,1003,543,-460,-773,731.5,41.5
1.83960224816256,1007,543,-464,-775,735.5,39.5
1.84176394293126,1007,543,-464,-775,735.5,39.5
1.84392563769996,1005,543,-462,-774,733.5,40.5
1.84608733246866,999,543,-456,-771,727.5,43.5
1.84824902723735,995,543,-452,-769,723.5,45.5
1.85041072200605,987,543,-444,-765,715.5,49.5
1.85257241677475,986,543,-443,-764.5,714.5,50
1.85473411154345,989,543,-446,-766,717.5,48.5
1.85689580631215,997,543,-454,-770,725.5,44.5
1.85905750108085,1006,543,-463,-774.5,734.5,40
1.86121919584955,1013,543,-470,-778,741.5,36.5
1.86338089061824,1023,542,-481,-782.5,752,30.5
1.86554258538694,1017,543,-474,-780,745.5,34.5
1.86770428015564,1006,543,-463,-774.5,734.5,40
1.86986597492434,991,543,-448,-767,719.5,47.5
1.87202766969304,985,543,-442,-764,713.5,50.5
1.87418936446174,987,543,-444,-765,715.5,49.5
1.87635105923044,993,543,-450,-768,721.5,46.5
1.87851275399914,1003,543,-460,-773,731.5,41.5
1.88067444876783,1016,543,-473,-779.5,744.5,35
1.88283614353653,1017,543,-474,-780,745.5,34.5
1.88499783830523,1016,543,-473,-779.5,744.5,35
1.88715953307393,1016,543,-473,-779.5,744.5,35
1.88932122784263,1009,543,-466,-776,737.5,38.5
1.89148292261133,1001,543,-458,-772,729.5,42.5
1.89364461738003,997,543,-454,-770,725.5,44.5
1.89580631214872,997,543,-454,-770,725.5,44.5
1.89796800691742,997,542,-455,-769.5,726,43.5
1.90012970168612,1001,543,-458,-772,729.5,42.5
1.90229139645482,1002,542,-460,-772,731,41
1.90445309122352,1017,543,-474,-780,745.5,34.5
1.90661478599222,1022,543,-479,-782.5,750.5,32
1.90877648076092,1021,543,-478,-782,749.5,32.5
1.91093817552962,1021,543,-478,-782,749.5,32.5
1.91309987029831,1022,543,-479,-782.5,750.5,32
1.91526156506701,1022,543,-479,-782.5,750.5,32
1.91742325983571,1021,543,-478,-782,749.5,32.5
1.91958495460441,1022,543,-479,-782.5,750.5,32
1.92174664937311,1022,543,-479,-782.5,750.5,32
1.92390834414181,1021,543,-478,-782,749.5,32.5
1.92607003891051,1021,543,-478,-782,749.5,32.5
1.9282317336792,1022,543,-479,-782.5,750.5,32
1.9303934284479,1022,543,-479,-782.5,750.5,32
1.9325551232166,1020,542,-478,-781,749,32
1.9347168179853,1021,543,-478,-782,749.5,32.5
1.936878512754,1020,543,-477,-781.5,748.5,33
1.9390402075227,1021,543,-478,-782,749.5,32.5
1.9412019022914,1011,543,-468,-777,739.5,37.5
1.9433635970601,981,543,-438,-762,709.5,52.5
1.94552529182879,965,543,-422,-754,693.5,60.5
1.94768698659749,960,543,-417,-751.5,688.5,63
1.94984868136619,969,543,-426,-756,697.5,58.5
1.95201037613489,983,543,-440,-763,711.5,51.5
1.95417207090359,991,543,-448,-767,719.5,47.5
1.95633376567229,990,543,-447,-766.5,718.5,48
1.95849546044099,984,543,-441,-763.5,712.5,51
1.96065715520968,976,543,-433,-759.5,704.5,55
1.96281884997838,968,543,-425,-755.5,696.5,59
1.96498054474708,968,543,-425,-755.5,696.5,59
1.96714223951578,971,543,-428,-757,699.5,57.5
1.96930393428448,982,543,-439,-762.5,710.5,52
1.97146562905318,993,543,-450,-768,721.5,46.5
1.97362732382188,997,543,-454,-770,725.5,44.5
1.97578901859057,1003,543,-460,-773,731.5,41.5
1.97795071335927,1003,543,-460,-773,731.5,41.5
1.98011240812797,1012,543,-469,-777.5,740.5,37
1.98227410289667,1015,543,-472,-779,743.5,35.5
1.98443579766537,1015,543,-472,-779,743.5,35.5
1.98659749243407,1005,543,-462,-774,733.5,40.5
1.98875918720277,994,543,-451,-768.5,722.5,46
1.99092088197147,993,543,-450,-768,721.5,46.5
1.99308257674016,995,543,-452,-769,723.5,45.5
1.99524427150886,1001,542,-459,-771.5,730,41.5
1.99740596627756,1006,543,-463,-774.5,734.5,40
1.99956766104626,1011,542,-469,-776.5,740,36.5
2.00172935581496,1023,542,-481,-782.5,752,30.5
2.00389105058366,1022,543,-479,-782.5,750.5,32
2.00605274535236,1021,543,-478,-782,749.5,32.5
2.00821444012105,1021,543,-478,-782,749.5,32.5
2.01037613488975,1022,543,-479,-782.5,750.5,32
2.01253782965845,1021,543,-478,-782,749.5,32.5
2.01469952442715,1021,543,-478,-782,749.5,32.5
2.01686121919585,1020,543,-477,-781.5,748.5,33
2.01902291396455,1020,543,-477,-781.5,748.5,33
2.02118460873325,1019,543,-476,-781,747.5,33.5
2.02334630350195,1022,543,-479,-782.5,750.5,32
2.02550799827064,1020,543,-477,-781.5,748.5,33
2.02766969303934,1021,543,-478,-782,749.5,32.5
2.02983138780804,1022,543,-479,-782.5,750.5,32
2.03199308257674,1022,543,-479,-782.5,750.5,32
2.03415477734544,1021,543,-478,-782,749.5,32.5
2.03631647211414,1020,543,-477,-781.5,748.5,33
2.03847816688284,1022,543,-479,-782.5,750.5,32
2.04063986165153,1021,543,-478,-782,749.5,32.5
2.04280155642023,1023,542,-481,-782.5,752,30.5
2.04496325118893,1022,543,-479,-782.5,750.5,32
2.04712494595763,1021,543,-478,-782,749.5,32.5
2.04928664072633,1022,542,-480,-782,751,31
2.05144833549503,1021,543,-478,-782,749.5,32.5
2.05361003026373,1021,543,-478,-782,749.5,32.5
2.05577172503243,1023,543,-480,-783,751.5,31.5
2.05793341980112,1021,543,-478,-782,749.5,32.5
2.06009511456982,1021,543,-478,-782,749.5,32.5
2.06225680933852,1022,542,-480,-782,751,31
2.06441850410722,1022,543,-479,-782.5,750.5,32
2.06658019887592,1023,543,-480,-783,751.5,31.5
2.06874189364462,1023,543,-480,-783,751.5,31.5
2.07090358841332,1021,543,-478,-782,749.5,32.5
2.07306528318201,1021,543,-478,-782,749.5,32.5
2.07522697795071,1023,543,-480,-783,751.5,31.5
2.07738867271941,1021,543,-478,-782,749.5,32.5
2.07955036748811,1022,543,-479,-782.5,750.5,32
2.08171206225681,1021,543,-478,-782,749.5,32.5
2.08387375702551,1022,543,-479,-782.5,750.5,32
2.08603545179421,1021,543,-478,-782,749.5,32.5
2.08819714656291,1021,543,-478,-782,749.5,32.5
2.0903588413316,1021,543,-478,-782,749.5,32.5
2.0925205361003,1022,543,-479,-782.5,750.5,32
2.094682230869,1022,543,-479,-782.5,750.5,32
2.0968439256377,1020,543,-477,-781.5,748.5,33
2.0990056204064,1021,543,-478,-782,749.5,32.5
2.1011673151751,1022,543,-479,-782.5,750.5,32
2.1033290099438,1021,543,-478,-782,749.5,32.5
2.10549070471249,1022,543,-479,-782.5,750.5,32
2.10765239948119,1021,543,-478,-782,749.5,32.5
2.10981409424989,1021,543,-478,-782,749.5,32.5
2.11197578901859,1021,543,-478,-782,749.5,32.5
2.11413748378729,1022,543,-479,-782.5,750.5,32
2.11629917855599,1020,543,-477,-781.5,748.5,33
2.11846087332469,1021,543,-478,-782,749.5,32.5
2.12062256809339,1021,543,-478,-782,749.5,32.5
2.12278426286208,1022,543,-479,-782.5,750.5,32
2.12494595763078,1021,543,-478,-782,749.5,32.5
2.12710765239948,1020,542,-478,-781,749,32
2.12926934716818,1023,543,-480,-783,751.5,31.5
2.13143104193688,1021,543,-478,-782,749.5,32.5
2.13359273670558,1022,543,-479,-782.5,750.5,32
2.13575443147428,1022,543,-479,-782.5,750.5,32
2.13791612624297,1021,543,-478,-782,749.5,32.5
2.14007782101167,1023,543,-480,-783,751.5,31.5
2.14223951578037,1022,543,-479,-782.5,750.5,32
2.14440121054907,1022,543,-479,-782.5,750.5,32
2.14656290531777,1023,543,-480,-783,751.5,31.5
2.14872460008647,1021,543,-478,-782,749.5,32.5
2.15088629485517,1020,543,-477,-781.5,748.5,33
2.15304798962387,1022,543,-479,-782.5,750.5,32
2.15520968439256,1023,542,-481,-782.5,752,30.5
2.15737137916126,1023,543,-480,-783,751.5,31.5
2.15953307392996,1021,543,-478,-782,749.5,32.5
2.16169476869866,1023,542,-481,-782.5,752,30.5
2.16385646346736,1023,543,-480,-783,751.5,31.5
2.16601815823606,1022,543,-479,-782.5,750.5,32
2.16817985300476,1021,543,-478,-782,749.5,32.5
2.17034154777345,1020,543,-477,-781.5,748.5,33
2.17250324254215,1021,543,-478,-782,749.5,32.5
2.17466493731085,1021,543,-478,-782,749.5,32.5
2.17682663207955,1022,543,-479,-782.5,750.5,32
2.17898832684825,1021,543,-478,-782,749.5,32.5
2.18115002161695,1020,543,-477,-781.5,748.5,33
2.18331171638565,1019,543,-476,-781,747.5,33.5
2.18547341115434,1020,543,-477,-781.5,748.5,33
2.18763510592304,1023,543,-480,-783,751.5,31.5
2.18979680069174,1021,543,-478,-782,749.5,32.5
2.19195849546044,1022,543,-479,-782.5,750.5,32
2.19412019022914,1020,543,-477,-781.5,748.5,33
2.19628188499784,1020,542,-478,-781,749,32
2.19844357976654,1022,543,-479,-782.5,750.5,32
2.20060527453524,1023,543,-480,-783,751.5,31.5
2.20276696930393,1021,542,-479,-781.5,750,31.5
2.20492866407263,1023,543,-480,-783,751.5,31.5
2.20709035884133,1022,543,-479,-782.5,750.5,32
2.20925205361003,1022,542,-480,-782,751,31
2.21141374837873,1023,543,-480,-783,751.5,31.5
2.21357544314743,1023,543,-480,-783,751.5,31.5
2.21573713791613,1021,543,-478,-782,749.5,32.5
2.21789883268482,1020,543,-477,-781.5,748.5,33
2.22006052745352,1022,543,-479,-782.5,750.5,32
2.22222222222222,1022,543,-479,-782.5,750.5,32
2.22438391699092,1022,543,-479,-782.5,750.5,32
2.22654561175962,1020,543,-477,-781.5,748.5,33
2.22870730652832,1014,543,-471,-778.5,742.5,36
2.23086900129702,1008,543,-465,-775.5,736.5,39
2.23303069606572,1002,543,-459,-772.5,730.5,42
2.23519239083441,1002,543,-459,-772.5,730.5,42
2.23735408560311,1010,542,-468,-776,739,37
2.23951578037181,1015,543,-472,-779,743.5,35.5
2.24167747514051,1021,543,-478,-782,749.5,32.5
2.24383916990921,1022,543,-479,-782.5,750.5,32
2.24600086467791,1022,543,-479,-782.5,750.5,32
2.24816255944661,1023,543,-480,-783,751.5,31.5
2.2503242542153,1019,543,-476,-781,747.5,33.5
2.252485948984,1022,543,-479,-782.5,750.5,32
2.2546476437527,1022,543,-479,-782.5,750.5,32
2.2568093385214,1021,543,-478,-782,749.5,32.5
2.2589710332901,1019,543,-476,-781,747.5,33.5
2.2611327280588,1019,543,-476,-781,747.5,33.5
2.2632944228275,1015,543,-472,-779,743.5,35.5
2.2654561175962,1018,542,-476,-780,747,33
2.26761781236489,1017,543,-474,-780,745.5,34.5
2.26977950713359,1021,543,-478,-782,749.5,32.5
2.27194120190229,1022,543,-479,-782.5,750.5,32
2.27410289667099,1023,543,-480,-783,751.5,31.5
2.27626459143969,1021,543,-478,-782,749.5,32.5
2.27842628620839,1021,543,-478,-782,749.5,32.5
2.28058798097709,1020,543,-477,-781.5,748.5,33
2.28274967574578,1021,543,-478,-782,749.5,32.5
2.28491137051448,1018,543,-475,-780.5,746.5,34
2.28707306528318,1013,543,-470,-778,741.5,36.5
2.28923476005188,1015,543,-472,-779,743.5,35.5
2.29139645482058,1020,543,-477,-781.5,748.5,33
2.29355814958928,1021,543,-478,-782,749.5,32.5
2.29571984435798,1021,543,-478,-782,749.5,32.5
2.29788153912668,1021,543,-478,-782,749.5,32.5
2.30004323389537,1022,542,-480,-782,751,31
2.30220492866407,1021,543,-478,-782,749.5,32.5
2.30436662343277,1020,543,-477,-781.5,748.5,33
2.30652831820147,1020,543,-477,-781.5,748.5,33
2.30869001297017,1023,543,-480,-783,751.5,31.5
2.31085170773887,1022,543,-479,-782.5,750.5,32
2.31301340250757,1020,542,-478,-781,749,32
2.31517509727626,1020,543,-477,-781.5,748.5,33
2.31733679204496,1023,543,-480,-783,751.5,31.5
2.31949848681366,1023,543,-480,-783,751.5,31.5
2.32166018158236,1021,543,-478,-782,749.5,32.5
2.32382187635106,1022,543,-479,-782.5,750.5,32
2.32598357111976,1022,543,-479,-782.5,750.5,32
2.32814526588846,1021,543,-478,-782,749.5,32.5
2.33030696065715,1022,543,-479,-782.5,750.5,32
2.33246865542585,1020,543,-477,-781.5,748.5,33
2.33463035019455,1023,542,-481,-782.5,752,30.5
2.33679204496325,1021,543,-478,-782,749.5,32.5
2.33895373973195,1018,543,-475,-780.5,746.5,34
2.34111543450065,1006,543,-463,-774.5,734.5,40
2.34327712926935,1003,543,-460,-773,731.5,41.5
2.34543882403805,1012,543,-469,-777.5,740.5,37
2.34760051880674,1021,543,-478,-782,749.5,32.5
2.34976221357544,1021,543,-478,-782,749.5,32.5
2.35192390834414,1022,543,-479,-782.5,750.5,32
2.35408560311284,1021,543,-478,-782,749.5,32.5
2.35624729788154,1022,543,-479,-782.5,750.5,32
2.35840899265024,1022,543,-479,-782.5,750.5,32
2.36057068741894,1021,543,-478,-782,749.5,32.5
2.36273238218764,1021,543,-478,-782,749.5,32.5
2.36489407695633,1022,543,-479,-782.5,750.5,32
2.36705577172503,1023,543,-480,-783,751.5,31.5
2.36921746649373,1022,543,-479,-782.5,750.5,32
2.37137916126243,1023,543,-480,-783,751.5,31.5
2.37354085603113,1022,543,-479,-782.5,750.5,32
2.37570255079983,1021,543,-478,-782,749.5,32.5
2.37786424556853,1021,543,-478,-782,749.5,32.5
2.38002594033722,1022,543,-479,-782.5,750.5,32
2.38218763510592,1021,543,-478,-782,749.5,32.5
2.38434932987462,1023,542,-481,-782.5,752,30.5
2.38651102464332,1023,543,-480,-783,751.5,31.5
2.38867271941202,1023,542,-481,-782.5,752,30.5
2.39083441418072,1022,543,-479,-782.5,750.5,32
2.39299610894942,1021,543,-478,-782,749.5,32.5
2.39515780371811,1022,543,-479,-782.5,750.5,32
2.39731949848681,1021,543,-478,-782,749.5,32.5
2.39948119325551,1020,543,-477,-781.5,748.5,33
2.40164288802421,1021,543,-478,-782,749.5,32.5
2.40380458279291,1022,543,-479,-782.5,750.5,32
2.40596627756161,1022,543,-479,-782.5,750.5,32
2.40812797233031,1021,543,-478,-782,749.5,32.5
2.41028966709901,1021,543,-478,-782,749.5,32.5
2.4124513618677,1020,543,-477,-781.5,748.5,33
2.4146130566364,1023,543,-480,-783,751.5,31.5
2.4167747514051,1021,543,-478,-782,749.5,32.5
2.4189364461738,1022,543,-479,-782.5,750.5,32
2.4210981409425,1022,543,-479,-782.5,750.5,32
2.4232598357112,1021,543,-478,-782,749.5,32.5
2.4254215304799,1022,543,-479,-782.5,750.5,32
2.42758322524859,1022,543,-479,-782.5,750.5,32
2.42974492001729,1022,543,-479,-782.5,750.5,32
2.43190661478599,1023,543,-480,-783,751.5,31.5
2.43406830955469,1022,543,-479,-782.5,750.5,32
2.43623000432339,1022,543,-479,-782.5,750.5,32
2.43839169909209,1021,543,-478,-782,749.5,32.5
2.44055339386079,1022,543,-479,-782.5,750.5,32
2.44271508862949,1023,543,-480,-783,751.5,31.5
2.44487678339818,1022,543,-479,-782.5,750.5,32
2.44703847816688,1022,543,-479,-782.5,750.5,32
2.44920017293558,1023,543,-480,-783,751.5,31.5
2.45136186770428,1021,543,-478,-782,749.5,32.5
2.45352356247298,1021,543,-478,-782,749.5,32.5
2.45568525724168,1022,543,-479,-782.5,750.5,32
2.45784695201038,1021,543,-478,-782,749.5,32.5
2.46000864677907,1022,543,-479,-782.5,750.5,32
2.46217034154777,1022,543,-479,-782.5,750.5,32
2.46433203631647,1022,543,-479,-782.5,750.5,32
2.46649373108517,1021,543,-478,-782,749.5,32.5
2.46865542585387,1022,543,-479,-782.5,750.5,32
2.47081712062257,1021,543,-478,-782,749.5,32.5
2.47297881539127,1021,543,-478,-782,749.5,32.5
2.47514051015997,1022,543,-479,-782.5,750.5,32
2.47730220492866,1023,543,-480,-783,751.5,31.5
2.47946389969736,1021,543,-478,-782,749.5,32.5
2.48162559446606,1022,543,-479,-782.5,750.5,32
2.48378728923476,1022,543,-479,-782.5,750.5,32
2.48594898400346,1021,543,-478,-782,749.5,32.5
2.48811067877216,1021,543,-478,-782,749.5,32.5
2.49027237354086,1021,543,-478,-782,749.5,32.5
2.49243406830955,1020,543,-477,-781.5,748.5,33
2.49459576307825,1020,543,-477,-781.5,748.5,33
2.49675745784695,1021,543,-478,-782,749.5,32.5
2.49891915261565,1015,543,-472,-779,743.5,35.5
2.50108084738435,1000,543,-457,-771.5,728.5,43
2.50324254215305,992,543,-449,-767.5,720.5,47
2.50540423692175,994,543,-451,-768.5,722.5,46
2.50756593169045,1004,543,-461,-773.5,732.5,41
2.50972762645914,1016,543,-473,-779.5,744.5,35
2.51188932122784,1021,543,-478,-782,749.5,32.5
2.51405101599654,1022,542,-480,-782,751,31
2.51621271076524,1022,543,-479,-782.5,750.5,32
2.51837440553394,1022,543,-479,-782.5,750.5,32
2.52053610030264,1021,543,-478,-782,749.5,32.5
2.52269779507134,1022,543,-479,-782.5,750.5,32
2.52485948984003,1022,543,-479,-782.5,750.5,32
2.52702118460873,1021,543,-478,-782,749.5,32.5
2.52918287937743,1023,542,-481,-782.5,752,30.5
2.53134457414613,1018,543,-475,-780.5,746.5,34
2.53350626891483,1009,543,-466,-776,737.5,38.5
2.53566796368353,1006,543,-463,-774.5,734.5,40
2.53782965845223,1002,543,-459,-772.5,730.5,42
2.53999135322093,1008,543,-465,-775.5,736.5,39
2.54215304798962,1022,542,-480,-782,751,31
2.54431474275832,1020,543,-477,-781.5,748.5,33
2.54647643752702,1021,543,-478,-782,749.5,32.5
2.54863813229572,1015,543,-472,-779,743.5,35.5
2.55079982706442,1014,543,-471,-778.5,742.5,36
2.55296152183312,1015,543,-472,-779,743.5,35.5
2.55512321660182,1021,542,-479,-781.5,750,31.5
2.55728491137051,1020,543,-477,-781.5,748.5,33
2.55944660613921,1021,543,-478,-782,749.5,32.5
2.56160830090791,1008,543,-465,-775.5,736.5,39
2.56376999567661,999,543,-456,-771,727.5,43.5
2.56593169044531,1002,543,-459,-772.5,730.5,42
2.56809338521401,1013,543,-470,-778,741.5,36.5
2.57025507998271,1021,543,-478,-782,749.5,32.5
2.5724167747514,1022,543,-479,-782.5,750.5,32
2.5745784695201,1021,543,-478,-782,749.5,32.5
2.5767401642888,1021,543,-478,-782,749.5,32.5
2.5789018590575,1021,543,-478,-782,749.5,32.5
2.5810635538262,1023,543,-480,-783,751.5,31.5
2.5832252485949,1022,543,-479,-782.5,750.5,32
2.5853869433636,1023,543,-480,-783,751.5,31.5
2.5875486381323,1020,542,-478,-781,749,32
2.58971033290099,1022,543,-479,-782.5,750.5,32
2.59187202766969,1021,543,-478,-782,749.5,32.5
2.59403372243839,1022,542,-480,-782,751,31
2.59619541720709,1020,543,-477,-781.5,748.5,33
2.59835711197579,1021,543,-478,-782,749.5,32.5
2.60051880674449,1023,543,-480,-783,751.5,31.5
2.60268050151319,1022,543,-479,-782.5,750.5,32
2.60484219628189,1017,543,-474,-780,745.5,34.5
2.60700389105058,990,543,-447,-766.5,718.5,48
2.60916558581928,982,543,-439,-762.5,710.5,52
2.61132728058798,977,543,-434,-760,705.5,54.5
2.61348897535668,983,543,-440,-763,711.5,51.5
2.61565067012538,983,543,-440,-763,711.5,51.5
2.61781236489408,983,543,-440,-763,711.5,51.5
2.61997405966278,981,543,-438,-762,709.5,52.5
2.62213575443147,983,543,-440,-763,711.5,51.5
2.62429744920017,980,543,-437,-761.5,708.5,53
2.62645914396887,982,543,-439,-762.5,710.5,52
2.62862083873757,985,543,-442,-764,713.5,50.5
2.63078253350627,992,543,-449,-767.5,720.5,47
2.63294422827497,1001,542,-459,-771.5,730,41.5
2.63510592304367,1011,543,-468,-777,739.5,37.5
2.63726761781236,1011,543,-468,-777,739.5,37.5
2.63942931258106,1009,543,-466,-776,737.5,38.5
2.64159100734976,1007,543,-464,-775,735.5,39.5
2.64375270211846,1001,543,-458,-772,729.5,42.5
2.64591439688716,993,543,-450,-768,721.5,46.5
2.64807609165586,989,543,-446,-766,717.5,48.5
2.65023778642456,987,543,-444,-765,715.5,49.5
2.65239948119326,987,543,-444,-765,715.5,49.5
2.65456117596195,981,543,-438,-762,709.5,52.5
2.65672287073065,977,543,-434,-760,705.5,54.5
2.65888456549935,978,543,-435,-760.5,706.5,54
2.66104626026805,983,543,-440,-763,711.5,51.5
2.66320795503675,996,543,-453,-769.5,724.5,45
2.66536964980545,1021,543,-478,-782,749.5,32.5
2.66753134457415,1021,543,-478,-782,749.5,32.5
2.66969303934284,1023,543,-480,-783,751.5,31.5
2.67185473411154,1022,543,-479,-782.5,750.5,32
2.67401642888024,1021,543,-478,-782,749.5,32.5
2.67617812364894,1021,543,-478,-782,749.5,32.5
2.67833981841764,1001,542,-459,-771.5,730,41.5
2.68050151318634,995,543,-452,-769,723.5,45.5
2.68266320795504,1001,543,-458,-772,729.5,42.5
2.68482490272374,1012,542,-470,-777,741,36
2.68698659749243,1020,543,-477,-781.5,748.5,33
2.68914829226113,1022,543,-479,-782.5,750.5,32
2.69130998702983,1021,543,-478,-782,749.5,32.5
2.69347168179853,1023,543,-480,-783,751.5,31.5
2.69563337656723,1023,542,-481,-782.5,752,30.5
2.69779507133593,1022,543,-479,-782.5,750.5,32
2.69995676610463,1021,543,-478,-782,749.5,32.5
2.70211846087332,1022,543,-479,-782.5,750.5,32
2.70428015564202,1022,543,-479,-782.5,750.5,32
2.70644185041072,1022,543,-479,-782.5,750.5,32
2.70860354517942,1020,543,-477,-781.5,748.5,33
2.71076523994812,1021,543,-478,-782,749.5,32.5
2.71292693471682,1022,543,-479,-782.5,750.5,32
2.71508862948552,1022,543,-479,-782.5,750.5,32
2.71725032425421,1021,543,-478,-782,749.5,32.5
2.71941201902291,1020,543,-477,-781.5,748.5,33
2.72157371379161,1022,543,-479,-782.5,750.5,32
2.72373540856031,1022,543,-479,-782.5,750.5,32
2.72589710332901,1022,543,-479,-782.5,750.5,32
2.72805879809771,1021,543,-478,-782,749.5,32.5
2.73022049286641,1020,543,-477,-781.5,748.5,33
2.73238218763511,1022,543,-479,-782.5,750.5,32
2.7345438824038,1022,543,-479,-782.5,750.5,32
2.7367055771725,1023,543,-480,-783,751.5,31.5
2.7388672719412,1021,543,-478,-782,749.5,32.5
2.7410289667099,1022,543,-479,-782.5,750.5,32
2.7431906614786,1021,543,-478,-782,749.5,32.5
2.7453523562473,1020,543,-477,-781.5,748.5,33
2.747514051016,1020,542,-478,-781,749,32
2.7496757457847,1020,543,-477,-781.5,748.5,33
2.75183744055339,1022,543,-479,-782.5,750.5,32
2.75399913532209,1020,543,-477,-781.5,748.5,33
2.75616083009079,1022,543,-479,-782.5,750.5,32
2.75832252485949,1022,543,-479,-782.5,750.5,32
2.76048421962819,1023,542,-481,-782.5,752,30.5
2.76264591439689,1022,543,-479,-782.5,750.5,32
2.76480760916559,1021,543,-478,-782,749.5,32.5
2.76696930393428,1022,543,-479,-782.5,750.5,32
2.76913099870298,1021,543,-478,-782,749.5,32.5
2.77129269347168,1022,543,-479,-782.5,750.5,32
2.77345438824038,1023,543,-480,-783,751.5,31.5
2.77561608300908,1022,543,-479,-782.5,750.5,32
2.77777777777778,1021,543,-478,-782,749.5,32.5
2.77993947254648,1021,543,-478,-782,749.5,32.5
2.78210116731517,1023,543,-480,-783,751.5,31.5
2.78426286208387,1023,542,-481,-782.5,752,30.5
2.78642455685257,1022,543,-479,-782.5,750.5,32
2.78858625162127,1022,543,-479,-782.5,750.5,32
2.79074794638997,1022,543,-479,-782.5,750.5,32
2.79290964115867,1021,543,-478,-782,749.5,32.5
2.79507133592737,1021,542,-479,-781.5,750,31.5
2.79723303069607,1021,543,-478,-782,749.5,32.5
2.79939472546476,1021,543,-478,-782,749.5,32.5
2.80155642023346,1021,543,-478,-782,749.5,32.5
2.80371811500216,1021,543,-478,-782,749.5,32.5
2.80587980977086,1022,543,-479,-782.5,750.5,32
2.80804150453956,1023,543,-480,-783,751.5,31.5
2.81020319930826,1023,543,-480,-783,751.5,31.5
2.81236489407696,1021,543,-478,-782,749.5,32.5
2.81452658884565,1023,543,-480,-783,751.5,31.5
2.81668828361435,1021,543,-478,-782,749.5,32.5
2.81884997838305,1021,543,-478,-782,749.5,32.5
2.82101167315175,1022,542,-480,-782,751,31
2.82317336792045,1021,543,-478,-782,749.5,32.5
2.82533506268915,1022,543,-479,-782.5,750.5,32
2.82749675745785,1022,543,-479,-782.5,750.5,32
2.82965845222655,1021,543,-478,-782,749.5,32.5
2.83182014699524,1022,543,-479,-782.5,750.5,32
2.83398184176394,1021,543,-478,-782,749.5,32.5
2.83614353653264,1021,543,-478,-782,749.5,32.5
2.83830523130134,1022,543,-479,-782.5,750.5,32
2.84046692607004,1022,543,-479,-782.5,750.5,32
2.84262862083874,1021,543,-478,-782,749.5,32.5
2.84479031560744,1021,543,-478,-782,749.5,32.5
2.84695201037613,1022,543,-479,-782.5,750.5,32
2.84911370514483,1022,543,-479,-782.5,750.5,32
2.85127539991353,1021,543,-478,-782,749.5,32.5
2.85343709468223,1022,543,-479,-782.5,750.5,32
2.85559878945093,1023,543,-480,-783,751.5,31.5
2.85776048421963,1021,543,-478,-782,749.5,32.5
2.85992217898833,1022,543,-479,-782.5,750.5,32
2.86208387375703,1021,543,-478,-782,749.5,32.5
2.86424556852572,1021,543,-478,-782,749.5,32.5
2.86640726329442,1020,543,-477,-781.5,748.5,33
2.86856895806312,1020,543,-477,-781.5,748.5,33
2.87073065283182,1019,543,-476,-781,747.5,33.5
2.87289234760052,1019,543,-476,-781,747.5,33.5
2.87505404236922,1019,543,-476,-781,747.5,33.5
2.87721573713792,1015,543,-472,-779,743.5,35.5
2.87937743190661,1013,543,-470,-778,741.5,36.5
2.88153912667531,1016,543,-473,-779.5,744.5,35
2.88370082144401,1020,543,-477,-781.5,748.5,33
2.88586251621271,1021,543,-478,-782,749.5,32.5
2.88802421098141,1023,543,-480,-783,751.5,31.5
2.89018590575011,1023,543,-480,-783,751.5,31.5
2.89234760051881,1022,542,-480,-782,751,31
2.89450929528751,1019,543,-476,-781,747.5,33.5
2.8966709900562,1011,543,-468,-777,739.5,37.5
2.8988326848249,1007,543,-464,-775,735.5,39.5
2.9009943795936,1003,543,-460,-773,731.5,41.5
2.9031560743623,1006,543,-463,-774.5,734.5,40
2.905317769131,1011,543,-468,-777,739.5,37.5
2.9074794638997,1013,543,-470,-778,741.5,36.5
2.9096411586684,1017,543,-474,-780,745.5,34.5
2.91180285343709,1022,543,-479,-782.5,750.5,32
2.91396454820579,1021,543,-478,-782,749.5,32.5
2.91612624297449,1022,543,-479,-782.5,750.5,32
2.91828793774319,1021,543,-478,-782,749.5,32.5
2.92044963251189,1019,543,-476,-781,747.5,33.5
2.92261132728059,1014,543,-471,-778.5,742.5,36
2.92477302204929,1014,543,-471,-778.5,742.5,36
2.92693471681799,1015,543,-472,-779,743.5,35.5
2.92909641158668,1003,543,-460,-773,731.5,41.5
2.93125810635538,997,543,-454,-770,725.5,44.5
2.93341980112408,1001,543,-458,-772,729.5,42.5
2.93558149589278,1012,543,-469,-777.5,740.5,37
2.93774319066148,1022,543,-479,-782.5,750.5,32
2.93990488543018,1021,543,-478,-782,749.5,32.5
2.94206658019888,1021,543,-478,-782,749.5,32.5
2.94422827496757,1021,543,-478,-782,749.5,32.5
2.94638996973627,1020,543,-477,-781.5,748.5,33
2.94855166450497,1021,543,-478,-782,749.5,32.5
2.95071335927367,1022,543,-479,-782.5,750.5,32
2.95287505404237,1021,543,-478,-782,749.5,32.5
2.95503674881107,1023,542,-481,-782.5,752,30.5
2.95719844357977,1022,543,-479,-782.5,750.5,32
2.95936013834846,1022,543,-479,-782.5,750.5,32
2.96152183311716,1021,543,-478,-782,749.5,32.5
2.96368352788586,1013,543,-470,-778,741.5,36.5
2.96584522265456,1002,543,-459,-772.5,730.5,42
2.96800691742326,998,543,-455,-770.5,726.5,44
2.97016861219196,999,543,-456,-771,727.5,43.5
2.97233030696066,1002,543,-459,-772.5,730.5,42
2.97449200172936,1012,543,-469,-777.5,740.5,37
2.97665369649805,1021,542,-479,-781.5,750,31.5
2.97881539126675,1020,543,-477,-781.5,748.5,33
2.98097708603545,1023,543,-480,-783,751.5,31.5
2.98313878080415,1021,543,-478,-782,749.5,32.5
2.98530047557285,1022,543,-479,-782.5,750.5,32
2.98746217034155,1022,543,-479,-782.5,750.5,32
2.98962386511025,1023,543,-480,-783,751.5,31.5
2.99178555987895,1019,543,-476,-781,747.5,33.5
2.99394725464764,1020,543,-477,-781.5,748.5,33
2.99610894941634,1021,543,-478,-782,749.5,32.5
2.99827064418504,1020,543,-477,-781.5,748.5,33
3.00043233895374,1023,543,-480,-783,751.5,31.5
3.00259403372244,1021,543,-478,-782,749.5,32.5
3.00475572849114,1020,543,-477,-781.5,748.5,33
3.00691742325984,1021,543,-478,-782,749.5,32.5
3.00907911802853,1021,543,-478,-782,749.5,32.5
3.01124081279723,1021,543,-478,-782,749.5,32.5
3.01340250756593,1021,543,-478,-782,749.5,32.5
3.01556420233463,1021,543,-478,-782,749.5,32.5
3.01772589710333,1021,543,-478,-782,749.5,32.5
3.01988759187203,1023,543,-480,-783,751.5,31.5
3.02204928664073,1022,543,-479,-782.5,750.5,32
3.02421098140942,1023,543,-480,-783,751.5,31.5
3.02637267617812,1021,543,-478,-782,749.5,32.5
3.02853437094682,1022,543,-479,-782.5,750.5,32
3.03069606571552,1021,543,-478,-782,749.5,32.5
3.03285776048422,1021,543,-478,-782,749.5,32.5
3.03501945525292,1022,543,-479,-782.5,750.5,32
3.03718115002162,1018,543,-475,-780.5,746.5,34
3.03934284479032,1013,543,-470,-778,741.5,36.5
3.04150453955901,1013,543,-470,-778,741.5,36.5
3.04366623432771,1013,543,-470,-778,741.5,36.5
3.04582792909641,1022,542,-480,-782,751,31
3.04798962386511,1022,543,-479,-782.5,750.5,32
3.05015131863381,1023,543,-480,-783,751.5,31.5
3.05231301340251,1021,543,-478,-782,749.5,32.5
3.05447470817121,1021,543,-478,-782,749.5,32.5
3.0566364029399,1023,543,-480,-783,751.5,31.5
3.0587980977086,1022,543,-479,-782.5,750.5,32
3.0609597924773,1022,543,-479,-782.5,750.5,32
3.063121487246,1021,543,-478,-782,749.5,32.5
3.0652831820147,1022,543,-479,-782.5,750.5,32
3.0674448767834,1021,543,-478,-782,749.5,32.5
3.0696065715521,1020,543,-477,-781.5,748.5,33
3.0717682663208,1021,543,-478,-782,749.5,32.5
3.07392996108949,1023,543,-480,-783,751.5,31.5
3.07609165585819,1023,543,-480,-783,751.5,31.5
3.07825335062689,1022,543,-479,-782.5,750.5,32
3.08041504539559,1021,543,-478,-782,749.5,32.5
3.08257674016429,1021,543,-478,-782,749.5,32.5
3.08473843493299,1020,543,-477,-781.5,748.5,33
3.08690012970169,1020,543,-477,-781.5,748.5,33
3.08906182447038,1021,543,-478,-782,749.5,32.5
3.09122351923908,1023,542,-481,-782.5,752,30.5
3.09338521400778,1022,543,-479,-782.5,750.5,32
3.09554690877648,1021,543,-478,-782,749.5,32.5
3.09770860354518,1019,543,-476,-781,747.5,33.5
3.09987029831388,1020,543,-477,-781.5,748.5,33
3.10203199308258,1023,542,-481,-782.5,752,30.5
3.10419368785128,1021,543,-478,-782,749.5,32.5
3.10635538261997,1022,543,-479,-782.5,750.5,32
3.10851707738867,1021,543,-478,-782,749.5,32.5
3.11067877215737,1023,543,-480,-783,751.5,31.5
3.11284046692607,1022,543,-479,-782.5,750.5,32
3.11500216169477,1022,543,-479,-782.5,750.5,32
3.11716385646347,1023,542,-481,-782.5,752,30.5
3.11932555123217,1022,543,-479,-782.5,750.5,32
3.12148724600086,1023,543,-480,-783,751.5,31.5
3.12364894076956,1020,543,-477,-781.5,748.5,33
3.12581063553826,1022,543,-479,-782.5,750.5,32
3.12797233030696,1020,543,-477,-781.5,748.5,33
3.13013402507566,1023,543,-480,-783,751.5,31.5
3.13229571984436,1021,543,-478,-782,749.5,32.5
3.13445741461306,1021,543,-478,-782,749.5,32.5
3.13661910938176,1021,543,-478,-782,749.5,32.5
3.13878080415045,1021,543,-478,-782,749.5,32.5
3.14094249891915,1022,543,-479,-782.5,750.5,32
3.14310419368785,1019,543,-476,-781,747.5,33.5
3.14526588845655,1014,543,-471,-778.5,742.5,36
3.14742758322525,1010,543,-467,-776.5,738.5,38
3.14958927799395,1004,543,-461,-773.5,732.5,41
3.15175097276265,998,543,-455,-770.5,726.5,44
3.15391266753134,993,543,-450,-768,721.5,46.5
3.15607436230004,995,543,-452,-769,723.5,45.5
3.15823605706874,1001,543,-458,-772,729.5,42.5
3.16039775183744,1012,543,-469,-777.5,740.5,37
3.16255944660614,1021,542,-479,-781.5,750,31.5
3.16472114137484,1021,543,-478,-782,749.5,32.5
3.16688283614354,1023,542,-481,-782.5,752,30.5
3.16904453091224,1021,543,-478,-782,749.5,32.5
3.17120622568093,1021,543,-478,-782,749.5,32.5
3.17336792044963,1023,543,-480,-783,751.5,31.5
3.17552961521833,1015,543,-472,-779,743.5,35.5
3.17769130998703,1010,543,-467,-776.5,738.5,38
3.17985300475573,1007,543,-464,-775,735.5,39.5
3.18201469952443,1004,543,-461,-773.5,732.5,41
3.18417639429313,1003,543,-460,-773,731.5,41.5
3.18633808906182,1003,543,-460,-773,731.5,41.5
3.18849978383052,1010,543,-467,-776.5,738.5,38
3.19066147859922,1017,543,-474,-780,745.5,34.5
3.19282317336792,1021,543,-478,-782,749.5,32.5
3.19498486813662,1013,543,-470,-778,741.5,36.5
3.19714656290532,1001,543,-458,-772,729.5,42.5
3.19930825767402,992,543,-449,-767.5,720.5,47
3.20146995244271,993,543,-450,-768,721.5,46.5
3.20363164721141,994,543,-451,-768.5,722.5,46
3.20579334198011,1002,543,-459,-772.5,730.5,42
3.20795503674881,1009,543,-466,-776,737.5,38.5
3.21011673151751,1016,543,-473,-779.5,744.5,35
3.21227842628621,1020,543,-477,-781.5,748.5,33
3.21444012105491,1023,543,-480,-783,751.5,31.5
3.21660181582361,1022,543,-479,-782.5,750.5,32
3.2187635105923,1022,543,-479,-782.5,750.5,32
3.220925205361,1021,543,-478,-782,749.5,32.5
3.2230869001297,1020,543,-477,-781.5,748.5,33
3.2252485948984,1022,543,-479,-782.5,750.5,32
3.2274102896671,1022,543,-479,-782.5,750.5,32
3.2295719844358,1020,543,-477,-781.5,748.5,33
3.2317336792045,1020,543,-477,-781.5,748.5,33
3.2338953739732,1023,543,-480,-783,751.5,31.5
3.23605706874189,1022,542,-480,-782,751,31
3.23821876351059,1023,543,-480,-783,751.5,31.5
3.24038045827929,1022,543,-479,-782.5,750.5,32
3.24254215304799,1022,543,-479,-782.5,750.5,32
3.24470384781669,1021,543,-478,-782,749.5,32.5
3.24686554258539,1022,543,-479,-782.5,750.5,32
3.24902723735409,1022,543,-479,-782.5,750.5,32
3.25118893212278,1007,543,-464,-775,735.5,39.5
3.25335062689148,976,543,-433,-759.5,704.5,55
3.25551232166018,952,543,-409,-747.5,680.5,67
3.25767401642888,943,543,-400,-743,671.5,71.5
3.25983571119758,947,543,-404,-745,675.5,69.5
3.26199740596628,963,543,-420,-753,691.5,61.5
3.26415910073498,981,543,-438,-762,709.5,52.5
3.26632079550367,992,543,-449,-767.5,720.5,47
3.26848249027237,999,543,-456,-771,727.5,43.5
3.27064418504107,996,542,-454,-769,725,44
3.27280587980977,995,543,-452,-769,723.5,45.5
3.27496757457847,998,543,-455,-770.5,726.5,44
3.27712926934717,995,543,-452,-769,723.5,45.5
3.27929096411587,996,542,-454,-769,725,44
3.28145265888457,992,543,-449,-767.5,720.5,47
3.28361435365326,992,543,-449,-767.5,720.5,47
3.28577604842196,991,543,-448,-767,719.5,47.5
3.28793774319066,987,543,-444,-765,715.5,49.5
3.29009943795936,990,543,-447,-766.5,718.5,48
3.29226113272806,1002,543,-459,-772.5,730.5,42
3.29442282749676,1015,543,-472,-779,743.5,35.5
3.29658452226546,1021,543,-478,-782,749.5,32.5
3.29874621703415,1021,543,-478,-782,749.5,32.5
3.30090791180285,1021,543,-478,-782,749.5,32.5
3.30306960657155,1020,543,-477,-781.5,748.5,33
3.30523130134025,1022,543,-479,-782.5,750.5,32
3.30739299610895,1019,543,-476,-781,747.5,33.5
3.30955469087765,1016,543,-473,-779.5,744.5,35
3.31171638564635,1013,543,-470,-778,741.5,36.5
3.31387808041505,1015,543,-472,-779,743.5,35.5
3.31603977518374,1016,543,-473,-779.5,744.5,35
3.31820146995244,1020,543,-477,-781.5,748.5,33
3.32036316472114,1023,543,-480,-783,751.5,31.5
3.32252485948984,1022,543,-479,-782.5,750.5,32
3.32468655425854,1022,542,-480,-782,751,31
3.32684824902724,1022,543,-479,-782.5,750.5,32
3.32900994379594,1023,543,-480,-783,751.5,31.5
3.33117163856463,1021,543,-478,-782,749.5,32.5
3.33333333333333,1021,543,-478,-782,749.5,32.5
3.33549502810203,1023,543,-480,-783,751.5,31.5
3.33765672287073,1022,543,-479,-782.5,750.5,32
3.33981841763943,1022,543,-479,-782.5,750.5,32
3.34198011240813,1022,542,-480,-782,751,31
3.34414180717683,1020,543,-477,-781.5,748.5,33
3.34630350194552,1022,543,-479,-782.5,750.5,32
3.34846519671422,1023,543,-480,-783,751.5,31.5
3.35062689148292,1022,543,-479,-782.5,750.5,32
3.35278858625162,1023,543,-480,-783,751.5,31.5
3.35495028102032,1020,543,-477,-781.5,748.5,33
3.35711197578902,1021,543,-478,-782,749.5,32.5
3.35927367055772,1022,543,-479,-782.5,750.5,32
3.36143536532642,1022,543,-479,-782.5,750.5,32
3.36359706009511,1021,543,-478,-782,749.5,32.5
3.36575875486381,1021,543,-478,-782,749.5,32.5
3.36792044963251,1023,543,-480,-783,751.5,31.5
3.37008214440121,1021,543,-478,-782,749.5,32.5
3.37224383916991,1020,543,-477,-781.5,748.5,33
3.37440553393861,1022,543,-479,-782.5,750.5,32
3.37656722870731,1021,543,-478,-782,749.5,32.5
3.37872892347601,1021,542,-479,-781.5,750,31.5
3.3808906182447,1017,543,-474,-780,745.5,34.5
3.3830523130134,1022,543,-479,-782.5,750.5,32
3.3852140077821,1020,543,-477,-781.5,748.5,33
3.3873757025508,1022,543,-479,-782.5,750.5,32
3.3895373973195,1021,543,-478,-782,749.5,32.5
3.3916990920882,1021,543,-478,-782,749.5,32.5
3.3938607868569,1022,543,-479,-782.5,750.5,32
3.39602248162559,1022,543,-479,-782.5,750.5,32
3.39818417639429,1021,543,-478,-782,749.5,32.5
3.40034587116299,1022,543,-479,-782.5,750.5,32
3.40250756593169,1023,543,-480,-783,751.5,31.5
3.40466926070039,1022,542,-480,-782,751,31
3.40683095546909,1022,543,-479,-782.5,750.5,32
3.40899265023779,1022,543,-479,-782.5,750.5,32
3.41115434500648,1021,543,-478,-782,749.5,32.5
3.41331603977518,1023,542,-481,-782.5,752,30.5
3.41547773454388,1022,543,-479,-782.5,750.5,32
3.41763942931258,1022,543,-479,-782.5,750.5,32
3.41980112408128,1021,543,-478,-782,749.5,32.5
3.42196281884998,1022,543,-479,-782.5,750.5,32
3.42412451361868,1021,543,-478,-782,749.5,32.5
3.42628620838738,1021,543,-478,-782,749.5,32.5
3.42844790315607,1022,543,-479,-782.5,750.5,32
3.43060959792477,1023,543,-480,-783,751.5,31.5
3.43277129269347,1023,542,-481,-782.5,752,30.5
3.43493298746217,1022,543,-479,-782.5,750.5,32
3.43709468223087,1021,543,-478,-782,749.5,32.5
3.43925637699957,1022,543,-479,-782.5,750.5,32
3.44141807176827,1021,543,-478,-782,749.5,32.5
3.44357976653696,1021,543,-478,-782,749.5,32.5
3.44574146130566,1021,543,-478,-782,749.5,32.5
3.44790315607436,1021,543,-478,-782,749.5,32.5
3.45006485084306,1022,543,-479,-782.5,750.5,32
3.45222654561176,1021,543,-478,-782,749.5,32.5
3.45438824038046,1021,543,-478,-782,749.5,32.5
3.45654993514916,1022,543,-479,-782.5,750.5,32
3.45871162991786,1022,543,-479,-782.5,750.5,32
3.46087332468655,1021,543,-478,-782,749.5,32.5
3.46303501945525,1022,543,-479,-782.5,750.5,32
3.46519671422395,1022,543,-479,-782.5,750.5,32
3.46735840899265,1021,543,-478,-782,749.5,32.5
3.46952010376135,1022,543,-479,-782.5,750.5,32
3.47168179853005,1022,543,-479,-782.5,750.5,32
3.47384349329875,1023,543,-480,-783,751.5,31.5
3.47600518806744,1022,543,-479,-782.5,750.5,32
3.47816688283614,1022,543,-479,-782.5,750.5,32
3.48032857760484,1023,543,-480,-783,751.5,31.5
3.48249027237354,1021,543,-478,-782,749.5,32.5
3.48465196714224,1023,543,-480,-783,751.5,31.5
3.48681366191094,1020,543,-477,-781.5,748.5,33
3.48897535667964,1021,543,-478,-782,749.5,32.5
3.49113705144834,1022,543,-479,-782.5,750.5,32
3.49329874621703,1022,542,-480,-782,751,31
3.49546044098573,1021,543,-478,-782,749.5,32.5
3.49762213575443,1022,543,-479,-782.5,750.5,32
3.49978383052313,1022,543,-479,-782.5,750.5,32
3.50194552529183,1022,543,-479,-782.5,750.5,32
3.50410722006053,1021,543,-478,-782,749.5,32.5
3.50626891482923,1022,543,-479,-782.5,750.5,32
3.50843060959792,1021,543,-478,-782,749.5,32.5
3.51059230436662,1020,543,-477,-781.5,748.5,33
3.51275399913532,1022,543,-479,-782.5,750.5,32
3.51491569390402,1023,543,-480,-783,751.5,31.5
3.51707738867272,1021,543,-478,-782,749.5,32.5
3.51923908344142,1022,543,-479,-782.5,750.5,32
3.52140077821012,1021,543,-478,-782,749.5,32.5
3.52356247297882,1019,543,-476,-781,747.5,33.5
3.52572416774751,1011,543,-468,-777,739.5,37.5
3.52788586251621,1007,543,-464,-775,735.5,39.5
3.53004755728491,1005,543,-462,-774,733.5,40.5
3.53220925205361,1006,543,-463,-774.5,734.5,40
3.53437094682231,1011,543,-468,-777,739.5,37.5
3.53653264159101,1011,543,-468,-777,739.5,37.5
3.53869433635971,1014,543,-471,-778.5,742.5,36
3.5408560311284,1018,543,-475,-780.5,746.5,34
3.5430177258971,1021,543,-478,-782,749.5,32.5
3.5451794206658,1021,543,-478,-782,749.5,32.5
3.5473411154345,1019,543,-476,-781,747.5,33.5
3.5495028102032,1014,543,-471,-778.5,742.5,36
3.5516645049719,1006,542,-464,-774,735,39
3.5538261997406,1000,543,-457,-771.5,728.5,43
3.5559878945093,1000,543,-457,-771.5,728.5,43
3.55814958927799,1001,543,-458,-772,729.5,42.5
3.56031128404669,1008,543,-465,-775.5,736.5,39
3.56247297881539,1007,543,-464,-775,735.5,39.5
3.56463467358409,1012,543,-469,-777.5,740.5,37
3.56679636835279,1012,543,-469,-777.5,740.5,37
3.56895806312149,1009,543,-466,-776,737.5,38.5
3.57111975789019,1006,542,-464,-774,735,39
3.57328145265888,1005,543,-462,-774,733.5,40.5
3.57544314742758,1007,543,-464,-775,735.5,39.5
3.57760484219628,1008,543,-465,-775.5,736.5,39
3.57976653696498,1011,543,-468,-777,739.5,37.5
3.58192823173368,1015,543,-472,-779,743.5,35.5
3.58408992650238,1021,543,-478,-782,749.5,32.5
3.58625162127108,1022,543,-479,-782.5,750.5,32
3.58841331603977,1021,543,-478,-782,749.5,32.5
3.59057501080847,1023,543,-480,-783,751.5,31.5
3.59273670557717,1020,543,-477,-781.5,748.5,33
3.59489840034587,1017,543,-474,-780,745.5,34.5
3.59706009511457,1013,542,-471,-777.5,742,35.5
3.59922178988327,1014,543,-471,-778.5,742.5,36
3.60138348465197,1020,543,-477,-781.5,748.5,33
3.60354517942067,1021,543,-478,-782,749.5,32.5
3.60570687418936,1021,543,-478,-782,749.5,32.5
3.60786856895806,1019,543,-476,-781,747.5,33.5
3.61003026372676,1020,543,-477,-781.5,748.5,33
3.61219195849546,1019,543,-476,-781,747.5,33.5
3.61435365326416,1017,543,-474,-780,745.5,34.5
3.61651534803286,1020,543,-477,-781.5,748.5,33
3.61867704280156,1018,543,-475,-780.5,746.5,34
3.62083873757026,1014,543,-471,-778.5,742.5,36
3.62300043233895,1018,543,-475,-780.5,746.5,34
3.62516212710765,1022,543,-479,-782.5,750.5,32
3.62732382187635,1021,543,-478,-782,749.5,32.5
3.62948551664505,1021,543,-478,-782,749.5,32.5
3.63164721141375,1022,543,-479,-782.5,750.5,32
3.63380890618245,1022,543,-479,-782.5,750.5,32
3.63597060095115,1023,543,-480,-783,751.5,31.5
3.63813229571984,1019,543,-476,-781,747.5,33.5
3.64029399048854,1016,543,-473,-779.5,744.5,35
3.64245568525724,1012,543,-469,-777.5,740.5,37
3.64461738002594,1005,543,-462,-774,733.5,40.5
3.64677907479464,1006,543,-463,-774.5,734.5,40
3.64894076956334,1018,542,-476,-780,747,33
3.65110246433204,1023,542,-481,-782.5,752,30.5
3.65326415910073,1020,543,-477,-781.5,748.5,33
3.65542585386943,1021,543,-478,-782,749.5,32.5
3.65758754863813,1021,543,-478,-782,749.5,32.5
3.65974924340683,1020,543,-477,-781.5,748.5,33
3.66191093817553,1020,543,-477,-781.5,748.5,33
3.66407263294423,1021,543,-478,-782,749.5,32.5
3.66623432771293,1022,543,-479,-782.5,750.5,32
3.66839602248163,1020,543,-477,-781.5,748.5,33
3.67055771725032,1023,543,-480,-783,751.5,31.5
3.67271941201902,1022,543,-479,-782.5,750.5,32
3.67488110678772,1022,543,-479,-782.5,750.5,32
3.67704280155642,1021,543,-478,-782,749.5,32.5
3.67920449632512,1022,543,-479,-782.5,750.5,32
3.68136619109382,1022,543,-479,-782.5,750.5,32
3.68352788586252,1023,543,-480,-783,751.5,31.5
3.68568958063121,1022,543,-479,-782.5,750.5,32
3.68785127539991,1022,543,-479,-782.5,750.5,32
3.69001297016861,1021,543,-478,-782,749.5,32.5
3.69217466493731,1020,543,-477,-781.5,748.5,33
3.69433635970601,1022,543,-479,-782.5,750.5,32
3.69649805447471,1020,542,-478,-781,749,32
3.69865974924341,1023,543,-480,-783,751.5,31.5
3.70082144401211,1023,543,-480,-783,751.5,31.5
3.7029831387808,1022,543,-479,-782.5,750.5,32
3.7051448335495,1021,543,-478,-782,749.5,32.5
3.7073065283182,1020,543,-477,-781.5,748.5,33
3.7094682230869,1021,543,-478,-782,749.5,32.5
3.7116299178556,1022,542,-480,-782,751,31
3.7137916126243,1021,543,-478,-782,749.5,32.5
3.715953307393,1022,543,-479,-782.5,750.5,32
3.71811500216169,1022,543,-479,-782.5,750.5,32
3.72027669693039,1022,543,-479,-782.5,750.5,32
3.72243839169909,1022,543,-479,-782.5,750.5,32
3.72460008646779,1023,543,-480,-783,751.5,31.5
3.72676178123649,1021,543,-478,-782,749.5,32.5
3.72892347600519,1022,542,-480,-782,751,31
3.73108517077389,1023,543,-480,-783,751.5,31.5
3.73324686554259,1021,543,-478,-782,749.5,32.5
3.73540856031128,1021,543,-478,-782,749.5,32.5
3.73757025507998,1022,543,-479,-782.5,750.5,32
3.73973194984868,1021,543,-478,-782,749.5,32.5
3.74189364461738,1021,543,-478,-782,749.5,32.5
3.74405533938608,1021,543,-478,-782,749.5,32.5
3.74621703415478,1021,543,-478,-782,749.5,32.5
3.74837872892348,1022,543,-479,-782.5,750.5,32
3.75054042369217,1018,543,-475,-780.5,746.5,34
3.75270211846087,1013,543,-470,-778,741.5,36.5
3.75486381322957,1011,543,-468,-777,739.5,37.5
3.75702550799827,1004,543,-461,-773.5,732.5,41
3.75918720276697,1000,543,-457,-771.5,728.5,43
3.76134889753567,1001,543,-458,-772,729.5,42.5
3.76351059230437,1003,543,-460,-773,731.5,41.5
3.76567228707307,1007,543,-464,-775,735.5,39.5
3.76783398184176,1010,543,-467,-776.5,738.5,38
3.76999567661046,1010,543,-467,-776.5,738.5,38
3.77215737137916,1012,543,-469,-777.5,740.5,37
3.77431906614786,1014,542,-472,-778,743,35
3.77648076091656,1015,543,-472,-779,743.5,35.5
3.77864245568526,1014,543,-471,-778.5,742.5,36
3.78080415045396,1015,543,-472,-779,743.5,35.5
3.78296584522265,1018,543,-475,-780.5,746.5,34
3.78512753999135,1021,543,-478,-782,749.5,32.5
3.78728923476005,1021,542,-479,-781.5,750,31.5
3.78945092952875,1018,543,-475,-780.5,746.5,34
3.79161262429745,1015,543,-472,-779,743.5,35.5
3.79377431906615,1015,543,-472,-779,743.5,35.5
3.79593601383485,1022,542,-480,-782,751,31
3.79809770860355,1022,543,-479,-782.5,750.5,32
3.80025940337224,1022,543,-479,-782.5,750.5,32
3.80242109814094,1023,542,-481,-782.5,752,30.5
3.80458279290964,1022,543,-479,-782.5,750.5,32
3.80674448767834,1015,543,-472,-779,743.5,35.5
3.80890618244704,994,543,-451,-768.5,722.5,46
3.81106787721574,985,543,-442,-764,713.5,50.5
3.81322957198444,980,543,-437,-761.5,708.5,53
3.81539126675313,976,543,-433,-759.5,704.5,55
3.81755296152183,981,543,-438,-762,709.5,52.5
3.81971465629053,988,543,-445,-765.5,716.5,49
3.82187635105923,1002,543,-459,-772.5,730.5,42
3.82403804582793,1014,543,-471,-778.5,742.5,36
3.82619974059663,1015,543,-472,-779,743.5,35.5
3.82836143536533,1013,543,-470,-778,741.5,36.5
3.83052313013402,1017,542,-475,-779.5,746,33.5
3.83268482490272,1021,543,-478,-782,749.5,32.5
3.83484651967142,1022,543,-479,-782.5,750.5,32
3.83700821444012,1021,542,-479,-781.5,750,31.5
3.83916990920882,1023,543,-480,-783,751.5,31.5
3.84133160397752,1022,543,-479,-782.5,750.5,32
3.84349329874622,1022,543,-479,-782.5,750.5,32
3.84565499351492,1021,543,-478,-782,749.5,32.5
3.84781668828361,1020,543,-477,-781.5,748.5,33
3.84997838305231,1022,543,-479,-782.5,750.5,32
3.85214007782101,1021,543,-478,-782,749.5,32.5
3.85430177258971,1021,543,-478,-782,749.5,32.5
3.85646346735841,1022,543,-479,-782.5,750.5,32
3.85862516212711,1022,542,-480,-782,751,31
3.86078685689581,1022,543,-479,-782.5,750.5,32
3.8629485516645,1023,543,-480,-783,751.5,31.5
3.8651102464332,1021,543,-478,-782,749.5,32.5
3.8672719412019,1023,543,-480,-783,751.5,31.5
3.8694336359706,1003,543,-460,-773,731.5,41.5
3.8715953307393,982,543,-439,-762.5,710.5,52
3.873757025508,975,543,-432,-759,703.5,55.5
3.8759187202767,974,543,-431,-758.5,702.5,56
3.8780804150454,975,543,-432,-759,703.5,55.5
3.88024210981409,987,543,-444,-765,715.5,49.5
3.88240380458279,991,543,-448,-767,719.5,47.5
3.88456549935149,994,543,-451,-768.5,722.5,46
3.88672719412019,994,542,-452,-768,723,45
3.88888888888889,993,543,-450,-768,721.5,46.5
3.89105058365759,995,543,-452,-769,723.5,45.5
3.89321227842629,996,543,-453,-769.5,724.5,45
3.89537397319498,1002,543,-459,-772.5,730.5,42
3.89753566796368,1005,543,-462,-774,733.5,40.5
3.89969736273238,1005,542,-463,-773.5,734,39.5
3.90185905750108,1003,543,-460,-773,731.5,41.5
3.90402075226978,1001,543,-458,-772,729.5,42.5
3.90618244703848,999,543,-456,-771,727.5,43.5
3.90834414180718,997,542,-455,-769.5,726,43.5
3.91050583657588,1003,543,-460,-773,731.5,41.5
3.91266753134457,1004,543,-461,-773.5,732.5,41
3.91482922611327,1006,543,-463,-774.5,734.5,40
3.91699092088197,1001,543,-458,-772,729.5,42.5
3.91915261565067,1000,543,-457,-771.5,728.5,43
3.92131431041937,1001,543,-458,-772,729.5,42.5
3.92347600518807,1008,543,-465,-775.5,736.5,39
3.92563769995677,1014,543,-471,-778.5,742.5,36
3.92779939472546,1017,543,-474,-780,745.5,34.5
3.92996108949416,1020,543,-477,-781.5,748.5,33
3.93212278426286,1020,543,-477,-781.5,748.5,33
3.93428447903156,1021,543,-478,-782,749.5,32.5
3.93644617380026,1021,543,-478,-782,749.5,32.5
3.93860786856896,1021,543,-478,-782,749.5,32.5
3.94076956333766,1022,543,-479,-782.5,750.5,32
3.94293125810636,1023,543,-480,-783,751.5,31.5
3.94509295287505,1020,543,-477,-781.5,748.5,33
3.94725464764375,1020,543,-477,-781.5,748.5,33
3.94941634241245,1021,543,-478,-782,749.5,32.5
3.95157803718115,1019,543,-476,-781,747.5,33.5
3.95373973194985,1016,543,-473,-779.5,744.5,35
3.95590142671855,1021,543,-478,-782,749.5,32.5
3.95806312148725,1022,543,-479,-782.5,750.5,32
3.96022481625594,1021,543,-478,-782,749.5,32.5
3.96238651102464,1021,543,-478,-782,749.5,32.5
3.96454820579334,1022,543,-479,-782.5,750.5,32
3.96670990056204,1022,543,-479,-782.5,750.5,32
3.96887159533074,1023,543,-480,-783,751.5,31.5
3.97103329009944,1023,542,-481,-782.5,752,30.5
3.97319498486814,1020,543,-477,-781.5,748.5,33
3.97535667963683,1021,543,-478,-782,749.5,32.5
3.97751837440553,1023,543,-480,-783,751.5,31.5
3.97968006917423,1021,543,-478,-782,749.5,32.5
3.98184176394293,1020,543,-477,-781.5,748.5,33
3.98400345871163,1021,543,-478,-782,749.5,32.5
3.98616515348033,1022,543,-479,-782.5,750.5,32
3.98832684824903,1020,543,-477,-781.5,748.5,33
3.99048854301773,1023,542,-481,-782.5,752,30.5
3.99265023778642,1023,543,-480,-783,751.5,31.5
3.99481193255512,1020,543,-477,-781.5,748.5,33
3.99697362732382,1022,542,-480,-782,751,31
3.99913532209252,1021,543,-478,-782,749.5,32.5
4.00129701686122,1021,543,-478,-782,749.5,32.5
4.00345871162992,1021,543,-478,-782,749.5,32.5
4.00562040639862,1022,543,-479,-782.5,750.5,32
4.00778210116732,1020,542,-478,-781,749,32
4.00994379593601,1022,543,-479,-782.5,750.5,32
4.01210549070471,1022,543,-479,-782.5,750.5,32
4.01426718547341,1020,543,-477,-781.5,748.5,33
4.01642888024211,1021,543,-478,-782,749.5,32.5
4.01859057501081,1022,543,-479,-782.5,750.5,32
4.02075226977951,1022,543,-479,-782.5,750.5,32
4.02291396454821,1021,543,-478,-782,749.5,32.5
4.0250756593169,1019,543,-476,-781,747.5,33.5
4.0272373540856,1020,543,-477,-781.5,748.5,33
4.0293990488543,1021,543,-478,-782,749.5,32.5
4.031560743623,1021,543,-478,-782,749.5,32.5
4.0337224383917,1022,543,-479,-782.5,750.5,32
4.0358841331604,1023,543,-480,-783,751.5,31.5
4.0380458279291,1021,543,-478,-782,749.5,32.5
4.04020752269779,1020,542,-478,-781,749,32
4.04236921746649,1022,543,-479,-782.5,750.5,32
4.04453091223519,1021,543,-478,-782,749.5,32.5
4.04669260700389,1022,543,-479,-782.5,750.5,32
4.04885430177259,1021,543,-478,-782,749.5,32.5
4.05101599654129,1021,543,-478,-782,749.5,32.5
4.05317769130999,1021,543,-478,-782,749.5,32.5
4.05533938607869,1022,543,-479,-782.5,750.5,32
4.05750108084738,1023,543,-480,-783,751.5,31.5
4.05966277561608,1021,543,-478,-782,749.5,32.5
4.06182447038478,1021,542,-479,-781.5,750,31.5
4.06398616515348,1022,543,-479,-782.5,750.5,32
4.06614785992218,1023,543,-480,-783,751.5,31.5
4.06830955469088,1021,543,-478,-782,749.5,32.5
4.07047124945958,1019,543,-476,-781,747.5,33.5
4.07263294422827,1019,543,-476,-781,747.5,33.5
4.07479463899697,1023,543,-480,-783,751.5,31.5
4.07695633376567,1022,543,-479,-782.5,750.5,32
4.07911802853437,1023,543,-480,-783,751.5,31.5
4.08127972330307,1022,543,-479,-782.5,750.5,32
4.08344141807177,1023,543,-480,-783,751.5,31.5
4.08560311284047,1023,543,-480,-783,751.5,31.5
4.08776480760917,1021,543,-478,-782,749.5,32.5
4.08992650237786,1022,543,-479,-782.5,750.5,32
4.09208819714656,1022,543,-479,-782.5,750.5,32
4.09424989191526,1021,543,-478,-782,749.5,32.5
4.09641158668396,1021,543,-478,-782,749.5,32.5
4.09857328145266,1023,543,-480,-783,751.5,31.5
4.10073497622136,1023,543,-480,-783,751.5,31.5
4.10289667099006,1021,543,-478,-782,749.5,32.5
4.10505836575875,1022,543,-479,-782.5,750.5,32
4.10722006052745,1023,543,-480,-783,751.5,31.5
4.10938175529615,1022,543,-479,-782.5,750.5,32
4.11154345006485,1022,543,-479,-782.5,750.5,32
4.11370514483355,1021,543,-478,-782,749.5,32.5
4.11586683960225,1022,542,-480,-782,751,31
4.11802853437095,1022,543,-479,-782.5,750.5,32
4.12019022913965,1023,543,-480,-783,751.5,31.5
4.12235192390834,1021,543,-478,-782,749.5,32.5
4.12451361867704,1022,543,-479,-782.5,750.5,32
4.12667531344574,1021,543,-478,-782,749.5,32.5
4.12883700821444,1021,543,-478,-782,749.5,32.5
4.13099870298314,1016,543,-473,-779.5,744.5,35
4.13316039775184,1008,543,-465,-775.5,736.5,39
4.13532209252054,1008,543,-465,-775.5,736.5,39
4.13748378728923,1009,543,-466,-776,737.5,38.5
4.13964548205793,1012,543,-469,-777.5,740.5,37
4.14180717682663,1013,543,-470,-778,741.5,36.5
4.14396887159533,1016,543,-473,-779.5,744.5,35
4.14613056636403,1020,543,-477,-781.5,748.5,33
4.14829226113273,1019,543,-476,-781,747.5,33.5
4.15045395590143,1016,543,-473,-779.5,744.5,35
4.15261565067012,1008,543,-465,-775.5,736.5,39
4.15477734543882,1000,543,-457,-771.5,728.5,43
4.15693904020752,1002,543,-459,-772.5,730.5,42
4.15910073497622,1015,543,-472,-779,743.5,35.5
4.16126242974492,1022,543,-479,-782.5,750.5,32
4.16342412451362,1022,543,-479,-782.5,750.5,32
4.16558581928232,1017,543,-474,-780,745.5,34.5
4.16774751405102,1011,543,-468,-777,739.5,37.5
4.16990920881971,1005,543,-462,-774,733.5,40.5
4.17207090358841,1004,543,-461,-773.5,732.5,41
4.17423259835711,1007,543,-464,-775,735.5,39.5
4.17639429312581,1005,543,-462,-774,733.5,40.5
4.17855598789451,1003,543,-460,-773,731.5,41.5
4.18071768266321,1004,543,-461,-773.5,732.5,41
4.18287937743191,1012,542,-470,-777,741,36
4.18504107220061,1015,543,-472,-779,743.5,35.5
4.1872027669693,1019,543,-476,-781,747.5,33.5
4.189364461738,1021,543,-478,-782,749.5,32.5
4.1915261565067,1021,543,-478,-782,749.5,32.5
4.1936878512754,1023,543,-480,-783,751.5,31.5
4.1958495460441,1021,543,-478,-782,749.5,32.5
4.1980112408128,1007,543,-464,-775,735.5,39.5
4.2001729355815,995,543,-452,-769,723.5,45.5
4.20233463035019,993,543,-450,-768,721.5,46.5
4.20449632511889,1000,543,-457,-771.5,728.5,43
4.20665801988759,1019,543,-476,-781,747.5,33.5
4.20881971465629,1021,543,-478,-782,749.5,32.5
4.21098140942499,1021,543,-478,-782,749.5,32.5
4.21314310419369,1022,543,-479,-782.5,750.5,32
4.21530479896239,1021,543,-478,-782,749.5,32.5
4.21746649373109,1021,543,-478,-782,749.5,32.5
4.21962818849978,1022,543,-479,-782.5,750.5,32
4.22178988326848,1017,543,-474,-780,745.5,34.5
4.22395157803718,1006,543,-463,-774.5,734.5,40
4.22611327280588,995,543,-452,-769,723.5,45.5
4.22827496757458,991,543,-448,-767,719.5,47.5
4.23043666234328,987,543,-444,-765,715.5,49.5
4.23259835711198,995,543,-452,-769,723.5,45.5
4.23476005188067,1000,543,-457,-771.5,728.5,43
4.23692174664937,1009,543,-466,-776,737.5,38.5
4.23908344141807,1023,542,-481,-782.5,752,30.5
4.24124513618677,1021,543,-478,-782,749.5,32.5
4.24340683095547,1021,543,-478,-782,749.5,32.5
4.24556852572417,1021,543,-478,-782,749.5,32.5
4.24773022049287,1022,543,-479,-782.5,750.5,32
4.24989191526157,1022,543,-479,-782.5,750.5,32
4.25205361003026,1021,543,-478,-782,749.5,32.5
4.25421530479896,1017,543,-474,-780,745.5,34.5
4.25637699956766,1008,543,-465,-775.5,736.5,39
4.25853869433636,999,543,-456,-771,727.5,43.5
4.26070038910506,995,543,-452,-769,723.5,45.5
4.26286208387376,1004,543,-461,-773.5,732.5,41
4.26502377864246,1022,543,-479,-782.5,750.5,32
4.26718547341115,1021,543,-478,-782,749.5,32.5
4.26934716817985,1022,543,-479,-782.5,750.5,32
4.27150886294855,1022,543,-479,-782.5,750.5,32
4.27367055771725,1022,543,-479,-782.5,750.5,32
4.27583225248595,1023,543,-480,-783,751.5,31.5
4.27799394725465,1020,542,-478,-781,749,32
4.28015564202335,1021,543,-478,-782,749.5,32.5
4.28231733679204,1023,543,-480,-783,751.5,31.5
4.28447903156074,1020,543,-477,-781.5,748.5,33
4.28664072632944,1021,543,-478,-782,749.5,32.5
4.28880242109814,1020,543,-477,-781.5,748.5,33
4.29096411586684,1020,543,-477,-781.5,748.5,33
4.29312581063554,1022,543,-479,-782.5,750.5,32
4.29528750540424,1020,542,-478,-781,749,32
4.29744920017294,1020,543,-477,-781.5,748.5,33
4.29961089494163,1021,543,-478,-782,749.5,32.5
4.30177258971033,1020,543,-477,-781.5,748.5,33
4.30393428447903,1021,543,-478,-782,749.5,32.5
4.30609597924773,1022,543,-479,-782.5,750.5,32
4.30825767401643,1023,543,-480,-783,751.5,31.5
4.31041936878513,1023,543,-480,-783,751.5,31.5
4.31258106355383,1019,543,-476,-781,747.5,33.5
4.31474275832252,1022,543,-479,-782.5,750.5,32
4.31690445309122,1023,543,-480,-783,751.5,31.5
4.31906614785992,1021,543,-478,-782,749.5,32.5
4.32122784262862,1022,543,-479,-782.5,750.5,32
4.32338953739732,1020,543,-477,-781.5,748.5,33
4.32555123216602,1021,543,-478,-782,749.5,32.5
4.32771292693472,1022,543,-479,-782.5,750.5,32
4.32987462170342,1021,543,-478,-782,749.5,32.5
4.33203631647211,1022,543,-479,-782.5,750.5,32
4.33419801124081,1021,543,-478,-782,749.5,32.5
4.33635970600951,1023,543,-480,-783,751.5,31.5
4.33852140077821,1022,543,-479,-782.5,750.5,32
4.34068309554691,1022,543,-479,-782.5,750.5,32
4.34284479031561,1021,543,-478,-782,749.5,32.5
4.34500648508431,1022,543,-479,-782.5,750.5,32
4.347168179853,1022,543,-479,-782.5,750.5,32
4.3493298746217,1021,543,-478,-782,749.5,32.5
4.3514915693904,1021,543,-478,-782,749.5,32.5
4.3536532641591,1022,543,-479,-782.5,750.5,32
4.3558149589278,1021,543,-478,-782,749.5,32.5
4.3579766536965,1021,543,-478,-782,749.5,32.5
4.3601383484652,1022,543,-479,-782.5,750.5,32
4.36230004323389,1021,543,-478,-782,749.5,32.5
4.36446173800259,1020,543,-477,-781.5,748.5,33
4.36662343277129,1022,543,-479,-782.5,750.5,32
4.36878512753999,1021,543,-478,-782,749.5,32.5
4.37094682230869,1019,543,-476,-781,747.5,33.5
4.37310851707739,1015,543,-472,-779,743.5,35.5
4.37527021184609,1012,543,-469,-777.5,740.5,37
4.37743190661479,1015,543,-472,-779,743.5,35.5
4.37959360138348,1015,543,-472,-779,743.5,35.5
4.38175529615218,1015,543,-472,-779,743.5,35.5
4.38391699092088,1010,543,-467,-776.5,738.5,38
4.38607868568958,1010,543,-467,-776.5,738.5,38
4.38824038045828,1006,543,-463,-774.5,734.5,40
4.39040207522698,999,543,-456,-771,727.5,43.5
4.39256376999568,995,543,-452,-769,723.5,45.5
4.39472546476437,1001,543,-458,-772,729.5,42.5
4.39688715953307,1009,543,-466,-776,737.5,38.5
4.39904885430177,1016,543,-473,-779.5,744.5,35
4.40121054907047,1017,543,-474,-780,745.5,34.5
4.40337224383917,1019,543,-476,-781,747.5,33.5
4.40553393860787,1020,543,-477,-781.5,748.5,33
4.40769563337657,1019,543,-476,-781,747.5,33.5
4.40985732814527,1017,543,-474,-780,745.5,34.5
4.41201902291396,1013,543,-470,-778,741.5,36.5
4.41418071768266,1011,543,-468,-777,739.5,37.5
4.41634241245136,1008,543,-465,-775.5,736.5,39
4.41850410722006,1004,543,-461,-773.5,732.5,41
4.42066580198876,1001,543,-458,-772,729.5,42.5
4.42282749675746,999,543,-456,-771,727.5,43.5
4.42498919152616,1002,542,-460,-772,731,41
4.42715088629485,1000,543,-457,-771.5,728.5,43
4.42931258106355,998,543,-455,-770.5,726.5,44
4.43147427583225,999,543,-456,-771,727.5,43.5
4.43363597060095,993,543,-450,-768,721.5,46.5
4.43579766536965,995,543,-452,-769,723.5,45.5
4.43795936013835,995,543,-452,-769,723.5,45.5
4.44012105490705,992,543,-449,-767.5,720.5,47
4.44228274967575,992,543,-449,-767.5,720.5,47
4.44444444444444,1004,543,-461,-773.5,732.5,41
4.44660613921314,1022,543,-479,-782.5,750.5,32
4.44876783398184,1022,543,-479,-782.5,750.5,32
4.45092952875054,1020,543,-477,-781.5,748.5,33
4.45309122351924,1020,543,-477,-781.5,748.5,33
4.45525291828794,1022,543,-479,-782.5,750.5,32
4.45741461305664,1023,543,-480,-783,751.5,31.5
4.45957630782534,1023,543,-480,-783,751.5,31.5
4.46173800259403,1022,543,-479,-782.5,750.5,32
4.46389969736273,1022,543,-479,-782.5,750.5,32
4.46606139213143,1023,543,-480,-783,751.5,31.5
4.46822308690013,1023,542,-481,-782.5,752,30.5
4.47038478166883,1022,543,-479,-782.5,750.5,32
4.47254647643753,1022,543,-479,-782.5,750.5,32
4.47470817120623,1020,543,-477,-781.5,748.5,33
4.47686986597492,1022,543,-479,-782.5,750.5,32
4.47903156074362,1021,543,-478,-782,749.5,32.5
4.48119325551232,1018,543,-475,-780.5,746.5,34
4.48335495028102,978,543,-435,-760.5,706.5,54
4.48551664504972,958,543,-415,-750.5,686.5,64
4.48767833981842,949,543,-406,-746,677.5,68.5
4.48984003458712,952,543,-409,-747.5,680.5,67
4.49200172935581,963,543,-420,-753,691.5,61.5
4.49416342412451,976,543,-433,-759.5,704.5,55
4.49632511889321,987,543,-444,-765,715.5,49.5
4.49848681366191,993,543,-450,-768,721.5,46.5
4.50064850843061,1001,543,-458,-772,729.5,42.5
4.50281020319931,998,543,-455,-770.5,726.5,44
4.50497189796801,980,542,-438,-761,709,52
4.50713359273671,964,543,-421,-753.5,692.5,61
4.5092952875054,954,542,-412,-748,683,65
4.5114569822741,961,543,-418,-752,689.5,62.5
4.5136186770428,964,542,-422,-753,693,60
4.5157803718115,973,543,-430,-758,701.5,56.5
4.5179420665802,975,543,-432,-759,703.5,55.5
4.5201037613489,984,543,-441,-763.5,712.5,51
4.5222654561176,994,542,-452,-768,723,45
4.52442715088629,1000,543,-457,-771.5,728.5,43
4.52658884565499,1005,543,-462,-774,733.5,40.5
4.52875054042369,1014,543,-471,-778.5,742.5,36
4.53091223519239,1017,543,-474,-780,745.5,34.5
4.53307392996109,1014,543,-471,-778.5,742.5,36
4.53523562472979,1011,543,-468,-777,739.5,37.5
4.53739731949849,1005,543,-462,-774,733.5,40.5
4.53955901426719,997,543,-454,-770,725.5,44.5
4.54172070903588,995,543,-452,-769,723.5,45.5
4.54388240380458,993,543,-450,-768,721.5,46.5
4.54604409857328,997,543,-454,-770,725.5,44.5
4.54820579334198,996,543,-453,-769.5,724.5,45
4.55036748811068,999,543,-456,-771,727.5,43.5
4.55252918287938,1011,543,-468,-777,739.5,37.5
4.55469087764808,1021,543,-478,-782,749.5,32.5
4.55685257241677,1022,542,-480,-782,751,31
4.55901426718547,1022,543,-479,-782.5,750.5,32
4.56117596195417,1022,543,-479,-782.5,750.5,32
4.56333765672287,1022,543,-479,-782.5,750.5,32
4.56549935149157,1021,543,-478,-782,749.5,32.5
4.56766104626027,1019,543,-476,-781,747.5,33.5
4.56982274102897,1009,543,-466,-776,737.5,38.5
4.57198443579767,1002,543,-459,-772.5,730.5,42
4.57414613056636,1004,543,-461,-773.5,732.5,41
4.57630782533506,1011,543,-468,-777,739.5,37.5
4.57846952010376,1021,542,-479,-781.5,750,31.5
4.58063121487246,1021,543,-478,-782,749.5,32.5
4.58279290964116,1022,543,-479,-782.5,750.5,32
4.58495460440986,1022,543,-479,-782.5,750.5,32
4.58711629917856,1020,543,-477,-781.5,748.5,33
4.58927799394725,1020,543,-477,-781.5,748.5,33
4.59143968871595,1022,543,-479,-782.5,750.5,32
4.59360138348465,1022,542,-480,-782,751,31
4.59576307825335,1022,543,-479,-782.5,750.5,32
4.59792477302205,1021,543,-478,-782,749.5,32.5
4.60008646779075,1019,543,-476,-781,747.5,33.5
4.60224816255945,1022,543,-479,-782.5,750.5,32
4.60440985732814,1022,543,-479,-782.5,750.5,32
4.60657155209684,1022,543,-479,-782.5,750.5,32
4.60873324686554,1022,543,-479,-782.5,750.5,32
4.61089494163424,1021,543,-478,-782,749.5,32.5
4.61305663640294,1021,543,-478,-782,749.5,32.5
4.61521833117164,1021,543,-478,-782,749.5,32.5
4.61738002594034,1021,543,-478,-782,749.5,32.5
4.61954172070904,1021,543,-478,-782,749.5,32.5
4.62170341547773,1020,542,-478,-781,749,32
4.62386511024643,1022,543,-479,-782.5,750.5,32
4.62602680501513,1021,543,-478,-782,749.5,32.5
4.62818849978383,1020,543,-477,-781.5,748.5,33
4.63035019455253,1020,542,-478,-781,749,32
4.63251188932123,1021,543,-478,-782,749.5,32.5
4.63467358408993,1021,543,-478,-782,749.5,32.5
4.63683527885862,1022,543,-479,-782.5,750.5,32
4.63899697362732,1020,543,-477,-781.5,748.5,33
4.64115866839602,1019,543,-476,-781,747.5,33.5
4.64332036316472,1022,543,-479,-782.5,750.5,32
4.64548205793342,1021,543,-478,-782,749.5,32.5
4.64764375270212,1023,542,-481,-782.5,752,30.5
4.64980544747082,1022,543,-479,-782.5,750.5,32
4.65196714223952,1020,543,-477,-781.5,748.5,33
4.65412883700821,1021,543,-478,-782,749.5,32.5
4.65629053177691,1021,543,-478,-782,749.5,32.5
4.65845222654561,1022,543,-479,-782.5,750.5,32
4.66061392131431,1021,543,-478,-782,749.5,32.5
4.66277561608301,1021,543,-478,-782,749.5,32.5
4.66493731085171,1021,543,-478,-782,749.5,32.5
4.66709900562041,1020,543,-477,-781.5,748.5,33
4.6692607003891,1021,543,-478,-782,749.5,32.5
4.6714223951578,1022,543,-479,-782.5,750.5,32
4.6735840899265,1023,543,-480,-783,751.5,31.5
4.6757457846952,1022,543,-479,-782.5,750.5,32
4.6779074794639,1023,543,-480,-783,751.5,31.5
4.6800691742326,1023,543,-480,-783,751.5,31.5
4.6822308690013,1022,543,-479,-782.5,750.5,32
4.68439256377,1022,543,-479,-782.5,750.5,32
4.68655425853869,1021,543,-478,-782,749.5,32.5
4.68871595330739,1021,542,-479,-781.5,750,31.5
4.69087764807609,1020,543,-477,-781.5,748.5,33
4.69303934284479,1022,543,-479,-782.5,750.5,32
4.69520103761349,1022,542,-480,-782,751,31
4.69736273238219,1022,543,-479,-782.5,750.5,32
4.69952442715089,1022,543,-479,-782.5,750.5,32
4.70168612191959,1023,543,-480,-783,751.5,31.5
4.70384781668828,1021,543,-478,-782,749.5,32.5
4.70600951145698,1022,543,-479,-782.5,750.5,32
4.70817120622568,1021,543,-478,-782,749.5,32.5
4.71033290099438,1021,543,-478,-782,749.5,32.5
4.71249459576308,1022,543,-479,-782.5,750.5,32
4.71465629053178,1021,543,-478,-782,749.5,32.5
4.71681798530048,1019,543,-476,-781,747.5,33.5
4.71897968006917,1022,543,-479,-782.5,750.5,32
4.72114137483787,1022,543,-479,-782.5,750.5,32
4.72330306960657,1021,543,-478,-782,749.5,32.5
4.72546476437527,1022,543,-479,-782.5,750.5,32
4.72762645914397,1023,543,-480,-783,751.5,31.5
4.72978815391267,1023,542,-481,-782.5,752,30.5
4.73194984868137,1022,543,-479,-782.5,750.5,32
4.73411154345006,1021,543,-478,-782,749.5,32.5
4.73627323821876,1021,543,-478,-782,749.5,32.5
4.73843493298746,1022,542,-480,-782,751,31
4.74059662775616,1006,543,-463,-774.5,734.5,40
4.74275832252486,1002,543,-459,-772.5,730.5,42
4.74492001729356,1007,543,-464,-775,735.5,39.5
4.74708171206226,1019,543,-476,-781,747.5,33.5
4.74924340683096,1022,543,-479,-782.5,750.5,32
4.75140510159965,1021,543,-478,-782,749.5,32.5
4.75356679636835,1021,543,-478,-782,749.5,32.5
4.75572849113705,1023,543,-480,-783,751.5,31.5
4.75789018590575,1023,542,-481,-782.5,752,30.5
4.76005188067445,1014,542,-472,-778,743,35
4.76221357544315,1003,543,-460,-773,731.5,41.5
4.76437527021185,998,543,-455,-770.5,726.5,44
4.76653696498054,999,543,-456,-771,727.5,43.5
4.76869865974924,1003,543,-460,-773,731.5,41.5
4.77086035451794,1008,543,-465,-775.5,736.5,39
4.77302204928664,1005,543,-462,-774,733.5,40.5
4.77518374405534,1004,543,-461,-773.5,732.5,41
4.77734543882404,1004,543,-461,-773.5,732.5,41
4.77950713359274,998,543,-455,-770.5,726.5,44
4.78166882836144,1001,543,-458,-772,729.5,42.5
4.78383052313013,1003,543,-460,-773,731.5,41.5
4.78599221789883,1003,543,-460,-773,731.5,41.5
4.78815391266753,1005,543,-462,-774,733.5,40.5
4.79031560743623,1012,543,-469,-777.5,740.5,37
4.79247730220493,1016,543,-473,-779.5,744.5,35
4.79463899697363,1017,543,-474,-780,745.5,34.5
4.79680069174233,1011,543,-468,-777,739.5,37.5
4.79896238651102,1009,543,-466,-776,737.5,38.5
4.80112408127972,1006,543,-463,-774.5,734.5,40
4.80328577604842,1007,543,-464,-775,735.5,39.5
4.80544747081712,1010,543,-467,-776.5,738.5,38
4.80760916558582,1011,543,-468,-777,739.5,37.5
4.80977086035452,1015,543,-472,-779,743.5,35.5
4.81193255512322,1020,543,-477,-781.5,748.5,33
4.81409424989192,1015,543,-472,-779,743.5,35.5
4.81625594466061,1012,543,-469,-777.5,740.5,37
4.81841763942931,1008,543,-465,-775.5,736.5,39
4.82057933419801,1004,543,-461,-773.5,732.5,41
4.82274102896671,1005,542,-463,-773.5,734,39.5
4.82490272373541,1010,543,-467,-776.5,738.5,38
4.82706441850411,1014,542,-472,-778,743,35
4.82922611327281,1017,543,-474,-780,745.5,34.5
4.8313878080415,1021,543,-478,-782,749.5,32.5
4.8335495028102,1020,543,-477,-781.5,748.5,33
4.8357111975789,1021,543,-478,-782,749.5,32.5
4.8378728923476,1020,543,-477,-781.5,748.5,33
4.8400345871163,1020,543,-477,-781.5,748.5,33
4.842196281885,1022,543,-479,-782.5,750.5,32
4.8443579766537,1022,543,-479,-782.5,750.5,32
4.84651967142239,1023,543,-480,-783,751.5,31.5
4.84868136619109,1023,543,-480,-783,751.5,31.5
4.85084306095979,1021,543,-478,-782,749.5,32.5
4.85300475572849,1020,543,-477,-781.5,748.5,33
4.85516645049719,1019,543,-476,-781,747.5,33.5
4.85732814526589,1013,543,-470,-778,741.5,36.5
4.85948984003459,1008,543,-465,-775.5,736.5,39
4.86165153480329,1002,543,-459,-772.5,730.5,42
4.86381322957198,998,543,-455,-770.5,726.5,44
4.86597492434068,999,543,-456,-771,727.5,43.5
4.86813661910938,1006,543,-463,-774.5,734.5,40
4.87029831387808,1019,543,-476,-781,747.5,33.5
4.87246000864678,1022,543,-479,-782.5,750.5,32
4.87462170341548,1023,543,-480,-783,751.5,31.5
4.87678339818418,1021,543,-478,-782,749.5,32.5
4.87894509295287,1020,543,-477,-781.5,748.5,33
4.88110678772157,1021,543,-478,-782,749.5,32.5
4.88326848249027,1022,543,-479,-782.5,750.5,32
4.88543017725897,1020,543,-477,-781.5,748.5,33
4.88759187202767,1008,543,-465,-775.5,736.5,39
4.88975356679637,1000,543,-457,-771.5,728.5,43
4.89191526156507,1002,543,-459,-772.5,730.5,42
4.89407695633377,1013,543,-470,-778,741.5,36.5
4.89623865110246,1022,543,-479,-782.5,750.5,32
4.89840034587116,1021,543,-478,-782,749.5,32.5
4.90056204063986,1022,543,-479,-782.5,750.5,32
4.90272373540856,1021,543,-478,-782,749.5,32.5
4.90488543017726,1021,542,-479,-781.5,750,31.5
4.90704712494596,1021,543,-478,-782,749.5,32.5
4.90920881971466,1022,543,-479,-782.5,750.5,32
4.91137051448335,1021,543,-478,-782,749.5,32.5
4.91353220925205,1022,543,-479,-782.5,750.5,32
4.91569390402075,1022,543,-479,-782.5,750.5,32
4.91785559878945,1023,543,-480,-783,751.5,31.5
4.92001729355815,1021,543,-478,-782,749.5,32.5
4.92217898832685,1022,543,-479,-782.5,750.5,32
4.92434068309555,1023,543,-480,-783,751.5,31.5
4.92650237786424,1022,542,-480,-782,751,31
4.92866407263294,1023,543,-480,-783,751.5,31.5
4.93082576740164,1023,543,-480,-783,751.5,31.5
4.93298746217034,1023,543,-480,-783,751.5,31.5
4.93514915693904,1022,543,-479,-782.5,750.5,32
4.93731085170774,1023,543,-480,-783,751.5,31.5
4.93947254647644,1023,542,-481,-782.5,752,30.5
4.94163424124514,1021,543,-478,-782,749.5,32.5
4.94379593601384,1021,543,-478,-782,749.5,32.5
4.94595763078253,1021,543,-478,-782,749.5,32.5
4.94811932555123,1021,543,-478,-782,749.5,32.5
4.95028102031993,1022,543,-479,-782.5,750.5,32
4.95244271508863,1022,543,-479,-782.5,750.5,32
4.95460440985733,1021,543,-478,-782,749.5,32.5
4.95676610462603,1021,543,-478,-782,749.5,32.5
4.95892779939473,1023,543,-480,-783,751.5,31.5
4.96108949416342,1021,543,-478,-782,749.5,32.5
4.96325118893212,1022,543,-479,-782.5,750.5,32
4.96541288370082,1022,543,-479,-782.5,750.5,32
4.96757457846952,1021,542,-479,-781.5,750,31.5
4.96973627323822,1021,543,-478,-782,749.5,32.5
4.97189796800692,1021,543,-478,-782,749.5,32.5
4.97405966277562,1021,542,-479,-781.5,750,31.5
4.97622135754431,1022,543,-479,-782.5,750.5,32
4.97838305231301,1022,543,-479,-782.5,750.5,32
4.98054474708171,1023,543,-480,-783,751.5,31.5
4.98270644185041,1021,543,-478,-782,749.5,32.5
4.98486813661911,1019,543,-476,-781,747.5,33.5
4.98702983138781,1014,543,-471,-778.5,742.5,36
4.98919152615651,1013,543,-470,-778,741.5,36.5
4.99135322092521,1013,543,-470,-778,741.5,36.5
4.9935149156939,1016,543,-473,-779.5,744.5,35
4.9956766104626,1018,543,-475,-780.5,746.5,34
4.9978383052313,1016,543,-473,-779.5,744.5,35
5,1015,543,-472,-779,743.5,35.5
5.0021616947687,1016,543,-473,-779.5,744.5,35
5.0043233895374,1019,543,-476,-781,747.5,33.5
5.0064850843061,1021,543,-478,-782,749.5,32.5
5.00864677907479,1021,543,-478,-782,749.5,32.5
5.01080847384349,1017,543,-474,-780,745.5,34.5
5.01297016861219,1013,543,-470,-778,741.5,36.5
5.01513186338089,1004,543,-461,-773.5,732.5,41
5.01729355814959,1007,543,-464,-775,735.5,39.5
5.01945525291829,1005,543,-462,-774,733.5,40.5
5.02161694768699,1005,543,-462,-774,733.5,40.5
5.02377864245569,1000,543,-457,-771.5,728.5,43
5.02594033722438,995,543,-452,-769,723.5,45.5
5.02810203199308,995,543,-452,-769,723.5,45.5
5.03026372676178,995,543,-452,-769,723.5,45.5
5.03242542153048,1001,543,-458,-772,729.5,42.5
5.03458711629918,1010,543,-467,-776.5,738.5,38
5.03674881106788,1022,542,-480,-782,751,31
5.03891050583658,1021,543,-478,-782,749.5,32.5
5.04107220060527,1022,543,-479,-782.5,750.5,32
5.04323389537397,1022,543,-479,-782.5,750.5,32
5.04539559014267,1020,543,-477,-781.5,748.5,33
5.04755728491137,1008,543,-465,-775.5,736.5,39
5.04971897968007,998,543,-455,-770.5,726.5,44
5.05188067444877,991,543,-448,-767,719.5,47.5
5.05404236921747,988,543,-445,-765.5,716.5,49
5.05620406398616,988,543,-445,-765.5,716.5,49
5.05836575875486,993,543,-450,-768,721.5,46.5
5.06052745352356,995,543,-452,-769,723.5,45.5
5.06268914829226,1002,543,-459,-772.5,730.5,42
5.06485084306096,1018,543,-475,-780.5,746.5,34
5.06701253782966,1021,543,-478,-782,749.5,32.5
5.06917423259836,1022,543,-479,-782.5,750.5,32
5.07133592736706,1022,542,-480,-782,751,31
5.07349762213575,1021,543,-478,-782,749.5,32.5
5.07565931690445,1021,543,-478,-782,749.5,32.5
5.07782101167315,1023,543,-480,-783,751.5,31.5
5.07998270644185,1021,542,-479,-781.5,750,31.5
5.08214440121055,1022,543,-479,-782.5,750.5,32
5.08430609597925,1023,543,-480,-783,751.5,31.5
5.08646779074795,1023,543,-480,-783,751.5,31.5
5.08862948551664,1022,543,-479,-782.5,750.5,32
5.09079118028534,1022,543,-479,-782.5,750.5,32
5.09295287505404,1021,543,-478,-782,749.5,32.5
5.09511456982274,1021,543,-478,-782,749.5,32.5
5.09727626459144,1023,543,-480,-783,751.5,31.5
5.09943795936014,1021,543,-478,-782,749.5,32.5
5.10159965412884,1022,543,-479,-782.5,750.5,32
5.10376134889754,993,542,-451,-767.5,722,45.5
5.10592304366623,968,543,-425,-755.5,696.5,59
5.10808473843493,951,543,-408,-747,679.5,67.5
5.11024643320363,942,543,-399,-742.5,670.5,72
5.11240812797233,946,543,-403,-744.5,674.5,70
5.11456982274103,955,543,-412,-749,683.5,65.5
5.11673151750973,962,543,-419,-752.5,690.5,62
5.11889321227843,975,543,-432,-759,703.5,55.5
5.12105490704712,982,543,-439,-762.5,710.5,52
5.12321660181582,991,543,-448,-767,719.5,47.5
5.12537829658452,998,543,-455,-770.5,726.5,44
5.12753999135322,998,543,-455,-770.5,726.5,44
5.12970168612192,995,543,-452,-769,723.5,45.5
5.13186338089062,992,543,-449,-767.5,720.5,47
5.13402507565932,990,543,-447,-766.5,718.5,48
5.13618677042802,986,543,-443,-764.5,714.5,50
5.13834846519671,984,543,-441,-763.5,712.5,51
5.14051015996541,988,543,-445,-765.5,716.5,49
5.14267185473411,991,543,-448,-767,719.5,47.5
5.14483354950281,992,543,-449,-767.5,720.5,47
5.14699524427151,991,543,-448,-767,719.5,47.5
5.14915693904021,997,543,-454,-770,725.5,44.5
5.15131863380891,997,543,-454,-770,725.5,44.5
5.1534803285776,1000,543,-457,-771.5,728.5,43
5.1556420233463,1006,543,-463,-774.5,734.5,40
5.157803718115,1005,543,-462,-774,733.5,40.5
5.1599654128837,1010,543,-467,-776.5,738.5,38
5.1621271076524,1011,543,-468,-777,739.5,37.5
5.1642888024211,1010,543,-467,-776.5,738.5,38
5.1664504971898,1003,543,-460,-773,731.5,41.5
5.16861219195849,1000,543,-457,-771.5,728.5,43
5.17077388672719,1002,543,-459,-772.5,730.5,42
5.17293558149589,1004,543,-461,-773.5,732.5,41
5.17509727626459,1005,543,-462,-774,733.5,40.5
5.17725897103329,1005,543,-462,-774,733.5,40.5
5.17942066580199,1009,543,-466,-776,737.5,38.5
5.18158236057069,1022,543,-479,-782.5,750.5,32
5.18374405533939,1021,543,-478,-782,749.5,32.5
5.18590575010808,1021,543,-478,-782,749.5,32.5
5.18806744487678,1020,543,-477,-781.5,748.5,33
5.19022913964548,1023,542,-481,-782.5,752,30.5
5.19239083441418,1022,543,-479,-782.5,750.5,32
5.19455252918288,1022,543,-479,-782.5,750.5,32
5.19671422395158,1021,543,-478,-782,749.5,32.5
5.19887591872028,1021,543,-478,-782,749.5,32.5
5.20103761348898,1020,543,-477,-781.5,748.5,33
5.20319930825767,1021,543,-478,-782,749.5,32.5
5.20536100302637,1017,543,-474,-780,745.5,34.5
5.20752269779507,1022,543,-479,-782.5,750.5,32
5.20968439256377,1023,543,-480,-783,751.5,31.5
5.21184608733247,1021,543,-478,-782,749.5,32.5
5.21400778210117,1022,543,-479,-782.5,750.5,32
5.21616947686987,1021,543,-478,-782,749.5,32.5
5.21833117163856,1021,543,-478,-782,749.5,32.5
5.22049286640726,1021,543,-478,-782,749.5,32.5
5.22265456117596,1023,543,-480,-783,751.5,31.5
5.22481625594466,1021,543,-478,-782,749.5,32.5
5.22697795071336,1021,543,-478,-782,749.5,32.5
5.22913964548206,1021,543,-478,-782,749.5,32.5
5.23130134025076,1021,543,-478,-782,749.5,32.5
5.23346303501946,1020,543,-477,-781.5,748.5,33
5.23562472978815,1022,543,-479,-782.5,750.5,32
5.23778642455685,1022,543,-479,-782.5,750.5,32
5.23994811932555,1021,543,-478,-782,749.5,32.5
5.24210981409425,1020,543,-477,-781.5,748.5,33
5.24427150886295,1021,543,-478,-782,749.5,32.5
5.24643320363165,1022,543,-479,-782.5,750.5,32
5.24859489840035,1023,543,-480,-783,751.5,31.5
5.25075659316904,1021,543,-478,-782,749.5,32.5
5.25291828793774,1023,542,-481,-782.5,752,30.5
5.25507998270644,1021,543,-478,-782,749.5,32.5
5.25724167747514,1022,543,-479,-782.5,750.5,32
5.25940337224384,1023,543,-480,-783,751.5,31.5
5.26156506701254,1022,543,-479,-782.5,750.5,32
5.26372676178124,1021,543,-478,-782,749.5,32.5
5.26588845654994,1022,543,-479,-782.5,750.5,32
5.26805015131863,1023,543,-480,-783,751.5,31.5
5.27021184608733,1022,543,-479,-782.5,750.5,32
5.27237354085603,1021,543,-478,-782,749.5,32.5
5.27453523562473,1022,543,-479,-782.5,750.5,32
5.27669693039343,1020,543,-477,-781.5,748.5,33
5.27885862516213,1022,543,-479,-782.5,750.5,32
5.28102031993083,1022,543,-479,-782.5,750.5,32
5.28318201469952,1022,543,-479,-782.5,750.5,32
5.28534370946822,1022,543,-479,-782.5,750.5,32
5.28750540423692,1021,543,-478,-782,749.5,32.5
5.28966709900562,1022,543,-479,-782.5,750.5,32
5.29182879377432,1021,543,-478,-782,749.5,32.5
5.29399048854302,1021,543,-478,-782,749.5,32.5
5.29615218331172,1022,543,-479,-782.5,750.5,32
5.29831387808041,1021,543,-478,-782,749.5,32.5
5.30047557284911,1022,543,-479,-782.5,750.5,32
5.30263726761781,1023,542,-481,-782.5,752,30.5
5.30479896238651,1023,543,-480,-783,751.5,31.5
5.30696065715521,1022,543,-479,-782.5,750.5,32
5.30912235192391,1021,543,-478,-782,749.5,32.5
5.31128404669261,1023,543,-480,-783,751.5,31.5
5.31344574146131,1021,543,-478,-782,749.5,32.5
5.31560743623,1023,543,-480,-783,751.5,31.5
5.3177691309987,1021,543,-478,-782,749.5,32.5
5.3199308257674,1022,543,-479,-782.5,750.5,32
5.3220925205361,1021,543,-478,-782,749.5,32.5
5.3242542153048,1020,543,-477,-781.5,748.5,33
5.3264159100735,1021,543,-478,-782,749.5,32.5
5.3285776048422,1023,543,-480,-783,751.5,31.5
5.33073929961089,1021,543,-478,-782,749.5,32.5
5.33290099437959,1022,543,-479,-782.5,750.5,32
5.33506268914829,1022,543,-479,-782.5,750.5,32
5.33722438391699,1022,543,-479,-782.5,750.5,32
5.33938607868569,1022,543,-479,-782.5,750.5,32
5.34154777345439,1023,543,-480,-783,751.5,31.5
5.34370946822309,1022,543,-479,-782.5,750.5,32
5.34587116299179,1022,543,-479,-782.5,750.5,32
5.34803285776048,1021,543,-478,-782,749.5,32.5
5.35019455252918,1021,543,-478,-782,749.5,32.5
5.35235624729788,1022,543,-479,-782.5,750.5,32
5.35451794206658,1022,543,-479,-782.5,750.5,32
5.35667963683528,1022,543,-479,-782.5,750.5,32
5.35884133160398,1021,543,-478,-782,749.5,32.5
5.36100302637268,1021,543,-478,-782,749.5,32.5
5.36316472114137,1018,543,-475,-780.5,746.5,34
5.36532641591007,1019,543,-476,-781,747.5,33.5
5.36748811067877,1019,543,-476,-781,747.5,33.5
5.36964980544747,1014,543,-471,-778.5,742.5,36
5.37181150021617,1013,543,-470,-778,741.5,36.5
5.37397319498487,1015,543,-472,-779,743.5,35.5
5.37613488975357,1017,543,-474,-780,745.5,34.5
5.37829658452227,1022,543,-479,-782.5,750.5,32
5.38045827929096,1021,543,-478,-782,749.5,32.5
5.38261997405966,1016,543,-473,-779.5,744.5,35
5.38478166882836,1009,543,-466,-776,737.5,38.5
5.38694336359706,1007,543,-464,-775,735.5,39.5
5.38910505836576,1008,543,-465,-775.5,736.5,39
5.39126675313446,1010,543,-467,-776.5,738.5,38
5.39342844790316,1010,543,-467,-776.5,738.5,38
5.39559014267185,1006,543,-463,-774.5,734.5,40
5.39775183744055,1006,543,-463,-774.5,734.5,40
5.39991353220925,1005,543,-462,-774,733.5,40.5
5.40207522697795,1009,543,-466,-776,737.5,38.5
5.40423692174665,1010,542,-468,-776,739,37
5.40639861651535,1009,543,-466,-776,737.5,38.5
5.40856031128405,1013,543,-470,-778,741.5,36.5
5.41072200605274,1014,543,-471,-778.5,742.5,36
5.41288370082144,1007,543,-464,-775,735.5,39.5
5.41504539559014,1000,542,-458,-771,729,42
5.41720709035884,999,543,-456,-771,727.5,43.5
5.41936878512754,995,543,-452,-769,723.5,45.5
5.42153047989624,993,542,-451,-767.5,722,45.5
5.42369217466494,1002,543,-459,-772.5,730.5,42
5.42585386943364,1011,543,-468,-777,739.5,37.5
5.42801556420233,1018,543,-475,-780.5,746.5,34
5.43017725897103,1020,543,-477,-781.5,748.5,33
5.43233895373973,1021,543,-478,-782,749.5,32.5
5.43450064850843,1021,543,-478,-782,749.5,32.5
5.43666234327713,1022,543,-479,-782.5,750.5,32
5.43882403804583,1020,543,-477,-781.5,748.5,33
5.44098573281453,1021,543,-478,-782,749.5,32.5
5.44314742758322,1022,543,-479,-782.5,750.5,32
5.44530912235192,1021,543,-478,-782,749.5,32.5
5.44747081712062,1019,543,-476,-781,747.5,33.5
5.44963251188932,1019,543,-476,-781,747.5,33.5
5.45179420665802,1016,543,-473,-779.5,744.5,35
5.45395590142672,1015,543,-472,-779,743.5,35.5
5.45611759619542,1008,543,-465,-775.5,736.5,39
5.45827929096412,1003,543,-460,-773,731.5,41.5
5.46044098573281,1003,543,-460,-773,731.5,41.5
5.46260268050151,1011,543,-468,-777,739.5,37.5
5.46476437527021,1021,543,-478,-782,749.5,32.5
5.46692607003891,1021,543,-478,-782,749.5,32.5
5.46908776480761,1021,543,-478,-782,749.5,32.5
5.47124945957631,1021,543,-478,-782,749.5,32.5
5.47341115434501,1019,543,-476,-781,747.5,33.5
5.47557284911371,1021,543,-478,-782,749.5,32.5
5.4777345438824,1021,543,-478,-782,749.5,32.5
5.4798962386511,1021,543,-478,-782,749.5,32.5
5.4820579334198,1020,543,-477,-781.5,748.5,33
5.4842196281885,1020,542,-478,-781,749,32
5.4863813229572,1021,543,-478,-782,749.5,32.5
5.4885430177259,1021,543,-478,-782,749.5,32.5
5.4907047124946,1023,543,-480,-783,751.5,31.5
5.49286640726329,1022,543,-479,-782.5,750.5,32
5.49502810203199,1021,543,-478,-782,749.5,32.5
5.49718979680069,1020,543,-477,-781.5,748.5,33
5.49935149156939,1022,543,-479,-782.5,750.5,32
5.50151318633809,1021,543,-478,-782,749.5,32.5
5.50367488110679,1017,543,-474,-780,745.5,34.5
5.50583657587549,1011,543,-468,-777,739.5,37.5
5.50799827064419,1008,543,-465,-775.5,736.5,39
5.51015996541288,1004,542,-462,-773,733,40
5.51232166018158,1005,543,-462,-774,733.5,40.5
5.51448335495028,1022,543,-479,-782.5,750.5,32
5.51664504971898,1021,543,-478,-782,749.5,32.5
5.51880674448768,1022,543,-479,-782.5,750.5,32
5.52096843925638,1022,543,-479,-782.5,750.5,32
5.52313013402508,1019,543,-476,-781,747.5,33.5
5.52529182879377,1020,543,-477,-781.5,748.5,33
5.52745352356247,1022,543,-479,-782.5,750.5,32
5.52961521833117,1022,542,-480,-782,751,31
5.53177691309987,1023,543,-480,-783,751.5,31.5
5.53393860786857,1022,543,-479,-782.5,750.5,32
5.53610030263727,1021,543,-478,-782,749.5,32.5
5.53826199740597,1022,543,-479,-782.5,750.5,32
