t,leadI,leadII,leadIII,aVR,aVL,aVF
0,348,328,-20,-338,184,154
0.00281571167112488,340,327,-13,-333.5,176.5,157
0.00563142334224975,336.472704637113,319.569336518635,-16.9033681184778,-328.021020577874,176.688036377795,151.332984200079
0.00844713501337463,340.25017754378,324.239137387762,-16.0110401560173,-332.244657465771,178.130608849898,154.114048615873
0.0112628466844995,347.079778601293,337.855993173059,-9.22378542823384,-342.467885887176,178.151782014763,164.316103872413
0.0140785583556244,342.142356784095,342.003106181033,-0.139250603062123,-342.072731482564,171.140803693579,170.931927788985
0.0168942700267493,330.021094627924,338.035406860151,8.01431223222659,-334.028250744037,161.003391197849,173.024859546189
0.0197099816978741,324.966562086347,335.112552615803,10.1459905294562,-330.039557351075,157.410285778446,172.62927157263
0.022525693368999,326.590733638854,332.645068227044,6.05433458819067,-329.617900932949,160.268199525332,169.349701407618
0.0253414050401239,336.721685355728,336.71924580001,-0.00243955571784227,-336.720465577869,168.362062455723,168.358403122146
0.0281571167112488,347.819125527513,346.801481647788,-1.0176438797252,-347.31030358765,174.418384703619,172.891918884031
0.0309728283823736,346.523875075791,345.516450493177,-1.00742458261317,-346.020162784484,173.765649829202,172.254512955282
0.0337885400534985,338.12487808717,346.125173124573,8.00029503740302,-342.125025605871,165.062291524883,177.062734080988
0.0366042517246234,329.145175680203,345.133915472313,15.9887397921099,-337.139545576258,156.578217944047,180.561327632212
0.0394199633957483,329.788329252872,340.666351347792,10.8780220949208,-335.227340300332,159.455153578975,175.772186721357
0.0422356750668732,343.154341785264,345.20634574302,2.05200395775603,-344.180343764142,170.551168913754,173.629174850388
0.045051386737998,352.4898823801,347.719464025122,-4.77041835497761,-350.104673202611,178.630150367539,171.474522835072
0.0478670984091229,350.95025525119,348.155927218336,-2.79432803285482,-349.553091234763,176.872291642023,172.68079959274
0.0506828100802478,346.30755564914,351.229729950509,4.92217430136918,-348.768642799824,170.692690673885,178.075952125939
0.0534985217513727,337.316159203535,353.007968002411,15.691808798876,-345.162063602973,160.81217520233,184.349888400643
0.0563142334224975,333.971873528894,346.647540014435,12.6756664855412,-340.309706771665,160.648103521676,179.661603249988
0.0591299450936224,344.551266284333,348.716226401141,4.16496011680812,-346.633746342737,170.193153083762,176.440593258975
0.0619456567647473,356.132748641102,357.666196827918,1.53344818681597,-356.89947273451,177.299650227143,179.599822507367
0.0647613684358722,357.487530088342,356.836523614713,-0.651006473628456,-357.162026851527,179.069268280985,178.092758570542
0.067577080106997,354.542390597238,353.362488854302,-1.1799017429359,-353.95243972577,177.861146170087,176.091293555683
0.0703927917781219,341.412905427109,350.889581053235,9.47667562612605,-346.151243240172,165.968114900492,180.183128339681
0.0732085034492468,332.156628552433,344.766453102081,12.6098245496478,-338.461540827257,159.773402001393,178.688138825864
0.0760242151203717,341.892438820647,350.157157866131,8.26471904548453,-346.024798343389,166.813859887581,179.210938455808
0.0788399267914966,350.709229225436,349.375938528433,-1.33329069700306,-350.042583876934,176.021259961219,174.021323915715
0.0816556384626214,352.15194066293,349.556892583688,-2.5950480792423,-350.854416623309,177.373494371086,173.480922252223
0.0844713501337463,350.759040244337,345.467698310976,-5.29134193336131,-348.113369277657,178.025191088849,170.088178188807
0.0872870618048712,340.364424339102,344.688248176169,4.32382383706704,-342.526336257636,168.020300251018,174.506036006618
0.0901027734759961,327.316921901203,336.915785339812,9.59886343860893,-332.116353620507,158.859029231297,173.25732438921
0.0929184851471209,328.20344579778,337.555684496357,9.35223869857731,-332.879565147069,159.425603549601,173.453961597467
0.0957341968182458,331.352626378873,333.084429675629,1.73180329675642,-332.218528027251,164.810411541058,167.408116486193
0.0985499084893707,329.022746833019,322.394441848679,-6.6283049843401,-325.708594340849,167.82552590868,157.883068432169
0.101365620160496,329.820635461841,321.451610510258,-8.36902495158313,-325.636122986049,169.094830206712,156.541292779337
0.10418133183162,324.042672791867,319.334425582555,-4.70824720931273,-321.688549187211,164.37546000059,157.313089186621
0.106997043502745,306.456372199362,314.137202518618,7.68083031925551,-310.29678735899,149.387770940053,160.909016418937
0.10981275517387,303.475384147836,314.844942473998,11.3695583261622,-309.160163310917,146.052912910837,163.10725040008
0.112628466844995,305.067284397847,309.70461558539,4.6373311875426,-307.385949991619,150.214976605152,157.170973386466
0.11544417851612,305.010579720407,300.273750361215,-4.73682935919163,-302.642165040811,154.873704539799,147.768460501012
0.118259890187245,307.753175460486,300.406828566139,-7.34634689434745,-304.080002013312,157.549761177417,146.530240835896
0.12107560185837,304.595055894728,297.026129647652,-7.56892624707513,-300.81059277119,156.081991070901,144.728601700289
0.123891313529495,295.603742063797,299.402441887485,3.79869982368808,-297.503091975641,145.902521120054,151.600570855586
0.126707025200619,289.783971983382,304.090796741872,14.3068247584903,-296.937384362627,137.738573612446,159.198810750181
0.129522736871744,290.874878082303,299.296558181538,8.42168009923523,-295.085718131921,141.226598991534,153.859119140387
0.132338448542869,293.006738217469,294.132041262519,1.12530304504986,-293.569389739994,145.940717586209,147.628672153784
0.135154160213994,300.668629799716,292.454457381441,-8.2141724182751,-296.561543590578,154.441401108995,142.120142481583
0.137969871885119,302.162700718822,293.881307567283,-8.28139315153925,-298.022004143053,155.222046935181,142.799957207872
0.140785583556244,295.752735119486,295.686099964464,-0.0666351550214586,-295.719417541975,147.909685137254,147.809732404721
0.143601295227369,291.191516899819,301.327544899525,10.1360279997064,-296.259530899672,140.527744450056,155.731786449616
0.146417006898494,285.780241631689,295.913535286597,10.1332936549085,-290.846888459143,137.82347398839,153.023414470753
0.149232718569618,289.017124638952,292.027877457724,3.01075281877195,-290.522501048338,143.00318591009,147.519315138248
0.152048430240743,293.533326408468,290.51301560734,-3.02031080112755,-292.023171007904,148.276818604798,143.746352403106
0.154864141911868,294.760379655752,290.752620456786,-4.00775919896523,-292.756500056269,149.384069427358,143.372430628911
0.157679853582993,293.992801140897,292.000279398487,-1.99252174241082,-292.996540269692,147.992661441654,145.003878828038
0.160495565254118,288.527759881114,296.501904749407,7.97414486829246,-292.51483231526,140.276807506411,152.23802480885
0.163311276925243,280.619548601205,295.530328911445,14.9107803102404,-288.074938756325,132.854384145482,155.220554610843
0.166126988596368,283.014358106722,288.966724128275,5.95236602155234,-285.990541117499,138.530996042585,147.459545074914
0.168942700267493,292.378871477202,292.566330722147,0.187459244944819,-292.472601099674,146.095706116128,146.376894983546
0.171758411938617,296.391756054331,290.623284181155,-5.76847187317554,-293.507520117743,151.080113963753,142.42740615399
0.174574123609742,296.281136568656,295.329186621981,-0.951949946675143,-295.805161595318,148.616543257665,147.188618337653
0.177389835280867,296.89636879622,301.659553968318,4.76318517209842,-299.277961382269,146.066591812061,153.211369570208
0.180205546951992,286.44285776693,303.129127402474,16.6862696355444,-294.785992584702,134.878294065693,159.907698519009
0.183021258623117,286.999465311402,294.941520421879,7.9420551104767,-290.97049286664,139.528705100463,151.441787766178
0.185836970294242,293.276497578935,297.683823589558,4.40732601062336,-295.480160584247,144.434585784156,151.045574800091
0.188652681965367,295.155415227961,291.579275436336,-3.57613979162505,-293.367345332148,149.365777509793,144.001567822355
0.191468393636492,300.648207147407,295.685525648193,-4.96268149921355,-298.1668663978,152.80544432331,145.36142207449
0.194284105307617,299.117252208396,299.697267732984,0.580015524588248,-299.40725997069,149.268618341904,150.138641628786
0.197099816978741,287.16711845667,297.715686573635,10.5485681169652,-292.441402515153,138.309275169852,154.1321273453
0.199915528649866,278.996480446694,293.977314237082,14.980833790388,-286.486897341888,132.007823328153,154.479074013735
0.202731240320991,289.170885402188,295.690927686752,6.52004228456406,-292.43090654447,141.325421558812,151.105484985658
0.205546951992116,291.022493892151,290.500432400575,-0.522061491575926,-290.761463146363,145.772277691864,144.9891854545
0.208362663663241,298.053120343695,293.046979514846,-5.00614082884891,-295.550049929271,151.529630586272,144.020419342999
0.211178375334366,305.191183981448,303.703813510543,-1.48737047090435,-304.447498745996,153.339277226176,151.10822151982
0.213994087005491,294.767455283785,305.30938800629,10.5419327225045,-300.038421645037,142.11276128064,157.925660364397
0.216809798676616,286.02167809386,302.055704194911,16.0340261010501,-294.038691144385,134.993825996405,159.04486514798
0.21962551034774,290.222445838729,304.781291117899,14.55884527917,-297.501868478314,137.831800279779,159.670068198535
0.222441222018865,298.061405064002,302.465331840564,4.40392677656149,-300.263368452283,146.82873914372,153.434629308563
0.22525693368999,307.465025344237,302.420993489156,-5.04403185508096,-304.943009416697,156.254528599659,148.688480817038
0.228072645361115,309.132816618381,304.720167344785,-4.41264927359583,-306.926491981583,156.772732945988,150.153759035595
0.23088835703224,298.337556417826,298.010935943933,-0.326620473893115,-298.17424618088,149.33208844586,148.84215773502
0.233704068703365,287.097201107917,298.153954325256,11.0567532173392,-292.625577716586,138.020223945289,154.605353771298
0.23651978037449,286.277680784094,300.643206740486,14.3655259563922,-293.46044376229,135.956077413851,157.504366348439
0.239335492045615,294.173770187949,300.372450895415,6.19868070746543,-297.273110541682,143.987544740242,153.28556580144
0.242151203716739,304.842296063469,302.804094763326,-2.03820130014356,-303.823195413397,153.440248681806,150.382946731591
0.244966915387864,312.867232883034,309.671559089255,-3.19567379377878,-311.269395986145,158.031453338406,153.237942647738
0.247782627058989,310.830846342804,308.700023703018,-2.13082263978578,-309.765435022911,156.480834491295,153.284600531616
0.250598338730114,298.265318913483,309.301221049526,11.035902136042,-303.783269981505,143.614708388721,160.168561592784
0.253414050401239,291.498399699607,307.628806460563,16.1304067609564,-299.563603080085,137.683996469325,161.87960661076
0.256229762072364,295.376055766796,303.362506519512,7.98645075271565,-299.369281143154,143.69480250704,155.674478636114
0.259045473743489,304.162828701719,305.18296674301,1.02013804129103,-304.672897722364,151.571345330214,153.10155239215
0.261861185414614,310.473737611227,306.544837707295,-3.92889990393161,-308.509287659261,157.201318757579,151.307968901682
0.264676897085738,305.38301514504,303.458938186639,-1.92407695840171,-304.420976665839,153.653546051721,150.767430614118
0.267492608756863,299.465694789431,304.42755681064,4.96186202120879,-301.946625800036,147.251916384111,154.694709415924
0.270308320427988,288.590836475386,304.45387704924,15.8630405738541,-296.522356762313,136.363897950766,160.158458811547
0.273124032099113,289.553084409726,302.361272466233,12.8081880565064,-295.95717843798,138.37244817661,157.58473026137
0.275939743770238,305.425200288701,311.556484432196,6.13128414349558,-308.490842360448,149.646958072603,158.843884287846
0.278755455441363,317.012152291769,318.365037102021,1.35288481025191,-317.688594696895,157.829633740759,159.858960956137
0.281571167112488,317.948586238817,316.160548267086,-1.78803797173055,-317.054567252952,159.868312105274,157.186255147678
0.284386878783613,315.79050844016,317.65325611212,1.86274767196028,-316.72188227614,156.9638803841,159.75800189204
0.287202590454737,305.816931465944,319.457174154343,13.6402426883985,-312.637052810143,146.088344388773,166.548708421371
0.290018302125862,303.70935975309,317.419676070684,13.7103163175935,-310.564517911887,144.999521717748,165.564996194139
0.292834013796987,313.697671271959,323.943648733073,10.245977461114,-318.820660002516,151.725846905423,167.094813097094
0.295649725468112,320.642306872523,321.174776145354,0.532469272831634,-320.908541508938,160.054918799845,160.853622709093
0.298465437139237,319.699217479708,313.988156745434,-5.71106073427427,-316.843687112571,162.705139106991,154.13854800558
0.301281148810362,319.067313372706,314.8073938334,-4.259919539306,-316.937353603053,161.663616456006,155.273737147047
0.304096860481487,307.816053627761,312.276362014036,4.46030838627547,-310.046207820898,151.677872620743,158.368335200156
0.306912572152612,297.846177975655,313.547884290544,15.7017063148892,-305.697031133099,141.072235830383,164.624795302717
0.309728283823736,307.897914621354,319.231530461994,11.3336158406393,-313.564722541674,148.282149390358,165.282573151316
0.312543995494861,320.234987967857,324.84261505678,4.60762708892349,-322.538801512319,157.813680439467,164.725121072852
0.315359707165986,325.542774999508,325.80844070279,0.26566570328265,-325.675607851149,162.638554648112,163.037053203036
0.318175418837111,329.350018360066,327.048190035252,-2.30182832481375,-328.199104197659,165.82592334244,162.373180855219
0.320991130508236,324.731280078542,328.184263183539,3.45298310499697,-326.457771631041,160.639148486773,165.818623144268
0.323806842179361,311.90910414037,326.655856005554,14.7467518651835,-319.282480072962,148.581176137593,170.701303935369
0.326622553850486,313.219567807624,325.590862707572,12.3712948999479,-319.405215257598,150.424136453838,168.98107880376
0.329438265521611,319.055667989425,321.628184549142,2.57251655971743,-320.341926269284,158.241575714854,162.10035055443
0.332253977192735,321.56174021973,318.779390883093,-2.78234933663697,-320.170565551411,162.172044778183,157.998520773228
0.33506968886386,324.449029382998,317.107502373214,-7.34152700978365,-320.778265878106,165.895278196391,154.882987681715
0.337885400534985,320.400384008461,317.889569124884,-2.51081488357647,-319.144976566673,161.455599446019,157.689377120654
0.34070111220611,305.015391693065,312.840439592098,7.82504789903265,-308.927915642581,148.595171897016,160.332743745565
0.343516823877235,303.473819833901,319.807345633862,16.3335257999611,-311.640582733882,143.57014701697,168.070435716912
0.34633253554836,311.868719184712,318.275762643993,6.40704345928111,-315.072240914352,152.730837862715,162.341403051637
0.349148247219485,318.633473152719,319.744386207417,1.11091305469796,-319.188929680068,158.76128004901,160.427649631057
0.35196395889061,326.461790850708,324.227095028736,-2.2346958219722,-325.344442939722,164.34824333634,160.996199603382
0.354779670561734,326.965658932417,323.641667831363,-3.32399110105433,-325.30366338189,165.144825016736,160.158838365154
0.357595382232859,316.116248797431,319.03372823021,2.91747943277829,-317.57498851382,156.599384682326,160.975603831494
0.360411093903984,304.883269457591,321.10094981959,16.2176803619994,-312.992109638591,144.332794547796,168.659315090795
0.363226805575109,302.862659757156,311.049480796759,8.18682103960327,-306.956070276957,147.337919358776,159.618150918181
0.366042517246234,305.771339780489,307.798207473969,2.02686769348048,-306.784773627229,151.872236043504,154.912537583725
0.368858228917359,313.245457511901,307.164184934849,-6.08127257705189,-310.204821223375,159.663365044477,150.541456178899
0.371673940588484,312.420547761893,307.358022995613,-5.06252476627964,-309.889285378753,158.741536264086,151.147749114667
0.374489652259609,306.315757188906,306.312373330274,-0.00338385863250323,-306.31406525959,153.159570523769,153.154494735821
0.377305363930733,298.180380046847,307.193891112822,9.01351106597554,-302.687135579834,144.583434490436,158.103701089399
0.380121075601858,289.765995689273,303.718120850245,13.9521251609726,-296.742058269759,137.90693526415,158.835123005609
0.382936787272983,294.87708211256,296.85001449302,1.97293238046012,-295.86354830279,146.45207486605,149.41147343674
0.385752498944108,301.999864378159,302.145893442433,0.146029064274558,-302.072878910296,150.926917656942,151.145961253354
0.388568210615233,302.966347643532,301.135187755481,-1.83115988805127,-302.050767699507,152.398753765792,149.652013933715
0.391383922286358,305.583925005805,303.605242216453,-1.97868278935198,-304.594583611129,153.781303897579,150.813279713551
0.394199633957483,302.457630133011,307.292359651533,4.83472951852144,-304.874994892272,148.811450307245,156.063544585027
0.397015345628608,294.594545172538,306.376233723682,11.7816885511432,-300.48538944811,141.406428310698,159.078961137412
0.399831057299733,294.943280166641,303.921115227564,8.97783506092321,-299.432197697102,142.982722552859,156.449475144244
0.402646768970857,303.906572342721,305.20400201767,1.29742967494968,-304.555287180195,151.304571333885,153.25071584631
0.405462480641982,305.697708409903,300.000642412056,-5.69706599784672,-302.84917541098,155.697387203875,147.151788207105
0.408278192313107,306.91323422532,300.921410838044,-5.99182338727599,-303.917322531682,156.452528806298,147.464793725384
0.411093903984232,301.656393492781,306.315935484057,4.6595419912764,-303.986164488419,148.498425750752,155.487738737667
0.413909615655357,288.409881730859,302.035031933031,13.6251502021722,-295.222456831945,137.392365764343,157.830091067602
0.416725327326482,285.018816617195,299.031028943302,14.0122123261077,-292.024922780249,135.503302145544,156.521620634705
0.419541038997607,293.696244416903,296.181527313462,2.48528289655849,-294.938885865183,145.605480760172,149.33340510501
0.422356750668732,295.482615368234,292.925247021448,-2.55736834678595,-294.203931194841,149.01999185751,145.183939337331
0.425172462339856,300.27860298346,295.242954294141,-5.03564868931971,-297.760778638801,152.65712583639,145.10365280241
0.427988174010981,301.695669504446,297.203203777539,-4.49246572690771,-299.449436640993,153.094067615677,146.355369025316
0.430803885682106,287.116368774557,293.704666406201,6.58829763164425,-290.410517590379,140.264035571456,150.146482018923
0.433619597353231,280.104743439868,297.164907713426,17.0601642735581,-288.634825576647,131.522289583155,157.112535993492
0.436435309024356,286.6174513529,298.114720634944,11.4972692820439,-292.366085993922,137.560091035428,154.805994958494
0.439251020695481,295.445740591077,295.788856113498,0.343115522420533,-295.617298352287,147.551312534328,148.065985817959
0.442066732366606,312.64628579953,313.581429214273,0.935143414743379,-313.113857506902,155.855571192393,157.258286314508
0.444882444037731,332.588080435569,339.182546585079,6.59446614951037,-335.885313510324,162.996807143029,172.888506367295
0.447698155708855,345.547136578089,367.169645799409,21.6225092213194,-356.358391188749,161.962313678385,194.396077510364
0.45051386737998,364.369427633389,402.496442946249,38.1270153128597,-383.432935289819,163.121206160265,220.311729129554
0.453329579051105,397.157380264492,435.714796108913,38.5574158444213,-416.436088186702,179.299982210035,237.136105976667
0.45614529072223,431.121286346022,461.282748956782,30.1614626107602,-446.202017651402,200.479911867631,245.722105783771
0.458961002393355,461.341926998507,482.342322272807,21.0003952742997,-471.842124635657,220.170765862104,251.671358773553
0.46177671406448,470.471339676872,482.425552456346,11.9542127794736,-476.448446066609,229.258563448699,247.18988261791
0.464592425735605,451.078907192215,455.964277547998,4.88537035578287,-453.521592370106,223.096768418216,230.42482395189
0.46740813740673,416.846103220338,421.900482244712,5.0543790243737,-419.373292732525,205.895862097982,213.477430634543
0.470223849077854,385.866224770665,386.044561740014,0.178336969348209,-385.95539325534,192.843943900659,193.111449354681
0.473039560748979,357.760134625065,344.882334928819,-12.8777996962463,-351.321234776942,185.318967160656,166.002267616286
0.475855272420104,342.34687460465,320.261902527177,-22.0849720774733,-331.304388565914,182.215923341062,149.088465224852
0.478670984091229,328.110612135773,303.915884714292,-24.1947274214805,-316.013248425032,176.152669778627,139.860578646406
0.481486695762354,312.962638543371,291.988006121386,-20.9746324219852,-302.475322332378,166.968635482678,135.5066868497
0.484302407433479,301.737823173844,297.675637145963,-4.06218602788147,-299.706730159904,152.900004600863,146.806725559041
0.487118119104604,295.977028300678,303.819127515793,7.84209921511535,-299.898077908236,144.067464542781,155.830613365454
0.489933830775729,300.819743576216,308.675601482537,7.85585790632092,-304.747672529377,146.481942834948,158.265729694429
0.492749542446853,314.496744346159,315.60984966523,1.11310531907083,-315.053297005695,156.691819513544,158.36147749215
0.495565254117978,321.508849337501,319.787906740374,-1.72094259712719,-320.648378038938,161.614895967314,159.033482071623
0.498380965789103,319.611987225778,315.782566617704,-3.82942060807443,-317.697276921741,161.720703916926,155.976573004815
0.501196677460228,312.093837942094,311.954513744089,-0.139324198005397,-312.024175843092,156.11658107005,155.907594773042
0.504012389131353,302.146230942864,312.827818613453,10.6815876705893,-307.487024778158,145.732321636137,161.754703142021
0.506828100802478,295.995869002051,307.767119748926,11.7712507468751,-301.881494375488,142.112309127588,159.7691852479
0.509643812473603,304.640271669157,306.872080399114,2.23180872995761,-305.756176034135,151.2042314696,154.551944564536
0.512459524144728,310.014337606613,305.492555359334,-4.52178224727868,-307.753446482974,157.268059926946,150.485386556028
0.515275235815852,311.456494457641,305.718671778527,-5.73782267911378,-308.587583118084,158.597158568377,149.990424549707
0.518090947486977,309.352983409062,309.070515944658,-0.282467464404192,-309.21174967686,154.817725436733,154.394024240127
0.520906659158102,298.06229929591,306.511731860103,8.44943256419248,-302.287015578007,144.806433365859,157.480582212148
0.523722370829227,291.112059078582,305.817786488544,14.7057274099615,-298.464922783563,138.20316583431,160.261756949253
0.526538082500352,300.789059610572,311.174427616241,10.3853680056689,-305.981743613407,145.201845802452,160.779897810955
0.529353794171477,308.613320105412,314.258175114451,5.64485500903976,-311.435747609932,151.484232548186,159.951515061746
0.532169505842602,312.379303258224,309.630007259316,-2.74929599890743,-311.00465525877,157.564299628566,153.440355630204
0.534985217513727,312.626228511351,309.275198172843,-3.35103033850794,-310.950713342097,157.988629424929,152.962083917167
0.537800929184851,303.958485667853,308.379940151022,4.4214544831687,-306.169212909438,149.768515592342,156.400697317095
0.540616640855976,293.207468174521,309.966002547878,16.7585343733573,-301.5867353612,138.224466900582,163.362268460618
0.543432352527101,299.967540952514,316.394181395393,16.4266404428789,-308.180861173954,141.770450254818,166.410410919136
0.546248064198226,307.317174947727,312.899378547695,5.58220359996773,-310.108276747711,150.86748567388,159.240791073831
0.549063775869351,310.411591847083,307.596264378317,-2.81532746876593,-309.0039281127,156.613459657925,152.390468454776
0.551879487540476,316.805936937661,309.451948715265,-7.35398822239625,-313.128942826463,162.079962580029,151.048980246434
0.554695199211601,311.69955004175,315.213237501846,3.51368746009558,-313.456393771798,154.092931290827,159.363462480971
0.557510910882726,303.285555326859,316.123677088117,12.8381217612581,-309.704616207488,145.2237167828,164.480899424688
0.560326622553851,301.230374200799,315.619335823206,14.3889616224072,-308.424855012002,143.420706289196,165.004148722807
0.563142334224975,303.175167445344,309.632916674213,6.45774922886852,-306.404042059779,148.358709108238,158.045332951541
0.5659580458961,311.54257671155,310.650494095322,-0.892082616228151,-311.096535403436,156.217329663889,154.879205739547
0.568773757567225,320.822918754459,320.529587074865,-0.293331679593507,-320.676252914662,160.558125217026,160.118127697636
0.57158946923835,321.255674820206,319.86310778852,-1.39256703168644,-320.559391304363,161.324120925946,159.235270378417
0.574405180909475,312.373705716435,321.285712624944,8.91200690850832,-316.82970917069,151.730849403964,165.098859766726
0.5772208925806,306.608082291566,320.916740798475,14.3086585069088,-313.76241154502,146.149711892329,167.612699652692
0.580036604251725,309.167844385464,320.460604859858,11.2927604743939,-314.814224622661,148.937541955535,165.876682667126
0.58285231592285,315.694617408876,318.731107710077,3.03649030120135,-317.212862559477,156.329063553837,160.883799005639
0.585668027593974,324.74414229152,322.592396586293,-2.15174570522709,-323.668269438907,163.447943998374,160.220325440533
0.588483739265099,323.775750204089,321.607734785233,-2.16801541885667,-322.691742494661,162.971882811473,159.719859683188
0.591299450936224,315.550377068287,320.528288879798,4.97791181151064,-318.039332974042,155.286232628388,162.753100345654
0.594115162607349,308.945544282458,322.078666261193,13.1331219787356,-315.512105271825,147.906211151861,167.605894119964
0.596930874278474,308.126204617366,318.183159181899,10.0569545645334,-313.154681899632,149.034625026416,164.120056873216
0.599746585949599,314.848211448036,319.845361278808,4.99714983077189,-317.346786363422,154.925530808632,162.42125555479
0.602562297620724,327.556009137546,326.584508845321,-0.971500292224221,-327.070258991433,164.263754714885,162.806504276549
0.605378009291849,329.279388021182,328.317656405091,-0.961731616090788,-328.798522213137,165.120559818636,163.6779623945
0.608193720962973,329.802284246584,329.804981441403,0.00269719481923403,-329.803632843993,164.899793525882,164.903839318111
0.611009432634098,323.327168047422,333.283783687223,9.95661563980127,-328.305475867323,156.68527620381,171.620199663512
0.613825144305223,315.049554045378,330.930592814404,15.8810387690263,-322.990073429891,149.584257638176,173.405815791715
0.616640855976348,319.984725510103,330.982050414666,10.9973249045626,-325.483387962384,154.49370030277,170.989687659614
0.619456567647473,327.390089869453,327.629737444191,0.239647574738569,-327.509913656822,163.575221147357,163.934692509465
0.622272279318598,328.936474732359,324.171065408166,-4.76540932419289,-326.553770070262,166.850942028276,159.702828041987
0.625087990989723,333.134617554992,329.124179380735,-4.01043817425733,-331.129398467863,168.572527864625,162.556870603239
0.627903702660848,328.509289971347,335.230749416529,6.72145944518235,-331.870019693938,160.893915263082,170.976104430856
0.630719414331972,317.857455264898,333.546443682885,15.6889884179866,-325.701949473891,151.084233423456,174.617716050436
0.633535126003097,319.123169018762,333.161466151893,14.038297133131,-326.142317585327,152.542435942815,173.599881642512
0.636350837674222,331.250782042274,334.698451329359,3.44766928708481,-332.974616685816,163.901556377595,169.073060308222
0.639166549345347,338.682559203347,335.056291955409,-3.62626724793756,-336.869425579378,171.154413225642,165.715012353736
0.641982261016472,344.518520298737,344.460207165552,-0.0583131331849245,-344.489363732145,172.288416715961,172.200947016184
0.644797972687597,346.661741537104,350.207474215627,3.54573267852243,-348.434607876365,171.558004429291,176.876603447074
0.647613684358722,333.590192637221,346.17985042366,12.5896577864384,-339.88502153044,160.500267425391,179.384754105049
0.650429396029847,328.299561852599,341.39990650724,13.1003446546409,-334.84973417992,157.599608598979,177.25012558094
0.653245107700971,337.250081212256,343.815623394936,6.56554218268019,-340.532852303596,165.342269514788,175.190582788808
0.656060819372096,341.60838792231,341.016271570749,-0.592116351561344,-341.31232974653,171.100252136936,170.212077609594
0.658876531043221,349.899431794808,346.788763394701,-3.11066840010716,-348.344097594755,176.505050097458,171.839047497297
0.661692242714346,354.540730907056,352.02758443945,-2.5131464676063,-353.284157673253,178.526938687331,174.757218985922
0.664507954385471,345.239299968279,353.865725928371,8.62642596009215,-349.552512948325,168.306437004093,181.246075944232
0.667323666056596,337.534539994981,352.675904470784,15.1413644758023,-345.105222232882,161.196587759589,183.908634473293
0.670139377727721,339.30685937903,351.828006982161,12.5211476031303,-345.567433180595,163.39285588795,182.174577292645
0.672955089398846,345.658872860268,343.950517379711,-1.70835548055652,-344.80469511999,173.683614170412,171.121080949577
0.67577080106997,351.24152885515,348.11819715457,-3.12333170057957,-349.67986300486,177.182430277865,172.497432726995
0.678586512741095,356.247631995855,352.836164371642,-3.41146762421238,-354.541898183748,179.829549810033,174.712348373715
0.68140222441222,348.899711226758,354.64140366539,5.74169243863105,-351.770557446074,171.579009394064,180.19154805201
0.684217936083345,342.809267893376,356.948849529565,14.1395816361891,-349.87905871147,164.334843128593,185.544215582877
0.68703364775447,342.329288410695,358.703555692367,16.3742672816718,-350.516422051531,162.977510564512,187.538911487019
0.689849359425595,348.721562859634,352.86007866958,4.13851580994577,-350.790820764607,172.291523524844,178.499297239763
0.69266507109672,356.553692153987,355.482854412225,-1.07083774176147,-356.018273283106,178.812264947874,177.206008335232
0.695480782767845,360.890695522124,357.70357494892,-3.1871205732038,-359.297135235522,182.038908047664,177.258227187858
0.698296494438969,353.604287123516,350.51013276448,-3.0941543590356,-352.057209943998,178.349220741276,173.707989202722
0.701112206110094,342.131215990094,346.187667416624,4.05645142653003,-344.159441703359,169.037382281782,175.122059421577
0.703927917781219,330.380151606749,339.501805350232,9.1216537434824,-334.94097847849,160.629248931633,174.311729546857
0.706743629452344,328.925637880575,334.943293702479,6.0176558219045,-331.934465791527,161.453991029335,170.480474762192
0.709559341123469,336.676647217233,334.677825679745,-1.9988215374878,-335.677236448489,169.33773437736,166.339502071129
0.712375052794594,339.256241615698,333.267784611636,-5.98845700406207,-336.262013113667,172.62234930988,163.639663803787
0.715190764465719,333.403180478412,327.440875519304,-5.96230495910794,-330.422027998858,169.68274271876,160.739285280098
0.718006476136844,324.398867584266,326.349093061497,1.95022547723113,-325.373980322881,161.224321053517,164.149659269364
0.720822187807968,308.321118362668,320.208819433443,11.8877010707752,-314.264968898056,148.216708645947,166.048260252109
0.723637899479093,304.134428566033,315.020868342482,10.886439776449,-309.577648454258,146.623994394792,162.953654059466
0.726453611150218,315.696336170476,315.844634749917,0.148298579440734,-315.770485460197,157.774018795518,157.996466664679
0.729269322821343,317.610128668692,311.893796698314,-5.71633197037852,-314.751962683503,161.663230319536,153.088732363968
0.732085034492468,314.291583650306,306.446200026501,-7.84538362380465,-310.368891838404,161.068483637055,149.300408201348
0.734900746163593,307.66433356558,304.454540952378,-3.20979261320184,-306.059437258979,155.437063089391,150.622374169588
0.737716457834718,298.269181717611,306.911683802193,8.64250208458139,-302.590432759902,144.813339816515,157.777092943387
0.740532169505843,290.295153497198,300.110649637445,9.81549614024675,-295.202901567321,140.239828678476,154.963072888846
0.743347881176967,294.719443275798,297.006987238508,2.28754396271012,-295.863215257153,146.215949656544,149.647265600609
0.746163592848092,298.149086439403,292.61742687471,-5.5316595646932,-295.383256657056,151.840373002048,143.542883655008
0.748979304519217,297.324203032735,291.521977517402,-5.80222551533348,-294.423090275069,151.563214274034,142.859876001034
0.751795016190342,298.826342495715,294.482755136294,-4.34358735942072,-296.654548816005,151.584964927568,145.069583888437
0.754610727861467,289.030476168881,296.516304798517,7.48582862963588,-292.773390483699,140.772323769623,152.001066714077
0.757426439532592,279.394902099333,293.195325384321,13.8004232849883,-286.295113741827,132.797239407172,153.497874334655
0.760242151203717,284.806918271008,296.229751621292,11.4228333502841,-290.51833494615,136.692042460362,153.826292485788
0.763057862874842,294.845358919358,296.399137259016,1.55377833965747,-295.622248089187,146.64579028985,148.976457799336
0.765873574545966,300.405271030975,299.567587778059,-0.83768325291561,-299.986429404517,150.621477141945,149.364952262572
0.768689286217091,304.005862015408,300.623519711737,-3.38234230367124,-302.314690863573,153.69410215954,148.620588704033
0.771504997888216,295.778415090282,301.265156642918,5.48674155263586,-298.5217858666,145.145836768823,153.375949097777
0.774320709559341,285.478357244092,295.330613978097,9.85225673400424,-290.404485611095,137.813050255044,152.59143535605
0.777136421230466,284.006521048241,298.44513059134,14.4386095430991,-291.22582581979,134.783955752571,156.441870067219
0.779952132901591,289.702537907145,296.184715549301,6.48217764215644,-292.943626728223,141.610180132494,151.333446595729
0.782767844572716,292.569145087731,291.662685251041,-0.906459836690544,-292.115915169386,146.737802462211,145.378112707175
0.785583556243841,298.992017007717,293.658916579687,-5.33310042802987,-296.325466793702,152.162558717874,144.162908075829
0.788399267914966,295.389016099546,293.007984323193,-2.38103177635384,-294.19850021137,148.88502393795,145.313476273419
0.79121497958609,283.597825409685,291.533163934265,7.93533852458023,-287.565494671975,137.831243442553,149.734251229423
0.794030691257215,280.219831703187,294.527092964448,14.3072612612615,-287.373462333818,132.956285220963,154.417177112855
0.79684640292834,283.625625190324,290.888915750995,7.26329056067141,-287.25727047066,138.181167314826,149.076103155833
0.799662114599465,290.751301427392,293.778783462196,3.02748203480405,-292.265042444794,143.861909696294,148.4031327485
0.80247782627059,301.871135757233,297.700279929331,-4.17085582790253,-299.785707843282,153.020995792568,146.764712050714
0.805293537941715,301.908701052925,299.745656951244,-2.16304410168073,-300.827179002085,152.035872577303,148.791306424782
0.80810924961284,292.759446318173,296.746009871836,3.98656355366222,-294.752728095004,144.386441382256,150.366286712749
0.810924961283965,285.567692303958,299.702466125704,14.1347738217463,-292.635079214831,135.716459241106,156.918619973725
0.813740672955089,285.652554768794,298.693125697331,13.0405709285366,-292.172840233063,136.305991920129,155.866848312934
0.816556384626214,294.924410644391,297.921461842593,2.99705119820123,-296.422936243492,145.963679723095,150.459256520397
0.819372096297339,304.654062405724,302.715575557292,-1.93848684843238,-303.684818981508,153.296274627078,150.38854435443
0.822187807968464,305.42887921505,301.506273319594,-3.9226058954556,-303.467576267322,154.675742555253,148.791833712069
0.825003519639589,301.004404296764,300.004241181181,-1.00016311558284,-300.504322738972,151.002283706173,149.502039032799
0.827819231310714,289.896698677949,299.789300184029,9.89260150607993,-294.842999430989,140.002048585935,154.840950845055
0.830634942981839,281.665559487604,294.487467105652,12.8219076180482,-288.076513296628,134.421825934778,153.65468736185
0.833450654652964,286.071347942644,290.085427084406,4.01407914176127,-288.078387513525,141.028634400442,147.049753113083
0.836266366324088,295.329232497998,293.612253159938,-1.71697933806001,-294.470742828968,148.523105918029,145.947636910939
0.839082077995213,299.046533176084,294.321210781964,-4.72532239411987,-296.683871979024,151.885927785102,144.797944193922
0.841897789666338,301.315589941719,299.283297010846,-2.03229293087247,-300.299443476282,151.673941436296,148.625502039987
0.844713501337463,294.069000693198,297.732101631587,3.66310093838894,-295.900551162392,145.202949877404,150.697601284988
0.847529213008588,281.547201320438,296.224005009682,14.676803689244,-288.88560316506,133.435198815597,155.450404349463
0.850344924679713,288.204553731153,296.272048212396,8.06749448124293,-292.238300971774,140.068529624955,152.169771346819
0.853160636350838,295.118272178761,296.592085083857,1.47381290509679,-295.855178631309,146.822229636832,149.032948994477
0.855976348021963,297.806532347853,298.191796667696,0.385264319843657,-297.999164507774,148.710634014004,149.28853049377
0.858792059693087,307.662337223154,305.577439166077,-2.08489805707632,-306.619888194615,154.873617640115,151.7462705545
0.861607771364212,305.13367668035,308.671333314342,3.53765663399179,-306.902504997346,150.798010023179,156.104494974167
0.864423483035337,293.328823553951,306.937267394932,13.6084438409802,-300.133045474442,139.860189856486,160.272855617956
0.867239194706462,291.376062004845,305.509922513782,14.1338605089375,-298.442992259313,138.621100747954,159.82189151136
0.870054906377587,296.083517536193,303.652852223851,7.569334687658,-299.868184880022,144.257091424268,155.611093455755
0.872870618048712,302.775543982313,302.15122425505,-0.624319727262844,-302.463384118682,151.699931854788,150.763452263894
0.875686329719837,307.992782914843,304.857995693378,-3.13478722146419,-306.42538930411,155.563785068153,150.861604235957
0.878502041390962,307.995544007375,306.492969153883,-1.50257485349135,-307.244256580629,154.749059430433,152.495197150196
0.881317753062086,294.074609523553,303.727296030548,9.652686506995,-298.90095277705,142.210961508279,156.689991268771
0.884133464733211,288.569614553399,303.739165179535,15.1695506261356,-296.154389866467,136.700031963632,159.454357902835
0.886949176404336,295.037239785155,304.551587123521,9.5143473383651,-299.794413454338,142.761446223395,157.032967230943
0.889764888075461,299.799509045075,303.083727457918,3.2842184128429,-301.441618251497,148.257645316116,153.183972935381
0.892580599746586,305.282483252953,303.143674106466,-2.13880914648712,-304.213078679709,153.71064619972,150.502432479989
0.895396311417711,306.728334991606,304.330066386646,-2.39826860496083,-305.529200689126,154.563301798284,150.965898890842
0.898212023088836,297.837743173459,300.600515203016,2.76277202955634,-299.219129188238,147.537485571952,151.681643616286
0.901027734759961,289.80058837278,301.950706767556,12.1501183947761,-295.875647570168,138.825234989002,157.050412581166
0.903843446431085,287.016401433124,299.365211269085,12.3488098359608,-293.190806351105,137.333795798582,155.857010552523
0.90665915810221,296.923182556937,301.058216615554,4.13503405861701,-298.990699586245,146.39407424916,152.596625337085
0.909474869773335,304.492261818887,303.406970518584,-1.0852913003028,-303.949616168735,152.788776559595,151.16083960914
0.91229058144446,310.299461730615,307.100168869437,-3.1992928611773,-308.699815300026,156.749377295896,151.95043800413
0.915106293115585,304.563467027872,307.470230868862,2.9067638409897,-306.016848948367,150.828351593441,155.188497354926
0.91792200478671,297.128844223228,309.212777524266,12.0839333010379,-303.170810873747,142.522455461095,160.648355412652
0.920737716457835,292.121725109672,306.250716814622,14.1289917049505,-299.186220962147,138.996366702361,160.189854259786
0.92355342812896,298.06794284476,303.06165470693,4.99371186216985,-300.564798775845,146.537115491295,154.02768328455
0.926369139800085,309.649890169839,307.668657267752,-1.98123290208758,-308.659273718795,155.815561535963,152.843712182832
0.929184851471209,314.814698191812,311.862500819574,-2.95219737223761,-313.338599505693,158.883447782025,154.455151723668
0.932000563142334,312.357910396517,310.395147627985,-1.96276276853183,-311.376529012251,157.160336582524,154.216192429727
0.934816274813459,307.50499493476,315.458969600319,7.95397466555926,-311.48198226754,149.7755101346,161.706472132939
0.937631986484584,298.205090088715,315.076285876549,16.8711957878331,-306.640687982632,140.666947150441,165.973740832191
0.940447698155709,300.214152987505,311.082215631464,10.8680626439595,-305.648184309484,144.673045171773,160.975139137712
0.943263409826834,309.757286368266,308.953024991108,-0.804261377157729,-309.355155679687,155.280773872712,154.074381806975
0.946079121497959,315.343523108296,311.692245642349,-3.65127746594669,-313.517884375322,159.497400287121,154.020484088201
0.948894833169084,315.275366547608,312.431811439357,-2.84355510825122,-313.853588993483,159.05946082793,154.794128165553
0.951710544840208,313.84321974749,316.603933955701,2.76071420821057,-315.223576851596,155.54125276964,159.682324081956
0.954526256511333,304.169182941974,320.758304529867,16.5891215878928,-312.463743735921,143.790030677041,168.67371305888
0.957341968182458,304.330495480544,320.119085884976,15.7885904044322,-312.22479068276,144.270952538056,167.953838144704
0.960157679853583,317.869435882703,325.273616581229,7.40418069852626,-321.571526231966,155.232627592088,166.338898639878
0.962973391524708,322.912285393208,324.492612758972,1.58032736576331,-323.70244907609,160.665979013722,163.036470062367
0.965789103195833,325.268860172639,321.455359268513,-3.81350090412565,-323.362109720576,164.541180538382,158.820929182194
0.968604814866958,322.207244546824,318.815816170888,-3.39142837593556,-320.511530358856,162.79933646138,157.712193897476
0.971420526538083,306.128870442596,315.578735266917,9.44986482432085,-310.853802854757,148.339502809138,162.514300045619
0.974236238209207,298.480483013467,313.294174125269,14.8136911118019,-305.887328569368,141.833395950833,164.053932618535
0.977051949880332,309.870449921759,318.358244364327,8.48779444256758,-314.114347143043,150.691327739596,163.423019403447
0.979867661551457,322.494260987362,321.110933226324,-1.38332776103772,-321.802597106843,161.9387943742,159.863802732643
0.982683373222582,328.369050041994,325.527264664054,-2.84178537794054,-326.948157353024,165.605417709967,161.342739643056
0.985499084893707,331.475883385307,329.995577650952,-1.480305734355,-330.73573051813,166.478094559831,164.257635958299
0.988314796564832,318.935986005472,325.318021564209,6.38203555873707,-322.127003784841,156.276975223368,165.850028561473
0.991130508235957,303.586824031144,313.444461097581,9.85763706643712,-308.515642564362,146.864593482353,161.651049082009
0.993946219907082,302.02051670711,312.572633836448,10.5521171293389,-307.296575271779,145.734199788885,161.562375482894
0.996761931578206,306.356939519768,305.966583202208,-0.390356317559906,-306.161761360988,153.373647918664,152.788113442324
0.999577643249331,310.603971582143,305.707454933295,-4.89651664884843,-308.155713257719,157.750244115496,150.405469142223
1.00239335492046,314.346556309832,307.828285474766,-6.51827083506595,-311.087420892299,160.432413572449,150.65500731985
1.00520906659158,307.483543660824,304.920700743096,-2.56284291772863,-306.20212220196,155.023193289277,151.178928912684
1.00802477826271,294.731087151684,303.663120838861,8.9320336871773,-299.197103995272,142.899526732253,156.297577263019
1.01084048993383,292.155445303277,307.638545203431,15.4830999001545,-299.896995253354,138.336172701561,161.560822551793
1.01365620160496,298.26366690678,302.690149924087,4.42648301730731,-300.476908415434,146.918591944736,153.558316470697
1.01647191327608,302.823003503932,298.854571271747,-3.96843223218474,-300.83878738784,153.395717868058,147.443069519781
1.01928762494721,307.200171271443,299.838414552836,-7.3617567186065,-303.51929291214,157.280963995025,146.238328917115
1.02210333661833,303.062130804301,296.732146832679,-6.32998397162169,-299.89713881849,154.696057387961,145.201081430529
1.02491904828946,291.920059655238,299.910429446609,7.99036979137043,-295.915244550924,141.964844931934,153.95039961899
1.02773475996058,286.323723445743,300.59654316418,14.2728197184371,-293.460133304961,136.025451863653,157.434681441308
1.0305504716317,288.219198743006,294.388790795407,6.1695920524017,-291.303994769206,141.024803345302,150.279191423904
1.03336618330283,294.027813826091,295.026053802948,0.998239976856723,-294.526933814519,146.514786924617,148.012146889902
1.03618189497395,298.942337753347,292.817295012828,-6.12504274051821,-295.879816383087,152.533690246932,143.346126136155
1.03899760664508,296.64660795463,289.571923594736,-7.07468435989432,-293.109265774683,151.860646157262,141.248619617421
1.0418133183162,293.161597785609,295.163180154798,2.00158236918952,-294.162388970204,145.58000770821,148.582381261994
1.04462902998733,285.482569632628,299.507310589776,14.0247409571481,-292.494940111202,135.72891433774,156.766025773462
1.04744474165845,285.16158881545,300.08070390196,14.9191150865094,-292.621146358705,135.12123686447,157.499909494234
1.05026045332958,295.210239086881,301.231904739856,6.02166565297568,-298.221071913369,144.594286716953,153.626785196416
1.0530761650007,304.7006425703,306.897824893711,2.19718232341091,-305.799233732006,151.251730123445,154.547503608561
1.05589187667183,308.253573474843,303.408735452848,-4.84483802199463,-305.831154463846,156.549205748419,149.281948715427
1.05870758834295,304.476871679837,302.444033102818,-2.03283857701899,-303.460452391327,153.254855128428,150.205597262899
1.06152330001408,290.764371139461,296.549168374465,5.7847972350047,-293.656769756963,142.489786952228,151.166982804735
1.0643390116852,278.192448338853,288.973523101127,10.7810747622736,-283.58298571999,133.70568678829,149.8772989317
1.06715472335633,278.345696359722,283.412943201967,5.06724684224559,-280.879319780844,136.639224758738,144.240095022106
1.06997043502745,287.307857254041,285.647351637718,-1.66050561632295,-286.477604445879,144.484181435182,141.993423010697
1.07278614669858,290.005427732087,286.282587365197,-3.72284036688973,-288.144007548642,146.864134049488,141.279873499154
1.0756018583697,297.785352011533,296.695009175577,-1.09034283595656,-297.240180593555,149.437847423745,147.80233316981
1.07841757004083,298.70954186435,307.326198854936,8.61665699058591,-303.017870359643,145.046442436882,157.971427922761
1.08123328171195,299.966219019919,320.623318095492,20.6570990755725,-310.294768557705,139.654559972173,170.640208585532
1.08404899338308,321.581550896065,347.749173649625,26.1676227535593,-334.665362272845,147.706964071253,186.958398201592
1.0868647050542,357.286938574291,380.830125303196,23.5431867289043,-369.058531938743,166.871875922694,202.18665601605
1.08968041672533,387.538998204475,409.763944775298,22.2249465708226,-398.651471489887,182.657025816826,215.99444567306
1.09249612839645,421.471800565056,443.416693069163,21.9448925041071,-432.444246817109,199.763454030474,232.680792786635
1.09531184006758,443.420589767683,466.178695726853,22.7581059591692,-454.799642747268,210.331241904257,244.468400843011
1.0981275517387,440.441447050601,470.136652690034,29.695205639433,-455.289049870318,205.373120705584,249.915929164734
1.10094326340983,435.294518535164,459.525164046718,24.2306455115539,-447.409841290941,205.531936511805,241.877904779136
1.10375897508095,429.176763846734,433.748068795146,4.57130494841147,-431.46241632094,212.302729449161,219.159686871779
1.10657468675208,407.745378030792,399.07339512549,-8.67198290530155,-403.409386578141,208.208680468047,195.200706110094
1.1093903984232,388.7648203532,371.537304689354,-17.2275156638465,-380.151062521277,202.996168008523,177.154894512753
1.11220611009433,363.020835907415,341.504550723265,-21.5162851841506,-352.26269331534,192.268560545783,159.994132769557
1.11502182176545,324.669651652791,311.492048967203,-13.1776026855876,-318.080850309997,168.923627169189,149.157223140808
1.11783753343658,301.048875016843,296.146727919327,-4.9021470975166,-298.597801468085,152.97551105718,145.622290410905
1.1206532451077,297.166357403996,293.415774290617,-3.75058311337847,-295.291065847306,150.458470258687,144.832595588619
1.12346895677883,301.020101923143,292.176934462804,-8.84316746033954,-296.598518192974,154.931634691742,141.666883501232
1.12628466844995,312.600882404182,305.444597070882,-7.15628533330039,-309.022739737532,159.878583868741,149.144155868791
1.12910038012108,318.982268455919,310.680015433335,-8.30225302258435,-314.831141944627,163.642260739252,151.188881205375
1.1319160917922,310.385902055016,312.274202491319,1.88830043630338,-311.330052273168,154.248800809356,157.081251463811
1.13473180346333,301.401962915186,314.517161684893,13.1151987697067,-307.959562300039,144.14338207274,163.8161802273
1.13754751513445,296.26987902026,308.432833614889,12.1629545946281,-302.351356317574,142.053462212816,160.297894104758
1.14036322680558,299.201567318654,302.22108799189,3.0195206732356,-300.711327655272,148.091023322709,152.620304332563
1.1431789384767,308.675268145765,304.660629032718,-4.01463911304734,-306.667948589241,156.344953629406,150.322994959835
1.14599465014782,311.435253745328,306.429808759681,-5.00544498564693,-308.932531252505,158.220349365488,150.712181887017
1.14881036181895,308.275593302977,306.29489143045,-1.98070187252642,-307.285242366714,155.128147587752,152.157094778962
1.15162607349007,301.730245313327,308.699697745251,6.96945243192408,-305.214971529289,147.380396440701,157.834575088588
1.1544417851612,294.264567418518,310.171875278651,15.907307860133,-302.218221348585,139.178629779193,163.039591569392
1.15725749683232,299.34684483965,307.24764992223,7.90080508257961,-303.29724738094,145.723019878535,157.574227502405
1.16007320850345,309.72995142689,308.902295630947,-0.827655795943713,-309.316123528918,155.278803611417,154.037319917501
1.16288892017457,311.937345584169,310.22189124847,-1.71545433569929,-311.079618416319,156.826399959934,154.253218456385
1.1657046318457,311.241341381024,307.349408124509,-3.89193325651451,-309.295374752767,157.566637318769,151.728737433997
1.16852034351682,307.086020752309,311.881182944214,4.79516219190543,-309.483601848262,151.145429280202,158.33817256806
1.17133605518795,296.244397464277,310.901393086402,14.6569956221249,-303.57289527534,140.793700921076,162.779194354264
1.17415176685907,296.483731430576,307.328690783052,10.8449593524755,-301.906211106814,142.81938603905,159.086825067764
1.1769674785302,305.739106305989,310.095325039449,4.35621873346031,-307.917215672719,150.691443786264,157.225771886455
1.17978319020132,310.495193996648,306.979673198925,-3.51552079772324,-308.737433597787,157.005357397186,151.732076200601
1.18259890187245,313.31318431595,308.458627460344,-4.85455685560567,-310.885905888147,159.083870585778,151.802035302369
1.18541461354357,313.380417670503,312.995098249487,-0.385319421016163,-313.187757959995,156.88286854576,156.304889414235
1.1882303252147,302.111315198913,314.589128550964,12.4778133520513,-308.350221874939,144.816750923431,163.533470951508
1.19104603688582,294.593690797303,309.440047891261,14.846357093958,-302.016869344282,139.873666851673,162.14320249261
1.19386174855695,301.793170452117,310.30643368513,8.51326323301299,-306.049802068624,146.639953609552,159.409848459072
1.19667746022807,308.202810685168,309.805398881778,1.60258819661016,-309.004104783473,153.300111244279,155.703993539194
1.1994931718992,314.484633559647,312.602229446041,-1.88240411360584,-313.543431502844,158.183518836627,155.359912666218
1.20230888357032,317.531597824533,315.055404431088,-2.47619339344533,-316.29350112781,160.003895608989,156.289605518821
1.20512459524145,311.826160256494,317.261247373521,5.43508711702725,-314.543703815007,153.195536569733,161.348167245274
1.20794030691257,302.69972829337,316.603076352832,13.9033480594615,-309.651402323101,144.398190116954,165.253212206147
1.2107560185837,307.963714574852,319.498191254825,11.5344766799724,-313.730952914838,148.21461894744,165.516333967399
1.21357173025482,314.039721612667,317.57663808123,3.53691646856265,-315.808179846948,155.251402572052,160.556777274896
1.21638744192595,320.70114226625,318.75907960899,-1.9420626572591,-319.73011093762,161.321602461754,158.408508475866
1.21920315359707,324.599207498528,321.147023064845,-3.45218443368316,-322.873115281686,164.025695966105,158.847419315581
1.2220188652682,314.477263251206,316.003608153563,1.52634490235693,-315.240435702385,156.475459174425,158.76497652796
1.22483457693932,301.85624464373,315.822652062624,13.9664074188942,-308.839448353177,143.944918612418,164.894529740759
1.22765028861045,304.098099410769,319.558729933172,15.460630522403,-311.82841467197,144.318734444183,167.509680227787
1.23046600028157,313.94465675425,323.313231185909,9.36857443165854,-318.628943970079,152.288041161296,166.340902808784
1.2332817119527,325.944871112526,324.951390493012,-0.993480619514571,-325.448130802769,163.46917586602,161.978954936749
1.23609742362382,334.500869787698,332.211433738686,-2.28943604901133,-333.356151763192,168.395152918354,164.960998844837
1.23891313529495,330.007088937291,326.735356643468,-3.27173229382277,-328.37122279038,166.639410615557,161.731812174823
1.24172884696607,321.066438955072,327.07317221445,6.006733259378,-324.069805584761,157.529852847847,166.539952736914
1.2445445586372,313.439944110876,325.692719551713,12.2527754408371,-319.566331831294,150.593584335019,168.972747496275
1.24736027030832,315.989587178975,325.138488379419,9.14890120044379,-320.564037779197,153.420342989265,167.143694789931
1.25017598197945,325.176548211076,326.169868138517,0.993319927441064,-325.673208174796,162.091614141817,163.581594032979
1.25299169365057,332.21128525447,327.119652116373,-5.09163313809711,-329.665468685422,168.651459196284,161.014009489138
1.2558074053217,331.548644012814,330.503492825115,-1.04515118769831,-331.026068418965,166.296897600256,164.729170818709
1.25862311699282,326.35491064581,335.360024519884,9.0051138740738,-330.857467582847,158.674898385868,172.182569196979
1.26143882866394,321.67045020279,339.704607706213,18.0341575034227,-330.687528954501,151.818146349684,178.869382604818
1.26425454033507,319.95002431648,333.848217053531,13.898192737051,-326.899120685006,153.025915789714,173.873204895291
1.26707025200619,331.392252884465,336.428428774006,5.0361758895404,-333.910340829236,163.178038497463,170.732302331773
1.26988596367732,339.95418833259,338.17066264301,-1.7835256895807,-339.0624254878,170.868857011085,168.193568476714
1.27270167534844,340.162363760001,334.351168532067,-5.81119522793426,-337.256766146034,172.986779493968,164.269986652066
1.27551738701957,336.715444883522,337.658841416505,0.943396532982945,-337.187143150014,167.88602417527,169.301118974744
1.27833309869069,327.889944967709,337.610460263338,9.72051529562896,-332.750202615524,159.08471483604,173.665487779483
1.28114881036182,321.941627875784,335.658238162983,13.7166102871993,-328.799933019383,154.112508794292,174.687424225091
1.28396452203294,332.575425651377,340.690204048044,8.11477839666662,-336.632814849711,162.230323627355,174.402491222355
1.28678023370407,343.596646609344,344.047342838393,0.450696229048788,-343.821994723869,171.572975190148,172.249019533721
1.28959594537519,347.836748744115,341.162910270576,-6.67383847353841,-344.499829507346,177.255293608827,167.244535898519
1.29241165704632,351.136652686937,348.995171234892,-2.14148145204513,-350.065911960914,176.639067069491,173.426844891423
1.29522736871744,346.046295234164,351.554900648332,5.50860541416722,-348.800597941248,170.268844909999,178.531753031249
1.29804308038857,333.836545753835,347.461119586136,13.6245738323017,-340.648832669985,160.105985960766,180.542846709219
1.30085879205969,338.79165440905,351.998374956411,13.2067205473605,-345.39501468273,162.792466930845,182.602547751886
1.30367450373082,349.386445771376,352.983797285352,3.59735151397609,-351.185121528364,172.8945471287,178.290574399664
1.30649021540194,350.704596419561,346.071099627065,-4.63349679249552,-348.387848023313,177.669046606028,170.718801417285
1.30930592707307,354.530311952268,349.3144621867,-5.21584976556824,-351.922387069484,179.873080858918,172.049306210566
1.31212163874419,353.967237972678,352.389767922747,-1.57747004993155,-353.178502947713,177.772354011305,175.406148936408
1.31493735041532,341.692969885373,355.348482130978,13.6555122456047,-348.520726008175,164.018728819884,184.501997188291
1.31775306208644,343.027050573681,358.286136842813,15.2590862691321,-350.656593708247,163.883982152274,186.772611555972
1.32056877375757,354.207200060337,358.794137930756,4.58693787041898,-356.500668995546,174.810131094959,181.690537900587
1.32338448542869,356.677795132266,356.989134787703,0.311339655436996,-356.833464959985,178.183227738415,178.65023722157
1.32620019709982,362.902490987757,358.665342712742,-4.23714827501544,-360.783916850249,183.569819631386,177.214097218863
1.32901590877094,360.760696706868,358.237619984913,-2.52307672195531,-359.499158345891,181.641886714412,177.857271631479
1.33183162044207,345.551260248894,354.283754073743,8.73249382484886,-349.917507161319,168.409383212023,181.508123949296
1.33464733211319,339.278729829005,351.538069087733,12.2593392587276,-345.408399458369,163.509695285139,181.89870417323
1.33746304378432,340.077182294005,347.564431076896,7.48724878289096,-343.820806685451,166.294966755557,177.525839929894
1.34027875545544,343.839164156311,342.045247923081,-1.79391623323039,-342.942206039696,172.816540194771,170.125665844925
1.34309446712657,352.071747393539,345.855719501957,-6.21602789158209,-348.963733447748,179.143887642561,169.819845805187
1.34591017879769,352.235419800344,344.84605499031,-7.38936481003384,-348.540737395327,179.812392305189,168.728345090138
1.34872589046882,340.406462672518,342.260603041324,1.85414036880593,-341.333532856921,169.276161151856,172.057371705065
1.35154160213994,328.568738582865,340.746743329319,12.1780047464538,-334.657740956092,158.195366918206,176.462374037886
1.35435731381107,327.05086380744,336.307574834798,9.25671102735748,-331.679219321119,158.897076390041,172.782142931078
1.35717302548219,328.064467429684,326.134382979138,-1.93008445054681,-327.099425204411,164.997275940116,162.102149264295
1.35998873715332,330.10258504977,322.001362856491,-8.10122219327849,-326.051973953131,169.101903621524,156.950070331606
1.36280444882444,328.658271737735,318.533215678327,-10.1250560594073,-323.595743708031,169.391663898571,154.20407980946
1.36562016049557,318.386661585268,316.376937103198,-2.00972448206966,-317.381799344233,160.198193033669,157.183606310564
1.36843587216669,307.744165319538,315.755037520804,8.01087220126618,-311.749601420171,149.866646559136,161.882954861035
1.37125158383782,299.904380315995,310.87279599688,10.9684156808846,-305.388588156437,144.467982317555,160.920605838882
1.37406729550894,302.295281603469,307.246957858424,4.95167625495492,-304.771119730946,148.671802674257,156.099317056689
1.37688300718006,312.012096320205,305.114653635453,-6.89744268475226,-308.563374977829,159.454769502479,149.10860547535
1.37969871885119,310.032630695434,303.230887168259,-6.80174352717495,-306.631758931846,158.417187111304,148.214571820542
1.38251443052231,307.397059165757,302.478781502445,-4.91827766331164,-304.937920334101,156.157668414534,148.780251919567
1.38533014219344,299.99522334479,304.801122724638,4.80589937984797,-302.398173034714,147.594661982471,154.803511052243
1.38814585386456,288.841841393547,301.534418108391,12.6925767148443,-295.188129750969,138.074632339351,157.113497411618
1.39096156553569,286.491470935541,294.37589755723,7.8844266216887,-290.433684246386,139.303522156926,151.130162089459
1.39377727720681,295.920435442487,298.249504077979,2.32906863549147,-297.084969760233,146.795683403498,150.289286356735
1.39659298887794,297.551123709859,294.977062624865,-2.57406108499401,-296.264093167362,150.062592397426,146.201500769935
1.39940870054906,299.495997372209,294.599617737299,-4.89637963490998,-297.047807554754,152.196188503559,144.851619051194
1.40222441222019,299.187886702957,300.831254232344,1.64336752938641,-300.00957046765,148.772259586785,151.237310880865
1.40504012389131,287.678340598576,301.212999504721,13.5346589061446,-294.445670051648,137.071840846216,157.373829205433
1.40785583556244,285.640955043381,299.529978390754,13.8890233473725,-292.585466717067,135.875965848004,156.709500869063
1.41067154723356,294.942165563518,299.439673611368,4.49750804785015,-297.190919587443,145.222328757834,151.968590829609
1.41348725890469,300.224278452537,299.792511519425,-0.431766933111703,-300.008394985981,150.328022692824,149.680372293157
1.41630297057581,303.650653108331,297.734577872007,-5.91607523632462,-300.692615490169,154.783364172328,145.909251317841
1.41911868224694,303.371576887235,297.874979819079,-5.49659706815595,-300.623278353157,154.434086977695,146.189191375461
1.42193439391806,287.502644869414,296.973519394373,9.47087452495964,-292.238082131894,139.015885172227,153.222196959667
1.42475010558919,278.804187701268,293.741641929382,14.9374542281144,-286.272914815325,131.933366736577,154.339548078748
1.42756581726031,286.929815975821,295.488826939875,8.5590109640537,-291.209321457848,139.185402505884,152.023918951964
1.43038152893144,294.983331931363,295.529099171405,0.545767240042323,-295.256215551384,147.21878234566,148.037433205724
1.43319724060256,302.863360272565,298.894313828324,-3.96904644424154,-300.878837050445,153.416203358403,147.462633692041
1.43601295227369,305.388126555545,302.875209852153,-2.51291670339214,-304.131668203849,153.950521629468,150.18114657438
1.43882866394481,298.204634810541,298.692085165192,0.487450354650946,-298.448359987866,148.858592227945,149.589767759921
1.44164437561594,286.979979520964,298.975033189607,11.9950536686433,-292.977506355285,137.49246292616,155.485043429125
1.44446008728706,288.091179147261,300.603531821928,12.512352674668,-294.347355484594,137.789413236296,156.557942248298
1.44727579895819,292.917111904234,298.328633289687,5.4115213854522,-295.62287259696,143.752795259391,151.870077337569
1.45009151062931,301.089799525027,300.074810044174,-1.01498948085242,-300.5823047846,151.05239450294,149.529910281661
1.45290722230044,305.223148328118,299.836950679747,-5.38619764837108,-302.530049503932,155.304672988244,147.225376515688
1.45572293397156,300.820987962311,301.499265997945,0.678278035634264,-301.160126980128,150.071354963338,151.08877201679
1.45853864564269,289.210329175714,300.240638097959,11.030308922245,-294.725483636836,139.090010126734,155.635473510102
1.46135435731381,287.26724200155,303.615477158695,16.3482351571454,-295.441359580122,135.459503422202,159.98185615792
1.46417006898494,291.909152844639,299.099074649787,7.18992180514726,-295.504113747213,142.359615519746,153.144498227467
1.46698578065606,301.296647338511,298.275421571688,-3.02122576682325,-299.7860344551,152.158936552667,147.627097902432
1.46980149232719,306.952543315374,304.792249537636,-2.1602937777381,-305.872396426505,154.556418546556,151.315977879949
1.47261720399831,303.428939784856,300.30905997782,-3.11987980703611,-301.868999881338,153.274409795946,148.594590085392
1.47543291566944,293.504282796988,297.52521718157,4.02093438458144,-295.514749989279,144.741674206203,150.773075783076
1.47824862734056,287.470983888806,299.586039794235,12.1150559054294,-293.528511841521,137.677963991688,155.850547849832
1.48106433901169,289.941486014075,301.947782136099,12.0062961220237,-295.944634075087,138.967594946026,156.977039129061
1.48388005068281,296.463755903368,299.480595779473,3.01683987610545,-297.97217584142,146.723458013631,151.248717827789
1.48669576235393,306.583674322442,302.656314423566,-3.92735989887541,-304.619994373004,155.255517110659,149.364477262346
1.48951147402506,301.080418083458,297.1628873589,-3.91753072455725,-299.121652721179,152.498974404007,146.622678317172
1.49232718569618,297.850846068662,299.815842277572,1.96499620890933,-298.833344173117,147.942924929877,150.890419243241
1.49514289736731,290.626881016428,302.48495061978,11.858069603352,-296.555915818104,139.384405706538,157.171510111566
1.49795860903843,287.937427535228,302.755490728683,14.8180631934549,-295.346459131956,136.559682170887,158.786776961069
1.50077432070956,296.602476256121,301.707394779767,5.10491852364578,-299.154935517944,145.748778866238,153.406156651707
1.50359003238068,302.21074595173,299.552394169142,-2.65835178258817,-300.881570060436,152.434548867159,148.447021193277
1.50640574405181,304.863185168979,302.112891869443,-2.75029329953554,-303.488038519211,153.806739234257,149.681299284954
1.50922145572293,305.227806430248,303.098303188056,-2.12950324219247,-304.163054809152,153.67865483622,150.484399972932
1.51203716739406,295.69208291218,303.310844650308,7.61876173812834,-299.501463781244,144.036660587026,155.464803194218
1.51485287906518,283.887277508108,297.595325817931,13.7080483098238,-290.741301663019,135.089614599142,155.651687063878
1.51766859073631,286.72720999595,295.929586412268,9.20237641631832,-291.328398204109,138.762416789816,152.565981414293
1.52048430240743,295.906482522912,294.41683875194,-1.48964377097195,-295.161660637426,148.698063146942,146.463597490484
1.52330001407856,299.792779384981,296.109412109543,-3.68336727543817,-297.951095747262,151.73807333021,146.213022417052
1.52611572574968,307.556357188253,306.331126195935,-1.22523099231819,-306.943741692094,154.390794090286,152.552947601808
1.52893143742081,303.545688957398,308.001242738477,4.45555378107889,-305.773465847937,149.54506758816,156.228398259778
1.53174714909193,290.736642998645,303.403940927463,12.667297928818,-297.070291963054,139.034672534913,158.035619428141
1.53456286076306,290.94095093882,305.237060008512,14.2961090696917,-298.089005473666,138.322420934564,159.766584539102
1.53737857243418,296.802923707557,303.400666740211,6.59774303265414,-300.101795223884,145.102590337452,154.999204886433
1.54019428410531,304.861056226386,298.141667287745,-6.71938893864103,-301.501361757065,155.790222582513,145.711139174552
1.54300999577643,309.827577636308,303.552129337086,-6.27544829922215,-306.689853486697,158.051512967765,148.638340518932
1.54582570744756,306.264958242951,304.727526452888,-1.53743179006284,-305.49624234792,153.901195016507,151.595047331413
1.54864141911868,290.609084198997,302.353237067831,11.7441528688337,-296.481160633414,139.432465665082,157.048694968332
1.55145713078981,288.160062064389,302.462685794628,14.3026237302397,-295.311373929508,136.928719167074,158.382654762434
1.55427284246093,294.716771777008,302.221306237868,7.50453446085987,-298.469039007438,143.606118658074,154.862920349364
1.55708855413206,298.992662194294,297.187102702162,-1.80555949213135,-298.089882448228,150.399110843212,147.690771605015
1.55990426580318,303.998178052828,299.753615331293,-4.24456272153526,-301.87589669206,154.121370387182,147.754526304879
1.56271997747431,301.876192731571,297.463191516973,-4.41300121459841,-299.669692124272,153.144596973085,146.525095151187
1.56553568914543,291.53443732742,298.381232576431,6.84679524901156,-294.957834951926,142.343821039204,152.614013912721
1.56835140081656,288.383186687841,302.61976572823,14.2365790403891,-295.501476208035,137.073303823726,158.42817238431
1.57116711248768,293.615583748193,304.927398917491,11.3118151692977,-299.271491332842,141.151884289448,158.119607043394
1.57398282415881,304.14230840263,310.217912686899,6.0756042842695,-307.180110544765,149.03335205918,158.146758485584
1.57679853582993,317.151733944912,316.039237561254,-1.11249638365757,-316.595485753083,159.132115164285,157.463370588798
1.57961424750106,319.420525840948,317.250606780594,-2.16991906035412,-318.335566310771,160.795222450651,157.54034386012
1.58242995917218,310.429545643028,312.379116834079,1.94957119105175,-311.404331238554,154.239987225988,157.164344012566
1.58524567084331,301.811769261388,316.915724939753,15.1039556783647,-309.363747100571,143.353906791512,166.009840309059
1.58806138251443,299.735734639442,311.792233976222,12.05649933678,-305.763984307832,143.839617651331,161.924366656501
1.59087709418556,305.361236391529,309.343613935864,3.98237754433484,-307.352425163696,150.689429423597,156.662995740099
1.59369280585668,315.125957560305,309.175597944524,-5.950359615781,-312.150777752414,160.538158588043,151.612619164371
1.59650851752781,314.865021336606,311.974307398533,-2.89071393807239,-313.41966436757,158.877867637339,154.54179673023
1.59932422919893,313.457321022423,313.492829690099,0.0355086676756855,-313.475075356261,156.710906177374,156.764169178887
1.60213994087005,307.125187296576,321.023517026569,13.8983297299928,-314.074352161573,146.613428783292,167.460923378281
1.60495565254118,301.693911795368,316.463339726427,14.7694279310591,-309.078625760897,143.462241932154,165.616383828743
1.6077713642123,306.546080482975,317.465677099546,10.9195966165709,-312.00587879126,147.813241933202,164.192636858058
1.61058707588343,319.105382225404,320.409804007689,1.30442178228481,-319.757593116547,158.90048022156,160.857112894987
1.61340278755455,322.38333093724,320.75617820303,-1.62715273421009,-321.569754570135,162.005241835725,159.56451273441
1.61621849922568,322.557379262912,323.626468612124,1.06908934921194,-323.091923937518,160.74414495685,162.347778980668
1.6190342108968,320.472001810526,326.153466984573,5.68146517404716,-323.31273439755,157.395268318239,165.91746607931
1.62184992256793,309.629953678984,321.209523550361,11.5795698713774,-315.419738614672,149.025191903803,166.394546710869
1.62466563423905,308.724366026304,318.65387381294,9.92950778663692,-313.689119919622,149.397429119833,164.291690799789
1.62748134591018,317.077015061997,320.538358091837,3.4613430298395,-318.807686576917,156.807836016079,161.999850560838
1.6302970575813,320.025990767781,318.522553824058,-1.5034369437231,-319.274272295919,160.764713855752,158.509558440167
1.63311276925243,322.760344934849,319.806774694868,-2.95357023998122,-321.283559814858,162.856957587415,158.426602227443
1.63592848092355,321.616125081376,320.150336581774,-1.46578849960173,-320.883230831575,161.540956790489,159.342274041086
1.63874419259468,306.433083085636,313.943092265199,7.51000917956253,-310.188087675417,149.461536953037,160.726550722381
1.6415599042658,297.909551567524,309.884752836102,11.9752012685779,-303.897152201813,142.967175149473,160.92997705234
1.64437561593693,303.019108566049,306.548780701079,3.52967213502995,-304.783944633564,149.74471821551,155.039226418055
1.64719132760805,303.811431296138,299.326681958649,-4.48474933748975,-301.569056627393,154.148090316814,147.420966310579
1.65000703927918,308.007602702888,300.005930516777,-8.00167218611068,-304.006766609833,158.004637444499,146.002129165333
1.6528227509503,308.497856526341,305.947076039512,-2.55078048682896,-307.222466282926,155.524318506585,151.698147776341
1.65563846262143,300.135391154385,304.618938196403,4.48354704201796,-302.377164675394,147.825922056183,154.55124261921
1.65845417429255,293.108922849657,308.138328940559,15.0294060909022,-300.623625895108,139.039758379377,161.583867515731
1.66126988596368,296.019800703648,309.591198745782,13.5713980421343,-302.805499724715,141.224201330757,161.581298393958
1.6640855976348,301.678250706873,304.106009891151,2.42775918427839,-302.892130299012,149.625245761297,153.266884537715
1.66690130930593,305.254685248946,300.210741365597,-5.0439438833489,-302.732713307271,155.149314566147,147.583398741124
1.66971702097705,308.385231256049,302.935276392213,-5.44995486383573,-305.660253824131,156.917593059942,148.742660764189
1.67253273264818,300.838435107383,301.483101396125,0.644666288741632,-301.160768251754,150.096884409321,151.063883842433
1.6753484443193,291.342305110455,305.401036857589,14.0587317471341,-298.371670984022,138.64178668166,159.729884302362
1.67816415599043,292.07424766898,306.473880866414,14.3996331974342,-299.274064267697,138.837307235773,160.436757031924
1.68097986766155,296.625615837419,303.855224497639,7.22960866022066,-300.240420167529,144.698003588599,155.54241657893
1.68379557933268,305.482469273976,300.440841935409,-5.04162733856748,-302.961655604692,155.262048306272,147.699607298421
1.6866112910038,309.127771652211,305.909285912643,-3.21848573956856,-307.518528782427,156.17312869589,151.345400086537
1.68942700267493,304.501880868136,298.351662231866,-6.1502186362701,-301.426771550001,155.326049752203,146.100721797798
1.69224271434605,292.634016825949,300.66740891945,8.03339209350025,-296.650712872699,142.300312366225,154.350400506475
1.69505842601718,287.214119361923,298.345956688431,11.1318373265082,-292.780038025177,138.041141017707,154.73889700747
1.6978741376883,285.685091997756,292.707409896811,7.02231789905483,-289.196250947284,139.331387049351,149.864863897933
1.70068984935943,296.64044661105,293.645429271528,-2.99501733952224,-295.142937941289,149.817731975286,145.325205966003
1.70350556103055,301.67441909339,293.700660808363,-7.97375828502658,-297.687539950877,154.824088689208,142.863451261668
1.70632127270168,299.177511827692,294.249290991176,-4.92822083651544,-296.713401409434,152.052866332104,144.66053507733
1.7091369843728,292.970740409122,296.929492379233,3.95875197011037,-294.950116394178,144.505994219506,150.444122174672
1.71195269604393,282.329070291547,295.182190771008,12.8531204794615,-288.755630531278,134.737974906043,154.017655625235
1.71476840771505,278.748148852052,288.567154850281,9.81900599822893,-283.657651851167,134.464571426912,149.193080424255
1.71758411938617,285.750144576656,290.865508231155,5.11536365449911,-288.307826403906,140.317390461079,147.990435942827
1.7203998310573,292.227390827376,289.546034789142,-2.68135603823424,-290.886712808259,147.454373432805,143.432339375454
1.72321554272842,292.978476790683,289.196196725099,-3.78228006558402,-291.087336757891,148.380378428134,142.706958329758
1.72603125439955,295.313412724329,294.172036422324,-1.14137630200514,-294.742724573326,148.227394513167,146.515330060159
1.72884696607067,292.328562982484,305.962592220242,13.6340292377581,-299.145577601363,139.347266872363,159.798310729
1.7316626777418,300.672220304273,323.375365916603,22.7031456123307,-312.023793110438,138.984537345971,173.039255764467
1.73447838941292,324.973796014427,344.240613176107,19.2668171616797,-334.607204595267,152.853489426374,181.753715168893
1.73729410108405,354.964880110359,371.520309533097,16.5554294227387,-363.242594821728,169.20472534381,194.037869477918
1.74010981275517,385.576090227859,403.793207812977,18.2171175851181,-394.684649020418,183.679486321371,211.005162699048
1.7429255244263,419.150690224173,442.017638563538,22.8669483393645,-430.584164393855,198.141870942404,232.442293451451
1.74574123609742,435.789436552261,471.394016570722,35.6045800184617,-453.591726561491,200.092428266899,253.499298294592
1.74855694776855,435.190430738388,470.801476226792,35.6110454884041,-452.99595348259,199.789692624992,253.206260857598
1.75137265943967,436.888041179171,459.350976243759,22.4629350645885,-448.119508711465,207.212553057291,240.906955654174
1.7541883711108,425.655293522819,425.479948160406,-0.175345362412941,-425.567620841613,212.915319442616,212.652301398997
1.75700408278192,399.750438823,387.147462071632,-12.6029767513688,-393.448950447316,206.176707787185,187.272242660131
1.75981979445305,377.403213362282,355.93177384,-21.4714395222821,-366.667493601141,199.437326442282,167.230167158859
1.76263550612417,343.512261109698,323.74041137015,-19.7718497395479,-333.626336239924,181.642055424623,151.984280815301
1.7654512177953,308.595209279155,301.340684234302,-7.25452504485372,-304.967946756729,157.924867162005,147.043079594724
1.76826692946642,294.293649362025,288.601895023084,-5.69175433894105,-291.447772192555,149.992701850483,141.455070342071
1.77108264113755,297.607787908774,289.180846945134,-8.42694096364005,-293.394317426954,153.017364436207,140.376952990747
1.77389835280867,303.050841643823,293.316931973386,-9.73390967043736,-298.183886808604,156.39237565713,141.791511151474
1.7767140644798,310.152791036882,302.732028565633,-7.42076247124987,-306.442409801258,158.786776754066,147.655633047191
1.77952977615092,310.691645350527,306.043677197628,-4.64796815289935,-308.367661274077,157.669806751713,150.697854522364
1.78234548782205,302.501426683684,307.280184294851,4.77875761116667,-304.890805489268,148.861334536259,156.029470953009
1.78516119949317,296.571093360089,311.968763398027,15.3976700379383,-304.269928379058,140.586711661075,163.683216717983
1.7879769111643,301.575780845047,310.094804017467,8.51902317241974,-305.835292431257,146.528378836314,159.306913594943
1.79079262283542,303.229262765372,302.372836605931,-0.856426159441014,-302.801049685652,152.042844462407,150.758205223245
1.79360833450655,310.247743316392,304.949337033642,-5.29840628274968,-307.598540175017,157.773074799571,149.825465375446
1.79642404617767,309.257718854976,303.856801269911,-5.4009175850648,-306.557260062443,157.32931822002,149.227941842423
1.7992397578488,297.51188245554,300.410565868416,2.89868341287598,-298.961224161978,147.306599521332,151.654624640646
1.80205546951992,289.796468236051,305.052947557255,15.256479321204,-297.424707896653,137.269994457424,160.15471343923
1.80487118119105,288.521230246264,298.771966066347,10.2507358200826,-293.646598156305,139.135247213091,154.511350943215
1.80768689286217,295.458559154291,297.497392062905,2.03883290861341,-296.477975608598,146.709863122839,149.768112485759
1.8105026045333,305.15740713241,301.043572793653,-4.11383433875636,-303.100489963031,154.635620735583,148.464869227448
1.81331831620442,308.695781970592,305.575732151049,-3.12004981954249,-307.13575706082,155.907915895067,151.227841165753
1.81613402787555,307.559014916495,307.539813425746,-0.0192014907482871,-307.54941417112,153.789108203621,153.760305967499
1.81894973954667,299.141740260346,311.214712979845,12.0729727194998,-305.178226620095,143.534383770423,161.643842849673
1.8217654512178,296.522041844467,312.526438822197,16.0043969777297,-304.524240333332,140.258822433369,164.265417899963
1.82458116288892,304.649663297818,311.626771798628,6.97710850081046,-308.138217548223,148.836277398504,159.301940149719
1.82739687456005,314.126542434086,314.249523231716,0.122980797630305,-314.188032832901,157.001780818228,157.186252014673
1.83021258623117,314.221018885185,312.364665675331,-1.85635320985375,-313.292842280258,158.038686047519,155.254156232739
1.83302829790229,312.694589831008,312.714408677025,0.019818846017813,-312.704499254016,156.337385492495,156.367113761522
1.83584400957342,306.450759146943,314.310632852663,7.85987370572019,-310.380695999803,149.295442720612,161.085253279192
1.83865972124454,297.483796970055,312.26956495847,14.7857679884147,-304.876680964262,141.34901449082,163.527666473442
1.84147543291567,300.844341545789,312.817659454445,11.973317908656,-306.831000500117,144.435511818567,162.395488681551
1.84429114458679,311.987037152409,315.303808680516,3.31677152810664,-313.645422916462,154.335132812151,159.310290104311
1.84710685625792,315.796375496075,313.107987348919,-2.68838814715588,-314.452181422497,159.242381821615,155.209799600882
1.84992256792904,317.911547995255,313.922498277583,-3.98904971767246,-315.917023136419,160.950298856464,154.966724279955
1.85273827960017,314.681313475841,316.358231229563,1.67691775372185,-315.519772352702,156.502197861059,159.017574491642
1.85555399127129,302.365431500085,317.026928762284,14.6614972621982,-309.696180131184,143.851967118944,165.844213012241
1.85836970294242,301.03013083337,318.037229516373,17.0070986830036,-309.533680174871,142.011516075183,167.522164099688
1.86118541461354,312.896926940748,319.350336655073,6.45340971432557,-316.12363179791,153.221758613211,162.901873184699
1.86400112628467,318.496778676454,320.883925355812,2.38714667935847,-319.690352016133,158.054815998548,161.635536017585
1.86681683795579,324.18585227468,320.161040617814,-4.02481165686515,-322.173446446247,164.105331965772,158.068114480475
1.86963254962692,322.788800051279,320.396515329584,-2.39228472169492,-321.592657690432,162.590542386487,159.002115303945
1.87244826129804,307.162751908288,320.822554402582,13.6598024942931,-313.992653155435,146.751474706998,167.241178448437
1.87526397296917,304.230628190187,322.282962935183,18.0523347449956,-313.256795562685,143.089146722596,170.167648840089
1.87807968464029,312.851918566207,323.318620688353,10.4667021221452,-318.08526962728,151.192608222031,166.892661405249
1.88089539631142,320.323880365865,320.652096928877,0.328216563011779,-320.487988647371,159.997831901427,160.490156745944
1.88371110798254,328.482178159337,326.42395307622,-2.05822508311792,-327.453065617778,165.270201621228,162.182863996551
1.88652681965367,334.735848894956,332.355656970446,-2.38019192451031,-333.545752932701,168.558020409733,164.987732522968
1.88934253132479,324.851182577427,329.555326838963,4.70414426153548,-327.203254708195,160.073519157946,167.129735550249
1.89215824299592,316.495574239945,330.57318885319,14.0776146132452,-323.534381546567,151.20897981335,172.325401733217
1.89497395466704,317.996766332148,330.371483975324,12.3747176431764,-324.184125153736,152.811024344486,171.37310080925
1.89778966633817,322.327814484936,326.53355234582,4.20573786088386,-324.430683415378,159.061038312026,165.369645103352
1.90060537800929,332.74522322885,330.689375763707,-2.0558474651429,-331.717299496279,167.400535346997,164.316764149282
1.90342108968042,340.441321207388,338.208632848829,-2.23268835855902,-339.324977028109,171.337004782974,167.987972245135
1.90623680135154,334.481407811497,336.324545017039,1.84313720554212,-335.402976414268,166.319135302977,169.08384111129
1.90905251302267,326.83200919728,339.89463489768,13.0626257004007,-333.36332204748,156.88469174844,176.478630299041
1.91186822469379,325.168362924758,340.361605164916,15.1932422401586,-332.764984044837,154.9875603423,177.777423702537
1.91468393636492,330.368792799802,337.403606308855,7.03481350905292,-333.886199554328,161.666989645374,172.219209908954
1.91749964803604,340.980524475795,342.979477126093,1.99895265029875,-341.980000800944,169.490785912748,172.489214888196
1.92031535970717,345.080771619268,343.0713881464,-2.00938347286808,-344.076079882834,173.545077546068,170.531002336766
1.92313107137829,341.181207451805,341.187779523822,0.00657207201692245,-341.184493487814,170.587317689894,170.597175797919
1.92594678304942,335.21380717622,342.210276812942,6.9964696367224,-338.712041994581,164.108668769749,174.603373224832
1.92876249472054,329.27608287655,342.241933493775,12.9658506172242,-335.759008185163,158.155116129663,177.603892055499
1.93157820639167,328.415152061215,341.315180115885,12.90002805467,-334.86516608855,157.757562003272,177.107604085277
1.93439391806279,341.156009440264,341.250198567745,0.0941891274812861,-341.203104004004,170.530910156391,170.672193847613
1.93720962973392,350.631921285229,347.872076556714,-2.75984472851542,-349.251998920971,176.695883006872,172.556115914099
1.94002534140504,348.930666679804,345.08671473875,-3.84395194105372,-347.008690709277,176.387309310429,170.621381398848
1.94284105307617,346.656872353436,348.532063141066,1.87519078763023,-347.594467747251,172.390840782903,175.203626964348
1.94565676474729,338.377093758558,355.078392516371,16.7012987578135,-346.727743137464,160.837897500372,185.889845637092
1.94847247641841,334.458759124943,350.204990792502,15.7462316675587,-342.331874958722,159.356263728692,182.97561123003
1.95128818808954,346.314066883221,356.571609721348,10.2575428381263,-351.442838302285,168.028262022548,183.414576279737
1.95410389976066,360.198404224057,359.702138793433,-0.49626543062368,-359.950271508745,180.34733482734,179.602936681405
1.95691961143179,362.779458664822,364.037991336624,1.25853267180196,-363.408725000723,180.76046299651,182.648262004213
1.95973532310291,366.14086579657,365.887498574363,-0.253367222206577,-366.014182185466,183.197116509388,182.817065676078
1.96255103477404,355.39867925002,363.897607192083,8.49892794206306,-359.648143221052,173.449875653978,186.198267567073
1.96536674644516,342.456741437179,361.18085935921,18.7241179220316,-351.818800398194,161.866311757574,189.952488640621
1.96818245811629,350.496012891443,361.860686826391,11.364673934948,-356.178349858917,169.565669478247,186.612680380669
1.97099816978741,356.868756339319,359.480376938416,2.61162059909788,-358.174566638867,177.12856787011,181.045998768757
1.97381388145854,358.836246484402,357.089953621948,-1.74629286245374,-357.963100053175,180.291269673428,177.671830379747
1.97662959312966,363.445744092711,360.103183591992,-3.34256050071912,-361.774463842351,183.394152296715,178.380311545636
1.97944530480079,353.13616397452,357.564312100487,4.42814812596737,-355.350238037504,174.354007924276,180.996230113227
1.98226101647191,340.463536092228,352.220039864987,11.7565037727588,-346.341787978607,164.353516159735,181.988271818873
1.98507672814304,342.651393569674,355.057850977512,12.4064574078375,-348.854622273593,165.122468080918,183.732154192675
1.98789243981416,351.603001706523,352.186067201207,0.583065494684035,-351.894534453866,175.50996810592,176.384566347946
1.99070815148529,352.986064792807,351.192439051107,-1.79362574169977,-352.089251921957,177.389845267253,174.699406654704
1.99352386315641,359.651998349357,356.271792533939,-3.38020581541849,-357.961895441648,181.516102082388,176.44579335926
1.99633957482754,353.765901856644,353.207920273026,-0.55798158361813,-353.486911064835,177.161941720131,176.324969344704
1.99915528649866,338.475607354304,344.299391154272,5.82378379996726,-341.387499254288,166.325911777168,175.061587477119
2.00197099816979,330.850068759487,345.243173703576,14.3931049440898,-338.046621231531,158.228481907698,179.818139323833
2.00478670984091,332.482801280845,334.953328034481,2.47052675363568,-333.718064657663,165.006137263605,168.711927394058
2.00760242151204,335.255032799145,330.380090698964,-4.87494210018087,-332.817561749054,170.064987449663,162.752574299392
2.01041813318316,335.582542823699,327.247959600349,-8.33458322335042,-331.415251212024,171.958563023525,159.456688188499
2.01323384485429,328.227490796025,323.829287228069,-4.39820356795599,-326.028389012047,166.31284718199,159.715541830056
2.01604955652541,314.566226491365,318.480545452564,3.9143189611986,-316.523385971964,155.325953765083,161.197432206881
2.01886526819654,308.921542985777,320.202148198958,11.2806052131814,-314.561845592368,148.820468886298,165.74137670607
2.02168097986766,309.312779034315,319.595220949594,10.2824419152793,-314.453999991955,149.515168559518,164.938831432437
2.02449669153879,316.508287969487,316.545987353311,0.0376993838239628,-316.527137661399,158.235294292832,158.291843368567
2.02731240320991,322.452560441953,316.299611736253,-6.15294870570034,-319.376086089103,164.302754573827,155.073331515276
2.03012811488104,317.68798574515,309.545193341981,-8.14279240316927,-313.616589543566,162.91538907416,150.701200469406
2.03294382655216,307.673036043552,307.661831781129,-0.011204262422666,-307.66743391234,153.842120152987,153.825313759353
2.03575953822329,297.127349784965,306.1880129606,9.0606631756342,-301.657681372782,144.033343304666,157.624338068117
2.03857524989441,292.303761014619,303.308142809678,11.0043817950592,-297.805951912149,140.64968960978,157.156262302369
2.04139096156554,298.755602532708,302.745605290146,3.99000275743742,-300.750603911427,147.382799887635,153.367804023792
2.04420667323666,310.179876436506,307.262062181999,-2.91781425450648,-308.720969309253,156.548845345506,152.172123963746
2.04702238490779,310.116211646411,303.228284190438,-6.88792745597232,-306.672247918424,158.502069551191,148.170178367233
2.04983809657891,305.837389559747,301.848761655749,-3.98862790399812,-303.843075607748,154.913008731872,148.930066875875
2.05265380825004,296.400903941864,301.241931447679,4.8410275058153,-298.821417694771,145.779938218024,153.041479476747
2.05546951992116,286.315245820113,301.112775744551,14.797529924438,-293.714010782332,135.758857947837,157.955152834494
2.05828523159229,290.960702769956,296.954173166192,5.99347039623592,-293.957437968074,142.48361618686,151.473821781214
2.06110094326341,298.918250361928,299.230349597892,0.312099235963899,-299.07429997991,149.303075562982,149.771224416928
2.06391665493453,296.687527456791,290.996092472744,-5.69143498404691,-293.841809964768,151.189481220419,142.652328744349
2.06673236660566,299.072235457174,295.062144029084,-4.01009142809079,-297.067189743129,151.541163442633,145.526026300496
2.06954807827678,298.51547019267,306.155776803218,7.64030661054778,-302.335623497944,145.437581791061,156.898041706883
2.07236378994791,286.168574147159,300.77122938599,14.6026552388307,-293.469901766574,135.782959454164,157.68694231241
2.07517950161903,288.148579151284,301.188912343921,13.0403331926369,-294.668745747603,137.554122979324,157.114622768279
2.07799521329016,296.810338361387,302.341617125631,5.53127876424418,-299.575977743509,145.639529798571,153.936447944937
2.08081092496128,301.445799006337,298.883424877973,-2.56237412836401,-300.164611942155,152.004086567351,148.160525374805
2.08362663663241,305.345884890737,302.284254548522,-3.06163034221464,-303.815069719629,154.203757616476,149.611312103154
2.08644234830353,303.578112267493,305.06652603148,1.4884137639869,-304.322319149487,151.044849251753,153.277469897734
2.08925805997466,289.999935536828,302.551517886011,12.5515823491826,-296.275726711419,138.724176593823,157.551550117597
2.09207377164578,286.349486313879,301.451573795423,15.1020874815441,-293.900530054651,135.623699416167,158.276830638483
2.09488948331691,297.732586300089,307.336907024978,9.60432072488896,-302.534746662533,144.0641327876,158.470613874933
2.09770519498803,306.282625280832,306.704831593522,0.422206312689696,-306.493728437177,152.930209484071,153.563518953106
2.10052090665916,310.63877577224,307.531175492083,-3.10760028015608,-309.084975632162,156.873188026198,152.211787605964
2.10333661833028,310.538144070509,308.019228827383,-2.51891524312617,-309.278686448946,156.528529656818,152.750156792128
2.10615233000141,297.78980914048,305.407775864573,7.61796672409309,-301.598792502526,145.085921208193,156.512871294333
2.10896804167253,291.585080900317,303.721890293868,12.1368093935507,-297.653485597092,139.724135753383,157.929349843709
2.11178375334366,296.713194304448,304.241804374385,7.52861006993646,-300.477499339417,144.592292117256,155.885207222161
2.11459946501478,300.239565859495,304.574043326542,4.33447746704724,-302.406804593018,147.952544196224,154.454260396795
2.11741517668591,306.88884011916,303.764800133541,-3.12403998561888,-305.326820126351,155.00644005239,150.320380073961
2.12023088835703,311.277514784138,305.851966674928,-5.42554810920979,-308.564740729533,158.351531446674,150.213209282859
2.12304660002816,300.533015170445,303.275172762211,2.74215759176616,-301.904093966328,148.895428789339,153.008665176989
2.12586231169928,291.866750065527,303.995246171074,12.1284961055473,-297.9309981183,139.86912697999,158.061871138311
2.12867802337041,289.751450184867,303.10888101375,13.3574308288828,-296.430165599309,138.197009677992,158.233155921316
2.13149373504153,297.3179951527,302.466470728189,5.14847557548893,-299.892232940445,146.084759788606,153.807473151839
2.13430944671266,305.067511717899,304.99579563552,-0.0717160823783161,-305.031653676709,152.569613900138,152.462039776571
2.13712515838378,311.851396420313,307.654282067457,-4.19711435285546,-309.752839243885,158.024255386584,151.728583857301
2.13994087005491,308.262659865546,308.167238571683,-0.0954212938630121,-308.214949218614,154.179040579704,154.03590863891
2.14275658172603,299.232003811423,307.294700669414,8.06269685799089,-303.263352240419,145.584653476716,157.678698763702
2.14557229339716,291.880107534094,305.004267790508,13.1241602564135,-298.442187662301,139.37797363884,159.064214023461
2.14838800506828,292.420202186939,301.41686607662,8.9966638896812,-296.91853413178,141.711769148629,155.206764983151
2.15120371673941,302.177087637413,298.202168199425,-3.97491943798786,-300.189627918419,153.0760035377,147.113624380719
2.15401942841053,305.358346552259,301.432869175106,-3.92547737715284,-303.395607863682,154.641911964706,148.753695898977
2.15683514008166,305.096260543612,298.157189242758,-6.9390713008537,-301.626724893185,156.017665922233,145.609058970952
2.15965085175278,302.582749221764,308.510807306757,5.92805808499332,-305.546778264261,148.327345568385,157.219432695875
2.16246656342391,294.87945296012,308.700245404913,13.8207924447923,-301.789849182517,140.529330257664,161.260518924853
2.16528227509503,294.467091332963,304.308848258278,9.84175692531545,-299.387969795621,142.312667203824,157.075302591797
2.16809798676616,301.303464925124,306.491759665311,5.18829474018759,-303.897612295218,148.057585092468,155.84002720275
2.17091369843728,306.988451130515,304.328121259719,-2.66032987079547,-305.658286195117,154.824390500655,150.833895694462
2.17372941010841,308.041540551602,302.210419635172,-5.83112091643073,-305.125980093387,156.936330734017,148.18964935937
2.17654512177953,307.925010357773,307.708655873093,-0.216354484680892,-307.816833115433,154.070682421227,153.746150694206
2.17936083345065,295.80054840212,307.409496192422,11.6089477903018,-301.605022297271,142.095800305909,159.509221991362
2.18217654512178,289.51647047739,303.301938225059,13.7854677476688,-296.409204351224,137.865501364861,158.543702986364
2.1849922567929,297.38606551093,303.717479175886,6.33141366495624,-300.551772343408,145.527325922987,155.024446420421
2.18780796846403,302.622458532268,301.147943005306,-1.47451552696202,-301.885200768787,152.048487029615,149.836713739172
2.19062368013515,306.088435932076,298.29674776454,-7.79168816753628,-302.192591848308,156.940062049806,145.252529798502
2.19343939180628,308.200967608262,304.845568029061,-3.35539957920059,-306.523267818661,155.778183593731,150.74508422493
2.1962551034774,298.621436580384,305.075655812821,6.45421923243794,-301.848546196603,146.083608673973,155.76493752263
2.19907081514853,288.551679243049,304.340118593788,15.7884393507381,-296.445898918418,136.381619946156,160.064278972263
2.20188652681965,294.499115899642,307.936888897896,13.4377729982535,-301.218002398769,140.530671450694,160.687330948075
2.20470223849078,304.366693513512,308.937800391215,4.57110687770222,-306.652246952363,149.897793317905,156.754453634458
2.2075179501619,309.211025430887,306.373860624884,-2.83716480600322,-307.792443027885,156.024095118445,151.76834790944
2.21033366183303,310.425761984583,308.051435933719,-2.37432605086377,-309.238598959151,156.400044017723,152.838554941428
2.21314937350415,304.375568626034,303.860890642862,-0.514677983172191,-304.118229634448,152.445123304603,151.673106329845
2.21596508517528,293.598683182427,304.461308016763,10.8626248343358,-299.029995599595,141.368029174046,157.661966425549
2.2187807968464,292.647031994138,310.043218333722,17.3961863395839,-301.34512516393,137.625422827277,163.719702336653
2.22159650851753,300.200854422023,305.61267084763,5.41181642560736,-302.906762634827,147.394518998208,155.512243636619
2.22441222018865,305.413377264689,301.496360390783,-3.91701687390531,-303.454868827736,154.665197069297,148.789671758439
2.22722793185978,309.487194548671,304.199648088811,-5.28754645986021,-306.843421318741,157.387370504266,149.456050814475
2.2300436435309,307.979888259838,308.651856269618,0.671968009779789,-308.315872264728,153.653960125029,154.661912139699
2.23285935520203,299.666386574242,308.603615492063,8.93722891782136,-304.135001033152,145.36457882821,158.770422204942
2.23567506687315,297.861506687269,313.146611706577,15.2851050193081,-305.504059196923,141.28820083398,164.215858362942
2.23849077854428,304.101081078511,316.334749561704,12.233668483192,-310.217915320108,145.93370629766,164.284209022448
2.2413064902154,312.631428478069,318.649983330771,6.01855485270187,-315.64070590442,153.306436812684,162.334269091736
2.24412220188653,326.513787147073,323.410770187052,-3.10301696002102,-324.962278667063,164.808402053547,160.153876613516
2.24693791355765,325.491069233021,324.395838233592,-1.09523099942953,-324.943453733307,163.293150116225,161.650303617081
2.24975362522878,316.773713988399,321.764985222533,4.99127123413348,-319.269349605466,155.891221377133,163.378128228333
2.2525693368999,308.252772061304,322.334145984071,14.0813739227663,-315.293459022687,147.085699069269,168.207759953418
2.25538504857103,306.173250275915,319.157740953014,12.9844906770987,-312.665495614464,146.594379799408,166.071115815056
2.25820076024215,314.872551226324,318.865872344542,3.99332111821769,-316.869211785433,155.439615054053,161.42959673138
2.26101647191328,323.295761457443,323.410773119484,0.11501166204107,-323.353267288464,161.590374897701,161.762892390763
2.2638321835844,325.971984823632,322.090060075281,-3.88192474835148,-324.031022449456,164.926954785992,159.104067663465
2.26664789525553,325.979554604818,327.980748677886,2.00119407306863,-326.980151641352,161.989180265875,164.990971375477
2.26946360692665,319.532513951302,332.385902203661,12.8533882523595,-325.959208077482,153.339562849471,172.619645228011
2.27227931859778,315.114170469947,331.874437371776,16.7602669018294,-323.494303920862,149.176951784059,174.317352136803
2.2750950302689,322.091726160333,330.106901480642,8.01517532030954,-326.099313820488,157.038275420012,169.061038400476
2.27791074194003,328.176503261151,328.551019066337,0.374515805186377,-328.363761163744,163.900993727982,164.462767435762
2.28072645361115,326.604613317543,321.951968731981,-4.65264458556157,-324.278291024762,165.628628951552,158.64966207321
2.28354216528228,326.251092723836,321.21521518206,-5.03587754177607,-323.733153952948,165.643485132806,158.089668820142
2.2863578769534,317.668107357942,322.25715614761,4.58904878966837,-319.962631752776,156.539529284137,163.423102468639
2.28917358862453,308.039850683089,317.641012787019,9.60116210393062,-312.840431735054,149.219344289579,163.621087445475
2.29198930029565,308.295804522997,320.365139519673,12.0693349966754,-314.330472021335,148.113234763161,166.217237258174
2.29480501196677,317.910793710082,318.42628701312,0.515493303038454,-318.168540361601,158.697650203522,159.470890158079
2.2976207236379,318.31292657937,312.744311441759,-5.56861513761049,-315.528619010564,161.94077085849,153.587848152074
2.30043643530902,319.551428158685,312.453881593016,-7.09754656566906,-316.002654875851,163.324487362177,152.678167513674
2.30325214698015,316.675950257494,318.126381526938,1.45043126944478,-317.401165892216,157.612759494024,159.788406398192
2.30606785865127,301.896596968292,315.446046939649,13.5494499713569,-308.671321953971,144.173573498468,164.497748455503
2.3088835703224,300.497022424163,312.641133501892,12.1441110777287,-306.569077963028,144.176455673217,162.39262228981
2.31169928199352,307.713304516435,312.357523371153,4.64421885471847,-310.035413943794,151.534542830858,158.500871112936
2.31451499366465,309.17082176819,307.627906114956,-1.54291565323456,-308.399363941573,155.356868710712,153.042495230861
2.31733070533577,312.838644686714,307.679707834744,-5.15893685196943,-310.259176260729,158.998790769342,151.260385491388
2.3201464170069,314.523282318384,311.915456234618,-2.6078260837661,-313.219369276501,158.565554201075,154.653815075426
2.32296212867802,299.701171775728,307.281750897321,7.58057912159256,-303.491461336525,146.060296327068,157.431165009457
2.32577784034915,293.72628303827,308.915977804527,15.1896947662571,-301.321130421398,139.268294136006,162.052836285392
2.32859355202027,297.624910004641,306.223026031616,8.59811602697505,-301.923968018128,144.513396988833,157.410571029295
2.3314092636914,302.175083686588,300.525606604317,-1.64947708227066,-301.350345145452,151.912280384429,149.438064761023
2.33422497536252,307.071374928571,301.893484046923,-5.17789088164818,-304.482429487747,156.12463290511,148.357796582637
2.33704068703365,311.201809235504,303.687384056904,-7.51442517859965,-307.444596646204,159.358117207052,148.086479439152
2.33985639870477,298.476364608603,304.193675854663,5.71731124605964,-301.335020231633,146.379526681272,154.955493550361
2.3426721103759,290.003798561317,304.182995147911,14.1791965865935,-297.093396854614,137.912300987362,159.181095867252
2.34548782204702,290.625739177096,305.053887092061,14.4281479149647,-297.839813134579,138.098795631066,159.741017503513
2.34830353371815,296.258723359455,301.431057880792,5.17233452133746,-298.844890620123,145.543194419059,153.301696201065
2.35111924538927,305.232781597205,302.127171979387,-3.10560961781835,-303.679976788296,154.169195607512,149.510781180784
2.3539349570604,305.753440146784,301.50921730459,-4.2442228421931,-303.631328725687,154.998831494488,148.632497231199
2.35675066873152,301.277583248681,300.163591666995,-1.11399158168581,-300.720587457838,151.195787415183,149.524800042655
2.35956638040265,292.335234792793,305.423376008567,13.0881412157737,-298.87930540068,139.62354678851,159.25575861217
2.36238209207377,289.666380621179,306.804189898669,17.1378092774898,-298.235285259924,136.264285671844,161.970999588079
2.3651978037449,292.355390919966,302.33789845742,9.98250753745407,-297.346644688693,141.186441691256,156.160202997437
2.36801351541602,302.343506909141,300.385204089804,-1.95830281933644,-301.364355499472,152.150904864239,149.213450635234
2.37082922708715,304.293177130643,298.388457723232,-5.90471940741082,-301.340817426938,155.098948269027,146.241869157911
2.37364493875827,299.144520444689,292.219973706759,-6.9245467379302,-295.682247075724,153.03453359131,142.647713484414
2.3764606504294,289.680820961982,294.58235548796,4.90153452597764,-292.131588224971,142.389643218002,149.741945006969
2.37927636210052,278.695127639015,291.481480501629,12.7863528626141,-285.088304070322,132.9543873882,152.133916682122
2.38209207377165,280.509259637377,290.355187378126,9.84592774074906,-285.432223507751,135.331665948314,150.100557559438
2.38490778544277,290.316189401661,293.532080350798,3.21589094913747,-291.92413487623,143.550149226262,148.373985649968
2.3877234971139,298.726875055365,296.093577154173,-2.63329790119241,-297.410226104769,150.680086478279,146.73013962649
2.39053920878502,305.073343973981,303.23591521526,-1.83742875872031,-304.154629594621,153.45538636635,150.69924322827
2.39335492045615,316.083317334788,324.844493418963,8.76117608417462,-320.463905376876,153.661070625307,166.802834751569
2.39617063212727,324.613432613541,350.163201293462,25.5497686799216,-337.388316953501,149.531831966809,187.856484986692
2.3989863437984,345.405825634535,377.142057448038,31.7362318135028,-361.273941541286,156.834796910516,204.43914463077
2.40180205546952,381.810368131724,407.329136532906,25.5187684011817,-394.569752332315,178.145799865271,216.423952467044
2.40461776714064,413.47554744933,436.131293777049,22.655746327719,-424.803420613189,195.409900560805,229.393520052384
2.40743347881177,436.80449779435,453.9515994835,17.1471016891497,-445.378048638925,209.8286980526,235.549350586325
2.41024919048289,451.335921153442,466.081407546377,14.7454863929345,-458.70866434991,218.295217380254,240.413446969656
2.41306490215402,435.015848954359,453.544273698905,18.5284247445466,-444.280061326632,208.243712104906,236.036349221726
2.41588061382514,408.360645992338,423.166871382015,14.8062253896771,-415.763758687177,196.777210301331,218.986548385846
2.41869632549627,389.342506005454,389.832081386127,0.489575380672306,-389.58729369579,194.426465312391,195.160828383399
2.42151203716739,367.66281990008,353.343338820398,-14.3194810796821,-360.503079360239,190.991150489881,169.511928870358
2.42432774883852,344.279955402236,320.491056766696,-23.7888986355405,-332.385506084466,184.034427018888,148.351079065578
2.42714346050964,327.700238817171,302.048427020055,-25.6518117971162,-314.874332918613,176.676025307144,138.198307611469
2.42995917218077,304.305392871653,290.620970939389,-13.6844219322644,-297.463181905521,158.994907401959,138.468274503562
2.43277488385189,287.677682896547,288.555354020792,0.877671124245012,-288.11651845867,143.400005886151,144.716512572519
2.43559059552302,288.611759956833,292.053286214116,3.4415262572827,-290.332523085475,142.585116849775,147.747406235699
2.43840630719414,296.974940667621,293.503816216491,-3.47112445113004,-295.239378442056,150.223032559376,145.016345882681
2.44122201886527,305.528717433506,299.627827428998,-5.90089000450786,-302.578272431252,155.714803719007,146.863468712245
2.44403773053639,314.599203090203,310.128483780037,-4.47071931016603,-312.36384343512,159.534961200184,152.828882234935
2.44685344220752,309.817703310519,312.290242549855,2.47253923933539,-311.053972930187,153.672582035592,157.381390894595
2.44966915387864,299.752469535279,309.678830209514,9.92636067423484,-304.715649872397,144.913054430522,159.802595441875
2.45248486554977,294.903468578374,307.390315588142,12.486847009768,-301.146892083258,141.208310784303,159.938581298955
2.45530057722089,299.987950038772,307.446316336974,7.45836629820144,-303.717133187873,146.264791870286,157.452341317588
2.45811628889202,305.775792961981,304.811413495182,-0.964379466799244,-305.293603228582,153.37008621439,151.923517014191
2.46093200056314,310.485216755806,306.122695479913,-4.36252127589268,-308.30395611786,157.423869015849,150.88008710201
2.46374771223427,309.370009493319,305.013108379109,-4.35690111421002,-307.191558936214,156.863455303765,150.32810363245
2.46656342390539,299.908844172778,307.894775760879,7.98593158810189,-303.901809966829,145.961456292338,157.940353674491
2.46937913557652,292.098922723378,306.41013790367,14.3112151802917,-299.254530313524,138.893853771543,160.360676541981
2.47219484724764,291.97072872464,304.181992393555,12.2112636689145,-298.076360559097,139.879732527863,158.196628031235
2.47501055891877,300.010258316726,299.009716408198,-1.00054190852859,-299.509987362462,150.505400112627,149.004587249835
2.47782627058989,307.24454274025,301.125454768343,-6.11908797190648,-304.184998754297,156.681815356078,147.503183398218
2.48064198226102,305.895264282798,298.825153021968,-7.07011126082955,-302.360208652383,156.482687771814,145.877520880569
2.48345769393214,301.127531945929,303.128586851227,2.00105490529859,-302.128059398578,149.563238520315,152.564820878263
2.48627340560327,295.309129912157,307.328435761407,12.0193058492506,-301.318782836782,141.644912031453,159.673870805329
2.48908911727439,293.948092707928,308.87707035576,14.928977647832,-301.412581531844,139.509557530048,161.903024001796
2.49190482894552,305.223303297454,308.24206919382,3.01876589636584,-306.732686245637,151.102268700544,155.630417545093
2.49472054061664,314.024534612452,312.213204661463,-1.81132995098949,-313.118869636958,157.917932281721,155.200937355237
2.49753625228777,312.478455225456,306.657158810741,-5.82129641471579,-309.567807018098,159.149875820086,150.417931198012
2.50035196395889,311.417250007764,307.381562633432,-4.03568737433193,-309.399406320598,157.726468691048,151.67293762955
2.50316767563002,302.54969922516,311.303819837291,8.75412061213081,-306.926759531225,146.897789306515,160.028970224711
2.50598338730114,293.944545742542,308.676714486503,14.7321687439608,-301.310630114522,139.606188499291,161.704441615232
2.50879909897227,300.410199022808,310.4905410066,10.0803419837919,-305.450370014704,145.164928519508,160.285441495196
2.51161481064339,309.722801314171,314.140707297405,4.41790598323485,-311.931754305788,152.652447665468,159.27930664032
2.51443052231452,315.17646646807,310.47554641642,-4.70092005165003,-312.826006442245,159.93869325986,152.887313182385
2.51724623398564,315.749163760965,311.654730432633,-4.09443332833195,-313.701947096799,159.921798544648,153.78014855215
2.52006194565677,309.655440267247,314.246571261977,4.59113099473024,-311.951005764612,152.532154636258,159.418851128354
2.52287765732789,296.860303222588,310.522557691102,13.6622544685146,-303.691430456845,141.599024377036,162.092406079808
2.52569336899901,299.600709314434,315.747700019801,16.1469907053671,-307.674204667117,141.726859304533,165.947345362584
2.52850908067014,311.502837252166,316.013785290158,4.51094803799219,-313.758311271162,153.495944607087,160.262366664075
2.53132479234126,314.990566838533,313.322562067573,-1.66800477095978,-314.156564453053,158.329285804746,155.827278648307
2.53414050401239,319.088588714909,314.940339509219,-4.14824920569009,-317.014464112064,161.618418960299,155.396045151764
2.53695621568351,318.621093014632,318.148834527533,-0.47225848709877,-318.384963771083,159.546675750865,158.838288020217
2.53977192735464,304.710226353126,316.397267536756,11.6870411836302,-310.553746944941,146.511592584748,164.042154360193
2.54258763902576,303.829723490125,319.018330714899,15.188607224774,-311.424027102512,144.320558132676,167.103468969837
2.54540335069689,312.386225323428,320.88225044775,8.49602512432216,-316.634237885589,151.945100099553,164.689137786036
2.54821906236801,319.955979671699,321.216487012359,1.26050734065984,-320.586233342029,159.34773616552,161.238497176509
2.55103477403914,325.395121943854,323.23885430288,-2.15626764097425,-324.316988123367,163.775694792414,160.541293330953
2.55385048571026,325.413987538358,324.014118765525,-1.39986877283303,-324.714053151942,163.406928155596,161.307124996346
2.55666619738139,314.529768338815,321.301165913237,6.77139757442166,-317.915467126026,153.879185382197,164.036281743829
2.55948190905251,310.111524930447,325.291380737169,15.1798558067227,-317.701452833808,147.465834561862,170.235618271946
2.56229762072364,316.343877048137,328.707758939397,12.3638818912591,-322.525817993767,151.989997578439,170.535820415328
2.56511333239476,327.001592672564,329.135159098442,2.13356642587775,-328.068375885503,162.434013123343,165.63436276216
2.56792904406589,335.655617471123,333.550303056068,-2.10531441505498,-334.602960263595,168.880465943089,165.722494320506
2.57074475573701,339.074815479339,332.854711307571,-6.22010417176858,-335.964763393455,172.647459825554,163.317303567901
2.57356046740814,330.321970744371,331.240341586164,0.918370841792978,-330.781156165268,164.701799951289,166.079356213979
2.57637617907926,321.496859607832,334.577584833594,13.080725225762,-328.037222220713,154.208067191035,173.829155029678
2.57919189075039,318.424617500056,331.522556421886,13.0979389218293,-324.973586960971,152.663339289114,172.310247671857
2.58200760242151,323.156815129783,328.140985770998,4.98417064121412,-325.64890045039,159.086322244285,166.562578206106
2.58482331409264,332.762015266862,329.792330794069,-2.96968447279227,-331.277173030465,167.865849869827,163.411323160638
2.58763902576376,336.533605736572,332.60623966934,-3.92736606723241,-334.569922702956,170.230485901902,164.339436801054
2.59045473743489,334.194889866012,331.244278858725,-2.95061100728628,-332.719584362368,168.572750436649,164.14683392572
2.59327044910601,326.875475270131,336.804436793506,9.92896152337465,-331.839956031819,158.473256873378,173.36669915844
2.59608616077714,320.434680362652,335.254092973231,14.8194126105784,-327.844386667942,152.807633876037,175.036752791905
2.59890187244826,326.296615492318,337.164299103314,10.8676836109955,-331.730457297816,157.714465940661,174.015991357155
2.60171758411939,341.846497660826,346.07128135766,4.22478369683444,-343.958889509243,168.810856981996,175.148032527247
2.60453329579051,349.989577490134,350.33343124391,0.343853753776386,-350.161504367022,174.822861868179,175.338642498843
2.60734900746164,353.10525657686,352.229911797914,-0.875344778945703,-352.667584187387,176.990300677903,175.677283509484
2.61016471913276,347.386853593657,352.165906502606,4.77905290894904,-349.776380048132,171.303900342354,178.472479705778
2.61298043080389,334.510380158847,350.139184036167,15.6288038773199,-342.324782097507,159.440788140764,182.883993956743
2.61579614247501,330.434362445614,341.263177850583,10.8288154049687,-335.848770148098,159.802773520323,176.045996627776
2.61861185414614,341.887501231743,345.266349576086,3.3788483443422,-343.576925403915,169.254326443701,174.322598960214
2.62142756581726,347.518281021763,343.04809091528,-4.4701901064829,-345.283185968521,175.994235564123,169.288950404398
2.62424327748839,348.196033247175,345.361221442499,-2.83481180467606,-346.778627344837,175.515422525926,171.263204818911
2.62705898915951,351.687936642689,353.271121563006,1.5831849203168,-352.479529102848,175.052375861186,177.427153241661
2.62987470083063,342.324191864221,354.739611238432,12.4154193742109,-348.531901551327,164.954386245005,183.577515306322
2.63269041250176,335.536972016959,351.362773296856,15.825801279897,-343.449872656907,159.855585368531,183.594287288376
2.63550612417288,344.997701885543,353.555681542364,8.55797965682126,-349.276691713953,168.219861114361,181.056830599593
2.63832183584401,350.203960868544,350.871834784661,0.667873916116832,-350.537897826603,174.768043476214,175.769854350389
2.64113754751513,352.381536781195,345.519233796762,-6.86230298443269,-348.950385288979,179.621919882814,169.328465406165
2.64395325918626,351.899539787943,347.361673129893,-4.53786665805001,-349.630606458918,178.218703222997,171.411903235922
2.64676897085738,339.077233860834,344.44468186201,5.36744800117617,-341.760957861422,166.854892929829,174.906064931593
2.64958468252851,329.682816887564,341.569856502252,11.8870396146872,-335.626336694908,158.897888636439,176.728448058469
2.65240039419963,334.003847883334,345.588093943644,11.5842460603105,-339.795970913489,161.209800911512,178.586170001977
2.65521610587076,339.927703844674,341.52921038124,1.60150653656564,-340.728457112957,169.163098654054,171.565358458903
2.65803181754188,343.635336177279,340.707596663627,-2.92773951365183,-342.171466420453,173.281537845465,168.889928574988
2.66084752921301,346.927651056296,341.407547286191,-5.52010377010458,-344.167599171244,176.2238774132,167.943721758043
2.66366324088413,334.712743289455,332.173527335057,-2.53921595439846,-333.443135312256,168.625979621927,164.817155690329
2.66647895255526,317.84139069427,325.800904871548,7.95951417727844,-321.821147782909,154.940938258496,166.880209524413
2.66929466422638,312.064229498719,325.54785983807,13.483630339351,-318.806044668395,149.290299579684,169.515745088711
2.67211037589751,315.873894913483,318.286419445369,2.41252453188679,-317.080157179426,156.730685190798,160.349471988628
2.67492608756863,316.918034618604,312.930406060556,-3.98762855804847,-314.92422033958,160.452831588326,154.471388751254
2.67774179923976,321.603494577982,312.221031696432,-9.38246288154949,-316.912263137207,165.492978729766,151.419284407441
2.68055751091088,316.231270955598,312.915699155239,-3.3155718003581,-314.573485055418,159.773421377978,154.800063677441
2.68337322258201,303.037146921815,310.042197128103,7.00505020628771,-306.539672024959,148.016048357764,158.523623667195
2.68618893425313,297.134551943561,308.429275428722,11.2947234851613,-302.781913686142,142.9199142292,159.861999456942
2.68900464592426,295.838922163299,303.037423377214,7.19850121391477,-299.438172770257,144.320210474692,155.117962295564
2.69182035759538,303.155543527063,300.145429927684,-3.01011359937871,-301.650486727373,153.082828563221,148.567658164153
2.69463606926651,306.259095609162,299.103504054251,-7.15559155491087,-302.681299831707,156.707343582037,145.97395624967
2.69745178093763,301.798893902094,294.709956680678,-7.08893722141602,-298.254425291386,154.443915561755,143.810509729631
2.70026749260876,291.273708388215,290.278784106605,-0.99492428160994,-290.77624624741,146.134316334912,144.641929912497
2.70308320427988,281.226056022114,294.273246175838,13.0471901537243,-287.749651098976,134.089432934195,153.660218164781
2.70589891595101,280.876643782179,291.822382622037,10.9457388398577,-286.349513202108,134.965452471161,151.384060730947
2.70871462762213,291.341815392905,293.36405550052,2.02224010761512,-292.352935446713,144.659787642645,147.693147804068
2.71153033929326,298.838711466588,292.981001535759,-5.85770993082986,-295.909856501174,152.348210698709,143.561645802464
2.71434605096438,297.369053962467,293.52796454897,-3.84108941349649,-295.448509255719,150.605071687982,144.843437567737
2.71716176263551,296.576047223564,296.532153325563,-0.0438938980006469,-296.554100274563,148.309970560782,148.244129713781
2.71997747430663,285.422158866342,298.197900186687,12.7757413203448,-291.810029526514,136.323208772999,155.486820753516
2.72279318597776,277.886902196823,291.622529246208,13.7356270493852,-284.754715721515,132.075637573719,152.679078147797
2.72560889764888,282.50223574705,289.606713495693,7.10447774864258,-286.054474621371,137.698878999204,148.355595622168
2.72842460932001,292.503637642107,289.929415884303,-2.57422175780425,-291.216526763205,147.538929699956,143.677597063249
2.73124032099113,294.115119472145,290.447067269594,-3.66805220255054,-292.281093370869,148.891585837348,143.389507533522
2.73405603266226,295.897196986164,295.764326109618,-0.13287087654669,-295.830761547891,148.015033931356,147.815727616536
2.73687174433338,291.46706083555,298.987420256866,7.52035942131556,-295.227240546208,141.973350707117,153.253889839091
2.73968745600451,279.799486676704,293.414925896435,13.6154392197307,-286.60720628657,133.092023728487,153.515182558083
2.74250316767563,282.68069273242,295.885065525734,13.2043727933132,-289.282879129077,134.738159969554,154.544719159523
2.74531887934676,293.293252360926,296.899655268177,3.60640290725172,-295.096453814552,144.843424726837,150.253029087715
2.74813459101788,294.991167873201,292.367932871657,-2.62323500154412,-293.679550372429,148.807201437372,144.872348935056
2.750950302689,299.215909380308,297.005676976805,-2.21023240350297,-298.110793178557,150.713070891906,147.397722286651
2.75376601436013,293.390964741288,294.80588705699,1.41492231570214,-294.098425899139,145.988021212793,148.110404686346
2.75658172603125,280.704344090013,293.332752703712,12.6284086136992,-287.018548396863,134.037967738157,152.980580658706
2.75939743770238,280.860552592777,294.127356889646,13.2668042968693,-287.493954741211,133.796874147954,153.697080593258
2.7622131493735,289.100622744351,292.728393907054,3.62777116270297,-290.914508325702,142.736425790824,148.178082534878
2.76502886104463,295.976981779424,292.321684091388,-3.6552976880352,-294.149332935406,149.816139733729,144.333193201677
2.76784457271575,302.495290693607,299.230412351785,-3.26487834182211,-300.862851522696,152.880084517715,147.982767004981
2.77066028438688,301.176394726352,299.575146386503,-1.60124833984844,-300.375770556427,151.3888215331,148.986949023327
2.773475996058,287.552025588722,296.233266851499,8.68124126277718,-291.892646220111,139.435392162972,152.457254057138
2.77629170772913,282.116986216646,297.413535786606,15.2965495699609,-289.765261001626,133.410218323342,156.355042678284
2.77910741940025,285.066596691452,295.628606706842,10.5620100153902,-290.347601699147,137.252293338031,153.095308361116
2.78192313107138,294.096075253812,295.327523025656,1.23144777184439,-294.711799139734,146.432313740984,148.27948539875
2.7847388427425,300.65472820613,297.427132215588,-3.2275959905428,-299.040930210859,151.941162098337,147.099768112522
2.78755455441363,302.754059823639,299.320150660952,-3.43390916268788,-301.037105242296,153.093984493164,147.943120749132
2.79037026608475,296.402567600598,303.214920441985,6.81235284138694,-299.808744021292,144.795107379606,155.013636641686
2.79318597775588,287.443832861402,302.677771530134,15.2339386687314,-295.060802195768,136.104947096336,158.955855099433
2.796001689427,287.104041984365,300.452430888003,13.348388903638,-293.778236436184,136.877826540363,156.90040989582
2.79881740109813,293.241512403195,295.334599770256,2.09308736706055,-294.288056086726,145.574212518067,148.713843568658
2.80163311276925,304.746066191561,302.626608660517,-2.11945753104408,-303.686337426039,153.432761861303,150.253575564737
2.80444882444038,308.2564011471,304.062889930162,-4.19351121693722,-306.159645538631,156.224956182018,149.934689356613
2.8072645361115,301.293570435635,303.233611279981,1.94004084434522,-302.263590857808,149.676764795645,152.586826062163
2.81008024778263,293.825564054716,307.923800427355,14.0982363726385,-300.874682241035,139.863663841039,161.011018399997
2.81289595945375,290.17165690094,304.245072079686,14.0734151787466,-297.208364490313,138.049120861096,159.159243629216
