t,ecgI,ecgII,leadIII_f,aVR_f,aVL_f,aVF_f
0,91.5233923036312,95.5848881815032,4.06149587787205,-93.5541402425672,43.7309482128796,49.8231920296876
0.002154243860405,28.0817059624263,97.7787364513708,69.6970304889445,-62.9302212068985,-20.8076622632591,83.7378834701577
0.00430848772081,-29.8428226629688,98.8700606342784,128.712883297247,-34.5136189856548,-79.277852980108,113.791471965763
0.00646273158121499,-77.8319469235089,98.0075252831398,175.839472206649,-10.0877891798155,-126.835709565079,136.923498744894
0.00861697544161999,-113.561911831229,94.7747551328009,208.33666696403,9.39357834921418,-160.94928939763,151.555711048415
0.010771219302025,-137.095110159323,89.2094639096665,226.304574068989,23.9428231248281,-181.699842114156,157.757018989328
0.01292546316243,-150.534444608732,81.6965957740787,232.231040382811,34.4189244173269,-191.382742495772,156.963818078445
0.015079707022835,-157.20658759027,72.8071173948248,230.013704985095,42.1997350977227,-193.610146287683,151.41041118996
0.01723395088324,-160.660441145984,63.1501684351896,223.810609581173,48.755136355397,-192.235525363578,143.480389008181
0.019388194743645,-163.788831630904,53.2729355390903,217.061767169995,55.2579480459071,-190.42529940045,135.167351354542
0.02154243860405,-168.30618145382,43.6081230169983,211.914304470819,62.3490292184111,-190.11024296232,127.761213743908
0.023696682464455,-174.67352586859,34.4503438029408,209.123869671531,70.1115910328245,-191.89869777006,121.787106737236
0.02585092632486,-182.40744922301,25.9442166949876,208.351665917998,78.2316162640113,-195.379557570504,117.147941306493
0.028005170185265,-190.593412763418,18.081908277506,208.675321040924,86.2557522429559,-199.634366902171,113.378614659215
0.03015941404567,-198.383167236253,10.7217645412695,209.104931777523,93.830701347492,-203.744049506888,109.913348159396
0.032313657906075,-205.302065350188,3.63910109287566,208.941166443064,100.831482128656,-207.121615896626,106.29013376797
0.03446790176648,-211.301576458644,-3.39591619192792,207.905660266716,107.348746325286,-209.60361836268,102.254872037394
0.036622145626885,-216.611161332138,-10.5371712267235,206.073990105414,113.574166279431,-211.342575718776,97.7684094393453
0.03877638948729,-221.516577205089,-17.8083990799813,203.708178125107,119.662488142535,-212.612377665098,92.949889522563
0.040930633347695,-226.193852961623,-25.0960417524801,201.097811209142,125.644947357051,-213.645832085383,88.0008847283312
0.0430848772081,-230.67196342951,-32.1913671116217,198.480596317889,131.431665270566,-214.5762798737,83.1446146031335
0.045239121068505,-234.916302890365,-38.8669566505205,196.049346239844,136.891629770443,-215.482824565104,78.5911947946619
0.04739336492891,-238.95771316528,-44.9606858997672,193.997027265513,141.959199532523,-216.477370215396,74.5181706828727
0.049547608789315,-242.970407829632,-50.4372539248143,192.533153904818,146.703830877223,-217.751780867225,71.0479499900018
0.05170185264972,-247.23932972176,-55.4056465382006,191.833683183559,151.32248812998,-219.53650645266,68.2140183226794
0.0538560965101249,-252.031902637423,-60.0866839884026,191.945218649021,156.059293312913,-221.988560643222,65.929267330309
0.0560103403705299,-257.451981719962,-64.7410986881301,192.710883031832,161.096540204046,-225.081432375897,63.984892171851
0.0581645842309349,-263.363929527806,-69.5824073558256,193.781522171981,166.473168441816,-228.572725849893,62.0995574080775
0.0603188280913399,-269.431124959181,-74.7079625435874,194.723162415594,172.069543751384,-232.077143687388,60.0075999360032
0.0624730719517449,-275.249759280182,-80.0789869717435,195.170772308438,177.664373125963,-235.21026579431,57.5458926683472
0.0646273158121499,-280.511774968009,-85.5602733491347,194.951501618875,183.036024158572,-237.731638293442,54.69561413487
0.0667815596725549,-285.118595145713,-90.9991459301485,194.119449215565,188.058870537931,-239.619022180639,51.5601516427081
0.0689358035329599,-289.192251703404,-96.3002406985524,192.892011004851,192.746246200978,-241.042131354128,48.2958851531495
0.0710900473933649,-292.981749414706,-101.454932518093,191.526816896613,197.2183409664,-242.254283155659,45.0359421892597
0.0732442912537699,-296.715378081232,-106.512452834186,190.202925247046,201.613915457709,-243.459151664139,41.8452362064298
0.0753985351141749,-300.476658995343,-111.51605736636,188.960601628983,205.996358180851,-244.718630312163,38.7222721313115
0.0775527789745799,-304.168630997994,-116.448408233343,187.720222764652,210.308519615668,-245.944426881323,35.6359072656545
0.0797070228349849,-307.584038713745,-121.223217420991,186.360821292755,214.403628067368,-246.97243000325,32.5688019358821
0.0818612666953899,-310.54062683067,-125.730768047011,184.809858783659,218.13569743884,-247.675242807164,29.5395453683241
0.0840155105557949,-313.002948413933,-129.910199327722,183.092749086212,221.456573870828,-248.047848750072,26.5912748792448
0.0861697544161999,-315.118844108674,-133.800562094688,181.318282013986,224.459703101681,-248.21856306133,23.7588599596494
0.0883239982766049,-317.148821785961,-137.529941755122,179.618880030839,227.339381770542,-248.3838509084,21.0444691378583
0.0904782421370099,-319.330372167013,-141.237830080477,178.092542086536,230.284101123745,-248.711457126775,18.4273560030297
0.0926324859974149,-321.756442772752,-144.971164605794,176.785278166959,233.363803689273,-249.270860469856,15.9070567805826
0.0947867298578199,-324.335523975249,-148.619481935149,175.7160420401,236.477502955199,-250.025783007675,13.5482800524753
0.0969409737182249,-326.851487148414,-151.940107265815,174.9113798826,239.395797207114,-250.881433515507,11.4856363083925
0.0990952175786299,-329.086998781302,-154.674908451996,174.412090329305,241.880953616649,-251.749544555303,9.86859093865445
0.101249461439035,-330.943356101182,-156.702757201789,174.240598899392,243.823056651485,-252.591977500287,8.76892084880168
0.10340370529944,-332.493257785257,-158.141774054596,174.351483730661,245.317515919926,-253.422370757959,8.10485483803268
0.105557949159845,-333.937256834606,-159.334732258032,174.602524576575,246.635994546319,-254.26989070559,7.63389615927156
0.10771219302025,-335.48347581458,-160.710883680792,174.772592133788,248.097179747686,-255.128033974184,7.03085422649772
0.109866436880655,-337.210375378908,-162.584295789413,174.626079589496,249.89733558416,-255.918227484202,6.02089190004148
0.11202068074106,-338.98434213766,-164.98778551077,173.996556626889,251.986063824215,-256.490449382275,4.50438555805951
0.114174924601465,-340.481620926054,-167.632521727545,172.849099198509,254.057071326799,-256.665360062281,2.60828873548215
0.11632916846187,-341.316247949448,-170.025534085005,171.290713864443,255.670891017226,-256.303480906945,0.632589889718759
0.118483412322275,-341.221497793945,-171.694775114482,169.526722679463,256.458136454213,-255.374110236704,-1.08402621750949
0.12063765618268,-340.197808901548,-172.409291597619,167.788517303929,256.303550249584,-253.993163102739,-2.31038714684522
0.122791900043085,-338.547667209017,-172.280839035594,166.266828173423,255.414253122306,-252.40724769122,-3.00700543108547
0.12494614390349,-336.770213864296,-171.696865573662,165.073348290634,254.233539718979,-250.921781077465,-3.31175864151433
0.127100387763895,-335.359981620264,-171.125281712134,164.23469990813,253.242631666199,-249.797340764197,-3.44529090200245
0.1292546316243,-334.604945002753,-170.896307305794,163.708637696959,252.750626154273,-249.156791349856,-3.59383480441727
0.131408875484705,-334.480409139966,-171.072635563663,163.407773576304,252.776522351815,-248.944091358135,-3.83243099367934
0.13356311934511,-334.687042584869,-171.466745723987,163.220296860881,253.076894154428,-248.953669722875,-4.12322443155293
0.135717363205515,-334.809264666439,-171.783233957538,163.026030708901,253.296249311988,-248.91764768767,-4.37860162431858
0.13787160706592,-334.511189143116,-171.798772555178,162.712416587939,253.154980849147,-248.611802865528,-4.54317798361967
0.140025850926325,-333.672148718552,-171.478790864707,162.193357853845,252.57546979163,-247.932753286198,-4.64271650543145
0.14218009478673,-332.400719435585,-170.973480577691,161.427238857895,251.687100006638,-246.91397914674,-4.77312085989797
0.144334338647135,-330.933497381103,-170.507104541389,160.426392839714,250.720300961246,-245.679945110409,-5.04035585083727
0.14648858250754,-329.483409091733,-170.231440834732,159.251968257,249.857424963233,-244.367688674366,-5.4897362888662
0.148642826367945,-328.121904720937,-170.128372783772,157.993531937165,249.125138752355,-243.057718329051,-6.06742042330382
0.15079707022835,-326.755164729244,-170.015935602184,156.73922912706,248.385550165714,-241.747196928152,-6.63835323756186
0.152951314088755,-325.201711135558,-169.654167802052,155.547543333505,247.427939468805,-240.374627234531,-7.05331223427333
0.15510555794916,-323.322906268927,-168.889927638234,154.432978630693,246.10641695358,-238.87794244981,-7.22847450377066
0.157259801809565,-321.127743475387,-167.754695608496,153.373047866891,244.441219541941,-237.250395671139,-7.19082387080249
0.15941404566997,-318.788050991291,-166.455177347353,152.332873643938,242.621614169322,-235.560462317615,-7.06115185170736
0.161568289530375,-316.552862626658,-165.26038367071,151.292478955949,240.906623148684,-233.922670791303,-6.9839523573805
0.16372253339078,-314.610610905883,-164.350202519508,150.260408386375,239.480406712695,-232.435509646129,-7.04489706656628
0.165876777251185,-312.980214881357,-163.711975064075,149.268239817282,238.346094972716,-231.12422734932,-7.22186762339609
0.16803102111159,-311.498098895845,-163.144202005992,148.353896889854,237.321150450919,-229.92599789285,-7.39515255806919
0.170185264971995,-309.914426412482,-162.368092668576,147.546333743905,236.141259540529,-228.730380078194,-7.41087946233549
0.1723395088324,-308.047620796174,-161.189003541109,146.858617255064,234.618312168641,-227.453119025619,-7.16519314302244
0.174493752692805,-305.908258900834,-159.62135725151,146.286901649324,232.764808076172,-226.097580275079,-6.66722780109305
0.17664799655321,-303.71599758496,-157.908289057941,145.807708527019,230.812143321451,-224.761853055989,-6.05029026546134
0.178802240413615,-301.79187755447,-156.421620638476,145.370256915995,229.106749096473,-223.581067235232,-5.52568186124046
0.18095648427402,-300.37877238676,-155.48904171128,144.88973067548,227.93390704902,-222.63425153112,-5.29965551789982
0.183110728134425,-299.483877490717,-155.232333441784,144.251544048933,227.35810546625,-221.867710769825,-5.49039469642534
0.18526497199483,-298.82950984956,-155.496038183848,143.333471665712,227.162774016704,-221.081490757636,-6.0812832590681
0.187419215855235,-297.948114533227,-155.901776293987,142.04633823924,226.924945413607,-219.997226386234,-6.92771902737314
0.18957345971564,-296.38440329177,-155.999843044528,140.384560247242,226.192123168149,-218.384481769506,-7.80764139864272
0.191727703576045,-293.904862136747,-155.4407330759,138.464129060847,224.672797606324,-216.184495598797,-8.48830200752676
0.19388194743645,-290.602546710052,-154.083608795076,136.518937914976,222.343077752564,-213.560742312514,-8.78233544004956
0.196036191296855,-286.839940750952,-151.998820589651,134.841120161301,219.419380670301,-210.840530456126,-8.57885021417502
0.19819043515726,-283.063289476491,-149.381585915225,133.681703561266,216.222437695858,-208.372496518878,-7.8499411769798
0.200344679017665,-279.590093297463,-146.438902940945,133.151190356518,213.014498119204,-206.37064182699,-6.64385629221377
0.20249892287807,-276.479786985668,-143.318348664059,133.161438321609,209.899067824864,-204.820612653639,-5.07845517122516
0.204653166738475,-273.549380515683,-140.113694153071,133.435686362612,206.831537334377,-203.492533439148,-3.33900389522972
0.20680741059888,-270.519789889191,-136.928604638328,133.591185250863,203.724197263759,-202.055487570027,-1.66870969373241
0.208961654459285,-267.210480323922,-133.939800560411,133.270679763511,200.575140442167,-200.240580043717,-0.334560398450094
0.21111589831969,-263.67414661777,-131.401588049759,132.27255856801,197.537867333764,-197.97335259289,0.435485259125471
0.213270142180095,-260.197454098395,-129.574168518076,130.623285580319,194.885811308235,-195.410369839357,0.524558531121613
0.2154243860405,-257.170766165157,-128.610308333499,128.560457831658,192.890537249328,-192.865611998408,-0.024925250920262
0.217578629900905,-254.901645269518,-128.464243075873,126.437402193646,191.682944172695,-190.669523731582,-1.0134204411135
0.21973287376131,-253.471899141281,-128.877303541915,124.594595599366,191.174601341598,-189.033247370323,-2.14135397127484
0.221887117621715,-252.708706882161,-129.456338548335,123.252368333826,191.082522715248,-187.980537607993,-3.10198510725451
0.22404136148212,-252.278611158603,-129.81574521999,122.462865938614,191.047178189296,-187.370738548608,-3.67643964068792
0.226195605342525,-251.849699885823,-129.721740232975,122.127959652848,190.785720059399,-186.988829769335,-3.79689029006389
0.22834984920293,-251.232010985943,-129.172352424864,122.05965856108,190.202181705403,-186.645834773511,-3.55634693189204
0.230504093063335,-250.420013427246,-128.374643777048,122.045369650198,189.397328602147,-186.232691538722,-3.16463706342499
0.23265833692374,-249.519935854216,-127.630970826008,121.888965028207,188.575453340112,-185.704450441212,-2.87100289890049
0.234812580784145,-248.614183358502,-127.190644927378,121.423538431123,187.90241414294,-185.018860894813,-2.88355324812747
0.23696682464455,-247.651621325701,-127.137621420277,120.513999905423,187.394621372989,-184.082810615562,-3.311810757427
0.239121068504955,-246.435040370445,-127.364667879606,119.070372490838,186.899854125025,-182.752706430641,-4.14714769438397
0.24127531236536,-244.718595853464,-127.641648626398,117.076947227067,186.180122239931,-180.897771540265,-5.28235069966559
0.243429556225765,-242.362627688506,-127.738803579017,114.623824109489,185.050715633762,-178.493225898998,-6.55748973476392
0.24558380008617,-239.456334143818,-127.53717101782,111.919163125998,183.496752580819,-175.687748634908,-7.80900394591077
0.247738043946575,-236.331010117022,-127.065423278299,109.265586838722,181.698216697661,-172.798298477872,-8.89991821978852
0.24989228780698,-233.443255071339,-126.445424076355,106.997830994984,179.944339573847,-170.220543033161,-9.7237965406853
0.252046531667385,-231.178101739979,-125.783651279267,105.394450460712,178.480876509623,-168.286276100345,-10.1946004092777
0.25420077552779,-229.66737711066,-125.077531677783,104.589845432876,177.372454394222,-167.128611271768,-10.2438431224536
0.256355019388195,-228.715567378337,-124.195522964639,104.520044413698,176.455545171488,-166.617805896018,-9.83773927547048
0.2585092632486,-227.876305718526,-122.946491252975,104.929814465551,175.41139848575,-166.403060092038,-9.00833839371211
0.260663507109005,-226.649418301665,-121.203092598448,105.446325703216,173.926255450056,-166.04787200244,-7.87838344761585
0.26281775096941,-224.70550647787,-119.010722740239,105.694783737631,171.858114609055,-165.200145107751,-6.65796950130414
0.264971994829815,-222.027536401335,-116.616039133701,105.411497267634,169.321787767518,-163.719516834484,-5.60227093303384
0.26712623869022,-218.901732731196,-114.389705915016,104.512026816179,166.645719323106,-161.706879773687,-4.93883954941839
0.269280482550625,-215.771372618033,-112.675517311859,103.095855306174,164.223444964946,-159.433613962104,-4.78983100284262
0.27143472641103,-213.038294361924,-111.638469711622,101.399824650302,162.338382036773,-157.219059506113,-5.11932253066024
0.273588970271435,-210.916078056809,-111.187219787362,99.7288582694474,161.051648922085,-155.322468163128,-5.72918075895707
0.27574321413184,-209.399125405811,-111.013874715616,98.3852506901955,160.206500060713,-153.892188048003,-6.31431201271012
0.277897457992245,-208.342285492645,-110.740690330579,97.6015951620663,159.541487911612,-152.971940327356,-6.56954758425617
0.28005170185265,-207.588126161152,-110.109488270826,97.4786378903252,158.848807215989,-152.533382025738,-6.31542519025059
0.282205945713055,-207.062702166078,-109.121001575562,97.9417005905159,158.09185187082,-152.502201378297,-5.58965049252328
0.28436018957346,-206.788671394609,-108.047756653219,98.7409147413893,157.418214023914,-152.764793067999,-4.65342095591491
0.286514433433865,-206.816105851017,-107.303673916351,99.5124319346659,157.059889883684,-153.164268892842,-3.89562099084276
0.28866867729427,-207.117293125385,-107.228676410594,99.8886167147914,157.172984767989,-153.502954920088,-3.67002984790113
0.290822921154675,-207.511117249762,-107.896279251619,99.6148379981435,157.70369825069,-153.562977623953,-4.14072062673753
0.29297716501508,-207.668893390696,-109.045579253888,98.6233141368075,158.357236322292,-153.146103763752,-5.21113255854037
0.295131408875485,-207.213201961387,-110.176602948902,97.0365990124847,158.694902455145,-152.124900486936,-6.57000196820871
0.29728565273589,-205.870643699612,-110.763109170049,95.107534529563,158.31687643483,-150.489089114587,-7.82778732024282
0.299439896596295,-203.603413204352,-110.47718872737,93.1262244769817,157.040300965861,-148.364818840667,-8.67548212519425
0.3015941404567,-200.646970879176,-109.318607936338,91.3283629428378,154.982789407757,-145.987666911007,-8.9951224967503
0.303748384317105,-197.425517056912,-107.596119033683,89.8293980232285,152.510818045297,-143.62745754007,-8.88336050522734
0.30590262817751,-194.379506814309,-105.781882948063,88.5976238662457,150.080694881186,-141.488565340277,-8.59212954090883
0.308056872037915,-191.785785467113,-104.313326421188,87.4724590459251,148.049555944151,-139.629122256519,-8.42043368763156
0.31021111589832,-189.658500329876,-103.430721049448,86.2277792804278,146.544610689662,-137.943139805152,-8.60147088451004
0.312365359758725,-187.783016890431,-103.115716244705,84.6673006457255,145.449366567568,-136.225158768078,-9.22420779948985
0.31451960361913,-185.867870636752,-103.146596322345,82.7212743144063,144.507233479549,-134.294572475579,-10.2126610039695
0.316673847479535,-183.733284143705,-103.229921135557,80.5033630081484,143.481602639631,-132.118323575927,-11.3632790637042
0.31882809133994,-181.430830642186,-103.13439529658,78.2964353456063,142.282612969383,-129.863632993896,-12.4189799754869
0.320982335200345,-179.22770963242,-102.760849597409,76.4668600350113,140.994279614915,-127.847284833716,-13.146994781199
0.32313657906075,-177.466952393446,-102.124989374609,75.3419630188371,139.795970884027,-126.404457706141,-13.3915131778858
0.325290822921155,-176.381666660182,-101.280189425347,75.1014772348349,138.830928042764,-125.741571947508,-13.089356095256
0.32744506678156,-175.961122839803,-100.238880980494,75.7222418593093,138.100001910148,-125.841682349556,-12.2583195605922
0.329599310641965,-175.935909338117,-98.9475449895624,76.9883643485545,137.44172716384,-126.462136843336,-10.979590320504
0.33175355450237,-175.8883236904,-97.3333300965855,78.554993593815,136.610826893493,-127.221658642108,-9.38916825138526
0.333907798362775,-175.431332734433,-95.3906723152266,80.0406604192065,135.41100252483,-127.73599657682,-7.67500594801002
0.33606204222318,-174.364676137074,-93.2462972308786,81.1183789061952,133.805486683976,-127.741527521634,-6.0639591623417
0.338216286083585,-172.730036956885,-91.151666050465,81.5783709064199,131.940851503675,-127.154203931652,-4.78664757202257
0.34037052994399,-170.7435825117,-89.3957579254418,81.3478245862586,130.069670218571,-126.04570354898,-4.02396666959159
0.342524773804395,-168.650679469474,-88.1794621292246,80.4712173402493,128.415070799349,-124.560948404862,-3.85412239448767
0.3446790176648,-166.585412408245,-87.5178936251541,79.0675187830905,127.051653016699,-122.826465595668,-4.22518742103179
0.346833261525205,-164.509594326091,-87.2260075355932,77.2835867904975,125.867800930842,-120.896590558294,-4.97121037254786
0.34898750538561,-162.26145257666,-87.0011802068279,75.2602723698322,124.631316391744,-118.760862473246,-5.87045391849783
0.351141749246015,-159.68533305717,-86.5643103894148,73.121022667755,123.124821723292,-116.403177862462,-6.7216438608299
0.35329599310642,-156.76794926835,-85.7868516376518,70.9810976306978,121.277400453001,-113.874523449524,-7.40287700347697
0.355450236966825,-153.700060320458,-84.7363823531448,68.9636779673132,119.218221336801,-111.331869143886,-7.88635219291578
0.35760448082723,-150.822369049592,-83.6165667141316,67.2058023354605,117.219467881862,-109.014085692526,-8.20538218933558
0.359758724687635,-148.478764938103,-82.6342790661215,65.8444858719819,115.556522002112,-107.161625405043,-8.39489659706979
0.36191296854804,-146.852208650092,-81.8666805223691,64.9855281277225,114.35944458623,-105.918868388907,-8.44057619732327
0.364067212408445,-145.870876178659,-81.2041796353354,64.6666965433237,113.537527906997,-105.268786360991,-8.26874154600588
0.36622145626885,-145.237579548117,-80.4077287343882,64.8298508137285,112.822654141252,-105.033715180923,-7.78893896032983
0.368375700129255,-144.57056515946,-79.2559624272044,65.314602732256,111.913263793332,-104.942583945858,-6.97067984747417
0.37052994398966,-143.583399510799,-77.7028095288248,65.8805899819747,110.643104519812,-104.731994746387,-5.91110977342503
0.372684187850065,-142.210250631947,-75.9539252133007,66.2563254186463,109.082087922624,-104.233288025297,-4.8487998973272
0.37483843171047,-140.6130290199,-74.4107394145062,66.2022896053936,107.511884217203,-103.407659312647,-4.1042249045563
0.376992675570875,-139.071139714967,-73.5019523295165,65.5691873854507,106.286546022242,-102.320163550209,-3.9663824720329
0.37914691943128,-137.816745381826,-73.4840602242341,64.3326851575923,105.65040280303,-101.074715269709,-4.57568753332087
0.381301163291685,-136.905265809498,-74.3111032046774,62.5941626048202,105.608184507087,-99.7497142071589,-5.85847029992861
0.38345540715209,-136.189566041668,-75.6400032123901,60.5495628292783,105.914784627029,-98.3695644354733,-7.5452201915559
0.385609651012495,-135.409134693512,-76.9700890171596,58.4390456763529,106.189611855336,-96.9240901849326,-9.26552167040334
0.3877638948729,-134.342861885744,-77.8483959600318,56.4944659257118,106.095628922888,-95.4186639057277,-10.67696501716
0.389918138733305,-132.939397752699,-78.0401681366817,54.8992296160176,105.489782944691,-93.9193136843584,-11.5704692603321
0.39207238259371,-131.351759491607,-77.584222910497,53.7675365811096,104.467991201052,-92.5596480363581,-11.9083431646937
0.394226626454115,-129.855901308549,-76.715571929056,53.1403293794928,103.285736618802,-91.4981153440208,-11.7876212747816
0.39638087031452,-128.696745323406,-75.7081503831422,52.9885949402637,102.202447853274,-90.8426701318347,-11.3597777214393
0.398535114174925,-127.945572958968,-74.7289319727453,53.2166409862227,101.337252465857,-90.5811069725953,-10.7561454932613
0.40068935803533,-127.448649916871,-73.7813948872317,53.6672550296392,100.615022402051,-90.557952473255,-10.0570699287963
0.402843601895735,-126.898535522867,-72.7617423530179,54.1367931698495,99.8301389379427,-90.5176643463585,-9.3124745915842
0.40499784575614,-125.990503389845,-71.5863821089575,54.4041212808876,98.7884427494013,-90.1973123353663,-8.59113041403496
0.407152089616545,-124.577420225903,-70.3082894269186,54.2691307989841,97.4428548264106,-89.4232755124434,-8.01957931396721
0.40930633347695,-122.739089405816,-69.1456443444014,53.5934450614142,95.9423668751085,-88.1662672336149,-7.77609964149362
0.411460577337355,-120.733155582776,-68.3968340192281,52.3363215635481,94.5649948010022,-86.5347385731622,-8.03025622784001
0.41361482119776,-118.859587277829,-68.282972409817,50.5766148680125,93.5712798438232,-84.718101072921,-8.85317877090226
0.415769065058165,-117.313189081449,-68.8034866600205,48.5097024214288,93.0583378707349,-82.911445751439,-10.1468921192959
0.41792330891857,-116.101015788043,-69.6876953054674,46.4133204825761,92.8943555467554,-81.2571681353098,-11.6371874114457
0.420077552778975,-115.065426729691,-70.477659722446,44.5877670072446,92.7715432260683,-79.8265968684676,-12.9449463576007
0.42223179663938,-113.996019852885,-70.707983463071,43.2880363898139,92.352001657978,-78.6420281213495,-13.7099735366286
0.424386040499785,-112.764317174995,-70.0924118124672,42.6719053625273,91.4283644937309,-77.7181112687609,-13.71025322497
0.42654028436019,-111.401848736975,-68.6206914087014,42.781157328274,90.0112700728384,-77.0915030326247,-12.9197670402137
0.428694528220595,-110.074237079908,-66.5214475900613,43.5527894898468,88.2978423349848,-76.8135132848775,-11.4843290501072
0.430848772081,-108.964772263084,-64.123949085839,44.8408231772448,86.5443606744614,-76.9027977201643,-9.64156295429709
0.433003015941405,-108.136131847773,-61.7013980153328,46.4347338324404,84.918764931553,-77.2854328401068,-7.63333209144623
0.43515725980181,-107.454179966565,-59.3754512425965,48.0787287239689,83.414815604581,-77.7664543452671,-5.64836125931384
0.437311503662215,-106.623614817418,-57.1198952681834,49.503719549235,81.8717550428009,-78.0636671833267,-3.8080878594742
0.43946574752262,-105.323055761016,-54.8491021334874,50.4739536275282,80.0860789472515,-77.8985046942719,-2.18757425297959
0.441619991383025,-103.37176571734,-52.5359568766255,50.8358088407146,77.9538612969828,-77.1037872790273,-0.850074017955471
0.44377423524343,-100.840146038747,-50.2893086488351,50.5508373899119,75.564727343791,-75.6954917143294,0.130764370538401
0.445928479103835,-98.0423573203358,-48.3417113747946,49.7006459455412,73.1920343475652,-73.8715016329385,0.679467285373306
0.44808272296424,-95.4089135883954,-46.9482453179268,48.4606682704686,71.1785794531611,-71.934790929432,0.756211476270856
0.450236966824645,-93.2984100659129,-46.2501549420595,47.0482551238533,69.7742825039862,-70.1733325948831,0.3990500908969
0.45239121068505,-91.8390356724929,-46.1806421710875,45.6583935014054,69.0098389217902,-68.7487145869492,-0.261124334841014
0.454545454545455,-90.8773366256647,-46.4698222909385,44.4075143347261,68.6735794583016,-67.6424254801954,-1.03115397810619
0.45669969840586,-90.0605415717313,-46.753510605007,43.3070309667243,68.4070260883692,-66.6837862692278,-1.72323981914139
0.458853942266265,-89.0129058857805,-46.7348577495927,42.2780481361877,67.8738818176866,-65.6454770109841,-2.22840480670249
0.46100818612667,-87.5181222741078,-46.3183529660352,41.1997693080727,66.9182376200715,-64.3589457910902,-2.55929182898126
0.463162429987075,-85.6166217741113,-45.6481267600507,39.9684950140606,65.632374267081,-62.7925583940859,-2.83981587299504
0.46531667384748,-83.5722838596332,-45.0303137044603,38.5419701551728,64.3012987820468,-61.057127007403,-3.24417177464375
0.467470917707885,-81.7310745903209,-44.7772685264487,36.9538060638722,63.2541715583848,-59.3424403270966,-3.91173123128821
0.46962516156829,-80.3466160301733,-45.0502559259083,35.296360104265,62.6984359780408,-57.8214880672191,-4.87694791082168
0.471779405428695,-79.4602092790819,-45.7779935963897,33.6822156826922,62.6191014377358,-56.571212480887,-6.04788895684873
0.4739336492891,-78.8926915045918,-46.6901282918644,32.2025632127274,62.7914098982281,-55.5476273586596,-7.24378253956851
0.476087893149505,-78.3474826456193,-47.4451096995841,30.9023729460352,62.8962961726017,-54.6249277958273,-8.27136837677442
0.47824213700991,-77.5656608299906,-47.7822443422746,29.7834164877159,62.6739525861326,-53.6745386588533,-8.99941392727933
0.480396380870315,-76.4471296052463,-47.6174101428683,28.829719462378,62.0322698740573,-52.6384245338121,-9.39384534024516
0.48255062473072,-75.0748708304213,-47.0378642405473,28.037006589874,61.0563675354843,-51.5559387101476,-9.50042882533668
0.484704868591125,-73.6378762423173,-46.21121388893,27.4266623533873,59.9245450656236,-50.5322692978523,-9.39227576777132
0.48685911245153,-72.3051632943095,-45.2711383452662,27.0340249490433,58.7881508197879,-49.6695941216764,-9.11855669811147
0.489013356311935,-71.1264674678408,-44.2515739659447,26.8748935018961,57.6890207168928,-49.0006804848685,-8.68834023202432
0.49116760017234,-70.0158702584865,-43.1077291062958,26.9081411521907,56.5617996823911,-48.4620057053386,-8.09979397705256
0.493321844032745,-68.8245668224479,-41.8057936288771,27.0187731935709,55.3151802256625,-47.9216700080094,-7.39351021765312
0.49547608789315,-67.4549721106333,-40.4172222762367,27.0377498343966,53.936097193435,-47.246360972515,-6.68973622092008
0.497630331753555,-65.9425317867561,-39.1475964530286,26.7949353337275,52.5450641198924,-46.3687335602418,-6.17633055965056
0.49978457561396,-64.4511419302652,-38.2695701241871,26.1815718060781,51.3603560272261,-45.3163568681716,-6.0439991590545
0.501938819474364,-63.1808225062867,-37.9886087961729,25.1922137101138,50.5847156512298,-44.1865181082003,-6.39819754302953
0.50409306333477,-62.2393976130992,-38.3110745411373,23.9283230719619,50.2752360771183,-43.0838603425305,-7.19137573458772
0.506247307195175,-61.5531225619387,-38.9861044181083,22.5670181438304,50.2696134900235,-42.0600703528845,-8.20954313713897
0.508401551055579,-60.8734850195429,-39.5614616984314,21.3120233211115,50.2174733589871,-41.0927541703272,-9.12471918865992
0.510555794915984,-59.8875440753051,-39.5443762564659,20.3431678188392,49.7159601658855,-40.1153559470722,-9.60060421881338
0.51271003877639,-58.3795365805915,-38.6059072753747,19.7736293052168,48.4927219279831,-39.0765829429042,-9.41613898507895
0.514864282636795,-56.3543571942428,-36.7341420262243,19.6202151680185,46.5442496102335,-37.9872861811306,-8.55696342910293
0.517018526497199,-54.0475134494259,-34.2545760161337,19.7929374332922,44.1510447327798,-36.920225441359,-7.23081929142079
0.519172770357604,-51.8099246561268,-31.6989308145053,20.1109938416214,41.7544277353161,-35.9604592488741,-5.79396848644195
0.52132701421801,-49.9298901280877,-29.5824255824058,20.3474645456819,39.7561578552467,-35.1386773368848,-4.61748051836196
0.523481258078415,-48.4900811521161,-28.1966999687287,20.2933811833874,38.3433905604224,-34.3917311677518,-3.95165939267066
0.525635501938819,-47.3350716716202,-27.5156779417133,19.8193937299069,37.4253748066667,-33.5772327007635,-3.84814210590322
0.527789745799224,-46.1634328162634,-27.2525462678723,18.9108865483912,36.7079895420679,-32.5371596823273,-4.17082985974055
0.52994398965963,-44.6943938794531,-27.0289404850094,17.6654533944437,35.8616671822313,-31.1799236369484,-4.68174354528288
0.532098233520034,-42.8237826312976,-26.5626583081756,16.2611243231219,34.6932204697366,-29.5424534772098,-5.15076699252685
0.534252477380439,-40.6915400487562,-25.7780860544178,14.9134539943384,33.234813051587,-27.8024970215473,-5.43231603003973
0.536406721240844,-38.6276896687276,-24.793296901606,13.8343927671216,31.7104932851668,-26.2310412179246,-5.47945206724221
0.53856096510125,-37.0029144585851,-23.8070054177763,13.1959090408088,30.4049599381807,-25.099411749697,-5.30554818848372
0.540715208961654,-36.0555456693694,-22.9581698657556,13.0973758036138,29.5068577675625,-24.5764607364916,-4.93039703107086
0.542869452822059,-35.7778352225413,-22.2389197089234,13.5389155136179,29.0083774657324,-24.6583753680796,-4.35000209765279
0.545023696682464,-35.9163055064105,-21.5076513002933,14.4086542061173,28.7119784033519,-25.1624798562639,-3.54949854708801
0.54717794054287,-36.0865718129623,-20.5918766816196,15.4946951313427,28.339224247291,-25.7906334721525,-2.54859077513844
0.549332184403274,-35.9470658477606,-19.4192687173459,16.5277971304147,27.6831672825532,-26.2374314890876,-1.44573579346564
0.551486428263679,-35.3460388519563,-18.0975458675524,17.2484929844039,26.7217923597544,-26.2972659181801,-0.424526441574258
0.553640672124084,-34.3694474415833,-16.890282323591,17.4791651179924,25.6298648825872,-25.9243062797879,0.294441397200696
0.555794915984489,-33.2685512415821,-16.0944278076188,17.1741234339633,24.6814895246004,-25.2213373377727,0.539847813172251
0.557949159844894,-32.307655360704,-15.8838482310824,16.4238071296216,24.0957517958932,-24.3657312451628,0.269979449269602
0.560103403705299,-31.6119547425515,-16.2053523337884,15.4066024087632,23.9086535381699,-23.5092785756574,-0.399374962512589
0.562257647565704,-31.0944413974492,-16.7857232239447,14.3087181735045,23.940082310697,-22.7015797854769,-1.23850252522012
0.564411891426109,-30.500442772838,-17.2487723048012,13.2516704680369,23.8746075388196,-21.8760566204375,-1.99855091838213
0.566566135286514,-29.5467086909565,-17.2842501199009,12.2624585710556,23.4154794054287,-20.904583631006,-2.51089577442266
0.568720379146919,-28.0799596532085,-16.7840404138133,11.2959192393952,22.4320000335109,-19.6879394463019,-2.74406058720901
0.570874623007324,-26.1682022091253,-15.8784992929137,10.2897029162116,21.0233507510195,-18.2289525626684,-2.79439818835106
0.573028866867729,-24.0757870047272,-14.8582684417901,9.21751856293712,19.4670277232587,-16.6466527838322,-2.82037493942649
0.575183110728134,-22.1375114611972,-14.024798732071,8.11271272912618,18.0811550966341,-15.1251120951617,-2.95604300147243
0.577337354588539,-20.6007049579116,-13.5449744424638,7.05573051544783,17.0728397001877,-13.8282177366797,-3.24462196350798
0.579491598448944,-19.5198614114444,-13.3795139546436,6.14034745680083,16.449687683044,-12.8301044341226,-3.61958324892137
0.581645842309349,-18.7588687198204,-13.3178641398425,5.44100457997788,16.0383664298314,-12.0999366498991,-3.93842977993231
0.583800086169754,-18.0948797927269,-13.0996382211032,4.99524157162375,15.597259006915,-11.5450606821753,-4.05219832473971
0.585954330030159,-17.358436267278,-12.5575000315358,4.80093623574214,14.9579681494069,-11.0796862515101,-3.87828189789684
0.588108573890564,-16.5244978547139,-11.7044458734962,4.82005198121769,14.1144718641051,-10.6722749179658,-3.44219694613927
0.590262817750969,-15.7031635810933,-10.7193823627468,4.98378121834643,13.21127297192,-10.3434723997198,-2.8678005722002
0.592417061611374,-15.0434318321752,-9.84187087018405,5.20156096199113,12.4426513511796,-10.1224963970832,-2.32015495409646
0.594571305471779,-14.6143398223545,-9.23736581684009,5.3769740055144,11.9258528195973,-9.99565691393445,-1.93019590566284
0.596725549332184,-14.3357828954132,-8.91016674253381,5.42561615287942,11.6229748189735,-9.88069952414632,-1.74227529482719
0.598879793192589,-13.9991198620973,-8.71394374697149,5.28517611512576,11.3565318045344,-9.64214798861151,-1.71438381592287
0.601034037052994,-13.3683095771598,-8.45376758445047,4.91454199270935,10.9110385808051,-9.14142578493458,-1.76961279587056
0.603188280913399,-12.3085851243756,-8.01974088924288,4.28884423513269,10.1641630068092,-8.29871467975412,-1.86544832705509
0.605342524773804,-10.8699279593104,-7.47146669412464,3.39846126518573,9.17069732671751,-7.13419461224805,-2.03650271446945
0.607496768634209,-9.27153809687517,-7.01823966513758,2.25329843173759,8.14488888100638,-5.76241826430638,-2.38247061669999
0.609651012494614,-7.78816279255285,-6.89892581657728,0.889236975975575,7.34354430456507,-4.33869988426421,-3.00484442030085
0.611805256355019,-6.59851385285808,-7.22492097511213,-0.626407122254057,6.91171741398511,-2.98605336530201,-3.9256640486831
0.613959500215424,-5.68082519475061,-7.87516738063398,-2.19434218588337,6.7779962876923,-1.74324150443362,-5.03475478325868
0.616113744075829,-4.81598558434865,-8.50819669543071,-3.69221111108206,6.66209113988968,-0.561887236633295,-6.10020390325639
0.618267987936234,-3.70143932155458,-8.69432410578955,-4.99288478423497,6.19788171367206,0.645722731340196,-6.84360444501226
0.620422231796639,-2.11952597543496,-8.10504212040068,-5.98551614496572,5.11228404791782,1.93299508476538,-7.0452791326832
0.622576475657044,-0.0707300767059601,-6.6642837666561,-6.59355368995014,3.36750692168103,3.26141180662209,-6.62891872830312
0.624730719517449,2.2044240951307,-4.58683663180304,-6.79126072693375,1.19120626833617,4.49784241103223,-5.6890486793684
0.626884963377854,4.33220777772021,-2.28867817464715,-6.62088595236737,-1.02176480153653,5.47654686504379,-4.45478206350726
0.629039207238259,5.98553248299886,-0.215783316266989,-6.20131579926585,-2.88487458336594,6.09342414113235,-3.20854955776642
0.631193451098664,7.03925785004319,1.32847700407429,-5.7107808459689,-4.18386742705874,6.37501934800604,-2.19115192094731
0.633347694959069,7.6183118707763,2.28128063018799,-5.33703124058831,-4.94979625048214,6.47767155568231,-1.52787530520016
0.635501938819474,8.01599404557732,2.80353858497386,-5.21245546060346,-5.40976631527559,6.61422475309039,-1.2044584378148
0.637656182679879,8.52889727405258,3.1622170258428,-5.36668024820979,-5.84555714994769,6.94778876113118,-1.1022316111835
0.639810426540284,9.29650375671693,3.5754926406445,-5.72101111607242,-6.43599819868071,7.50875743639467,-1.07275923771396
0.641964670400689,10.228815521091,4.10358443076133,-6.12523109032967,-7.16619997592616,8.17702330571033,-1.01082332978417
0.644118914261094,11.0594477533828,4.64188420968735,-6.41756354369548,-7.85066598153509,8.73850564853915,-0.887839667004064
0.646273158121499,11.4978718172668,5.01360590278971,-6.48426591447712,-8.25573886002826,8.99106886587197,-0.735330005843707
0.648427401981904,11.4029699826558,5.10145513866676,-6.30151484398901,-8.25221256066127,8.85224241332239,-0.600029852661123
0.650581645842309,10.8860134275406,4.93672174757778,-5.94929167996281,-7.91136758755919,8.41765255375171,-0.506284966192515
0.652735889702714,10.2844345596541,4.69228477717028,-5.59214978248379,-7.48835966841218,7.93829217106893,-0.449932502656754
0.654890133563119,10.0145948896844,4.58597974799675,-5.42861514168764,-7.30028731884057,7.72160501568601,-0.421317696845447
0.657044377423524,10.3775974156266,4.75569789769138,-5.62189951793519,-7.56664765665897,7.99974846678087,-0.433100810121903
0.659198621283929,11.4194658768012,5.18335927079402,-6.2361066060072,-8.30141257379762,8.82778624140421,-0.526373667606588
0.661352865144334,12.9186645361663,5.71266626802878,-7.20599826813752,-9.31566540209754,10.0623314021519,-0.74666600005437
0.663507109004739,14.5055883885258,6.14797271430017,-8.35761567422567,-10.326780551413,11.4316020313758,-1.10482147996275
0.665661352865144,15.8489582030424,6.37555731820029,-9.47340088484212,-11.1122577606214,12.6611795439423,-1.54892178332091
0.667815596725549,16.8110100879669,6.43852419983731,-10.3724858881296,-11.6247671439021,13.5917479880483,-1.96698084414616
0.669969840585954,17.4934500652353,6.52248895276483,-10.9709611124704,-12.007969509,14.2322055888529,-2.2242360798528
0.672124084446359,18.1564363420523,6.85522035366443,-11.3012159883878,-12.5058283478584,14.7288261652201,-2.22299781736171
0.674278328306764,19.0595495901452,7.56960107322605,-11.4899485169192,-13.3145753316856,15.2747490535322,-1.96017372184657
0.676432572167169,20.3121819527342,8.60446238199552,-11.7077195707387,-14.4583221673649,16.0099507617365,-1.55162859437159
0.678586816027574,21.8128896111532,9.70447540890646,-12.1084142022468,-15.7586825100298,16.9606519067,-1.20196939667015
0.680741059887979,23.3078105046511,10.5300557636077,-12.7777547410434,-16.9189331341294,18.0427826228473,-1.12384948871789
0.682895303748384,24.5330857725579,10.8278735384211,-13.7052122341368,-17.6804796554895,19.1191490033474,-1.43866934785786
0.685049547608789,25.3608814461245,10.5757232613877,-14.7851581847368,-17.9683023537561,20.0730198154306,-2.10471746167454
0.687203791469194,25.8680552203945,10.0219311324015,-15.846124087993,-17.944993176398,20.8570896541937,-2.91209647779572
0.689358035329599,26.2899468481758,9.58858377541605,-16.7013630727597,-17.9392653117959,21.4956549604678,-3.55638964867185
0.691512279190004,26.8846197316477,9.67882322953048,-17.2057965021172,-18.2817214805891,22.0452081168824,-3.76348663629336
0.693666523050409,27.7817786553258,10.4840067802004,-17.2977718751254,-19.1328927177631,22.5397752652256,-3.40688254746246
0.695820766910814,28.8998775372596,11.8909431541621,-17.0089343830974,-20.3954103457109,22.9544059601785,-2.55899561446764
0.697975010771219,29.9786567210728,13.5355470347141,-16.4431096863587,-21.7571018778934,23.2108832037157,-1.4537813258223
0.700129254631624,30.7113021725615,14.9695299602419,-15.7417722123196,-22.8404160664017,23.2265371924405,-0.386121126038832
0.702283498492029,30.9058811254974,15.8511957078923,-15.0546854176051,-23.3785384166949,22.9802832715512,0.398255145143628
0.704437742352434,30.5898644296258,16.0692944943747,-14.5205699352511,-23.3295794620003,22.5552171824384,0.774362279561837
0.706591986212839,30.0016982767093,15.7516523805866,-14.2500458961228,-22.8766753286479,22.1258720864161,0.750803242231898
0.708746230073244,29.4734692254271,15.1683263125939,-14.3051429128333,-22.3208977690105,21.8893060691302,0.431591699880297
0.710900473933649,29.2687548017738,14.5855752397969,-14.6831795619769,-21.9271650207854,21.9759671818754,-0.0488021610900073
0.713054717794054,29.4665455459238,14.1460209878563,-15.3205245580675,-21.80628326689,22.3935350519956,-0.5872517851056
0.715208961654459,29.9557463281548,13.8347333513693,-16.1210129767855,-21.8952398397621,23.0383796524701,-1.14313981270806
0.717363205514864,30.5382315265219,13.5440980566117,-16.9941334699102,-22.0411647915668,23.7661824982161,-1.72501770664925
0.719517449375269,31.0747930063715,13.1933224812949,-17.8814705250766,-22.1340577438332,24.4781317657241,-2.34407402189087
0.721671693235674,31.5864281334938,12.8253407189463,-18.7610874145474,-22.2058844262201,25.1737577740206,-2.96787334780055
0.723825937096079,32.2502936618943,12.6174786720993,-19.632814989795,-22.4338861669968,25.9415543258446,-3.50766815884784
0.725980180956484,33.2874374630977,12.7944272684364,-20.4930101946613,-23.040932365767,26.8902238288795,-3.84929146311245
0.728134424816889,34.8013631448858,13.4910874207901,-21.3102757240957,-24.1462252828379,28.0558194344908,-3.90959415165284
0.730288668677294,36.6610773741289,14.6449393054045,-22.0161380687244,-25.6530083397667,29.3386077214267,-3.68559938165998
0.732442912537699,38.5047104678959,15.9847423826867,-22.5199680852092,-27.2447264252913,30.5123392765526,-3.26761285126128
0.734597156398104,39.8752353209788,17.1316335779399,-22.7436017430388,-28.5034344494593,31.3094185320088,-2.80598408254944
0.736751400258509,40.4262749644526,17.7677686825468,-22.6585062819058,-29.0970218234997,31.5423906231792,-2.44536879967952
0.738905644118914,40.0957813137453,17.7881244118858,-22.3076569018596,-28.9419528628156,31.2017191078025,-2.25976624498688
0.741059887979319,39.1575429759986,17.3536553208583,-21.8038876551402,-28.2555991484284,30.4807153155694,-2.22511616714096
0.743214131839724,38.1176302405158,16.8113650975521,-21.3062651429637,-27.4644976690339,29.7119476917398,-2.24745002270584
0.745368375700129,37.4989526603373,16.5188535583452,-20.9800991019921,-27.0089031093412,29.2395258811647,-2.23062277182346
0.747522619560534,37.6152459125667,16.667526435496,-20.9477194770707,-27.1413861740313,29.2814826948187,-2.14009652078737
0.749676863420939,38.4438312770437,17.2014330901119,-21.2423981869318,-27.8226321835778,29.8431147319877,-2.02048254840996
0.751831107281344,39.6576210809567,17.8717655048205,-21.7858555761363,-28.7646932928886,30.7217383285465,-1.9570450356579
0.753985351141749,40.7971122866897,18.3877481233716,-22.4093641633181,-29.5924302050307,31.6032382250039,-2.01080801997321
0.756139595002154,41.4953496167561,18.5749926261037,-22.9203569906524,-30.0351711214299,32.2078533037042,-2.17268218227435
0.758293838862559,41.6461774765907,18.4575303493897,-23.188647127201,-30.0518539129902,32.4174123018958,-2.36555838890567
0.760448082722964,41.4365622811872,18.2269693474771,-23.2095929337101,-29.8317658143321,32.3230776074487,-2.49131179311653
0.762602326583369,41.2317395428974,18.121848385555,-23.1098911573423,-29.6767939642262,32.1708153501199,-2.49402138589365
0.764756570443774,41.3760636140732,18.2849139529134,-23.0911496611598,-29.8304887834933,32.2336066376165,-2.40311785412316
0.766910814304179,42.0154590769846,18.6763984866385,-23.3390605903461,-30.3459287818115,32.6772598336653,-2.33133105185378
0.769065058164584,43.0338338225123,19.0911488340936,-23.9426849884187,-31.0624913283029,33.4882594054655,-2.42576807716259
0.771219302024989,44.131658424564,19.2708179131242,-24.8608405114398,-31.7012381688441,34.4962494680019,-2.79501129915777
0.773373545885394,44.9972338630241,19.0504482183438,-25.9467856446804,-32.0238410406839,35.4720097538522,-3.4481687131683
0.775527789745799,45.4731429257351,18.4604717250911,-27.012671200644,-31.9668073254131,36.2429070631895,-4.27609973777644
0.777682033606204,45.6258694998119,17.7287692825684,-27.8971002172436,-31.6773193911901,36.7614848585277,-5.08416546733759
0.779836277466609,45.6820245792718,17.1798047204823,-28.5022198587895,-31.4309146498771,37.0921222190306,-5.66120756915358
0.781990521327014,45.8717690018425,17.0829525286525,-28.7888164731899,-31.4773607652475,37.3302927375162,-5.8529319722687
0.784144765187419,46.275600893238,17.5301061078913,-28.7454947853467,-31.9028535005646,37.5105478392923,-5.60769433872767
0.786299009047824,46.769151543979,18.4054758709283,-28.3636756730507,-32.5873137074537,37.5664136085149,-4.97909990106117
0.788453252908229,47.1007620586824,19.4585075569869,-27.6422545016955,-33.2796348078347,37.371508280189,-4.09187347235432
0.790607496768634,47.0560457009219,20.4366891955232,-26.6193565053987,-33.7463674482226,36.8377011031603,-3.09133365493776
0.792761740629039,46.6120840498156,21.2074456316336,-25.4046384181821,-33.9097648407246,36.0083612339989,-2.09859639327426
0.794915984489444,45.9893525703776,21.8066601448021,-24.1826924255755,-33.8980063575898,35.0860224979765,-1.18801614038668
0.797070228349849,45.5660896292322,22.3892873582773,-23.176802270955,-33.9776884937547,34.3714459500936,-0.39375745633884
0.799224472210254,45.6962435840524,23.1088120635445,-22.5874315205079,-34.4025278237984,34.1418375522801,0.260690271518303
0.801378716070659,46.5265426424864,23.9931217962901,-22.5334208461963,-35.2598322193882,34.5299817443413,0.729850475046874
0.803532959931064,47.9095781160842,24.8910549979809,-23.0185231181033,-36.4003165570325,35.4640506170937,0.936265939938785
0.805687203791469,49.4582676665465,25.5274879829187,-23.9307796836278,-37.4928778247326,36.6945236750871,0.798354149645455
0.807841447651874,50.7137061119991,25.6424095585879,-25.0712965534112,-38.1780578352935,37.8925013327052,0.285556502588324
0.809995691512279,51.3429834188779,25.1383361415377,-26.2046472773402,-38.2406597802078,38.7738153481091,-0.533155567901236
0.812149935372684,51.2720516961458,24.1527918034917,-27.119259892654,-37.7124217498188,39.1956557943999,-1.48323404458115
0.814304179233089,50.693633012278,23.0127835099927,-27.6808495022852,-36.8532082611353,39.1872412572816,-2.33403299614625
0.816458423093494,49.9528584807568,22.0927934210877,-27.8600650596691,-36.0228259509223,38.906461770213,-2.88363581929067
0.818612666953899,49.3736682708943,21.6504341879968,-27.7232340828975,-35.5120512294455,38.5484511768959,-3.03639994745033
0.820766910814304,49.1166854185571,21.7242446784509,-27.3924407401061,-35.420465048504,38.2545630793316,-2.83409803082759
0.822921154674709,49.1377399985314,22.1412261300482,-26.9965138684833,-35.6394830642898,38.0671269335074,-2.42764386921755
0.825075398535114,49.2570400598885,22.6228834407783,-26.6341566191103,-35.9399617503334,37.9455983394994,-2.00563658916599
0.827229642395519,49.2891438596155,22.9322967846138,-26.3568470750018,-36.1107203221147,37.8229954673087,-1.71227514519402
0.829383886255924,49.1580433843816,22.9899763233395,-26.1680670610421,-36.0740098538605,37.6630552227119,-1.58904536885133
0.831538130116329,48.937650816556,22.9034132939265,-26.0342375226295,-35.9205320552413,37.4859441695928,-1.56541211435152
0.833692373976734,48.8011465898166,22.8962857362813,-25.9048608535352,-35.848716163049,37.3530037216759,-1.50428755862694
0.835846617837139,48.9118703587291,23.1731851606209,-25.7386851981082,-36.042527759675,37.3252777784186,-1.28275001874366
0.838000861697544,49.3209930467333,23.7915136389155,-25.5294794078178,-36.5562533428244,37.4252362272756,-0.868982884451174
0.840155105557949,49.9333902731947,24.6121888954311,-25.3212013777636,-37.2727895843129,37.6272958254791,-0.35450624116622
0.842309349418354,50.5620820986568,25.3600369209103,-25.2020451777465,-37.9610595097835,37.8820636382016,0.0789958715819097
0.844463593278759,51.0389521858704,25.7637851020041,-25.2751670838663,-38.4013686439373,38.1570596348684,0.244309009068893
0.846617837139164,51.3183431812418,25.7003355741244,-25.6180076071174,-38.5093393776831,38.4681753941796,0.0411639835034592
0.848772080999569,51.5148645926738,25.2644927860082,-26.2503718066656,-38.389678689341,38.8826181996697,-0.492939510328682
0.850926324859974,51.8499111626487,24.7239241106676,-27.1259870519811,-38.2869176366581,39.4879491073149,-1.20103147065678
0.853080568720379,52.5281609686039,24.3800771567584,-28.1480838118455,-38.4541190626812,40.3381223902247,-1.88400332754353
0.855234812580784,53.6079180190334,24.4093636077902,-29.1985544112432,-39.0086408134118,41.4032362151383,-2.39459540172655
0.857389056441189,54.9429853210309,24.774333093216,-30.1686522278149,-39.8586592071234,42.5558187744229,-2.69715956729948
0.859543300301594,56.2401972563674,25.2579179871243,-30.9822792692431,-40.7490576217459,43.6112382628052,-2.86218064105937
0.861697544161999,57.2088184300023,25.6041141449759,-31.6047042850264,-41.4064662874891,44.4067613575143,-3.00029507002523
0.863851788022404,57.720333273145,25.6867984850037,-32.0335347881413,-41.7035658790743,44.8769340306431,-3.17336815156879
0.866006031882809,57.88887262192,25.6095830610549,-32.279289560865,-41.7492278414874,45.0840810913925,-3.33485324990506
0.868160275743214,58.0257438776652,25.6743605410478,-32.3513833366174,-41.8500522093565,45.1885636071413,-3.33851139778481
0.870314519603619,58.4879549385239,26.2281793277549,-32.259775610769,-42.3580671331394,45.3738652746464,-3.01579814150702
0.872468763464024,59.4963288384217,27.468910309349,-32.0274185290727,-43.4826195738854,45.7618736837472,-2.27925410986182
0.874623007324429,61.0176919691721,29.3169155311611,-31.700776438011,-45.1673037501666,46.3592342035915,-1.19193045342492
0.876777251184834,62.775252741938,31.4235287558177,-31.3517239861203,-47.0993907488779,47.0634883640292,0.035902384848729
0.878931495045239,64.3835793845603,33.3101797606179,-31.0733996239424,-48.8468795725891,47.7284895042514,1.11839006833775
0.881085738905644,65.5372630645607,34.5639692393175,-30.9732938252433,-50.0506161519391,48.255278444902,1.79533770703711
0.883239982766049,66.1546984494123,34.9940856647414,-31.1606127846709,-50.5743920570769,48.6576556170416,1.91673644003529
0.885394226626454,66.4028251451681,34.6808668524226,-31.7219582927455,-50.5418459987954,49.0623917189568,1.47945427983858
0.887548470486859,66.5890522396904,33.9040835413454,-32.6849686983451,-50.2465678905179,49.6370104690178,0.609557421500135
0.889702714347264,66.9745273929526,32.9940354045954,-33.9804919883572,-49.984281398774,50.4775096906549,-0.493228291880911
0.891856958207669,67.6069587382088,32.1841937655945,-35.4227649726143,-49.8955762519017,51.5148618554116,-1.6192856035099
0.894011202068074,68.2648738731809,31.5386271642115,-36.7262467089694,-49.9017505186962,52.4955602910751,-2.59380977237895
0.896165445928479,68.5468228787079,30.9825589710184,-37.5642639076895,-49.7646909248631,53.0555433931987,-3.29085246833555
0.898319689788884,68.0617556874896,30.4065622263481,-37.6551934611416,-49.2341589569188,52.8584745743156,-3.62431561739676
0.900473933649289,66.6256368455913,29.7781662667068,-36.8474705788845,-48.2019015561491,51.7365537122379,-3.53465215608881
0.902628177509694,64.3689764771494,29.1968243826948,-35.1721520944546,-46.7829004299221,49.770564285802,-2.98766385587993
0.904782421370099,61.7061126618745,28.8625207159466,-32.8435919459279,-45.2843166889105,47.2748523039012,-1.99053561499066
0.906936665230504,59.1853803684644,28.973955391605,-30.2114249768595,-44.0796678800347,44.6984026726619,-0.618734792627247
0.909090909090909,57.2956379695619,29.6088194505894,-27.6868185189725,-43.4522287100756,42.4912282442672,0.961000465808418
0.911245152951314,56.3197865327398,30.6516670351058,-25.668119497634,-43.4857267839228,40.9939530151869,2.4917737687359
0.913399396811719,56.2931516128994,31.8158607584349,-24.4772908544644,-44.0545061856671,40.3852212336819,3.66928495198524
0.915553640672124,57.0653436492897,32.7581063664112,-24.3072372828785,-44.9117250078504,40.6862904660841,4.22543454176633
0.917707884532529,58.4136108203035,33.2296514006376,-25.1839594196659,-45.8216311104705,41.7987851199847,4.02284599048587
0.919862128392934,60.1391099843643,33.1818623048859,-26.9572476794785,-46.6604861446251,43.5481788319214,3.11230731270371
0.922016372253339,62.0981440291781,32.7669401506718,-29.3312038785063,-47.432542089925,45.7146739538422,1.7178681360828
0.924170616113744,64.1642049294024,32.2353603661089,-31.9288445632936,-48.1997826477557,48.046524746348,0.153257901407642
0.926324859974149,66.1617631418574,31.7921352448606,-34.3696278969969,-48.976949193359,50.2656955194272,-1.28874632606814
0.928479103834554,67.8344296827319,31.495575986355,-36.3388536963768,-49.6650028345434,52.0866416895543,-2.4216388550109
0.930633347694959,68.8909783031961,31.2519054649141,-37.639072838282,-50.0714418840551,53.2650255707391,-3.19358368668399
0.932787591555364,69.120383421799,30.8993211392929,-38.2210622825061,-50.0098522805459,53.6707228521526,-3.66087057160664
0.934941835415769,68.5156767647694,30.3263319594655,-38.1893448053039,-49.4210043621174,53.3525107850366,-3.93150642291918
0.937096079276174,67.3304904714655,29.5575138140365,-37.772976657429,-48.444002142751,52.5517335644473,-4.10773142169625
0.939250323136579,66.0207203047003,28.7632126084866,-37.2575076962137,-47.3919664565934,51.639114000457,-4.24714754386358
0.941404566996984,65.0809604199922,28.1904545627622,-36.89050585723,-46.6357074913772,50.9857331386111,-4.35002564723391
0.943558810857389,64.8436186803985,28.0511786334507,-36.7924400469478,-46.4473986569246,50.8180293636731,-4.37063070674857
0.945713054717794,65.3372767090582,28.4242339084478,-36.9130428006104,-46.880755308753,51.1251597548343,-4.24440444608127
0.947867298578199,66.2787812563615,29.2196012238111,-37.0591800325503,-47.7491912400863,51.6689806444559,-3.91978940436959
0.950021542438604,67.2076782494947,30.2210081765768,-36.9866700729179,-48.7143432130357,52.0971741612063,-3.38283094817058
0.952175786299009,67.6985798043591,31.1837723515342,-36.5148074528249,-49.4411760779467,52.106693628592,-2.66551755064532
0.954330030159414,67.5481476244013,31.938209248916,-35.6099383754853,-49.7431784366587,51.5790429999433,-1.83586456328463
0.956484274019819,66.8476428777728,32.4471124670603,-34.4005304107125,-49.6473776724165,50.6240866442426,-0.976708971826113
0.958638517880224,65.9104520064754,32.7893560724158,-33.1210959340596,-49.3499040394456,49.5157739702675,-0.165869930821863
0.960792761740629,65.0976058706733,33.0808753032276,-32.0167305674457,-49.0892405869504,48.5571682190595,0.532072367890954
0.962947005601034,64.6351734932603,33.3798578869653,-31.2553156062949,-49.0075156901128,47.9452445497776,1.06227114033518
0.965101249461439,64.5173826865811,33.6330683730498,-30.8843143135313,-49.0752255298155,47.7008485000562,1.37437702975926
0.967255493321844,64.5396123276607,33.696295146523,-30.8433171811377,-49.1179537370919,47.6914647543992,1.42648898269267
0.969409737182249,64.4360311781841,33.4182178473049,-31.0178133308792,-48.9271245127445,47.7269222545317,1.20020225821283
0.971563981042654,64.0445387991882,32.73995964272,-31.3045791564681,-48.3922492209541,47.6745589778282,0.717690243125936
0.973718224903059,63.4103129026828,31.7522173624936,-31.6580955401891,-47.5812651325882,47.534204221436,0.0470609111522471
0.975872468763464,62.7726357832252,30.6735946297151,-32.09904115351,-46.7231152064701,47.4358384683676,-0.712723261897452
0.978026712623869,62.4425405119571,29.7582773776385,-32.6842631343186,-46.1004089447978,47.5634018231379,-1.46299287834003
0.980180956484274,62.6395644499574,29.1846845414829,-33.4548799084745,-45.9121244957201,48.047222179216,-2.13509768349584
0.982335200344679,63.3794132881134,28.9900848147007,-34.3893284734127,-46.184749051407,48.884370880763,-2.69962182935599
0.984489444205084,64.474663172782,29.0877441158744,-35.3869190569076,-46.7812036443282,49.9307911148448,-3.14958747051662
0.986643688065489,65.6447925665083,29.352592649292,-36.2921999172163,-47.4986926079001,50.9684962418623,-3.46980363396217
0.988797931925894,66.6696593208373,29.722573134958,-36.9470861858794,-48.1961162278976,51.8083727533583,-3.6122565254607
0.990952175786299,67.4979070721923,30.255361224875,-37.2425458473173,-48.8766341485336,52.3702264597548,-3.49359231122119
0.993106419646704,68.2490350834634,31.1030748917377,-37.1459601917257,-49.6760549876006,52.6974976375945,-3.02144264999396
0.995260663507109,69.107644332574,32.4104323114297,-36.6972120211443,-50.7590383220019,52.9024281768591,-2.14338985485728
0.997414907367514,70.1688455131624,34.187362346014,-35.9814831671484,-52.1781039295882,53.0751643401554,-0.897060410567207
0.999569151227919,71.3240620536415,36.2302638918427,-35.0937981617989,-53.7771629727421,53.2089301077202,0.568232865021919
1.00172339508832,72.2590235144683,38.1478555094806,-34.1111680049877,-55.2034395119745,53.185095759728,2.01834375224644
1.00387763894873,72.5767580922774,39.493445192082,-33.0833129001954,-56.0351016421797,52.8300354962364,3.20506614594333
1.00603188280913,71.9885484641346,39.9457152977593,-32.0428331663753,-55.967131880947,52.015690815255,3.95144106569198
1.00818612666954,70.4747761844163,39.4498775243844,-31.0248986600319,-54.9623268544003,50.7498374222241,4.21248943217627
1.01034037052994,68.3293099552919,38.2478588220543,-30.0814511332376,-53.2885843886731,49.2053805442648,4.08320384440837
1.01249461439035,66.0596336904639,36.7801606360093,-29.2794730544545,-51.4198971632366,47.6695533724592,3.7503437907774
1.01464885825075,64.1895764436046,35.5044506847927,-28.6851257588119,-49.8470135641987,46.4373511012082,3.40966246299043
1.01680310211116,63.0623694260082,34.7165241502368,-28.3458452757714,-48.8894467881225,45.7041073508898,3.18533943723268
1.01895734597156,62.7393221038336,34.4580687926241,-28.2812533112095,-48.5986954482289,45.5102877075215,3.08840774070732
1.02111158983197,63.0347693928898,34.5508454189601,-28.4839239739298,-48.792807405925,45.7593466834098,3.03346072251516
1.02326583369237,63.6550802680652,34.7308948333604,-28.9241854347048,-49.1929875507128,46.289632851385,2.90335469932781
1.02542007755278,64.3604910505293,34.8065346880937,-29.5539563624356,-49.5835128693115,46.9572237064825,2.62628916282904
1.02757432141318,65.0651681054529,34.7564206234619,-30.308747481991,-49.9107943644574,47.6869577937219,2.22383657073543
1.02972856527359,65.8290093880685,34.7186715898444,-31.1103377982242,-50.2738404889564,48.4696735931463,1.80416689581011
1.03188280913399,66.7542527238354,34.8805733754039,-31.8736793484315,-50.8174130496196,49.3139660361335,1.50344701348617
1.0340370529944,67.852617114636,35.3342291645608,-32.5183879500752,-51.5934231395984,50.1855025323556,1.40792060724279
1.0361912968548,68.9658324472107,35.9860597707939,-32.9797726764169,-52.4759461090023,50.9728025618138,1.5031435471885
1.03834554071521,69.7927449197694,36.5782891040446,-33.2144558157248,-53.185517011907,51.5036003677471,1.68191664415993
1.04049978457561,70.0169302150835,36.8135022281076,-33.2034279869759,-53.4152162215956,51.6101791010297,1.80503712056589
1.04265402843602,69.4730301601257,36.5122430089989,-32.9607871511268,-52.9926365845623,51.2169086556262,1.77572792893604
1.04480827229642,68.2650828901189,35.7156521887843,-32.5494307013346,-51.9903675394516,50.4072567957267,1.58311074372487
1.04696251615683,66.7675037308676,34.6771064603818,-32.0903972704858,-50.7223050956247,49.4289505006767,1.29335459494796
1.04911676001723,65.4939481102978,33.7477789476732,-31.7461691626246,-49.6208635289855,48.6200586364612,1.00080489252429
1.05127100387764,64.887754118173,33.2178946375547,-31.6698594806183,-49.0528243778639,48.2788067993957,0.774017578468175
1.05342524773804,65.1339149305577,33.1976274309752,-31.9362874995825,-49.1657711807664,48.5351012150701,0.630669965696327
1.05557949159845,66.0869909121442,33.5957037054759,-32.4912872066683,-49.8413473088101,49.2891390594063,0.552208249403805
1.05773373545885,67.3509865997962,34.1958880874895,-33.1550985123067,-50.7734373436428,50.2530425560515,0.520394787591371
1.05988797931926,68.4680537402127,34.7794726504352,-33.6885810897775,-51.6237631953239,51.0783174149951,0.545445780328848
1.06204222317966,69.1181536375848,35.2255725543598,-33.892581083225,-52.1718630959723,51.5053673604049,0.666495735567366
1.06419646704007,69.2304635186382,35.5419680301161,-33.6884954885221,-52.3862157743772,51.4594795035801,0.926736270797036
1.06635071090047,68.9573068587983,35.8192572499284,-33.1380496088699,-52.3882820543633,51.0476782338341,1.34060382052925
1.06850495476088,68.5360905396692,36.1402156758637,-32.3958748638055,-52.3381531077664,50.4659827017374,1.87217040602907
1.07065919862128,68.125764683282,36.49891874625,-31.626845937032,-52.312341714766,49.876305310157,2.43603640460903
1.07281344248169,67.7161560712169,36.7797535566391,-30.9364025145778,-52.247954813928,49.3262792928974,2.92167552103061
1.07496768634209,67.161222592955,36.8143743282837,-30.3468482646713,-51.9877984606193,48.7540354288131,3.23376303180622
1.0771219302025,66.3100613250223,36.4890550958847,-29.8210062291377,-51.3995582104535,48.06553377708,3.33402443337351
1.0792761740629,65.1511977004429,35.840161267372,-29.3110364330709,-50.4956794839075,47.2311170667569,3.26456241715057
1.08143041792331,63.8789897407707,35.0742038381264,-28.8047859026443,-49.4765967894486,46.3418878217075,3.13470896774104
1.08358466178371,62.8356992556792,34.4872479582452,-28.348451297434,-48.6614736069622,45.5920752765566,3.0693983304056
1.08573890564412,62.3526040378777,34.316857443886,-28.0357465939917,-48.3347307408819,45.1941753159347,3.14055542494718
1.08789314950452,62.5719888873298,34.6031890524319,-27.9687998348979,-48.5875889698808,45.2703943611139,3.31719460876696
1.09004739336493,63.3486078733013,35.1382242933827,-28.2103835799186,-49.243416083342,45.7794957266099,3.46392035673204
1.09220163722533,64.2927143727536,35.5409066588726,-28.751807713881,-49.9168105158131,46.5222610433173,3.39454947249578
1.09435588108574,64.9427516036326,35.430381354253,-29.5123702493797,-50.1865664789428,47.2275609265061,2.95900555243667
1.09651012494614,64.9846661020752,34.613784071546,-30.3708820305293,-49.7992250868106,47.6777740663022,2.12145102050836
1.09866436880655,64.4076691331179,33.1924839396021,-31.2151851935157,-48.80007653636,47.8114271633168,0.988649373043195
1.10081861266695,63.5164564540323,31.5305935677826,-31.9858628862496,-47.5235250109075,47.751159670141,-0.227634659233491
1.10297285652736,62.789319612878,30.0995109703622,-32.6898086425158,-46.4444152916201,47.7395641276969,-1.29514883607681
1.10512710038776,62.6472309883366,29.2745292562043,-33.3727017321323,-45.9608801222704,48.0099663602344,-2.04908623796401
1.10728134424817,63.2460613463774,29.1825388673967,-34.0635224789807,-46.2143001068871,48.654791912679,-2.44049180579195
1.10943558810857,64.3962180596976,29.6721422112884,-34.7240758484092,-47.034180135493,49.5601469540534,-2.52596681856038
1.11158983196898,65.6498264073935,30.413969998315,-35.2358564090785,-48.0318982028542,50.442841408236,-2.41094320538176
1.11374407582938,66.5084152006216,31.07401090736,-35.4344042932616,-48.7912130539908,50.9714097469416,-2.18019669295079
1.11589831968979,66.6441753080011,31.4698110362997,-35.1743642717014,-49.0569931721504,50.9092697898513,-1.85227661770083
1.11805256355019,66.0271308240725,31.6325028955206,-34.3946279285519,-48.8298168597966,50.2108793763122,-1.38106251651561
1.1202068074106,64.9040213688347,31.7479948764514,-33.1560264923833,-48.326008122643,49.030023930609,-0.704015807965963
1.122361051271,63.6513371997415,32.0135860288735,-31.637751170868,-47.8324616143075,47.6445441853048,0.187917429002727
1.12451529513141,62.5865910832514,32.490943591334,-30.0956474919173,-47.5387673372927,46.3411192875843,1.19764804970837
1.12666953899181,61.837214628297,33.0387709031963,-28.7984437251007,-47.4379927657466,45.3178291766988,2.12016358904781
1.12882378285222,61.3272983870482,33.3653483697259,-27.9619500173223,-47.3463233783871,44.6446242021852,2.70169917620183
1.13097802671262,60.8734209177798,33.1751602415517,-27.698260676228,-47.0242905796657,44.2858407970039,2.73844978266186
1.13313227057303,60.3234421299025,32.3315707023547,-27.9918714275478,-46.3275064161286,44.1576567787251,2.16984963740346
1.13528651443343,59.6557313616765,30.9471696391775,-28.708561722499,-45.301450500427,44.1821465420877,1.11930395833928
1.13744075829384,58.9848496301098,29.3505660005285,-29.6342836295813,-44.1677078153192,44.3095666298456,-0.141858814526401
1.13959500215424,58.4756539426411,27.9448350406492,-30.5308189019919,-43.2102444916451,44.5032364223165,-1.29299193067132
1.14174924601465,58.220956517643,27.0327191833743,-31.1882373342687,-42.6268378505087,44.7045969259559,-2.07775907544721
1.14390348987505,58.1587429723494,26.7009205442951,-31.4578224280543,-42.4298317583223,44.8082827002019,-2.3784509418796
1.14605773373546,58.0818052411946,26.8196008832108,-31.2622043579838,-42.4507030622027,44.6720047995892,-2.22130173738648
1.14821197759586,57.7397773356156,27.1477383151333,-30.5920390204823,-42.4437578253744,44.165908178049,-1.72215035267453
1.15036622145627,56.981029395051,27.4800819858222,-29.5009474092288,-42.2305556904366,43.2409884021399,-1.01043271170331
1.15252046531667,55.8569160015945,27.7547283692276,-28.1021876323668,-41.805822185411,41.9795518169806,-0.1737296315696
1.15467470917708,54.6266594364134,28.0657050843077,-26.5609543521056,-41.3461822603605,40.5938068942595,0.752375366101056
1.15682895303748,53.6524949245933,28.5771344658101,-25.0753604587832,-41.1148146952017,39.3639276916882,1.75088700351344
1.15898319689789,53.236252034452,29.3890979557092,-23.8471540787428,-41.3126749950806,38.5417030565974,2.77097193848318
1.16113744075829,53.483491908463,30.4337314014614,-23.0497605070016,-41.9586116549622,38.2666262077323,3.69198544722988
1.1632916846187,54.2657008781198,31.466730345184,-22.7989705329358,-42.8662156116519,38.5323357055278,4.3338799061241
1.1654459284791,55.2949000884377,32.1682217133821,-23.1266783750556,-43.7315609009099,39.2107892317467,4.52077166916323
1.16760017233951,56.2652118438451,32.3043750553772,-23.9608367884679,-44.2847934496112,40.1130243161565,4.17176913345464
1.16975441619991,56.9859772316047,31.8629131302416,-25.1230641013631,-44.4244451809231,41.0545206664839,3.36992451443927
1.17190866006032,57.4410135040576,31.0849012430399,-26.3561122610177,-44.2629573735487,41.8985628825376,2.36439449101107
1.17406290392072,57.7490389439207,30.3684312104046,-27.3806077335161,-44.0587350771626,42.5648233387184,1.49391173844421
1.17621714778113,58.0523102526417,30.0890271378867,-27.963283114755,-44.0706686952642,43.0077966836984,1.06287201156583
1.17837139164153,58.4000768818217,30.4282952553836,-27.9717816264381,-44.4141860686026,43.1859292541299,1.22825681447272
1.18052563550194,58.6983011284737,31.2986763207703,-27.3996248077034,-44.998488724622,43.0489629680885,1.94952575653345
1.18267987936234,58.7601466502369,32.3994457179037,-26.3607009323331,-45.5797961840703,42.560423791285,3.01937239278529
1.18483412322275,58.4306682105399,33.3689117205091,-25.0617564900308,-45.8997899655245,41.7462123502854,4.15357761523913
1.18698836708315,57.7106061945616,33.9508438576909,-23.7597623368707,-45.8307250261263,40.7351842657162,5.09554076041012
1.18914261094356,56.8002572455852,34.0926711815157,-22.7075860640695,-45.4464642135504,39.7539216548273,5.69254255872309
1.19129685480396,56.0285260508623,33.9337983313332,-22.0947277195291,-44.9811621910978,39.0616268851957,5.91953530590202
1.19345109866437,55.6983103307417,33.700232748099,-21.9980775826428,-44.6992715394203,38.8481939566922,5.85107758272811
1.19560534252477,55.9299170002771,33.5678453239652,-22.3620716763118,-44.7488811621211,39.1459943382944,5.6028868238267
1.19775958638518,56.5900617648385,33.5684871411179,-23.0215746237206,-45.0792744529782,39.8058181942796,5.27345625869861
1.19991383024558,57.3495888414715,33.5852153483515,-23.7643734931201,-45.4674020949115,40.5569811672958,4.9104209276157
1.20206807410599,57.8427020200147,33.4322489800136,-24.4104530400011,-45.6374755000142,41.1265775300079,4.51089797000626
1.20422231796639,57.8452793803815,32.9709656527386,-24.8743137276429,-45.4081225165601,41.3597965540122,4.04832596254785
1.2063765618268,57.3807666408846,32.1968134452369,-25.1839531956477,-44.7887900430607,41.2823599182661,3.5064301247946
1.2085308056872,56.7013797482217,31.2492434068603,-25.4521363413614,-43.9753115775409,41.0767580447915,2.89855353274942
1.21068504954761,56.1559685720451,30.3388478587046,-25.8171207133405,-43.2474082153748,40.9865446426928,2.26086357268203
1.21283929340801,56.0116849428986,29.6320483910284,-26.3796365518702,-42.8218666669635,41.1956607473844,1.62620591957906
1.21499353726842,56.3196048465517,29.1589209158014,-27.1606839307503,-42.7392628811766,41.740144388651,0.999118492525543
1.21714778112882,56.8933008287998,28.7986543235744,-28.0946465052255,-42.8459775761871,42.4939736670126,0.352003909174449
1.21930202498923,57.4110221384792,28.3546837785684,-29.0563383599108,-42.8828529585238,43.233680249195,-0.35082729067118
1.22145626884963,57.585397720874,27.6813730514888,-29.9040246693852,-42.6333853861814,43.7447111951296,-1.11132580894818
1.22361051271004,57.3081328604239,26.793625153699,-30.5145077067249,-42.0508790070614,43.9113202835744,-1.86044127651294
1.22576475657044,56.6928121713345,25.8954530364439,-30.7973591348905,-41.2941326038892,43.7450856531125,-2.45095304922328
1.22791900043085,55.995830231624,25.30251873924,-30.693311492384,-40.649174485432,43.344570862004,-2.69539637657201
1.23007324429125,55.4611876953562,25.2909920012478,-30.1701956941084,-40.376089848302,42.8156916947323,-2.43960184643031
1.23222748815166,55.1759526106497,25.9510818636578,-29.2248707469919,-40.5635172371538,42.2004116788208,-1.63689444166704
1.23438173201206,55.0180696984554,27.1274292557028,-27.8906404427526,-41.0727494770791,41.454355070604,-0.381605593524895
1.23653597587247,54.7271185968089,28.4823661505592,-26.2447524462497,-41.6047423736841,40.4859355215293,1.11880685215477
1.23869021973287,54.0592696214045,29.6486410411033,-24.4106285803013,-41.8539553312539,39.2349491008529,2.61900623040098
1.24084446359328,52.9410872998381,30.3894813465956,-22.5516059532424,-41.6652843232168,37.7463466265402,3.9189376966766
1.24299870745368,51.5385502860806,30.6837949767956,-20.854755309285,-41.1111726314381,36.1966527976828,4.9145198337553
1.24515295131409,50.20293943075,30.6975889260343,-19.5053505047157,-40.4502641783922,34.8541449677329,5.59611921065929
1.24730719517449,49.3179940697513,30.6622494725375,-18.6557445972138,-39.9901217711444,33.9868693334825,6.00325243766187
1.2494614390349,49.1224958189034,30.7276062899567,-18.3948895289467,-39.92505105443,33.7586926739251,6.16635838050496
1.2516156828953,49.5961930163537,30.8712715627655,-18.7249214535882,-40.2337322895596,34.160557234971,6.07317505458863
1.25376992675571,50.4666278956244,30.9160049293647,-19.5506229662597,-40.6913164124945,35.008625430942,5.68269098155251
1.25592417061611,51.3333528208165,30.6455393183437,-20.6878135024728,-40.9894460695801,36.0105831616446,4.97886290793543
1.25807841447652,51.8465282238909,29.9505522950294,-21.8959759288615,-40.8985402594601,36.8712520763762,4.02728818308394
1.26023265833692,51.8512940295379,28.9170915263271,-22.9342025032108,-40.3841927779325,37.3927482663743,2.99144451155816
1.26238690219733,51.4295048540714,27.8025961081913,-23.6269087458801,-39.6160504811314,37.5282067999758,2.08784368115558
1.26454114605773,50.82406626139,26.9098480183017,-23.9142182430883,-38.8669571398458,37.3691422522391,1.49781488760671
1.26669538991814,50.2908639786132,26.4284536494629,-23.8624103291503,-38.359658814038,37.0766371538818,1.28302166015626
1.26884963377854,49.9590423948167,26.3328057783534,-23.6262366164634,-38.145924086585,36.79263950564,1.353284580945
1.27100387763895,49.7728045768653,26.3940567740789,-23.3787478027864,-38.0834306754721,36.5757761898258,1.50765448564624
1.27315812149935,49.5406480358956,26.3006570146191,-23.2399910212765,-37.9206525252573,36.390319528586,1.53033299667132
1.27531236535976,49.058339508224,25.824364283481,-23.233975224743,-37.4413518958525,36.1461573664835,1.29519452936903
1.27746660922016,48.2336882226949,24.9462701829138,-23.2874180397811,-36.5899792028044,35.760553131238,0.829426071566374
1.27962085308057,47.1431296760297,23.8777538948861,-23.2653757811436,-35.5104417854579,35.2042527285866,0.306189056871276
1.28177509694097,45.9893262763943,22.9622334040058,-23.0270928723885,-34.4757798402,34.5082095743914,-0.0324297341913287
1.28392934080138,44.9853670114268,22.5032173960051,-22.4821496154217,-33.744292203716,33.7337583134243,0.0105338902916969
1.28608358466178,44.2344369250384,22.605409930505,-21.6290269945335,-33.4199234277717,32.9317319597859,0.488191467985754
1.28823782852219,43.6774050026675,23.1133900949874,-20.56401490768,-33.3953975488275,32.1207099551738,1.2746875936537
1.29039207238259,43.1409107909388,23.6822869933296,-19.4586237976092,-33.4115988921342,31.299767294274,2.1118315978602
1.292546316243,42.4593343183647,23.9447285723231,-18.5146057460416,-33.2020314453439,30.4869700322032,2.71506141314072
1.2947005601034,41.6003193795504,23.689429406097,-17.9108899734535,-32.6448743928237,29.7556046765019,2.88926971632175
1.29685480396381,40.7190539210253,22.9625662314265,-17.7564876895988,-31.8408100762259,29.237770805312,2.60303927091386
1.29900904782421,40.1036627672861,22.0408730719224,-18.0627896953637,-31.0722679196043,29.0832262313249,1.98904168827939
1.30116329168462,40.034187074905,21.2881836686838,-18.7460034062212,-30.6611853717944,29.3900952405631,1.27109013123128
1.30331753554502,40.6285223191271,20.9689690093255,-19.6595533098016,-30.7987456642263,30.1440378144643,0.654707849761976
1.30547177940543,41.760138048073,21.119347521281,-20.640790526792,-31.439742784677,31.2004642874325,0.239278497244484
1.30762602326583,43.0955210978218,21.5454973712099,-21.5500237266119,-32.3205092345159,32.3227724122169,-0.00226317770102469
1.30978026712624,44.2346570669897,21.9458618546562,-22.2887952123335,-33.090259460823,33.2617261396616,-0.171466678838609
1.31193451098664,44.8825187697319,22.0832596391659,-22.799259130566,-33.4828892044489,33.8408889501489,-0.357999745700056
1.31408875484705,44.963786988557,21.9078801405933,-23.0559068479637,-33.4358335645752,34.0098469182604,-0.574013353685221
1.31624299870745,44.6245659888494,21.5633882866956,-23.0611777021538,-33.0939771377725,33.8428718455016,-0.748894707729068
1.31839724256786,44.125699882396,21.2772128396467,-22.8484870427493,-32.7014563610214,33.4870934625726,-0.785637101551263
1.32055148642826,43.6888020827357,21.204160404525,-22.4846416782107,-32.4464812436304,33.0867218804732,-0.640240636842847
1.32270573028867,43.3783627894383,21.3185353289252,-22.0598274605131,-32.3484490591818,32.7190951249757,-0.370646065793931
1.32485997414907,43.0810267909307,21.4177757341998,-21.663251056731,-32.2494012625652,32.3721389238308,-0.122737661265596
1.32701421800948,42.5889613003874,21.233636158252,-21.3553251421354,-31.9112987293197,31.9721432212614,-0.0608444919416691
1.32916846186988,41.7373699669409,20.5881635084917,-21.1492064584492,-31.1627667377163,31.443288212695,-0.280521474978759
1.33132270573029,40.5180298131437,19.5114899291769,-21.0065398839668,-30.0147598711603,30.7622848485553,-0.747524977394928
1.33347694959069,39.1058374135639,18.2607519258591,-20.8450854877048,-28.6832946697115,29.9754614506344,-1.29216678092287
1.3356311934511,37.7839435582964,17.2285881084559,-20.5553554498405,-27.5062658333761,29.1696495040685,-1.66338367069232
1.3377854373115,36.8092265508245,16.7823454790698,-20.0268810717547,-26.7957860149471,28.4180538112896,-1.62226779634243
1.33993968117191,36.2933114303032,17.1080699190404,-19.1852415112628,-26.7006906746718,27.739276470783,-1.03858579611117
1.34209392503231,36.1643970286757,18.130887006408,-18.0335100222677,-27.1476420175419,27.0989535254717,0.0486884920701627
1.34424816889272,36.2274122069696,19.5465960988332,-16.6808161081364,-27.8870041529014,26.454114157553,1.4328899953484
1.34640241275312,36.2853047060225,20.9472701189398,-15.3380345870827,-28.6162874124811,25.8116696465526,2.80461776592852
1.34855665661353,36.2536165724018,21.9819646896029,-14.2716518827989,-29.1177906310023,25.2626342276003,3.85515640340198
1.35071090047393,36.2055922336945,22.4803296124626,-13.7252626212319,-29.3429609230786,24.9654274274632,4.37753349561532
1.35286514433434,36.3206821991413,22.486396049614,-13.8342861495273,-29.4035391243777,25.0774841743343,4.32605495004334
1.35501938819474,36.7605765034911,22.1938828045012,-14.5666936989899,-29.4772296539962,25.6636351012405,3.81359455275565
1.35717363205515,37.5402864089705,21.8236392038557,-15.7166472051148,-29.6819628064131,26.6284668070427,3.05349599937044
1.35932787591555,38.4711207098571,21.5121675858219,-16.9589531240352,-29.9916441478395,27.7150369169461,2.27660723089338
1.36148211977596,39.2163848754459,21.2695252250294,-17.9468596504166,-30.2429550502377,28.5816222629312,1.66133278730641
1.36363636363636,39.4375557787633,21.0210484091798,-18.4165073695835,-30.2293020939715,28.9270315741734,1.30227051979812
1.36579060749677,38.9574417962183,20.697001944901,-18.2604398513172,-29.8272218705597,28.6089408237677,1.2182810467919
1.36794485135717,37.8567998351817,20.3065628319546,-17.5502370032271,-29.0816813335681,27.7035184192044,1.37816291436373
1.37009909521758,36.4530850739244,19.9433800958918,-16.5097049780326,-28.1982325849081,26.4813950259785,1.7168375589296
1.37225333907798,35.1664083794188,19.7151725659546,-15.4512358134642,-27.4407904726867,25.3088220964415,2.13196837624523
1.37440758293839,34.3342159701788,19.6439428892355,-14.6902730809433,-26.9890794297072,24.5122445255611,2.47683490414607
1.37656182679879,34.0651090596611,19.6098007532572,-14.4553083064039,-26.8374549064591,24.2602086830325,2.57724622342663
1.3787160706592,34.2040820620417,19.3882386090304,-14.8158434530113,-26.7961603355361,24.5099627575265,2.28619757800956
1.3808703145196,34.4236550538662,18.771505642012,-15.6521494118543,-26.5975803479391,25.0379022328603,1.55967811507885
1.38302455838001,34.3906637468245,17.7086534807833,-16.6820102660412,-26.0496586138039,25.5363370064329,0.513321607371079
1.38517880224041,33.9219884467814,16.3806851439553,-17.541303302826,-25.1513367953683,25.7316458748037,-0.580309079435366
1.38733304610082,33.0515061179296,15.1572558116576,-17.894250306272,-24.1043809647936,25.4728782121008,-1.36849724730724
1.38948728996122,31.9790945219033,14.4435863587985,-17.5355081631049,-23.2113404403509,24.7573013425041,-1.5459609021532
1.39164153382163,30.9363608636825,14.4876101518457,-16.4487507118368,-22.7119855077641,23.6925557877597,-0.980570279995533
1.39379577768203,30.0494329566186,15.2440186501642,-14.8054143064544,-22.6467258033914,22.4274236315365,0.219302171854896
1.39595002154244,29.2790413813106,16.3677839384483,-12.9112574428624,-22.8234126598795,21.0951494120865,1.72826324779296
1.39810426540284,28.4703691089801,17.3468677795598,-11.1235013294202,-22.9086184442699,19.7969352192001,3.11168322506981
1.40025850926325,27.479696070158,17.7154174057431,-9.76427866441496,-22.5975567379505,18.6219873672865,3.97556937066405
1.40241275312365,26.3017393762441,17.2492758470002,-9.05246352924385,-21.7755076116222,17.677101452744,4.09840615887819
1.40456699698406,25.1217978324582,16.0532081479311,-9.06858968452713,-20.5875029901947,17.0951937584927,3.49230923170198
1.40672124084446,24.256024553088,14.5007464918833,-9.75527806120468,-19.3783855224856,17.0056513071463,2.3727342153393
1.40887548470487,24.0023459672489,13.0600453774466,-10.9423005898023,-18.5311956723478,17.4723232785256,1.05887239382214
1.41102972856527,24.4759654603784,12.0952018572226,-12.3807636031559,-18.2855836588005,18.4283645317671,-0.142780872966638
1.41318397242568,25.5179575228603,11.7392795501687,-13.7786779726917,-18.6286185365145,19.648317747776,-1.01969921126151
1.41533821628608,26.7316083851705,11.8900731917912,-14.8415351933793,-19.3108407884809,20.7865717892749,-1.47573100079407
1.41749246014649,27.6362870144491,12.3133876071899,-15.3228994072592,-19.9748373108195,21.4795932108542,-1.50475590003467
1.41964670400689,27.8676719285774,12.789121466303,-15.0785504622744,-20.3283966974402,21.4731111954259,-1.14471449798568
1.4218009478673,27.3277213560896,13.2216675095061,-14.1060538465835,-20.2746944327978,20.7168876013365,-0.442193168538699
1.4239551917277,26.2113070115789,13.6584122870121,-12.5528947245668,-19.9348596492955,19.3821008680728,0.552758781222645
1.42610943558811,24.8981623443839,14.2101892510453,-10.6879730933385,-19.5541757977146,17.7930677188612,1.76110807885339
1.42826367944851,23.7678216740778,14.925221690704,-8.84259998337379,-19.3465216823909,16.3052108287258,3.04131085366511
1.43041792330892,23.0343675738124,15.6990691226549,-7.33529845115753,-19.3667183482336,15.184833012485,4.18188533574867
1.43257216716932,22.6832323321624,16.282119845671,-6.40111248649131,-19.4826760889167,14.5421724093268,4.94050367958986
1.43472641102973,22.5316098322465,16.3855009833825,-6.146108848864,-19.4585554078145,14.3388593405552,5.11969606725924
1.43688065489013,22.365335707139,15.8277351827619,-6.53760052437713,-19.0965354449504,14.4514681157581,4.64506732919236
1.43903489875054,22.0692002642283,14.6425571654391,-7.42664309878924,-18.3558787148337,14.7479216815088,3.60795703332493
1.44118914261094,21.6796906014882,13.0892462518087,-8.59044434967949,-17.3844684266485,15.1350674755839,2.24940095106463
1.44334338647135,21.3368376646953,11.556095993407,-9.78074167128828,-16.4464668290511,15.5587896679918,0.887677161059367
1.44549763033175,21.1696093109227,10.4020862047543,-10.7675231061684,-15.7858477578385,15.9685662085455,-0.18271845070708
1.44765187419216,21.1879712176668,9.81514004900505,-11.3728311686618,-15.5015556333359,16.2804011931643,-0.778845559828358
1.44980611805256,21.2514499959487,9.75738153463189,-11.4940684613168,-15.5044157652903,16.3727592286328,-0.868343463342473
1.45196036191297,21.1382922696722,10.0204796575856,-11.1178126120866,-15.5793859636289,16.1280524408794,-0.548666477250537
1.45411460577337,20.6785630526668,10.3554355125299,-10.3231275401369,-15.5169992825983,15.5008452964018,0.0161539861965014
1.45626884963378,19.8755094031117,10.6048071534082,-9.27070224970351,-15.24015827826,14.5731058264076,0.667052451852344
1.45842309349418,18.9428332988569,10.767491475856,-8.17534182300089,-14.8551623873565,13.5590875609289,1.29607482642756
1.46057733735459,18.2277643581297,10.962993642396,-7.26477071573377,-14.5953790002628,12.7462675369318,1.84911146333109
1.46273158121499,18.0502468817017,11.3177874309037,-6.73245945079795,-14.6840171563027,12.3913531662498,2.29266399005289
1.4648858250754,18.5368180251427,11.8437894897484,-6.69302853539428,-15.1903037574456,12.6149232802685,2.57538047717708
1.4670400689358,19.5361366111206,12.387286509018,-7.14885010210268,-15.9617115600693,13.3424933566117,2.61921820345765
1.46919431279621,20.6644106338345,12.6858539732665,-7.97855666056807,-16.6751323035505,14.3214836472013,2.3536486563492
1.47134855665661,21.4636584520855,12.5059582608465,-8.95770019123897,-16.984808356466,15.2106793216622,1.77412903480378
1.47350280051702,21.598926257456,11.7863603355537,-9.81256592190226,-16.6926432965049,15.7057460896791,0.986897206825738
1.47565704437742,21.0005383815079,10.7080509737164,-10.2924874077915,-15.8542946776121,15.6465128946497,0.207781782962416
1.47781128823783,19.8829924604577,9.64820319309195,-10.2347892673657,-14.7655978267748,15.0588908639117,-0.293293037136896
1.47996553209823,18.6321724199509,9.03323346198288,-9.598938957968,-13.8327029409669,14.1155556889594,-0.282852747992559
1.48211977595864,17.6197991846391,9.1582240142928,-8.4615751703463,-13.389011599466,13.0406871774927,0.348324421973253
1.48427401981904,17.042537905848,10.0604500210318,-6.98208788481615,-13.5514939634399,12.0123128953321,1.53918106810784
1.48642826367945,16.8677858286959,11.5087256416407,-5.35906018705512,-14.1882557351683,11.1134230078755,3.07483272729281
1.48858250753985,16.905708276501,13.1096348145198,-3.79607346198121,-15.0076715455104,10.3508908692411,4.65678067626931
1.49073675140026,16.9556505934086,14.4719627956134,-2.48368779779529,-15.713806694511,9.71966919560196,5.99413749890904
1.49289099526066,16.9372795884717,15.3457810722112,-1.59149851626048,-16.1415303303414,9.26438905236607,6.87714127797535
1.49504523912107,16.9312482652999,15.6732742764616,-1.25797398883828,-16.3022612708807,9.09461112706908,7.20765014381167
1.49719948298147,17.1084495106256,15.5396173733401,-1.56883213728542,-16.3240334419828,9.33864082395549,6.98539261802736
1.49935372684188,17.5907984748746,15.0651608495284,-2.52563762534622,-16.3279796622015,10.0582180501104,6.2697616120911
1.50150797070228,18.3272090190306,14.3077151977643,-4.01949382126632,-16.3174621083975,11.1733514201485,5.14411068824899
1.50366221456269,19.0630151152673,13.2336153223398,-5.82939979292744,-16.1483152188035,12.4462074540973,3.70210776470619
1.50581645842309,19.4298326296256,11.7750038170266,-7.65482881259902,-15.6024182233261,13.5423307211123,2.06008750221378
1.5079707022835,19.1141297298112,9.93854338005102,-9.17558634976017,-14.5263365549311,14.1448580397857,0.381478515145428
1.5101249461439,18.0162395323286,7.89473280217009,-10.1215067301586,-12.9554861672494,14.0688731312436,-1.11338696399423
1.51227919000431,16.3129764813231,5.98090404661868,-10.3320724347044,-11.1469402639709,13.3225244580138,-2.17558419404287
1.51443343386471,14.3862813036876,4.59758806620649,-9.78869323748107,-9.49193468494703,12.0874872705843,-2.59555258563729
1.51658767772512,12.65238567556,4.04123674019435,-8.6111489353656,-8.34681120787715,10.6317673054628,-2.28495609758562
1.51874192158552,11.3806691567376,4.35779828282188,-7.02287087391569,-7.86923371977973,9.20177001532664,-1.33253629554691
1.52089616544593,10.5959342357609,5.29644040571878,-5.29949383004215,-7.94618732073985,7.94771403290154,-0.00152671216168265
1.52305040930633,10.1098248020153,6.39365385593828,-3.71617094607704,-8.2517393289768,6.91299787404618,1.33874145493062
1.52520465316674,9.65606874335725,7.15273900343739,-2.50332973991985,-8.40440387339732,6.07969924163855,2.32470463175877
1.52735889702714,9.05149109171802,7.23774608563867,-1.81374500607936,-8.14461858867835,5.43261804889869,2.71200053977966
1.52951314088755,8.29699775754126,6.59582174294615,-1.7011760145951,-7.4464097502437,4.99908688606818,2.44732286417553
1.53166738474795,7.56820182756276,5.45603510078585,-2.11216672677691,-6.51211846417431,4.84018427716984,1.67193418700447
1.53382162860836,7.10300179226794,4.208975912825,-2.89402587944295,-5.65598885254647,4.99851383585544,0.657475016691027
1.53597587246876,7.04780158240362,3.22614876264906,-3.82165281975456,-5.13697517252634,5.43472720107909,-0.29775202855275
1.53813011632917,7.34939370593105,2.70613799565989,-4.64325571027116,-5.02776585079547,5.9963247081011,-0.968558857305634
1.54028436018957,7.75759749472401,2.61887103393972,-5.13872646078429,-5.18823426433186,6.44816197775415,-1.25992771342228
1.54243860404998,7.9426128220645,2.7660307425929,-5.17658207947159,-5.3543217823287,6.55959745076804,-1.20527566843935
1.54459284791038,7.66651056488249,2.91440975470097,-4.75210081018152,-5.29046015979173,6.20930568753201,-0.918845527740273
1.54674709177079,6.91737976125301,2.92406219041536,-3.99331757083764,-4.92072097583419,5.45534866604533,-0.534627690211141
1.54890133563119,5.93200594744163,2.80190452007188,-3.13010142736975,-4.36695523375675,4.53105368740569,-0.164098453648934
1.5510555794916,5.0888655323622,2.65773694315372,-2.43112858920848,-3.87330123775796,3.75999706078534,0.113304176972616
1.553209823352,4.72068753822433,2.59845487290662,-2.12223266531771,-3.65957120556547,3.42146010177102,0.238111103794457
1.55536406721241,4.94044128720716,2.63329864892144,-2.30714263828572,-3.7868699680643,3.62379196274644,0.163078005317856
1.55751831107281,5.57154916439138,2.65343286017824,-2.91811630421314,-4.11249101228481,4.24483273430226,-0.132341722017447
1.55967255493322,6.22207775897351,2.49845090104297,-3.72362685793054,-4.36026433000824,4.97285230845202,-0.612587978443784
1.56182679879362,6.46882265421857,2.06624491548867,-4.40257773872991,-4.26753378485362,5.43570019647424,-1.16816641162062
1.56398104265403,6.05936334010026,1.39759645456797,-4.66176688553229,-3.72847989733412,5.36056511281628,-1.63208521548216
1.56613528651443,5.03045589047322,0.682533601426083,-4.34792228904713,-2.85649474594965,4.68918908976017,-1.83269434381052
1.56828953037484,3.68513335812738,0.177626481242857,-3.50750687688452,-1.93137991968512,3.59632011750595,-1.66494019782083
1.57044377423524,2.4439198311591,0.0715021401682715,-2.37241769099083,-1.25771098566368,2.40816876107496,-1.15045777541128
1.57259801809565,1.64864549141528,0.369287995860998,-1.27935749555428,-1.00896674363814,1.46400149348478,-0.45503474984664
1.57475226195605,1.41852337995825,0.86532050140587,-0.553202878552383,-1.14192194068206,0.985863129255318,0.156058811426744
1.57690650581646,1.62771758132471,1.23064615783817,-0.39707142348654,-1.42918186958144,1.01239450240563,0.416787367175817
1.57906074967686,2.00856387980006,1.1775077395451,-0.831056140254963,-1.59303580967258,1.41981001002751,0.173225799645069
1.58121499353727,2.31905529243806,0.61510630697611,-1.70394898546195,-1.46708079970709,2.01150213895001,-0.544421339242922
1.58336923739767,2.48042095396046,-0.28980480103902,-2.77022575499948,-1.09530807646072,2.62532335447997,-1.53001527801925
1.58552348125808,2.60738814699708,-1.18449355547147,-3.79188170246855,-0.711447295762807,3.19963492473282,-2.48818762897001
1.58767772511848,2.91307587629682,-1.69880889394826,-4.61188477024508,-0.607133491174279,3.76248032327095,-3.15534683209667
1.58983196897889,3.54293435544897,-1.6224183682002,-5.16535272364918,-0.960257993624385,4.35414353954908,-3.39388554592469
1.59198621283929,4.43692271106519,-0.998682635066089,-5.43560534613128,-1.71912003799955,4.93626402859824,-3.21714399059868
1.5941404566997,5.30661517993261,-0.0894446587303994,-5.39605983866301,-2.60858526060111,5.35133750929781,-2.7427522486967
1.5962947005601,5.74861892693991,0.766179530952369,-4.98243939598754,-3.25739922894614,5.36552916146373,-2.10812993251759
1.59844894442051,5.4370486311161,1.32238328734487,-4.11466534377124,-3.37971595923048,4.77585698744367,-1.39614102821319
1.60060318828091,4.29278547539566,1.53799845333517,-2.75478702206048,-2.91539196436541,3.52378624872807,-0.608394284362656
1.60275743214132,2.53922051880159,1.57256724244326,-0.966653276358328,-2.05589388062242,1.75293689757996,0.302956983042466
1.60491167600172,0.61398914567753,1.67138564308986,1.05739649741233,-1.14268739438369,-0.221703675867398,1.36439107025109
1.60706591986213,-1.01808745936909,2.00293762839939,3.02102508776848,-0.492425084515153,-2.01955627356879,2.51198135808394
1.60922016372253,-2.05398786430923,2.53880840548601,4.59279626979524,-0.24241027058839,-3.32339206705223,3.56580233764062
1.61137440758294,-2.44844871711918,3.0432356076341,5.49168432475328,-0.297393445257463,-3.97006652093623,4.26745996619369
1.61352865144334,-2.37714680401658,3.18042991901561,5.55757672303219,-0.401641557499513,-3.96736176352439,4.3690033210239
1.61568289530375,-2.10203814371618,2.68706044313678,4.78909858685296,-0.292511149710297,-3.44556836528457,3.73807951499487
1.61783713916415,-1.82229378733046,1.52391787342122,3.34621166075169,0.149187956954618,-2.58425272404107,2.43506476708646
1.61999138302456,-1.59106409761202,-0.0724143074418002,1.51864979017022,0.831739202526908,-1.55485694389112,0.723117741364208
1.62214562688496,-1.33233552172712,-1.67096762047548,-0.338632098748354,1.5016515711013,-0.496851711489384,-1.00479985961191
1.62429987074537,-0.934216232534436,-2.82647578467197,-1.89225955213753,1.8803460086032,0.479021659801549,-2.35936766840475
1.62645411460577,-0.355995585668814,-3.26949973975078,-2.91350415408196,1.81274766270979,1.27875428420657,-3.09150194691637
1.62860835846618,0.315976898220222,-3.01023734575644,-3.32621424397666,1.34713022376811,1.82109557109844,-3.16822579486655
1.63076260232658,0.895229138813024,-2.30581844570419,-3.20104758451721,0.705294653445583,2.04813836166512,-2.7534330151107
1.63291684618699,1.18763241519507,-1.51433340770553,-2.7019658229006,0.16335049625523,1.94479911904784,-2.10814961530307
1.63507109004739,1.09551347469747,-0.91674323759397,-2.01225671229144,-0.0893851185517507,1.55388509349446,-1.46449997494271
1.6372253339078,0.673596266469799,-0.599876658850427,-1.27347292532023,-0.0368598038096863,0.973534595895013,-0.936674792085327
1.6393795777682,0.102060672965377,-0.457469228653983,-0.55952990161936,0.177704277844303,0.330795287292368,-0.508499565136672
1.64153382162861,-0.414665600373558,-0.301874246683207,0.11279135369035,0.358269923528382,-0.263728477031954,-0.0945414464964285
1.64368806548901,-0.772802150873167,-0.0183335988616059,0.754468552011561,0.395567874867386,-0.763635351442364,0.368067476574978
1.64584230934942,-1.04862685766419,0.330621547293645,1.37924840495784,0.359002655185272,-1.21393763131101,0.85493497612574
1.64799655320982,-1.48199214894782,0.513906912880172,1.99589906182799,0.484042618033823,-1.7389456053879,1.25490298735408
1.65015079707023,-2.36267886171765,0.250460702484314,2.61313956420197,1.05610907961667,-2.48790921295981,1.43180013334314
1.65230504093063,-3.87140817305507,-0.627822825708201,3.24358534734687,2.24961549938164,-3.55749676020097,1.30788126081933
1.65445928479104,-5.95563797562233,-2.05720938747065,3.89842858815168,4.00642368154649,-4.927033281887,0.920609600340512
1.65661352865144,-8.30838486265217,-3.73291643961059,4.57546842304157,6.02065065113138,-6.44192664284687,0.421275991715491
1.65876777251185,-10.4699989768884,-5.22135120171852,5.24864777516991,7.84567508930348,-7.85932337602917,0.0136482867256946
1.66092201637225,-12.0102958252663,-6.14397950434382,5.86631632092251,9.07713766480508,-8.93830607309442,-0.138831591710653
1.66307626023266,-12.7040115739967,-6.34292861996706,6.36108295402963,9.52347009698187,-9.53254726401316,0.00907716703128347
1.66523050409306,-12.6123744271307,-5.94492296116023,6.66745146597052,9.27864869414549,-9.63991294655063,0.361264252405141
1.66738474795347,-12.0311350594639,-5.29334470853924,6.73779035092466,8.66223988400157,-9.38446270519428,0.722222821192709
1.66953899181387,-11.3354524513751,-4.78741103769827,6.5480414136768,8.06143174453667,-8.94174693252594,0.880315187989265
1.67169323567428,-10.8047623161482,-4.7125254075056,6.09223690864257,7.75864386182689,-8.44849961239537,0.689855750568483
1.67384747953468,-10.5180218429248,-5.14422888475286,5.37379295817195,7.83112536383883,-7.94590740054838,0.114782036709545
1.67600172339509,-10.3696537476467,-5.96416803739479,4.40548571025191,8.16691089252074,-7.3875697289493,-0.779341163571441
1.67815596725549,-10.189581542869,-6.96455125712948,3.22503028573949,8.57706639999922,-6.70730591430423,-1.869760485695
1.6803102111159,-9.89109611963731,-7.97102705159775,1.92006906803956,8.93106158561753,-5.90558259383843,-3.0254789917791
1.6824644549763,-9.55337268955741,-8.90989565370325,0.643477035854163,9.23163417163033,-5.09842486270579,-4.13320930892454
1.68461869883671,-9.38549115713056,-9.78670180722383,-0.401210650093276,9.58609648217719,-4.49214025351864,-5.09395622865855
1.68677294269711,-9.5927413026295,-10.6023187654913,-1.00957746286177,10.0975300340604,-4.29158191988386,-5.80594811417652
1.68892718655752,-10.2268569694438,-11.2715134556715,-1.04465648622767,10.7491852125577,-4.59110024160807,-6.15808497094958
1.69108143041792,-11.1125639470522,-11.6061385485871,-0.493574601534945,11.3593512478197,-5.30949467275863,-6.04985657506104
1.69323567427833,-11.8996026753982,-11.3858690486157,0.51373362678253,11.6427358620069,-6.20666815109036,-5.43606771091656
1.69538991813873,-12.2194830797852,-10.4866438970118,1.73283918277333,11.3530634883985,-6.97616113127924,-4.37690235711924
1.69754416199914,-11.8688565226414,-8.99775891167467,2.8710976109667,10.433307717158,-7.36997706680403,-3.06333065035399
1.69969840585954,-10.9256345512674,-7.25441106456693,3.6712234867005,9.09002280791718,-7.29842901898397,-1.79159378893321
1.70185264971995,-9.73558001531912,-5.74986197226097,3.98571804305816,7.74272099379004,-6.86064902918864,-0.882071964601406
1.70400689358035,-8.76935471007621,-4.95411802770528,3.81523668237093,6.86173636889075,-6.29229569622357,-0.569440672667177
1.70616113744076,-8.41377509650253,-5.12000582537895,3.29376927112358,6.76689046094074,-5.85377218381306,-0.913118277127685
1.70831538130116,-8.79627633907019,-6.17100967884046,2.62526666022973,7.48364300895533,-5.71077149964996,-1.77287150930537
1.71046962516157,-9.72954930650806,-7.72960734083244,1.99994196567562,8.72957832367025,-5.86474563609184,-2.86483268757841
1.71262386902197,-10.8068298547586,-9.2778460673427,1.52898378741594,10.0423379610507,-6.16790682108729,-3.87443113996338
1.71477811288238,-11.602865466639,-10.3761583972106,1.22670706942833,10.9895119319248,-6.41478626803366,-4.57472566389116
1.71693235674278,-11.8789975851066,-10.8354228741284,1.04357471097823,11.3572102296175,-6.46128614804243,-4.8959240815751
1.71908660060319,-11.6856617138214,-10.7603843374598,0.925277376361567,11.2230230256406,-6.30546954509149,-4.91755348054914
1.72124084446359,-11.3090639292935,-10.4502785095576,0.858785419735909,10.8796712194256,-6.08392467451473,-4.79574654491086
1.723395088324,-11.0932025153655,-10.2168967578523,0.876305757513204,10.6550496366089,-5.98475413643934,-4.67029550016953
1.7255493321844,-11.2365554019931,-10.2189173807618,1.01763802123134,10.7277363913774,-6.12709671161223,-4.60063967976522
1.72770357604481,-11.6768289439245,-10.3959869856279,1.28084195829653,11.0364079647762,-6.47883545111049,-4.5575725136657
1.72985781990521,-12.1287074515452,-10.5299735193252,1.59873393221994,11.3293404854352,-6.86372069188256,-4.46561979355265
1.73201206376562,-12.2536533377508,-10.3939849019814,1.8596684357694,11.3238191198661,-7.05666088676008,-4.26715823310598
1.73416630762602,-11.8653553715793,-9.90387060544962,1.96148476612968,10.8846129885145,-6.91342006885449,-3.97119291965997
1.73632055148643,-11.0539725061473,-9.18626219772994,1.86771030841734,10.1201173519386,-6.46084140728231,-3.6592759446563
1.73847479534683,-10.1593749987033,-8.52500660471228,1.634368393991,9.34219080170779,-5.89687169634714,-3.44531910536064
1.74062903920724,-9.60924943848243,-8.21682500016745,1.39242443831497,8.91303721932494,-5.5008369383987,-3.41220028092624
1.74278328306764,-9.71082497145644,-8.4153786194142,1.29544635204224,9.06310179543532,-5.50313566174934,-3.55996613368598
1.74493752692805,-10.5049294872722,-9.04566922584227,1.45926026142994,9.77529935655724,-5.98209487435108,-3.79320448220617
1.74709177078845,-11.7526350700858,-9.83228159373149,1.9203534763543,10.7924583319086,-6.83649427322004,-3.9559640586886
1.74924601464886,-13.0544471289508,-10.4273107032386,2.62713642571216,11.7408789160947,-7.84079177733146,-3.90008713876322
1.75140025850926,-14.037396566283,-10.5734858509576,3.46391071532542,12.3054412086203,-8.7506536408042,-3.55478756781607
1.75355450236967,-14.5160666691587,-10.2198458531094,4.29622081604936,12.3679562611341,-9.40614374260405,-2.96181251853
1.75570874623007,-14.5516653967543,-9.5330434106027,5.01862198615156,12.0423544036785,-9.78514369145291,-2.25721071222557
1.75786299009048,-14.3887183913489,-8.80374898296384,5.58496940838509,11.5962336871564,-9.98684389986701,-1.60938978728937
1.76001723395088,-14.311879198196,-8.30199902262834,6.0098801755677,11.3069391104122,-10.1608796868819,-1.14605942353032
1.76217147781129,-14.5017953015004,-8.15767343899604,6.34412186250434,11.3297343702482,-10.4229585820024,-0.906775788245846
1.76432572167169,-14.961915435764,-8.3238942959095,6.63802113985453,11.6429048658368,-10.7999682878093,-0.842936578027482
1.7664799655321,-15.5457006798752,-8.63508961628049,6.91061106359475,12.0903951480779,-11.228155871735,-0.862239276342871
1.7686342093925,-16.0603642100125,-8.9211558343846,7.1392083756279,12.4907600221985,-11.5997862928202,-0.89097372937835
1.77078845325291,-16.3850721871855,-9.10914389872396,7.27592828846158,12.7471080429547,-11.8305002378236,-0.916607805131193
1.77294269711331,-16.5363406577936,-9.25217856003604,7.28416209775761,12.8942596089148,-11.9102513777756,-0.984008231139216
1.77509694097372,-16.6450995647681,-9.47041340834261,7.17468615642546,13.0577564865553,-11.9098928605968,-1.14786362595858
1.77725118483412,-16.8629396556988,-9.84405955914637,7.01888009655242,13.3534996074226,-11.9409098761256,-1.41258973129698
1.77940542869453,-17.2576229171115,-10.3285206265234,6.92910229058809,13.7930717718175,-12.0933626038498,-1.69970916796767
1.78155967255493,-17.7629104667395,-10.74847778004,7.01443268669956,14.2556941233897,-12.3886715767195,-1.8670225466702
1.78371391641534,-18.2135702300352,-10.8814384055284,7.33213182450682,14.5475043177818,-12.772851027271,-1.77465329051079
1.78586816027574,-18.4456489947066,-10.5889552849341,7.85669370977253,14.5173021398204,-13.1511713522396,-1.36613078758079
1.78802240413615,-18.4036773029461,-9.92228663496008,8.481390667986,14.1629819689531,-13.442533985466,-0.720447983487043
1.79017664799655,-18.1902827760595,-9.13544066585567,9.05484211020383,13.6628617209576,-13.6225624431317,-0.0402992778259232
1.79233089185696,-18.0233465614013,-8.58425950621075,9.43908705519051,13.303803033806,-13.7312168082959,0.42741377448988
1.79448513571736,-18.1174187758202,-8.5552455264613,9.5621732493589,13.3363321511408,-13.8397960125895,0.503463861448797
1.79663937957777,-18.5523640705308,-9.11308548527833,9.43927858525252,13.8327247779046,-13.9958213278917,0.163096549987095
1.79879362343817,-19.2052255706626,-10.0502344414824,9.15499112918022,14.6277300060725,-14.1801083499214,-0.447621656151073
1.80094786729858,-19.7906676875601,-10.9687384208426,8.82192926671749,15.3797030542013,-14.3062984771388,-1.07340457706255
1.80310211115898,-19.9969140083964,-11.4564368949932,8.54047711340319,15.7266754516948,-14.2686955608998,-1.45797989079499
1.80525635501939,-19.6499565161043,-11.2733684842787,8.37658803182564,15.4616625001915,-14.013272273965,-1.44839022622653
1.80741059887979,-18.8192497388957,-10.4603539849759,8.35889575391978,14.6398018619358,-13.5890727464078,-1.05072911552808
1.8095648427402,-17.8059657280673,-9.31954438695896,8.48642134110836,13.5627550575131,-13.1461935345878,-0.416561522925303
1.8117190866006,-17.0160196699114,-8.27750686914819,8.73851280076319,12.6467632695298,-12.8772662353373,0.230502965807501
1.81387333046101,-16.7798068118053,-7.69731421514052,9.0824925966648,12.2385605134729,-12.9311497042351,0.692589190762139
1.81602757432141,-17.2069907951608,-7.73054751106322,9.47644328409757,12.468769153112,-13.3417170396292,0.872947886517173
1.81818181818182,-18.1466965388565,-8.27918431692273,9.86751222193376,13.2129404278896,-14.0071043803951,0.794163952505516
1.82033606204222,-19.271173874014,-9.07974700844261,10.1914268655714,14.1754604412283,-14.7313003697927,0.555839928564382
1.82249030590263,-20.2387359462475,-9.85840901652316,10.3803269297244,15.0485724813853,-15.3095314379859,0.260958956600597
1.82464454976303,-20.8507823129348,-10.4709408282162,10.3798414847186,15.6608615705755,-15.6153118988267,-0.0455496717487911
1.82679879362344,-21.1222600624369,-10.9532859403345,10.1689741221024,16.0377730013857,-15.6456170922696,-0.392155909116068
1.82895303748384,-21.2341265239589,-11.4597436962394,9.77438282771952,16.3469351100991,-15.5042546758392,-0.842680434259922
1.83110728134425,-21.4009337909821,-12.1289886843138,9.27194510666827,16.764961237648,-15.3364394488252,-1.42852178882277
1.83326152520465,-21.729968270023,-12.9592446293064,8.77072364071667,17.3446064496647,-15.2503459553698,-2.09426049429484
1.83541576906506,-22.1505610985227,-13.769329560485,8.38123153803771,17.9599453295039,-15.2658963182802,-2.69404901122367
1.83757001292546,-22.4540620581619,-14.2738367607972,8.18022529736466,18.3639494094796,-15.3171436777633,-3.04680573171629
1.83972425678587,-22.4228718474225,-14.2351922417928,8.18767960562972,18.3290320446076,-15.3052757265261,-3.02375631808152
1.84187850064627,-21.9723823657801,-13.6090624954264,8.36331987035363,17.7907224306032,-15.1678511180668,-2.6228713125364
1.84403274450668,-21.2184965086714,-12.5989253760684,8.61957113260302,16.9087109423699,-14.9190338206372,-1.98967712173269
1.84618698836708,-20.4271937786348,-11.5829629442978,8.844230834337,16.0050783614663,-14.6357123064859,-1.36936605498041
1.84834123222749,-19.8739631743388,-10.9472142483621,8.92674892597666,15.4105887113504,-14.4003560501577,-1.01023266119273
1.85049547608789,-19.6943696323402,-10.912792194147,8.78157743819319,15.3035809132436,-14.2379735352667,-1.06560737797689
1.8526497199483,-19.812218175876,-11.4492154661186,8.36300270975738,15.6307168209973,-14.0876104428167,-1.54310637818061
1.8548039638087,-19.9880245026691,-12.3172361980565,7.67078830461262,16.1526303503628,-13.8294064036408,-2.32322394672192
1.85695820766911,-19.9622821421634,-13.212283278447,6.74999886371641,16.5872827103052,-13.3561405029399,-3.23114220736528
1.85911245152951,-19.6134951592565,-13.9272447529677,5.68625040628882,16.7703699561121,-12.6498727827727,-4.12049717333945
1.86126669538992,-19.0426261371077,-14.4496762791476,4.59294985796003,16.7461512081276,-11.8177879975338,-4.9283632105938
1.86342093925032,-18.5374360939498,-14.9494550901228,3.58798100382703,16.7434455920363,-11.0627085488884,-5.68073704314789
1.86557518311073,-18.4345955947376,-15.6695745130638,2.76502108167382,17.0520850539007,-10.5998083382057,-6.45227671569497
1.86772942697113,-18.9491438269852,-16.7769426568351,2.17220117015002,17.8630432419102,-10.5606724985676,-7.30237074334257
1.86988367083154,-20.0580007269659,-18.2471336323321,1.81086709463382,19.152567179649,-10.9344339107999,-8.21813326884915
1.87203791469194,-21.4998714317784,-19.8419582995927,1.65791313218567,20.6709148656855,-11.578892281982,-9.09202258370351
1.87419215855235,-22.8959759961915,-21.194945453851,1.70103054234047,22.0454607250213,-12.298503269266,-9.74695745575528
1.87634640241275,-23.9315186924293,-21.9655296759928,1.96598901643648,22.948524184211,-12.9487538544329,-9.99977032977816
1.87850064627316,-24.5031264657283,-21.9865370863687,2.51658937935966,23.2448317760485,-13.509857922544,-9.73497385350451
1.88065489013356,-24.7549828083769,-21.3326153036315,3.42236750474541,23.0437990560042,-14.0886751565611,-8.95512389944303
1.88280913399397,-24.9868721632829,-20.2783513223811,4.7085208409018,22.632611742832,-14.8476965020924,-7.78491524073966
1.88496337785437,-25.4852323038867,-19.1709179959326,6.31431430795407,22.3280751499096,-15.8997733059204,-6.42830184398926
1.88711762171478,-26.3668742497979,-18.2833036917641,8.08357055803378,22.325088970781,-17.2252224039158,-5.09986656686515
1.88927186557518,-27.5177174577249,-17.7211599059281,9.79655755179684,22.6194386818265,-18.6571375047609,-3.96230117706563
1.89142610943559,-28.6604349429735,-17.4271499517989,11.2332849911746,23.0437924473862,-19.946859967074,-3.09693248031214
1.89358035329599,-29.5161599213847,-17.2744122013633,12.2417477200214,23.395286061374,-20.8789538207031,-2.51633224067094
1.8957345971564,-29.9708017693034,-17.1901497652447,12.7806520040587,23.580475767274,-21.375726886681,-2.20474888059302
1.8978888410168,-30.1500822277278,-17.2312997819032,12.9187824458246,23.6906910048155,-21.5344323367761,-2.15625866803932
1.90004308487721,-30.3571052604543,-17.5631884888581,12.7939167715962,23.9601468746562,-21.5755110160253,-2.38463585863092
1.90219732873761,-30.9033101472614,-18.3534788358955,12.5498313113659,24.6283944915785,-21.7265707293137,-2.90182376226478
1.90435157259802,-31.9225519410024,-19.6468398036164,12.275712137386,25.7846958723094,-22.0991320391942,-3.6855638331152
1.90650581645842,-33.2681168792361,-21.2969218914576,11.9711949877786,27.2825193853469,-22.6196559335074,-4.66286345183951
1.90866006031883,-34.5516800992062,-22.9984435022869,11.5532365969194,28.7750618007466,-23.0524583480628,-5.72260345268375
1.91081430417923,-35.312021749778,-24.4061129557592,10.9059087940188,29.8590673527686,-23.1089652718984,-6.75010208087021
1.91296854803964,-35.2332168756003,-25.2793056953106,9.9539111802897,30.2562612854554,-22.593564027945,-7.66269725751043
1.91512279190004,-34.3034928597635,-25.576788885338,8.72670397442554,29.9401408725507,-21.5150984170945,-8.42504245545622
1.91727703576045,-32.8361837241911,-25.4527075869964,7.38347613719476,29.1444456555937,-20.1098299306929,-9.03461572490081
1.91943127962085,-31.3458312154239,-25.1589279292717,6.18690328615215,28.2523795723478,-18.766367250788,-9.4860123215598
1.92158552348126,-30.3417475335468,-24.9085789982601,5.43316853528674,27.6251632659034,-17.8874580344168,-9.73770523148667
1.92373976734166,-30.1328764115204,-24.7732134878985,5.35966292362188,27.4530449497094,-17.7462696675711,-9.7067752821383
1.92589401120207,-30.724403843465,-24.6645933903414,6.05981045312359,27.6944986169032,-18.3921071482943,-9.3023914686089
1.92804825506247,-31.8410081697868,-24.4062288409292,7.43477932885762,28.123618505358,-19.6378937493222,-8.48572475603579
1.93020249892288,-33.0541783170329,-23.8523475373713,9.20183077966157,28.4532629272021,-21.1280045483472,-7.32525837885485
1.93235674278328,-33.9459017714206,-22.9855280389368,10.9603737324838,28.4657149051787,-22.4531377519522,-6.0125771532265
1.93451098664369,-34.2307359194134,-21.9349911196682,12.2957447997452,28.0828635195408,-23.2632403595793,-4.81962315996151
1.93666523050409,-33.7900299640045,-20.9030481860812,12.8869817779233,27.3465390750429,-23.3385058709639,-4.00803320407895
1.9388194743645,-32.6273826249875,-20.0414963700403,12.5858862549472,26.3344394975139,-22.6066344399674,-3.72780505754656
1.9409737182249,-30.798076870905,-19.3502577470882,11.4478191238168,25.0741673089966,-21.1229479973609,-3.95121931163572
1.94312796208531,-28.3712388518282,-18.6609865402418,9.71025231158641,23.516112696035,-19.0407455817073,-4.47536711432768
1.94528220594571,-25.4521527457163,-17.7248872718186,7.72726547389771,21.5885200087674,-16.589709109807,-4.99881089896044
1.94743644980612,-22.2443238865502,-16.3672851941808,5.87703869236935,19.3058045403655,-14.0606812894598,-5.24512325090573
1.94959069366652,-19.0946802613356,-14.6289078552919,4.46577240604373,16.8617940583137,-11.7802263336897,-5.08156772462407
1.95174493752693,-16.4656505694605,-12.8108184980304,3.65483207143009,14.6382345337455,-10.0602413204453,-4.57799321330018
1.95389918138733,-14.8201031275877,-11.3843592686649,3.43574385892272,13.1022311981263,-9.1279234932552,-3.97430770487111
1.95605342524774,-14.4630273422257,-10.7984765051912,3.66455083703455,12.6307519237085,-9.06378908963014,-3.56696283407832
1.95820766910814,-15.4164809992952,-11.2745643585873,4.14191664070788,13.3455226789413,-9.77919882000154,-3.56632385893972
1.96036191296855,-17.3913199873365,-12.6896383151135,4.70168167222299,15.040479151225,-11.0465008297797,-3.99397832144525
1.96251615682895,-19.8734558816176,-14.6059033196135,5.26755256200409,17.2396796006156,-12.5705042218109,-4.66917537880471
1.96467040068936,-22.2909113415793,-16.4332038725671,5.85770746901218,19.3620576070732,-14.0743094052957,-5.28774820177747
1.96682464454976,-24.1922003917741,-17.6487707416308,6.54342965014331,20.9204855667024,-15.3678150209587,-5.55267054574373
1.96897888841017,-25.3605635277955,-17.9758114330008,7.38475209479462,21.6681874803982,-16.372657811295,-5.29552966910311
1.97113313227057,-25.8186998195252,-17.4476778823538,8.37102193717148,21.6331888509395,-17.0948608783484,-4.53832797259115
1.97328737613098,-25.7334524667963,-16.3425769449462,9.39087552185011,21.0380147058712,-17.5621639943232,-3.47585071154804
1.97544161999138,-25.2797684454064,-15.0337510057131,10.2460174396933,20.1567597255597,-17.7628929425498,-2.3938667830099
1.97759586385179,-24.5406923390901,-13.8334752049498,10.7072171341403,19.1870837720199,-17.6239547366152,-1.56312903540471
1.97975010771219,-23.4977763017634,-12.9041644703824,10.593611831381,18.2009703860729,-17.0456940665722,-1.15527631950071
1.9819043515726,-22.1153725138009,-12.2694571851059,9.84591532869497,17.1924148494534,-15.9806439212479,-1.21177092820546
1.984058595433,-20.4657819616468,-11.9004386403881,8.56534332125871,16.1831103010175,-14.5155626414528,-1.6675476595647
1.98621283929341,-18.8108703213156,-11.8099647333002,7.00090558801546,15.3104175273079,-12.9058879546656,-2.40452957264236
1.98836708315381,-17.574105003548,-12.0891378432493,5.48496716029873,14.8316214233987,-11.5295360819234,-3.30208534147529
1.99052132701422,-17.1996696093556,-12.8617736578289,4.33789595152673,15.0307216335923,-10.7687827804412,-4.26193885315109
1.99267557087462,-17.963148005634,-14.1850811824275,3.77806682320654,16.0741145940308,-10.8706074144203,-5.20350717961047
1.99482981473503,-19.8285913091328,-15.9573418183973,3.87124949073553,17.8929665637651,-11.8499203999342,-6.04304616383089
1.99698405859543,-22.4258798408143,-17.8926647283821,4.53321511243218,20.1592722845982,-13.4795474766233,-6.67972480797498
1.99913830245584,-25.1665871847378,-19.5905180661257,5.57606911861211,22.3785526254318,-15.371328151675,-7.00722447375681
2.00129254631624,-27.4533470595486,-20.6770315460458,6.77631551350278,24.0651893027972,-17.1148312865257,-6.95035801627151
2.00344679017665,-28.8927996595359,-20.9513844921599,7.94141516737598,24.9220920758479,-18.4171074134559,-6.50498466239196
2.00560103403705,-29.4171316420329,-20.461677113844,8.95545452818891,24.9394043779384,-19.1862930851109,-5.75311129282753
2.00775527789746,-29.2623056045951,-19.4697155891193,9.79259001547585,24.3660105968572,-19.5274478100355,-4.83856278682171
2.00990952175786,-28.8228730872606,-18.3232417036229,10.4996313836377,23.5730573954418,-19.6612522354492,-3.91180515999263
2.01206376561827,-28.4620171400324,-17.302573341049,11.1594437989834,22.8822952405407,-19.8107304695079,-3.07156477103281
2.01421800947867,-28.3684015878913,-16.5202755006685,11.8481260872228,22.4443385442799,-20.1082638375571,-2.33607470672281
2.01637225333908,-28.5184482221839,-15.9222621037731,12.5961861184108,22.2203551629785,-20.5573171702974,-1.66303799268112
2.01852649719948,-28.7473374739584,-15.3824579758976,13.3648794980608,22.064897724928,-21.0561084860096,-1.00878923891839
2.02068074105989,-28.8802937462742,-14.8309873527635,14.0493063935106,21.8556405495189,-21.4648000698924,-0.390840479626467
2.02283498492029,-28.8488480798849,-14.3384397718216,14.5104083080633,21.5936439258533,-21.6796281939741,0.0859842681208356
2.0249892287807,-28.7288774918714,-14.1067094696313,14.6221680222401,21.4177934807514,-21.6755227570558,0.257729276304394
2.0271434726411,-28.6847011663223,-14.3712563510878,14.3134448152345,21.527978758705,-21.4990729907784,-0.0289057679266165
2.02929771650151,-28.8600092711929,-15.2677457974692,13.5922634737237,22.063877534331,-21.2261363724583,-0.837741161872728
2.03145196036191,-29.2872066940863,-16.7346000558668,12.5526066382194,23.0109033749766,-20.9199066661529,-2.09099670882369
2.03360620422232,-29.8729653075786,-18.5056010572093,11.3673642503693,24.189283182394,-20.620164778974,-3.56911840342002
2.03576044808272,-30.4686038076948,-20.201623088531,10.2669807191638,25.3351134481129,-20.3677922634293,-4.96732118468359
2.03791469194313,-30.9791333368622,-21.4791920810625,9.49994125579972,26.2291627089623,-20.239537296331,-5.98962541263138
2.04006893580353,-31.438014294518,-22.1631125389353,9.27490175558265,26.8005634167266,-20.3564580250503,-6.44410539167633
2.04222317966394,-31.9951611095929,-22.2985569139934,9.69660419559948,27.1468590117931,-20.8458826525962,-6.30097635919696
2.04437742352434,-32.8220206871384,-22.1002745976757,10.7217460894628,27.461147642407,-21.7718833883006,-5.68926425410643
2.04653166738475,-33.9903694438394,-21.8288988032063,12.1614706406332,27.9096341235229,-23.0759200422363,-4.83371408128655
2.04868591124515,-35.3957764405017,-21.6594661252445,13.7363103152572,28.5276212828731,-24.5660433778795,-3.96157790499361
2.05084015510556,-36.7699089783131,-21.6097196549995,15.1601893233136,29.1898143166563,-25.9650491508133,-3.22476516584298
2.05299439896596,-37.7799518876297,-21.565268738026,16.2146831496036,29.6726103128278,-26.9973175186166,-2.67529279421121
2.05514864282637,-38.1706989073519,-21.3876721514268,16.7830267559251,29.7791855293893,-27.4768628316385,-2.30232269775083
2.05730288668677,-37.8813137690666,-21.0434404325225,16.8378733365441,29.4623771007946,-27.3595935528054,-2.10278354798918
2.05945713054718,-37.0768573153614,-20.6748127035676,16.4020446117938,28.8758350094645,-26.7394509635776,-2.13638404588687
2.06161137440758,-36.0755587480822,-20.5620508142951,15.5135079337871,28.3188047811887,-25.7945333409346,-2.52427144025404
2.06376561826799,-35.2072059950743,-20.9884441611003,14.218761833974,28.0978250780873,-24.7129839145242,-3.38484116356317
2.06591986212839,-34.6751610259192,-22.0776061518517,12.5975548740674,28.3763835888855,-23.6363579499933,-4.74002563889215
2.0680741059888,-34.4929003494921,-23.6939950762449,10.7989052732472,29.0934477128685,-22.6459028113697,-6.44754490149884
2.0702283498492,-34.5261492867366,-25.4683145566851,9.05783473005157,29.9972319217109,-21.7919920083941,-8.20523991331675
2.07238259370961,-34.6138531994551,-26.942827181371,7.67102601808418,30.7783401904131,-21.1424396087697,-9.63590058164339
2.07453683757001,-34.6957429357656,-27.7644137624087,6.93132917335688,31.2300783490872,-20.8135360545612,-10.4165422945259
2.07669108143042,-34.8683685690093,-27.8266643544932,7.04170421451613,31.3475164617513,-20.9550363917627,-10.3924800699885
2.07884532529082,-35.3322770661939,-27.2928052628782,8.03947180331572,31.3125411645361,-21.6858744347548,-9.62666672978124
2.08099956915123,-36.2576449379216,-26.4972203899084,9.76042454801321,31.377432663915,-23.0090347429674,-8.36839792094761
2.08315381301163,-37.6446702352268,-25.7836492783562,11.8610209568706,31.7141597567915,-24.7528455960487,-6.96131416074282
2.08530805687204,-39.2608340684058,-25.3630875353431,13.8977465330627,32.3119608018744,-26.5792903007343,-5.73267050114017
2.08746230073244,-40.6994837264807,-25.2576577583726,15.4418259681081,32.9785707424267,-28.0706548472944,-4.90791589513225
2.08961654459285,-41.5424866508304,-25.348666012701,16.1938206381294,33.4455763317657,-28.8681536444799,-4.57742268728584
2.09177078845325,-41.5518201589646,-25.4903516798722,16.0614684790924,33.5210859194184,-28.8066443190285,-4.71444160038987
2.09392503231366,-40.7914241705073,-25.6166391450244,15.174785025483,33.2040316577658,-27.9831045979951,-5.2209270597707
2.09607927617406,-39.6107272449785,-25.7780054248467,13.8327218201317,32.6943663349126,-26.7217245325551,-5.9726418023575
2.09823352003447,-38.4930287211507,-26.091586105922,12.4014426152287,32.2923074135364,-25.4472356681897,-6.84507174534664
2.10038776389487,-37.8434505630959,-26.6389359377931,11.2045146253027,32.2411932504445,-24.5239825941993,-7.7172106562452
2.10254200775528,-37.820546933034,-27.3743584548152,10.4461884782188,32.5974526939246,-24.1333677056264,-8.46408498829823
2.10469625161568,-38.2900439944423,-28.1017464953062,10.1882974991361,33.1958952448743,-24.2391707467892,-8.95672449808505
2.10685049547609,-38.9169968359646,-28.5425753005119,10.3744215354527,33.7297860682383,-24.6457091857086,-9.08407688252962
2.10900473933649,-39.346128863471,-28.4665260867512,10.8796027767199,33.9063274751111,-25.1128658200954,-8.79346165501564
2.1111589831969,-39.378484355946,-27.8161797933501,11.5623045625959,33.597332074648,-25.4703944592709,-8.12693761537711
2.1133132270573,-39.0543110290453,-26.7552232468339,12.2990877822114,32.9047671379396,-25.6766994056284,-7.22806773231125
