t,leadI,leadII,leadIII,aVR,aVL,aVF
0,404.933009039743,406.737422925456,1.80441388571342,-405.8352159826,201.564297577015,204.270918405585
0.00215331610680448,404.152287584604,406.662710335994,2.51042275138934,-405.407498960299,200.820932416608,204.586566543692
0.00430663221360896,404.25687208085,406.601064762622,2.34419268177209,-405.428968421736,200.956339699539,204.472628722197
0.00645994832041344,403.594877038875,403.411396740975,-0.183480297899621,-403.503136889925,201.889178668387,201.613958221538
0.00861326442721792,402.885576857185,401.079464870451,-1.8061119867337,-401.982520863818,202.345844421959,199.636676441859
0.0107665805340224,402.877908148083,399.581719002466,-3.29618914561695,-401.229813575274,203.08704864685,198.142764928424
0.0129198966408269,401.99020895599,402.83393129493,0.84372233894004,-402.41207012546,200.573243308525,201.838826816935
0.0150732127476314,405.040345699107,401.251982287935,-3.78836341117113,-403.146163993521,204.414354555139,198.731809438382
0.0172265288544358,404.947183419592,402.771303037533,-2.17588038205952,-403.859243228562,203.561531900826,200.297711327737
0.0193798449612403,405.734518592693,403.462290554753,-2.27222803794018,-404.598404573723,204.003373315317,200.595031258406
0.0215331610680448,405.822209980756,403.39077378836,-2.43143619239606,-404.606491884558,204.126823086576,200.479668797982
0.0236864771748493,408.342473292491,401.812322668786,-6.53015062370497,-405.077397980638,207.436311958098,197.64108602254
0.0258397932816537,409.246701641856,402.696385436156,-6.55031620570043,-405.971543539006,207.898508923778,198.073034615228
0.0279931093884582,411.646718696548,404.395687839015,-7.25103085753381,-408.021203267782,209.448874777041,198.57232849074
0.0301464254952627,413.937927308304,406.833555212309,-7.10437209599411,-410.385741260306,210.521149702149,199.864591558158
0.0322997416020672,412.197618881205,406.000187785657,-6.19743109554878,-409.098903333431,209.197524988377,199.901378345054
0.0344530577088717,410.489192808108,406.690309575675,-3.79888323243381,-408.589751191892,207.144038020271,201.44571317162
0.0366063738156761,410.477324501671,406.593721236505,-3.88360326516573,-408.535522869088,207.180463883418,201.35505898567
0.0387596899224806,408.994761688347,408.157908030871,-0.836853657476183,-408.576334859609,204.915807672911,203.660527186697
0.0409130060292851,406.774710970957,404.249540839058,-2.52517013189834,-405.512125905008,204.649940551428,200.86218535358
0.0430663221360896,406.896228645245,402.770896255074,-4.12533239017091,-404.833562450159,205.510780517708,199.322781932452
0.0452196382428941,407.690825422098,401.26438772802,-6.42643769407749,-404.477606575059,207.058631558088,197.418975016971
0.0473729543496985,405.973586640819,402.052329374756,-3.92125726606236,-404.012958007787,204.947421953441,199.065536054347
0.049526270456503,407.379945952175,404.336938114999,-3.04300783717605,-405.858442033587,205.211476894676,200.646965138911
0.0516795865633075,404.874635291477,403.415302352254,-1.45933293922292,-404.144968821866,203.16698411535,200.977984706516
0.053832902670112,404.895358357708,402.557877494712,-2.33748086299545,-403.72661792621,203.616419610351,200.110198315858
0.0559862187769165,402.672517898069,403.407396732031,0.734878833962,-403.03995731505,200.968819532054,202.071137782997
0.0581395348837209,402.877544851103,403.55012909506,0.672584243956578,-403.213836973081,201.102480303573,202.111356669508
0.0602928509905254,400.614621649691,398.126133104951,-2.48848854473954,-399.370377377321,201.551555097215,197.818822280106
0.0624461670973299,396.597198309763,395.779776964323,-0.817421345440039,-396.188487637043,198.707309827602,197.481177809442
0.0645994832041344,394.818286980805,394.887020910726,0.0687339299204837,-394.852653945766,197.374776525442,197.477877420323
0.0667527993109388,394.593282467534,395.497278766325,0.903996298791128,-395.04528061693,196.844643084371,198.200637532558
0.0689061154177433,393.674471042776,395.340843337774,1.66637229499804,-394.507657190275,196.004049373889,198.503607816386
0.0710594315245478,392.145152652121,394.52768644807,2.38253379594909,-393.336419550096,194.881309428086,198.45511012201
0.0732127476313523,394.746131784519,393.882953428481,-0.863178356037452,-394.3145426065,197.804655070278,196.509887536222
0.0753660637381568,391.820400121919,394.119753730983,2.29935360906461,-392.970076926451,194.760523256427,198.209553670024
0.0775193798449612,393.542778511949,393.498820066835,-0.0439584451138444,-393.520799289392,196.793368478532,196.727430810861
0.0796726959517657,392.674785659991,391.897650659788,-0.777135000203373,-392.286218159889,196.725960330097,195.560257829792
0.0818260120585702,389.250434530955,387.720886008323,-1.5295485226319,-388.485660269639,195.389991526793,193.095668742846
0.0839793281653747,385.005275116896,389.825390445534,4.82011532863851,-387.415332781215,190.092579894129,197.322752887086
0.0861326442721792,384.079381380297,388.057779187557,3.97839780726042,-386.068580283927,190.050491786518,196.018088497409
0.0882859603789836,384.172105309659,388.10108391438,3.92897860472038,-386.13659461202,190.12156335247,196.01503125955
0.0904392764857881,387.610605305219,389.943566286364,2.33296098114528,-388.777085795791,192.638822162037,196.138263633755
0.0925925925925926,390.263987219574,391.051687115345,0.787699895771539,-390.65783716746,194.738143661901,195.919693505559
0.0947459086993971,392.763706282964,389.640335643013,-3.12337063995102,-391.202020962989,197.943538461458,193.258482501531
0.0968992248062016,392.660774200618,388.769141259311,-3.89163294130634,-390.714957729964,198.276203570962,192.438754159002
0.099052540913006,392.406525588551,387.680601324938,-4.72592426361325,-390.043563456744,198.566224926082,191.477338530662
0.101205857019811,389.775261487921,387.343090230571,-2.43217125735077,-388.559175859246,196.103716372636,192.45545948661
0.103359173126615,389.680548600183,387.964704986806,-1.71584361337779,-388.822626793494,195.698196106781,193.124430686714
0.105512489233419,388.993399994555,387.277068730417,-1.71633126413792,-388.135234362486,195.354865629346,192.78036873314
0.107665805340224,390.022314284222,388.403551130502,-1.61876315372018,-389.212932707362,195.820538718971,193.392393988391
0.109819121447028,389.445057736625,390.351067093073,0.90600935644818,-389.898062414849,194.269524190088,195.628538224761
0.111972437553833,387.931955443274,387.336898023312,-0.595057419961961,-387.634426733293,194.263506431618,193.370920301675
0.114125753660637,387.038509472041,385.610950975844,-1.42755849619624,-386.324730223943,194.233033984118,192.091696239824
0.116279069767442,386.037774454739,384.455401971301,-1.58237248343875,-385.24658821302,193.810073469089,191.436514743931
0.118432385874246,383.464254618697,383.289326765907,-0.174927852790063,-383.376790692302,191.819591235744,191.557199456559
0.120585701981051,382.601385425577,382.338740742959,-0.262644682618145,-382.470063084268,191.432015054097,191.03804803017
0.122739018087855,378.714307167249,381.705302245439,2.99099507819028,-380.209804706344,187.861656044529,192.348148661815
0.12489233419466,379.689667567157,382.887865510407,3.19819794324985,-381.288766538782,188.245734811954,193.043031726829
0.127045650301464,384.620537618356,385.652634638752,1.03209702039527,-385.136586128554,191.794220298981,193.342365829573
0.129198966408269,387.847592913149,385.792256487954,-2.05533642519498,-386.819924700551,194.951464669172,191.868460031379
0.131352282515073,388.557814701356,384.807174434622,-3.75064026673408,-386.682494567989,196.154227484045,190.528267083944
0.133505598621878,391.583849108477,385.988344189925,-5.59550491855146,-388.786096649201,198.589677013514,190.196419635687
0.135658914728682,398.60945973176,387.197400180613,-11.4120595511466,-392.903429956187,205.010759641453,187.892670314733
0.137812230835487,407.3120426868,392.633496308888,-14.6785463779128,-399.972769497844,210.995294532357,188.977474965487
0.139965546942291,419.279761170002,397.604418540637,-21.6753426293655,-408.442089855319,220.477551899684,187.964537955636
0.142118863049096,433.671526567709,407.546755529005,-26.1247710387037,-420.609141048357,229.898148803206,190.710992245151
0.1442721791559,451.226257729716,418.240853899452,-32.985403830264,-434.733555814584,242.10583077999,192.627725034594
0.146425495262705,469.530550251034,427.084026060871,-42.4465241901631,-448.307288155953,255.988537220599,192.318750935354
0.148578811369509,484.618928087895,436.40266070861,-48.2162673792856,-460.510794398253,266.417597733591,194.093196664662
0.150732127476314,495.72492575896,442.362093289748,-53.3628324692125,-469.043509524354,274.543879114086,194.499630410268
0.152885443583118,501.280151775899,448.383699317173,-52.8964524587257,-474.831925546536,277.088302117312,197.743623429224
0.155038759689922,494.929153084606,452.284920082184,-42.6442330024219,-473.607036583395,268.786693043514,204.820343539881
0.157192075796727,483.806471029459,452.515371318954,-31.2910997105049,-468.160921174207,257.548785369982,210.612135804225
0.159345391903531,467.896297397898,448.934244918322,-18.9620524795762,-458.41527115811,243.429174938737,214.986096219373
0.161498708010336,444.816492555225,441.308674115618,-3.50781843960772,-443.062583335422,224.162155497417,218.900427838005
0.16365202411714,425.709592948298,436.596956186585,10.8873632382871,-431.153274567441,207.411114855005,223.742159712436
0.165805340223945,411.39017932487,426.817690223244,15.4275108983735,-419.103934774057,197.981334213248,221.122600560809
0.167958656330749,401.860185707201,419.261521240151,17.4013355329501,-410.560853473676,192.229425087125,218.331428386551
0.170111972437554,391.551319048752,410.990091315569,19.4387722668174,-401.270705182161,186.056273390967,215.214431791193
0.172265288544358,385.22451861997,406.168738569056,20.9442199490859,-395.696628594513,182.140149335442,213.556479259071
0.174418604651163,381.287377901385,403.241496800167,21.9541188987816,-392.264437350776,179.666629501302,212.597807849474
0.176571920757967,381.318522120233,402.060516029779,20.7419939095455,-391.689519075006,180.288264105344,211.401254969662
0.178725236864772,382.918671287163,402.385623016789,19.4669517296255,-392.652147151976,181.725859778769,210.926287373207
0.180878552971576,390.838601332366,404.025285540531,13.186684208165,-397.431943436448,188.8259585621,208.605984874348
0.183031869078381,398.723293226632,403.773478638416,5.05018541178453,-401.248385932524,196.836553907424,204.4118320251
0.185185185185185,405.013274682916,404.959288014372,-0.0539866685440984,-404.986281348644,202.53363067573,202.452650672914
0.18733850129199,404.202055161626,403.058471558998,-1.14358360262827,-403.630263360312,202.672819382127,200.957443978185
0.189491817398794,403.478351851492,403.024888055001,-0.453463796491121,-403.251619953247,201.965907823992,201.285712129255
0.191645133505599,400.438418500952,400.11391326761,-0.324505233342393,-400.276165884281,200.381461867147,199.894704017134
0.193798449612403,397.38006367655,399.726866940769,2.34680326421875,-398.55346530866,197.516630206166,201.036835102494
0.195951765719208,394.20544995672,400.027743823932,5.8222938672119,-397.116596890326,194.191578044754,202.925018845572
0.198105081826012,388.496829021145,397.653989079081,9.15716005793632,-393.075409050113,189.669834481604,203.405574568509
0.200258397932817,388.265773139335,394.982547103917,6.71677396458193,-391.624160121626,190.774499587376,200.849660534249
0.202411714039621,384.915115536341,392.983131439917,8.06801590357611,-388.949123488129,188.423549816383,200.525573671747
0.204565030146425,384.928362104158,390.315788613327,5.38742650916868,-387.622075358743,189.770467797495,197.851607561248
0.20671834625323,389.121049802829,390.329071737799,1.20802193497008,-389.725060770314,193.95651393393,195.768546836385
0.208871662360034,391.019975315751,391.423514552187,0.403539236436416,-391.221744933969,195.308218039657,195.913526894312
0.211024978466839,392.024097605551,392.621023050578,0.596925445026443,-392.322560328064,195.713586080262,196.608974247802
0.213178294573643,389.609166132119,390.503972728778,0.894806596658498,-390.056569430449,194.35717976773,195.699389662718
0.215331610680448,389.335666775478,392.067219756683,2.73155298120429,-390.701443266081,193.302056897137,197.399386368943
0.217484926787252,387.382446776245,390.179964241964,2.79751746571884,-388.781205509105,192.292464655263,196.488740853841
0.219638242894057,384.76373991183,388.993089138727,4.22934922689751,-386.878414525278,190.267195342466,196.611219182812
0.221791559000861,384.812980376267,385.563518894336,0.750538518069106,-385.188249635301,192.031220929099,193.157028706202
0.223944875107666,385.133801886705,384.805727430513,-0.328074456191587,-384.969764658609,192.730938171448,192.238826487161
0.22609819121447,387.923873150112,385.898066852261,-2.02580629785172,-386.910970001186,194.974839723982,191.936130277204
0.228251507321275,387.374426698782,386.274125897749,-1.10030080103354,-386.824276298266,194.237363749908,192.586912548358
0.230404823428079,388.093972130824,386.504534970736,-1.58943716008753,-387.29925355078,194.841704645456,192.457548905324
0.232558139534884,389.320725039879,388.839890877898,-0.480834161981591,-389.080307958888,194.90077960093,194.179528357958
0.234711455641688,385.706327048506,386.960086159046,1.25375911054033,-386.333206603776,192.226283968983,194.106922634793
0.236864771748493,386.257544630797,386.604844286125,0.347299655328356,-386.431194458461,192.955122487734,193.476071970727
0.239018087855297,388.746152747303,385.603440681176,-3.14271206612705,-387.17479671424,195.944432406715,191.230364307525
0.241171403962102,391.524237115701,384.074140478435,-7.45009663726529,-387.799188797068,199.487166876483,188.312021920585
0.243324720068906,394.35526621936,386.739185984477,-7.61608023488247,-390.547226101918,200.985673227121,189.561552874797
0.245478036175711,396.968248488145,388.655815782863,-8.31243270528131,-392.812032135504,202.640340596713,190.171691538791
0.247631352282515,396.840061978218,389.627922470677,-7.21213950754156,-393.233992224447,202.02610074288,191.207891481568
0.24978466838932,395.637007946524,390.35360279581,-5.28340515071369,-392.995305371167,200.460206548619,192.535098822548
0.251937984496124,395.194147539306,393.267562294426,-1.9265852448807,-394.230854916866,198.560366392093,195.670488524772
0.254091300602929,393.393337756848,390.589470196729,-2.80386756011933,-391.991403976788,198.098602658484,193.892801318305
0.256244616709733,394.330808271549,388.851549770636,-5.4792585009136,-391.591179021092,199.905033386231,191.686145634861
0.258397932816538,397.915021214718,390.518234383139,-7.39678683157854,-394.216627798929,202.655904023148,191.56072377578
0.260551248923342,400.719660229376,389.174212974075,-11.5454472553013,-394.946936601726,206.132553742339,188.814382859387
0.262704565030146,398.525698128203,391.019373798056,-7.50632433014738,-394.77253596313,203.016011229175,191.756524733954
0.264857881136951,401.558795081424,393.517472377646,-8.0413227037775,-397.538133729535,204.800058892601,192.738074836934
0.267011197243755,401.968150459891,395.019216340577,-6.948934119314,-398.493683400234,204.458542289602,194.035141110631
0.26916451335056,403.158126628158,395.590381361662,-7.56774526649571,-399.37425399491,205.362935947327,194.011318047583
0.271317829457364,404.563395819095,396.963229551934,-7.600166267161,-400.763312685514,206.081781043128,194.681531642386
0.273471145564169,403.107875629105,396.089494824728,-7.01838080437699,-399.598685226917,205.063128216741,194.535557010176
0.275624461670973,400.302553652428,393.009760551093,-7.29279310133546,-396.656157101761,203.797673376882,192.858483724879
0.277777777777778,399.905976429406,394.803391027346,-5.10258540206036,-397.354683728376,202.504280915733,194.850402812643
0.279931093884582,400.891760968106,393.392701563926,-7.49905940418017,-397.142231266016,204.195410186143,192.946821079873
0.282084409991387,400.760719313886,394.228670292616,-6.5320490212693,-397.494694803251,203.646384167577,193.848310635674
0.284237726098191,402.761181526159,395.704335263908,-7.05684626225172,-399.232758395034,204.909013894206,194.323744500828
0.286391042204996,402.347442232353,396.309495185775,-6.03794704657804,-399.328468709064,204.192694639466,195.135774069599
0.2885443583118,402.147806306598,396.96184173024,-5.18596457635829,-399.554824018419,203.666885441478,195.887938576941
0.290697674418605,399.11216708964,395.367739579435,-3.7444275102053,-397.239953334537,201.428297299923,195.811656034615
0.292850990525409,400.316263260152,395.498187784518,-4.81807547563471,-397.907225522335,202.567169367894,195.340056154441
0.295004306632214,399.95992346579,395.674827884435,-4.28509558135437,-397.817375675112,202.122509523572,195.69486615154
0.297157622739018,404.130239836291,395.779892531983,-8.35034730430817,-399.955066184137,206.2402935703,193.714772613837
0.299310938845823,403.164806681283,396.540599931698,-6.62420674958503,-399.85270330649,204.894506715434,194.958196591056
0.301464254952627,401.131889219237,397.188292390917,-3.94359682831953,-399.160090805077,202.537743023778,196.622347781299
0.303617571059432,400.682815288282,397.822564817265,-2.86025047101697,-399.252690052773,201.771532879649,197.481157173124
0.305770887166236,396.532933806893,396.168360201856,-0.364573605036867,-396.350647004374,198.448753705965,197.901893298409
0.30792420327304,396.739914961704,396.241639903853,-0.49827505785089,-396.490777432779,198.619095009777,197.871682423001
0.310077519379845,405.147315439661,399.5779131198,-5.56940231986113,-402.36261427973,205.358358879761,197.004255399969
0.312230835486649,412.722855456449,401.297324267185,-11.425531189264,-407.010089861817,212.074193322856,194.93589653896
0.314384151593454,416.819453221648,402.898256197901,-13.9211970237466,-409.858854709775,215.370325122697,194.488529587077
0.316537467700258,419.7566116958,405.170656030929,-14.5859556648715,-412.463633863364,217.171283680336,195.292350183029
0.318690783807063,419.318291273484,406.606902315116,-12.7113889583682,-412.9625967943,216.014840115926,196.947756678374
0.320844099913867,420.550629327039,408.110309838373,-12.4403194886657,-414.330469582706,216.495474407852,197.834995174854
0.322997416020672,417.312372635479,410.534702895867,-6.77766973961212,-413.923537765673,212.045021187546,201.878516578128
0.325150732127476,419.153677599697,410.672121945392,-8.48155565430494,-414.912899772544,213.817616627001,201.095283145543
0.327304048234281,420.334773906454,410.808988448245,-9.52578545820933,-415.571881177349,214.930279682332,200.641601495018
0.329457364341085,419.81217224385,409.26151696731,-10.5506552765402,-414.53684460558,215.181413760195,199.355430845385
0.33161068044789,421.401517558493,409.971478299776,-11.4300392587167,-415.686497929134,216.415778408605,199.27071952053
0.333763996554694,420.361312629053,408.228667179128,-12.132645449925,-414.294989904091,216.246979039489,198.048010864602
0.335917312661499,420.043634513481,411.285551711794,-8.75808280168633,-415.664593112637,214.400858657583,201.263734455054
0.338070628768303,419.061508122729,410.485787210926,-8.57572091180367,-414.773647666828,213.818614517267,200.955033149561
0.340223944875108,416.721058135497,412.984405922956,-3.73665221254032,-414.852732029226,210.228855174018,204.623876855208
0.342377260981912,416.146724621142,411.558733027756,-4.58799159338571,-413.852728824449,210.367358107264,203.485370717185
0.344530577088717,416.385379462896,411.663672863731,-4.72170659916537,-414.024526163314,210.553543031031,203.470983132283
0.346683893195521,417.2849231004,411.640509951022,-5.64441314937756,-414.462716525711,211.464668124889,202.998048400822
0.348837209302326,421.973378530797,412.29384101005,-9.67953752074663,-417.133609770424,215.826458025772,201.307151744652
0.35099052540913,423.376173059245,413.710559686126,-9.66561337311879,-418.543366372685,216.520893216182,202.022473156503
0.353143841515935,427.985309543632,415.206108599479,-12.779200944153,-421.595709071556,220.382255243893,201.213453827663
0.355297157622739,427.165269703255,416.049813118508,-11.115456584747,-421.607541410881,219.140363144001,202.46717826688
0.357450473729544,423.304096926212,417.010975719135,-6.2931212070776,-420.157536322674,214.798609066645,205.358927256029
0.359603789836348,419.491506341069,417.193487564971,-2.29801877609793,-418.34249695302,210.894762558584,207.447734394437
0.361757105943152,420.372354786926,416.481572677696,-3.89078210923049,-418.426963732311,212.131568448078,206.295395284233
0.363910422049957,416.348539412623,414.819753558576,-1.52878585404716,-415.5841464856,208.938662633335,206.645483852264
0.366063738156761,418.580895385832,414.631877931032,-3.94901745480007,-416.606386658432,211.264956420316,205.341430238116
0.368217054263566,417.652066844692,412.854438581819,-4.79762826287373,-415.253252713256,211.224847553783,204.028405159472
0.37037037037037,420.021199165412,415.164410018835,-4.85678914657615,-417.592804592124,212.438994155994,205.15381043613
0.372523686477175,421.732323808452,416.047095775165,-5.68522803328699,-418.889709791809,213.70877592087,205.180933870939
0.374677002583979,417.935303203445,414.657712310441,-3.27759089300326,-416.296507756943,210.606447048224,205.690060708719
0.376830318690784,417.244255757867,414.057973897458,-3.18628186040945,-415.651114827663,210.215268809138,205.435846018524
0.378983634797588,411.637418210715,413.336886724723,1.6994685140084,-412.487152467719,204.968974848353,207.518177619366
0.381136950904393,409.083081871504,412.446008156061,3.36292628455641,-410.764545013782,202.860077793474,207.904467220308
0.383290267011197,413.661750115574,412.231687716323,-1.43006239925103,-412.946718915949,207.545906257413,205.400812658536
0.385443583118002,418.342412137531,412.024279511435,-6.3181326260958,-415.183345824483,212.330272381813,202.85307344267
0.387596899224806,422.389038733568,412.7430064866,-9.64603224696805,-417.566022610084,216.017535490268,201.548487119816
0.389750215331611,424.177065701212,416.024674271378,-8.15239142983421,-420.100869986295,216.164728565523,203.936141420772
0.391903531438415,422.799982155707,417.04426475995,-5.75571739575713,-419.922123457828,214.277849775732,205.644273682096
0.39405684754522,420.515645435135,414.87955702511,-5.63608841002525,-417.697601230123,213.07586692258,204.621734307542
0.396210163652024,417.258586608741,414.966816602282,-2.29177000645893,-416.112701605512,209.7751783076,206.337523297912
0.398363479758829,413.066063378078,414.074472184176,1.00840880609763,-413.570267781127,206.02882728599,207.541440495137
0.400516795865633,412.826171300515,411.458647074519,-1.36752422599585,-412.142409187517,207.096847763255,205.045561424261
0.402670111972438,409.52853509989,408.840189127968,-0.688345971921592,-409.184362113929,205.108440535906,204.075921578023
0.404823428079242,407.222387941618,406.356928083688,-0.865459857930261,-406.789658012653,204.043923899774,202.745734112879
0.406976744186047,405.07886831802,407.246049304842,2.16718098682128,-406.162458811431,201.4558436656,204.706615145831
0.409130060292851,405.344257200543,406.68666426067,1.3424070601273,-406.015460730606,202.000925070208,204.014535660399
0.411283376399656,406.267606067117,406.926191384833,0.658585317715108,-406.596898725975,202.804510374701,203.792388351274
0.41343669250646,405.38041971283,407.03264796416,1.65222825133071,-406.206533838495,201.864095730749,204.342438107746
0.415590008613264,405.116911835768,407.738582068156,2.6216702323884,-406.427746951962,201.24762080169,205.180126150272
0.417743324720069,405.636101047334,405.124172430471,-0.511928616862917,-405.380136738902,203.074014832098,202.306121906804
0.419896640826873,404.725241021837,404.885670469245,0.160429447407921,-404.805455745541,202.282405787215,202.523049958326
0.422049956933678,400.080531565649,401.601953752344,1.52142218669474,-400.841242658997,199.279554689477,201.561687969519
0.424203273040482,398.784592696526,400.894516833841,2.10992413731458,-399.839554765183,198.337334279606,201.502220485578
0.426356589147287,395.890703476887,400.326617255992,4.43591377910502,-398.10866036644,195.727394848891,202.381265517549
0.428509905254091,392.011360584314,398.968682906145,6.95732232183087,-395.49002174523,192.527019131242,202.963002613988
0.430663221360896,389.464923686742,396.687410548538,7.22248686179597,-393.07616711764,191.121218412473,201.954948705167
0.4328165374677,393.109380014008,398.985752643132,5.87637262912386,-396.04756632857,193.616503692442,202.431062636128
0.434969853574505,395.196587168331,397.969165615458,2.7725784471267,-396.582876391895,196.212004360602,200.370872031292
0.437123169681309,397.502222979015,396.945959885712,-0.556263093302789,-397.224091432364,199.029243036159,198.194848396205
0.439276485788114,400.088604913253,395.25912029603,-4.82948461722299,-397.673862604641,202.459044765238,195.214817839403
0.441429801894918,399.668491753256,396.14413573624,-3.52435601701575,-397.906313744748,201.596423885136,196.309889859612
0.443583118001723,397.609271370525,394.77919595176,-2.83007541876532,-396.194233661143,200.219673394645,195.974560266497
0.445736434108527,396.885056359309,395.796045115354,-1.08901124395464,-396.340550737331,198.987033801632,197.3535169357
0.447889750215332,396.640784786875,395.884648714963,-0.756136071911669,-396.262716750919,198.698460429393,197.564256321526
0.450043066322136,393.831066237595,395.787899950329,1.95683371273344,-394.809483093962,195.937116262431,198.872366831531
0.452196382428941,394.272070006474,394.772436545198,0.50036653872337,-394.522253275836,196.885851733875,197.636401541961
0.454349698535745,392.62780815154,392.973360616308,0.345552464768218,-392.800584383924,196.141127843386,196.659456540538
0.45650301464255,392.126304173442,390.517440843208,-1.60886333023404,-391.321872508325,196.867583751838,194.454288756487
0.458656330749354,393.395770868041,390.621948803574,-2.7738220644672,-392.008859835807,198.084796466254,193.924063369553
0.460809646856158,393.762352304793,391.627081737162,-2.1352705676303,-392.694717020977,197.948811436211,194.745905584766
0.462962962962963,392.991722694201,391.81133695174,-1.1803857424602,-392.40152982297,197.08605421833,195.31547560464
0.465116279069767,391.852130418325,391.06719636245,-0.78493405587551,-391.459663390387,196.3185322371,195.141131153287
0.467269595176572,392.930197574064,392.551540409748,-0.378657164316223,-392.740868991906,196.65442736919,196.086441622716
0.469422911283376,392.566700953536,392.363834600087,-0.20286635344911,-392.465267776811,196.384783653492,196.080484123319
0.471576227390181,394.169586564635,393.796488790174,-0.373097774460746,-393.983037677404,197.271342169548,196.711695507857
0.473729543496985,396.151294076474,391.379189344268,-4.77210473220566,-393.765241710371,200.46169940434,193.303542306031
0.47588285960379,396.688325778467,391.48057439459,-5.20775138387688,-394.084450086529,200.948038581172,193.136411505357
0.478036175710594,397.83470572926,390.854962661297,-6.97974306796385,-394.344834195279,202.407224398612,191.937609796666
0.480189491817399,396.192390990938,393.367113238547,-2.82527775239049,-394.779752114743,199.508834371664,195.270917743078
0.482342807924203,394.172129443696,391.792270075431,-2.37985936826504,-392.982199759563,198.27599440598,194.706205353583
0.484496124031008,395.211221744855,392.487272058282,-2.72394968657238,-393.849246901568,198.967585715713,194.881661185855
0.486649440137812,398.845946172452,393.933021984555,-4.9129241878972,-396.389484078503,201.879435180175,194.510048898329
0.488802756244617,400.513941257994,396.215942524033,-4.29799873396144,-398.364941891013,202.405969995978,195.958971895036
0.490956072351421,400.968121940976,395.4183418961,-5.54978004487566,-398.193231918538,203.258950992926,194.934280925612
0.493109388458226,401.53221296563,393.125594727404,-8.40661823822535,-397.328903846517,204.969415601928,192.35948824459
0.49526270456503,400.281957664144,393.25246502826,-7.02949263588408,-396.767211346202,203.655725150014,193.111486196188
0.497416020671835,399.393691076939,394.131354503329,-5.26233657360933,-396.762522790134,202.328013825274,194.43450896486
0.499569336778639,394.945435533614,393.328813693465,-1.61662184014881,-394.137124613539,198.281028686881,195.856095926658
0.501722652885444,390.396644196868,390.85691675609,0.460272559221551,-390.626780476479,194.968185818823,195.658594657656
0.503875968992248,389.268815682955,391.542730091089,2.27391440813386,-390.405772887022,193.497450637411,196.908322249612
0.506029285099053,390.962889959344,392.273127195248,1.31023723590363,-391.618008577296,194.82632636172,196.791682215576
0.508182601205857,391.44050738025,390.696478744623,-0.744028635626876,-391.068493062436,196.092268007938,194.976225054498
0.510335917312661,394.389656584612,389.977093393571,-4.41256319104167,-392.183374989091,199.401109887827,192.782265101264
0.512489233419466,397.888296460234,390.860861995837,-7.027434464397,-394.374579228035,202.457865462315,191.91671376572
0.514642549526271,400.955459979774,392.498960379703,-8.45649960007114,-396.727210179738,204.705979789923,192.021230389816
0.516795865633075,400.486149981536,394.071093575536,-6.41505640599922,-397.278621778536,203.450603193767,193.828018584769
0.518949181739879,403.119311651735,396.388388229697,-6.7309234220387,-399.753849940716,204.925117536887,194.828732403829
0.521102497846684,402.821976736159,396.319729078715,-6.50224765744377,-399.570852907437,204.662112196801,194.908740710636
0.523255813953488,400.560438229359,397.086885727043,-3.47355250231584,-398.823661978201,202.016995365837,196.806666612364
0.525409130060293,397.848225273004,394.7322390141,-3.11598625890389,-396.290232143552,200.482105765954,195.808126377598
0.527562446167097,395.995071956314,392.41063296384,-3.58443899247357,-394.202852460077,199.789755474394,194.413096985683
0.529715762273902,397.06463896719,393.254369959475,-3.81026900771445,-395.159504463333,200.437453987452,194.72205047588
0.531869078380706,396.917113514362,393.253675140932,-3.66343837342964,-395.085394327647,200.290275943896,194.795118383751
0.534022394487511,398.02344538841,395.584309162154,-2.43913622625587,-396.803877275282,200.231290807333,196.572586467949
0.536175710594315,401.468504600951,396.312889743686,-5.15561485726516,-398.890697172318,203.312059729108,195.57863744321
0.53832902670112,402.804409295625,397.874248015761,-4.93016127986357,-400.339328655693,203.867285287744,196.472043367949
0.540482342807924,402.18940528183,398.706060901725,-3.48334438010437,-400.447733091777,202.836374830967,197.61135826081
0.542635658914729,402.700829694319,398.787020234174,-3.91380946014482,-400.743924964247,203.307319577232,197.436605387015
0.544788975021533,404.825797937128,397.26722830801,-7.55856962911821,-401.046513122569,206.192183783123,194.854329339446
0.546942291128338,406.644272149122,396.477482349222,-10.1667897998998,-401.560877249172,208.405530974511,193.155346274661
0.549095607235142,404.038260372385,397.199211647617,-6.83904872476847,-400.618736010001,205.438654548577,195.180081461424
0.551248923341947,401.908613037083,397.883378614807,-4.02523442227613,-399.895995825945,202.966923729679,196.929072096265
0.553402239448751,400.586220422159,397.808566260385,-2.77765416177346,-399.197393341272,201.681937291966,197.515456049306
0.555555555555556,398.010565626965,396.240655688722,-1.76990993824285,-397.125610657844,199.890237782604,197.23537287524
0.55770887166236,399.064262237497,399.532942256643,0.468680019146234,-399.29860224707,199.297791109175,200.000811137895
0.559862187769165,404.377013404294,400.463981169838,-3.91303223445556,-402.420497287066,204.145022819375,198.275474467691
0.562015503875969,408.840869491282,401.322111583159,-7.51875790812301,-405.081490537221,208.179813699703,196.901676837518
0.564168819982773,414.537868923687,401.263273680341,-13.2745952433465,-407.900571302014,213.906232083517,193.994339218497
0.566322136089578,415.041756669321,401.113670091378,-13.928086577943,-408.077713380349,214.484921623632,193.592791756717
0.568475452196382,415.315778289634,404.14516557151,-11.1706127181237,-409.730471930572,213.243195503879,196.487276426693
0.570628768303187,414.102968343283,404.100178008273,-10.0027903350094,-409.101573175778,212.052879339146,197.048693836632
0.572782084409991,412.450301899864,405.782479646302,-6.66782225356218,-409.116390773083,209.559062076713,199.55732869637
0.574935400516796,410.378512257198,405.16939169771,-5.20912055948799,-407.773951977454,207.793816408343,199.980135569111
0.5770887166236,404.499545586492,403.737564759313,-0.761980827178945,-404.118555172902,202.630763206835,201.487791966067
0.579242032730405,400.074253862267,400.589833939771,0.515580077503614,-400.332043901019,199.779336892382,200.552707008637
0.581395348837209,402.455834563367,400.463170839991,-1.99266372337689,-401.459502701679,202.224249143372,199.235253558307
0.583548664944014,406.088832007251,398.659124872598,-7.42970713465297,-402.373978439925,206.759269570952,195.614708868973
0.585701981050818,409.600165113905,402.454600962286,-7.145564151619,-406.027383038095,208.372864632762,197.654518405333
0.587855297157623,410.108326102086,402.430249229962,-7.67807687212388,-406.269287666024,208.893201487105,197.376086178919
0.590008613264427,410.978934598199,405.762950405325,-5.21598419287409,-408.370942501762,208.097459395536,200.273483106225
0.592161929371232,409.785328430595,405.222708280503,-4.56262015009224,-407.504018355549,207.173974290344,200.330044065205
0.594315245478036,407.071521541556,405.427283324239,-1.6442382173168,-406.249402432898,204.357879879436,201.891522553461
0.596468561584841,406.50936258169,406.245875588032,-0.263486993658262,-406.377619084861,203.386424787674,202.991194297187
0.598621877691645,403.175519161548,400.501388361915,-2.67413079963262,-401.838453761732,202.92482498059,198.913628781141
0.60077519379845,399.54633536089,398.623012982626,-0.923322378264231,-399.084674171758,200.234828869577,198.849845302181
0.602928509905254,396.704101986812,396.017036516772,-0.687065470039897,-396.360569251792,198.695583728426,197.664985523366
0.605081826012059,397.326618805217,396.79167531389,-0.534943491326487,-397.059147059554,198.930781148272,198.128365911282
0.607235142118863,396.759377562454,396.992821284904,0.233443722449294,-396.876099423679,198.262966920003,198.613132503676
0.609388458225668,394.862208642808,397.300665037856,2.43845639504815,-396.081436840332,196.21187612388,199.869560716452
0.611541774332472,396.095879711821,397.53471838481,1.43883867298911,-396.815299048315,197.328520519416,199.4867785289
0.613695090439277,397.001242730812,398.346882843287,1.34564011247465,-397.674062787049,197.827801309169,199.846261477881
0.615848406546081,396.708202512952,394.95555805531,-1.75264445764253,-395.831880284131,199.230423485298,196.601456798834
0.618001722652885,394.60775868863,393.04698211511,-1.56077657351932,-393.82737040187,198.084267631075,195.743102770796
0.62015503875969,387.061237472458,390.429664377001,3.36842690454364,-388.745450924729,191.846405283957,196.899045640772
0.622308354866494,388.627053909141,389.627317395544,1.00026348640313,-389.127185652343,193.813395211369,195.313790440974
0.624461670973299,389.78131726759,389.850035639692,0.0687183721015572,-389.815676453641,194.856299447744,194.959377005897
0.626614987080103,390.280965453422,389.375081415686,-0.9058840377362,-389.828023434554,195.593424745579,194.234598688975
0.628768303186908,389.006994270252,391.188080205128,2.18108593487574,-390.09753723769,193.412954167688,196.684583070002
0.630921619293712,389.73447621538,391.976341842916,2.24186562753545,-390.855409029148,193.746305293922,197.109103735225
0.633074935400517,386.957122557731,387.775251007358,0.818128449626784,-387.366186782545,193.069497054052,194.296689728492
0.635228251507321,388.087479683879,386.673286190426,-1.41419349345352,-387.380382937153,194.750836588666,192.629546348486
0.637381567614126,388.654836046839,386.473396990847,-2.18143905599248,-387.564116518843,195.418137551416,192.145978967427
0.63953488372093,391.972353889564,389.669606509783,-2.30274737978112,-390.820980199673,197.137550634672,193.683429565001
0.641688199827735,392.376730944406,388.297177525395,-4.07955341901049,-390.336954234901,198.228142181708,192.108812053192
0.643841515934539,388.016784225312,387.786422898429,-0.23036132688361,-387.901603561871,194.123572776098,193.778030785773
0.645994832041344,387.378438315501,387.974824212061,0.596385896560435,-387.676631263781,193.39102620947,194.285605054311
0.648148148148148,387.192518543356,388.756452787793,1.56393424443706,-387.974485665574,192.814292149459,195.160193516115
0.650301464254953,388.373992427936,387.759449388837,-0.614543039099431,-388.066720908387,194.494267733518,193.572453174869
0.652454780361757,389.591403732455,385.106111022303,-4.48529271015161,-387.348757377379,197.038348221303,190.310409156076
0.654608096468562,387.901860640912,384.926953222219,-2.97490741869353,-386.414406931565,195.438384029803,190.976022901763
0.656761412575366,388.136228077276,385.731858438922,-2.40436963835435,-386.934043258099,195.270298857815,191.663744400284
0.658914728682171,387.762129433045,385.917460737976,-1.844668695069,-386.839795085511,194.803399064057,192.036396021454
0.661068044788975,387.304650444678,385.372761485956,-1.93188895872157,-386.338705965317,194.6182697017,191.720436263617
0.66322136089578,385.754004318276,384.751510685767,-1.00249363250884,-385.252757502022,193.378248975393,191.874508526629
0.665374677002584,383.881254657882,385.548641840617,1.66738718273416,-384.714948249249,191.106933737574,193.608014511675
0.667527993109388,381.869743620214,383.795375311931,1.92563169171649,-382.832559466072,189.972055964249,192.860503501824
0.669681309216193,380.784833087819,381.178117898186,0.393284810367049,-380.981475493003,190.195774138726,190.785701354277
0.671834625322997,383.191900352236,380.21361919965,-2.97828115258545,-381.702759775943,193.085090752411,188.617669023532
0.673987941429802,384.303054789562,379.404296876622,-4.89875791294037,-381.853675833092,194.600906351251,187.252769481841
0.676141257536606,390.264491760685,382.720730000672,-7.54376176001364,-386.492610880679,198.90412676035,187.588484120329
0.678294573643411,401.606900879123,388.485298747083,-13.1216021320399,-395.046099813103,207.364251505581,187.681848307521
0.680447889750215,418.179862849845,396.577567329771,-21.6022955200734,-407.378715089808,219.891079184959,187.487635904849
0.68260120585702,434.490833138376,406.917473142437,-27.5733599959397,-420.704153140407,231.032096567158,189.672056573249
0.684754521963824,453.172091784876,417.919643972993,-35.2524478118834,-435.545867878935,244.21226979838,191.333598080555
0.686907838070629,473.694187985402,427.281687873736,-46.4125001116665,-450.487937929569,260.053344048535,190.434593881035
0.689061154177433,489.804305977717,436.698485474266,-53.1058205034503,-463.251395725992,271.455063240584,191.796332485408
0.691214470284238,502.960005541361,446.234873021,-56.7251325203609,-474.59743928118,279.842569030861,194.754870250319
0.693367786391042,507.318190115205,453.495621700591,-53.8225684146145,-480.406905907898,280.57037926491,199.836526642988
0.695521102497847,502.629089488526,456.026289861241,-46.6027996272856,-479.327689674883,274.615944557906,204.711745116977
0.697674418604651,492.810245084628,457.715527940156,-35.0947171444723,-475.262886512392,263.95248111455,211.310405397842
0.699827734711456,477.242959696825,454.54243030746,-22.7005293893648,-465.892695002142,249.971744543095,215.920950459048
0.70198105081826,459.3996814137,451.279345136629,-8.12033627707137,-455.339513275165,233.760008845386,221.579504429779
0.704134366925065,442.683783341463,444.006040278712,1.32225693724814,-443.344911810087,220.680763202108,222.66414860798
0.706287683031869,423.137904446133,431.99610248823,8.85819804209717,-427.567003467181,207.139853202018,220.427150265163
0.708440999138674,408.500925583001,422.445458330109,13.944532747108,-415.473191956555,197.278196417946,218.194995538608
0.710594315245478,398.475508539358,419.319577328752,20.8440687893939,-408.897542934055,188.815719874982,220.081823059073
0.712747631352283,396.829666789921,417.008166254332,20.1784994644118,-406.918916522127,188.325583662754,218.593332859372
0.714900947459087,394.060051041205,413.082685161591,19.0226341203858,-403.571368101398,187.51870846041,216.052659640988
0.717054263565892,395.980870751415,411.506623160941,15.5257524095264,-403.743746956178,190.227559170944,213.516187785234
0.719207579672696,398.935337870541,412.298139784051,13.3628019135105,-405.616738827296,192.786267978515,212.830470848781
0.7213608957795,401.499947934899,412.296259252139,10.7963113172395,-406.898103593519,195.35181830883,211.546285284689
0.723514211886305,406.749918485015,411.499835823253,4.74991733823731,-409.124877154134,201.000000573389,208.124876580745
0.725667527993109,408.812000620393,409.894137290999,1.08213667060568,-409.353068955696,203.864931974894,205.488136980802
0.727820844099914,404.987244443774,407.470001568404,2.48275712463021,-406.228623006089,201.252243659572,204.976379346517
0.729974160206718,396.760699330931,403.448185499349,6.68748616841799,-400.10444241514,195.036606581256,205.067835833883
0.732127476313523,385.901112824126,398.660257825639,12.7591450015135,-392.280685324882,186.570983911306,205.709701413576
0.734280792420327,379.90038746721,397.107640627193,17.2072531599828,-388.504014047201,181.346567153613,207.157446893588
0.736434108527132,380.622534450047,395.603402019613,14.9808675695662,-388.11296823483,182.82083344024,205.29213479459
0.738587424633936,387.302854073882,397.27315490842,9.97030083453859,-392.288004491151,188.666276619672,203.621727871479
0.740740740740741,390.189439973295,394.907936437861,4.7184964645657,-392.548688205578,192.735471754365,199.813216451213
0.742894056847545,392.940887221668,394.046197778988,1.10531055731997,-393.493542500328,195.917788332174,197.575754168154
0.74504737295435,389.789396734633,392.340677611847,2.5512808772142,-391.06503717324,193.61905792871,197.445979244531
0.747200689061154,388.691677739071,391.453775555735,2.76209781666381,-390.072726647403,192.964789961203,197.107936686199
0.749354005167959,388.262107655672,390.656681072533,2.39457341686131,-389.459394364103,192.933767119405,196.525627244697
0.751507321274763,390.34353391822,392.342679728501,1.99914581028071,-391.34310682336,194.17219405397,197.170912769391
0.753660637381568,387.945841561313,391.689524755661,3.7436831943478,-389.817683158487,192.101079183483,197.716603975004
0.755813953488372,385.822009618924,390.992299582172,5.17028996324854,-388.407154600548,190.325859827838,198.08129477271
0.757967269595177,383.013187754002,387.804388144454,4.79120039045205,-385.408787949228,189.110993681775,196.297794267453
0.760120585701981,382.480752015995,385.304742558375,2.8239905423801,-383.892747287185,189.828380736807,194.064366550377
0.762273901808786,384.080029476203,384.353911409953,0.273881933750431,-384.216970443078,191.903073771226,192.313896671852
0.76442721791559,386.227037438981,385.042859946722,-1.18417749225875,-385.634948692851,193.70560746562,191.929341227232
0.766580534022395,388.274475799199,387.434474577084,-0.840001222115802,-387.854475188141,194.557238510658,193.297236677484
0.768733850129199,390.422366266839,386.76309686447,-3.65926940236926,-388.592731565655,197.040817834604,191.55191373105
0.770887166236004,389.629722555908,388.525288747275,-1.10443380863279,-389.077505651591,195.36707818227,193.710427469321
0.773040482342808,389.8632101862,389.445476098285,-0.417734087915107,-389.654343142242,195.140472137057,194.513871005185
0.775193798449612,391.772602738012,388.652350701327,-3.12025203668503,-390.212476719669,197.446427387348,192.766049332321
0.777347114556417,391.190443456593,387.727786539847,-3.46265691674614,-389.45911499822,197.32655018667,192.13256481155
0.779500430663221,389.581319892619,386.741877302725,-2.83944258989391,-388.161598597672,196.210381241257,191.951217356416
0.781653746770026,390.935282279672,385.010237750225,-5.92504452944718,-387.972760014948,198.430163404559,189.542596610389
0.78380706287683,392.21745773671,386.590436221814,-5.62702151489594,-389.403946979262,198.922239625803,190.481707353459
0.785960378983635,390.434075925345,389.107004109555,-1.32707181579013,-389.77054001745,195.880573870567,193.889966146882
0.788113695090439,390.468679083529,389.307918343846,-1.16076073968259,-389.888298713687,195.814719911606,194.073578802082
0.790267011197244,388.328515729248,389.464086959954,1.13557123070632,-388.896301344601,193.596472249271,195.29982909533
0.792420327304048,389.425255349042,387.898912047423,-1.52634330161885,-388.662083698232,195.47579932533,193.186284372902
0.794573643410853,388.806273975902,385.39184814908,-3.41442582682197,-387.099061062491,196.110349901362,190.988711161129
0.796726959517657,389.540103956485,385.979863639452,-3.56024031703294,-387.759983797968,196.550172136759,191.209811661209
0.798880275624462,392.456512969164,387.388599721204,-5.06791324795995,-389.922556345184,198.762213108562,191.160343236622
0.801033591731266,395.330234775156,386.539914562889,-8.79032021226715,-390.935074669022,202.060277493712,188.874797175311
0.803186907838071,395.966804224823,389.825876094212,-6.14092813061177,-392.896340159517,201.053866177718,191.8424739818
0.805340223944875,398.441815085403,390.840031336387,-7.60178374901642,-394.640923210895,203.02179941721,191.619123793685
0.80749354005168,397.939689105,392.642807222145,-5.29688188285485,-395.291248163573,201.618285493927,193.672962669645
0.809646856158484,398.255872585134,393.524787934297,-4.73108465083681,-395.890330259716,201.493478617985,194.39685164173
0.811800172265289,396.810349333583,392.634817601964,-4.17553173161866,-394.722583467773,200.492940532601,194.229642935173
0.813953488372093,397.477945922832,391.606422774294,-5.87152314853773,-394.542184348563,201.674734535685,192.867449812878
0.816106804478897,397.148523268907,388.184453364826,-8.96406990408104,-392.666488316866,203.056296586494,189.610191730372
0.818260120585702,396.020158156008,388.864044603359,-7.15611355264883,-392.442101379684,201.588135854329,190.853965525355
0.820413436692507,399.861620490443,392.124390086212,-7.73723040423027,-395.993005288328,203.799425447336,192.193579840991
0.822566752799311,399.228643458864,392.361840490885,-6.86680296797903,-395.795241974874,203.047723213421,192.747518761453
0.824720068906115,401.975987982271,395.008244405068,-6.96774357720329,-398.49211619367,204.471865779737,194.020250413932
0.82687338501292,401.532076718748,396.739168715563,-4.79290800318518,-399.135622717155,203.162492360967,195.973130356189
0.829026701119724,403.240383227899,396.676460263653,-6.56392296424656,-399.958421745776,204.902153096073,195.056268649703
0.831180017226529,399.87090788792,394.851601156462,-5.01930673145733,-397.361254522191,202.445107309688,194.916147212502
0.833333333333333,395.507365508027,392.190747129172,-3.31661837885446,-393.849056318599,199.411991943441,194.437064375159
0.835486649440138,396.74004484589,390.440222838628,-6.29982200726204,-393.590133842259,201.519933426576,192.070200415683
0.837639965546942,399.807243933445,392.868016774774,-6.93922715867018,-396.337630354109,203.373235546057,192.964394808052
0.839793281653747,403.976887565247,395.473767162081,-8.50312040316646,-399.725327363664,206.240003984207,193.485323379457
0.841946597760551,405.956848446051,397.33691281179,-8.61993563426051,-401.64688062892,207.288392040156,194.358488588765
0.844099913867356,409.495243996345,400.689478323695,-8.80576567265035,-405.09236116002,209.150504834498,195.941856325522
0.84625322997416,412.002172055762,402.259449702201,-9.74272235356045,-407.130810878981,210.872447204661,196.25836367432
0.848406546080965,412.611511326875,402.854401080374,-9.75711024650076,-407.732956203624,211.184310786688,196.548645416937
0.850559862187769,413.811582405962,401.793174338355,-12.0184080676077,-407.802378372158,212.914995236785,194.887383135373
0.852713178294574,411.853455336388,401.60718317053,-10.2462721658583,-406.730319253459,211.049863751123,195.680455502336
0.854866494401378,409.335346125004,401.602632523115,-7.7327136018892,-405.46898932406,208.534029863447,196.934959460613
0.857019810508183,411.896911572476,403.36656619926,-8.53034537321588,-407.631738885868,210.213628472846,197.418110413022
0.859173126614987,413.870529476329,405.210135081677,-8.66039439465237,-409.540332279003,211.265461935491,198.274870343512
0.861326442721792,416.618007910788,407.786294319043,-8.8317135917452,-412.202151114915,212.724860751267,199.477290363649
0.863479758828596,418.34000233841,409.401871021421,-8.93813131698892,-413.870936679916,213.639066827699,200.231869852216
0.865633074935401,418.169828700079,410.045574176206,-8.12425452387254,-414.107701438142,213.147041611976,200.960659826167
0.867786391042205,421.770225567665,409.8035904457,-11.9666351219648,-415.786908006682,216.868430344815,198.918477661868
0.869939707149009,419.824039019254,408.016675564976,-11.8073634542775,-413.920357292115,215.815701236766,198.104656055349
0.872093023255814,415.718399846062,406.38323101755,-9.33516882851183,-411.050815431806,212.526784337287,198.524031094519
0.874246339362619,414.300913433,408.102204423208,-6.19870900979225,-411.201558928104,210.249811221396,200.951747706708
0.876399655469423,414.674396071816,408.330034403147,-6.34436166866931,-411.502215237481,210.509378870243,200.992836367239
0.878552971576227,418.199393120348,411.703072060922,-6.49632105942629,-414.951232590635,212.347857089887,202.603375500748
0.880706287683032,420.691052493236,411.758895449313,-8.93215704392225,-416.224973971274,214.811604768579,201.413369202696
0.882859603789836,422.085108252426,412.443494797783,-9.64161345464345,-417.264301525104,215.863360853535,201.40094067157
0.885012919896641,422.505902250454,413.028445753196,-9.47745649725783,-417.767174001825,215.991679373856,201.775494627969
0.887166236003445,420.598928022922,412.042398594596,-8.55652942832626,-416.320663308759,214.577728725624,201.742934583135
0.88931955211025,421.326531544383,411.179470877907,-10.1470606664759,-416.253001211145,215.736796105429,200.516205105715
0.891472868217054,419.958866208822,411.269636181529,-8.68923002729366,-415.614251195175,214.324048118058,201.290203077117
0.893626184323859,421.119302284658,413.053302814731,-8.06599946992651,-417.086302549695,214.592650877292,202.493651672402
0.895779500430663,420.606613881681,414.036330190337,-6.57028369134412,-417.321472036009,213.588448786513,203.733023249497
0.897932816537468,421.425283184554,414.909134299505,-6.51614888504861,-418.16720874203,213.970716034801,204.196492707228
0.900086132644272,421.181654681748,415.631265733352,-5.55038894839521,-418.40646020755,213.366021815071,205.040438392479
0.902239448751077,417.649833144145,413.863203382774,-3.78662976137122,-415.75651826346,210.718231452758,205.038286810701
0.904392764857881,417.408348324475,412.884331999902,-4.52401632457327,-415.146340162188,210.966182324524,204.180157837664
0.906546080964686,415.043662380616,410.414118052323,-4.6295443282927,-412.72889021647,209.836603354454,202.892286862015
0.90869939707149,415.302896228675,410.470091976208,-4.8328042524667,-412.886494102442,210.067850240571,202.818643861871
0.910852713178295,417.222355664755,412.221513146438,-5.0008425183172,-414.721934405597,211.111599091536,203.61033531406
0.913006029285099,419.796991647265,415.571985346046,-4.2250063012184,-417.684488496656,212.010998974242,205.673489522414
0.915159345391904,420.528410430891,414.865290867023,-5.66311956386778,-417.696850648957,213.095764997379,204.601085651578
0.917312661498708,420.262435708124,416.415254603738,-3.84718110438649,-418.338845155931,212.054808406255,206.284036749676
0.919465977605513,419.971462726502,416.279017561922,-3.69244516457945,-418.125240144212,211.831953945541,206.293286198671
0.921619293712317,419.839937417384,415.328820288977,-4.5111171284068,-417.58437885318,212.175527272895,205.408851580285
0.923772609819121,417.560193150304,411.267715560978,-6.29247758932627,-414.413954355641,211.926335369815,202.487618985826
0.925925925925926,417.822287039508,411.290739949656,-6.53154708985261,-414.556513494582,212.17691706468,202.379596429901
0.92807924203273,418.862124132456,413.786875945324,-5.07524818713176,-416.32450003889,211.968686159794,204.355813879096
0.930232558139535,418.139156120736,413.918814860091,-4.22034126064506,-416.028985490414,211.179748690691,204.849236799723
0.932385874246339,417.205797980921,414.792971072671,-2.41282690825068,-415.999384526796,209.809312444586,206.19007208221
0.934539190353144,414.575730527016,413.199132234688,-1.37659829232757,-413.887431380852,207.976164409672,205.91126697118
0.936692506459948,415.179891005617,413.917019496835,-1.26287150878176,-414.548455251226,208.221381257199,206.327073994027
0.938845822566753,411.192953109296,409.843401154937,-1.34955195435805,-410.518177132116,206.271252531827,204.24692460029
0.940999138673557,408.176830664071,407.385550263764,-0.791280400306789,-407.781190463917,204.484055532189,203.297134931729
0.943152454780362,406.019466466081,405.780326055149,-0.239140410932293,-405.899896260615,203.129303438507,202.770592822108
0.945305770887166,406.156964347372,405.818998141915,-0.337966205456269,-405.987981244643,203.247465276414,202.74051596823
0.947459086993971,405.321411533386,405.092489986282,-0.228921547103369,-405.206950759834,202.775166540244,202.431784219589
0.949612403100775,405.13375210041,405.952785378928,0.81903327851785,-405.543268739669,202.157359410946,203.385909328723
0.95176571920758,401.755062453341,405.198972725321,3.44391027198077,-403.477017589331,199.15557609068,204.321441498651
0.953919035314384,403.267925919069,405.202271697584,1.93434577851457,-404.235098808327,200.666790070277,203.568308738049
0.956072351421189,404.158803575281,403.579183468196,-0.579620107084679,-403.868993521738,202.369211841183,201.499781680556
0.958225667527993,404.355483650452,402.72310774635,-1.63237590410159,-403.539295698401,202.993929777277,200.545365921124
0.960378983634798,404.517060926849,402.65477017356,-1.86229075328868,-403.585915550205,203.189675840069,200.396239710136
0.962532299741602,404.53678575085,402.608349401458,-1.92843634939112,-403.572567576154,203.23261105012,200.339956526034
0.964685615848407,403.612212337132,402.612077436943,-1.00013490018921,-403.112144887038,202.306173618661,200.805971268377
0.966838931955211,402.6306261245,402.676935468368,0.0463093438676765,-402.653780796434,201.292158390316,201.361622406118
0.968992248062016,401.719774961315,401.987288902573,0.267513941257903,-401.853531931944,200.726130510029,201.127401421915
0.97114556416882,398.573427334066,402.079325187551,3.50589785348478,-400.326376260808,197.53376474029,202.792611520518
0.973298880275625,393.169981367851,401.305045569189,8.13506420133729,-397.23751346852,192.517458583257,204.720054885263
0.975452196382429,393.344791446423,395.668426615816,2.3236351693937,-394.50660903112,195.510578138514,198.996030892605
0.977605512489233,388.648073336263,393.147225496822,4.49915216055854,-390.897649416542,192.074460587852,198.82318882869
0.979758828596038,390.148527344867,392.2267791895,2.07825184463229,-391.187653267184,194.035137750118,197.152515517066
0.981912144702842,389.957792343527,394.566853031099,4.60906068757151,-392.262322687313,192.674365827978,199.587956859335
0.984065460809647,393.762769617383,394.637881098331,0.875111480948533,-394.200325357857,196.443829068217,197.75649628964
0.986218776916451,392.943334049369,393.207882660299,0.264548610929921,-393.075608354834,196.339392719219,196.736215635614
0.988372093023256,393.090130901857,393.376336779646,0.286205877789541,-393.233233840751,196.401962512034,196.831271328718
0.99052540913006,394.117075778315,395.045007235162,0.927931456847034,-394.581041506739,196.594572160734,197.986469346005
0.992678725236865,396.66285919388,392.593609603679,-4.06924959020108,-394.628234398779,200.36605439204,194.262180006739
0.994832041343669,399.81149163759,392.401825282757,-7.40966635483329,-396.106658460174,203.610578996212,192.496079463962
0.996985357450474,397.213471773148,389.807817399531,-7.40565437361772,-393.51064458634,202.309563073383,191.201081512956
0.999138673557278,394.570328317686,393.673719339786,-0.8966089779002,-394.122023828736,197.733468647793,196.388555180943
1.00129198966408,392.063636448263,391.361789260976,-0.701847187287797,-391.712712854619,196.382741817776,195.329971036844
1.00344530577089,394.549481280831,393.172380643256,-1.37710063757459,-393.860930962044,197.963290959203,195.897640002841
1.00559862187769,394.811786672435,392.631179233895,-2.18060743853999,-393.721482953165,198.496197055487,195.225285897677
1.0077519379845,395.851243567612,393.558413583804,-2.29282998380774,-394.704828575708,199.07203677571,195.632791799998
1.0099052540913,397.500813008758,394.272810879122,-3.22800212963637,-395.88681194394,200.364407569197,195.522404374743
1.01205857019811,398.126698186267,391.628614776265,-6.4980834100017,-394.877656481266,202.312390798134,192.565265683132
1.01421188630491,398.634089852837,392.128919700564,-6.50517015227291,-395.3815047767,202.569630002555,192.811874774145
1.01636520241171,398.423064195308,391.980507436706,-6.44255675860205,-395.201785816007,202.432810476955,192.768975339052
1.01851851851852,399.228567865397,394.459854884218,-4.7687129811784,-396.844211374808,201.998640423288,194.84557095152
1.02067183462532,400.252850774499,394.75629856901,-5.49655220548919,-397.504574671754,202.874701489994,194.62987318176
1.02282515073213,395.785691667495,394.291043671785,-1.49464799571058,-395.03836766964,198.640169831603,196.398197838037
1.02497846683893,394.367911496913,394.456105652088,0.0881941551750742,-394.412008574501,197.139858670869,197.272149903632
1.02713178294574,390.321251167751,394.34624100619,4.02498983843844,-392.333746086971,193.148130664656,199.185615422314
1.02928509905254,388.452024370062,390.041183514532,1.58915914447067,-389.246603942297,193.431432612795,195.815171329501
1.03143841515935,387.34770050238,388.089329939116,0.741629436735991,-387.718515220748,193.303035532822,194.415479687926
1.03359173126615,393.5593111334,388.709588865176,-4.84972226822384,-391.134449999288,199.204516700812,191.929933298476
1.03574504737295,398.43980906559,393.598107223101,-4.84170184248921,-396.018958144345,201.64075545404,194.378202690306
1.03789836347976,401.129199834245,393.950327181863,-7.17887265238198,-397.539763508054,204.154036243314,193.385727264741
1.04005167958656,404.624532603456,396.714910857436,-7.90962174602021,-400.669721730446,206.267077174738,194.402644555708
1.04220499569337,402.382648458874,396.904585499971,-5.47806295890342,-399.643616979423,203.930355708889,195.713261270534
1.04435831180017,399.087331348525,395.993752545564,-3.09357880296136,-397.540541947045,201.090455075743,196.450086871301
1.04651162790698,399.571757744109,394.838715436949,-4.73304230715928,-397.205236590529,202.152400025634,195.052836564895
1.04866494401378,397.655176004771,392.05605999254,-5.59911601223115,-394.855617998655,201.627146008501,193.228471990154
1.05081826012059,396.701760565679,390.261594702877,-6.44016586280276,-393.481677634278,201.570963214241,191.910714420037
1.05297157622739,396.805563343515,393.548163145304,-3.25740019821149,-395.176863244409,200.031481770863,195.145381473546
1.05512489233419,397.910330107352,393.909567586139,-4.00076252121357,-395.909948846746,200.955546314283,194.954402532463
1.057278208441,396.66396116711,393.523522877856,-3.1404382892548,-395.093742022483,199.902199728183,195.1915422943
1.0594315245478,400.019115293884,396.922873272056,-3.09624202182817,-398.47099428297,201.557678657856,196.913315625114
1.06158484065461,402.306291985689,397.620570570055,-4.68572141563374,-399.963431277872,203.496006700661,196.467424577211
1.06373815676141,405.160597970152,396.462238320179,-8.6983596499739,-400.811418145166,206.929478810063,193.881939335102
1.06589147286822,405.58937718933,397.628538141636,-7.96083904769455,-401.608957665483,206.775108118512,194.83384954697
1.06804478897502,403.019580709524,395.011025661585,-8.00855504793952,-399.015303185554,205.514067878732,193.501235306823
1.07019810508183,400.753359194197,395.106409075094,-5.64695011910294,-397.929884134646,203.20015465665,194.729729477996
1.07235142118863,401.114232928977,397.06912793027,-4.04510499870753,-399.091680429623,202.579668963842,196.512011465781
1.07450473729544,404.676409439908,399.090964703372,-5.58544473653575,-401.88368707164,205.130927088222,196.752759983418
1.07665805340224,405.634192319465,400.120935621062,-5.51325669840327,-402.877563970264,205.573724508934,197.303839461329
1.07881136950904,403.879675159394,400.018737794108,-3.86093736528534,-401.949206476751,203.87030626234,198.078900214412
1.08096468561585,403.486055464243,399.637942231643,-3.84811323260078,-401.561998847943,203.667084348422,197.894914499521
1.08311800172265,403.109550755274,397.614424841808,-5.49512591346621,-400.361987798541,204.30233833437,196.059649464171
1.08527131782946,401.397623374529,395.795190283575,-5.6024330909533,-398.596406829052,203.500028232741,195.096378596311
1.08742463393626,404.783089851787,397.493858978917,-7.28923087286967,-401.138474415352,206.036160362328,195.102314053024
1.08957795004307,406.779150482223,399.464348417899,-7.31480206432394,-403.121749450061,207.046976273273,196.074773176788
1.09173126614987,408.718864126333,402.271690076559,-6.44717404977365,-405.495277101446,207.583019088053,197.912258013393
1.09388458225668,410.385697835871,403.282971695446,-7.10272614042555,-406.834334765659,208.744211988148,198.09012277751
1.09603789836348,414.116460403476,406.345851114837,-7.77060928863932,-410.231155759156,210.943534846058,199.287620913099
1.09819121447028,416.090370963374,408.353626040488,-7.73674492288592,-412.221998501931,211.91355794313,200.308440558801
1.10034453057709,416.563999972003,405.559972987612,-11.0040269843914,-411.061986479808,213.784013478197,197.27797300161
1.10249784668389,415.740864825253,403.77342455043,-11.9674402748223,-409.757144687842,213.854152550037,195.902992137804
1.1046511627907,416.023727763165,403.904884702022,-12.1188430611424,-409.964306232593,214.071285412153,195.89302082044
1.1068044788975,414.85079593446,407.454413886994,-7.39638204746524,-411.152604910727,211.123588990962,200.029015919765
1.10895779500431,414.340887992198,406.246893319094,-8.09399467310391,-410.293890655646,211.217441332651,199.076449322995
1.11111111111111,412.723400386654,407.204959899686,-5.51844048696819,-409.96418014317,209.120920436811,200.843259706359
1.11326442721792,406.840140892484,406.268702461818,-0.571438430666603,-406.554421677151,203.705789661575,202.848632015575
1.11541774332472,406.429576067032,406.710009018396,0.280432951363593,-406.569792542714,203.074571557834,203.49522098488
1.11757105943152,405.3930402639,403.184964476371,-2.20807578752874,-404.289002370135,203.800558025714,200.488444344421
1.11972437553833,404.671833922753,401.46080714998,-3.21102677277298,-403.066320536367,203.941430347763,199.124890188604
1.12187769164513,403.423703610675,400.815024923371,-2.60867868730469,-402.119364267023,203.01619114899,199.103173118033
1.12403100775194,404.613137727535,401.145230506294,-3.46790722124121,-402.879184116915,204.040522474388,198.838661642526
1.12618432385874,404.023117366875,402.245465150687,-1.77765221618853,-403.134291258781,202.900384791532,200.233906467249
1.12833763996555,405.500530399917,403.934796235933,-1.56573416398334,-404.717663317925,203.53313228195,201.184531035975
1.13049095607235,408.321281983721,404.576284507693,-3.74499747602857,-406.448783245707,206.033139729875,200.415643515832
1.13264427217916,407.1477343385,405.86478369952,-1.28295063897951,-406.50625901901,204.21534248874,202.29091653027
1.13479758828596,404.604319915472,404.017491471403,-0.586828444069283,-404.310905693438,202.595574179771,201.715331513667
1.13695090439276,403.179308084012,400.778437831545,-2.40087025246714,-401.978872957778,202.79008916824,199.188783789539
1.13910422049957,400.386925217515,399.35221220323,-1.0347130142851,-399.869568710373,200.7108191159,199.158749594472
1.14125753660637,398.36403221183,398.829556672888,0.46552446105818,-398.596794442359,198.949253875386,199.647540566973
1.14341085271318,393.701986344103,396.651303209723,2.9493168656204,-395.176644776913,195.376334739241,199.800310037672
1.14556416881998,393.48012438174,396.666928291031,3.1868039092908,-395.073526336386,195.146660236225,199.926866100161
1.14771748492679,391.479560391445,394.114605339712,2.63504494826691,-392.797082865578,194.422257721589,198.374825143989
1.14987080103359,391.136900302933,395.467471899258,4.33057159632455,-393.302186101096,193.403164353304,199.899021747791
1.1520241171404,391.877509494079,393.726673687878,1.84916419379869,-392.802091590979,195.01417265014,197.787918940838
1.1541774332472,391.357860941076,391.364441092283,0.00658015120683331,-391.361151016679,195.675640394934,195.685510621745
1.15633074935401,392.58752654568,389.946117907328,-2.64140863835127,-391.266822226504,197.614467592015,193.652354634489
1.15848406546081,394.497987892472,391.735281280228,-2.76270661224396,-393.11663458635,198.630347252358,194.486287333992
1.16063738156761,395.293093012739,391.832586081815,-3.46050693092428,-393.562839547277,199.376799971832,194.186039575445
1.16279069767442,395.762304329786,392.565241796961,-3.1970625328255,-394.163773063374,199.479683431306,194.684089632068
1.16494401378122,395.315348134454,393.19300120808,-2.12234692637406,-394.254174671267,198.718847530414,195.535327140853
1.16709732988803,393.443434785952,393.835589589497,0.392154803544429,-393.639512187724,196.525639991204,197.113872196521
1.16925064599483,391.919897459097,392.212309445937,0.292411986840136,-392.066103452517,195.813742736129,196.252360716389
1.17140396210164,392.29425313974,390.723492861245,-1.57076027849462,-391.508873000493,196.932506709117,194.576366291375
1.17355727820844,394.324153165588,391.673425025755,-2.65072813983295,-392.998789095671,198.48744065271,194.511348442961
1.17571059431525,393.750897167862,389.385734293553,-4.36516287430925,-391.568315730707,199.058030021086,192.510285709622
1.17786391042205,389.640647072851,387.766248696339,-1.87439837651181,-388.703447884595,195.757522724681,192.945925159914
1.18001722652885,389.237872320602,389.224974579221,-0.0128977413807547,-389.231423449912,194.625385030991,194.60603841892
1.18217054263566,385.655085453176,388.29791315328,2.64282770010453,-386.976499303228,191.506128876536,195.470370426692
1.18432385874246,385.504872309608,386.673679274468,1.16880696485998,-386.089275792038,192.168032672374,193.921243119664
1.18647717484927,386.492096568168,389.146800142787,2.65470357461834,-387.819448355477,191.918696496775,195.900751858702
1.18863049095607,389.275815549473,388.500843141292,-0.774972408180531,-388.888329345382,195.025393978827,193.862935366556
1.19078380706288,388.034949775209,386.214783081617,-1.82016669359223,-387.124866428413,194.927558234401,192.197308194012
1.19293712316968,385.734809185845,382.218630595761,-3.51617859008439,-383.976719890803,194.625493887965,189.351226002838
1.19509043927649,381.547732296106,380.500626397416,-1.04710589869035,-381.024179346761,191.297419097398,189.726760249363
1.19724375538329,381.978675204984,382.736195410111,0.757520205126696,-382.357435307547,190.610577499929,191.746857807619
1.19939707149009,383.281306646122,383.463121018626,0.181814372504277,-383.372213832374,191.549746136809,191.822467695565
1.2015503875969,384.822616290169,384.318749378871,-0.503866911297678,-384.57068283452,192.663241600733,191.907441233787
1.2037037037037,388.994055755057,386.85629375327,-2.13776200178665,-387.925174754164,195.565908878422,192.359265875742
1.20585701981051,386.923979415322,386.210087422545,-0.713891992777349,-386.567033418934,193.81893570405,192.748097714884
1.20801033591731,390.342488391249,384.666793252555,-5.67569513869313,-387.504640821902,198.009091764971,189.495549056931
1.21016365202412,397.526862449198,385.371958652476,-12.1549037967222,-391.449410550837,204.84088312296,186.608527427877
1.21231696813092,405.287382830098,390.757381970137,-14.530000859961,-398.022382400117,209.908691845029,188.113690555088
1.21447028423773,419.297011047156,396.158824634049,-23.1381864131067,-407.727917840603,221.217598730131,186.510319110471
1.21662360034453,434.161818584193,405.645496213081,-28.516322371112,-419.903657398637,231.339070477652,188.564586920984
1.21877691645134,450.802724676308,415.279097191441,-35.5236274848672,-433.040910933874,243.163176080588,189.877734853287
1.22093023255814,468.444808003975,426.594100035151,-41.8507079688244,-447.519454019563,255.1477579864,192.371696033163
1.22308354866494,486.991955842787,437.095360004899,-49.8965958378878,-462.043657923843,268.444275840337,193.599382083506
1.22523686477175,503.907089166039,448.266835811659,-55.6402533543806,-476.086962488849,279.77367126021,196.313291228639
1.22739018087855,512.715497588236,456.104777912592,-56.6107196756435,-484.410137750414,284.66310863194,199.747029118474
1.22954349698536,514.193539469284,460.67450739808,-53.5190320712039,-487.434023433682,283.856285770244,203.577737663438
1.23169681309216,506.04160347826,461.307167656769,-44.7344358214906,-483.674385567515,275.388019649875,208.286365917639
1.23385012919897,488.385045687248,461.284291947181,-27.1007537400671,-474.834668817215,257.742899713658,217.091769103557
1.23600344530577,466.873240815489,455.060701796267,-11.812539019222,-460.966971305878,239.342889917355,221.624081388522
1.23815676141258,445.480165719856,447.319590046679,1.83942432682375,-446.399877883268,221.820370696516,224.579507186752
1.24031007751938,421.754146313474,437.136032573303,15.3818862598288,-429.445089443389,203.186130026823,226.258959416566
1.24246339362618,400.384725005538,426.002011322881,25.6172863173425,-413.193368164209,187.383719344098,225.809648820112
1.24461670973299,390.071951106999,417.888443494424,27.8164923874244,-403.980197300711,181.127729359787,222.852467940924
1.24677002583979,386.058126439616,412.097812417826,26.0396859782103,-399.077969428721,180.009220230703,219.068749198018
1.2489233419466,391.557459803482,411.150268830423,19.5928090269411,-401.353864316953,185.982325388271,215.371538928682
1.2510766580534,395.489926828823,411.169756126392,15.6798292975696,-403.329841477607,189.905048765627,213.424792711981
1.25322997416021,398.676929167911,411.359336708064,12.6824075401532,-405.018132937987,192.997260813879,212.020872124109
1.25538329026701,402.706271494697,413.20425555479,10.4979840600928,-407.955263524743,196.104143717302,211.851119807441
1.25753660637382,402.781344148021,410.203195218024,7.42185107000296,-406.492269683022,197.679746539009,208.812523144013
1.25968992248062,405.214269836125,410.989035359554,5.77476552342944,-408.101652597839,199.719752156348,208.381900441492
1.26184323858742,404.414047162621,407.616701243276,3.20265408065444,-406.015374202948,200.605696540983,205.409677661965
1.26399655469423,401.971783941348,403.37318809973,1.40140415838175,-402.672486020539,200.285189891483,202.387296129056
1.26614987080103,397.129402364116,402.388927999819,5.25952563570326,-399.759165181968,195.934938364206,203.824226817761
1.26830318690784,395.490469166142,399.215287287221,3.72481812107827,-397.352878226682,195.882825522532,201.470052704149
1.27045650301464,393.104299313353,399.411849950946,6.30755063759369,-396.25807463215,193.39837433788,202.85970029427
1.27260981912145,388.376233077391,398.098009438327,9.72177636093596,-393.237121257859,189.327228358227,203.909892899631
1.27476313522825,386.843928217395,395.908057868739,9.06412965134376,-391.375993043067,188.889899283026,202.486093760041
1.27691645133506,386.889509152703,395.11337757566,8.22386842295765,-391.001443364182,189.332820364873,201.668622999309
1.27906976744186,387.697634298095,393.33080508848,5.63317079038478,-390.514219693287,191.032231753855,199.481987939432
1.28122308354867,388.472364455303,391.467667475101,2.99530301979803,-389.970015965202,192.738530717752,197.231485247449
1.28337639965547,389.228795032212,391.272617437095,2.04382240488286,-390.250706234653,193.592486313664,196.658219920989
1.28552971576227,386.017357851425,388.887523062424,2.87016521099974,-387.452440456925,191.573596320212,195.878844136712
1.28768303186908,383.621048132954,388.286024192174,4.66497605921961,-385.953536162564,189.478036036867,196.475500125697
1.28983634797588,384.421892261618,389.354208732406,4.9323164707879,-386.888050497012,189.744787895415,197.143262601597
1.29198966408269,382.845520979943,389.545673778601,6.700152798658,-386.195597379272,188.072684090642,198.122913288629
1.29414298018949,386.031088545432,388.748394058447,2.71730551301545,-387.38974130194,191.656891516208,195.732849785731
1.2962962962963,385.2439693549,388.556824967359,3.31285561245835,-386.90039716113,190.965556871221,195.934840289909
1.2984496124031,388.437786022171,387.499127613944,-0.938658408227411,-387.968456818057,194.688222215199,193.280234602858
1.30060292850991,390.05230569252,388.114078659075,-1.93822703344557,-389.083192175797,195.995266362983,193.087925812814
1.30275624461671,387.689767546636,386.532660002384,-1.15710754425174,-387.11121377451,194.423437545444,192.687776229066
1.30490956072351,387.684958528207,386.718053240295,-0.966905287912027,-387.201505884251,194.32593190806,192.875573976192
1.30706287683032,386.054349308321,386.174380652166,0.120031343844857,-386.114364980243,192.967158982238,193.147205998005
1.30921619293712,386.78195292977,386.341653778793,-0.440299150977012,-386.561803354281,193.611126040373,192.950677313908
1.31136950904393,385.935042186988,386.329811163644,0.394768976655826,-386.132426675316,192.770136605166,193.36229007015
1.31352282515073,386.735171143676,386.944795150108,0.209624006432762,-386.839983146892,193.262773568621,193.577209578271
1.31567614125754,392.370987041673,387.501382091022,-4.86960495065165,-389.936184566347,198.620295996162,191.315888570185
1.31782945736434,394.859182924555,388.139782597357,-6.71940032719755,-391.499482760956,200.789291625876,190.71019113508
1.31998277347115,395.72291274203,386.567080482789,-9.15583225924098,-391.144996612409,202.439372500635,188.705624111774
1.32213608957795,395.707906082951,389.124691683911,-6.58321439903932,-392.416298883431,201.145560240995,191.270738642436
1.32428940568475,394.020594240534,390.143311683565,-3.87728255696834,-392.081952962049,198.948938398751,193.133014563298
1.32644272179156,389.92375836822,390.283491609879,0.35973324165866,-390.103624989049,194.782012563281,195.321612425769
1.32859603789836,390.645391178848,388.675575363053,-1.96981581579513,-389.660483270951,196.307603497322,193.352879773629
1.33074935400517,393.053706686118,390.106098918495,-2.9476077676224,-391.579902802306,198.00065722687,193.579245575436
1.33290267011197,396.337507989349,390.698673508086,-5.6388344812629,-393.518090748718,200.988171235306,192.529919513412
1.33505598621878,398.842723964293,391.361052377488,-7.48167158680474,-395.10188817089,203.162197775549,191.939690395342
1.33720930232558,398.909035787597,390.574863150335,-8.33417263726164,-394.741949468966,203.621604212429,191.120345256537
1.33936261843239,398.884265774476,389.919730714976,-8.96453505950086,-394.401998244726,203.924400416989,190.477597827737
1.34151593453919,394.817122809843,390.108579554988,-4.7085432548547,-392.462851182415,199.762833032349,192.700018150067
1.34366925064599,393.916868428843,391.827649770872,-2.089218657971,-392.872259099858,198.003043543407,194.869215556451
1.3458225667528,393.859029286729,391.03350194152,-2.82552734520885,-392.446265614124,198.342278315969,194.103987298155
1.3479758828596,395.46134226516,392.497068077129,-2.96427418803103,-393.979205171144,199.212808226595,194.766396944549
1.35012919896641,397.911500194751,393.114697778317,-4.79680241643342,-395.513098986534,201.354151305592,194.158947680942
1.35228251507321,400.37277656137,393.779633307403,-6.59314325396645,-397.076204934386,203.482959907668,193.593245026718
1.35443583118002,402.805577117933,392.974058385868,-9.83151873206464,-397.889817751901,206.318547924999,191.571269826902
1.35658914728682,403.604572896349,393.879436172166,-9.72513672418233,-398.742004534257,206.664854810265,192.077149723992
1.35874246339363,401.986081491394,394.842294566548,-7.14378692484644,-398.414188028971,204.56493420812,193.849253820851
1.36089577950043,402.739011588048,395.767204667381,-6.97180692066752,-399.253108127714,204.855409254358,194.397698873357
1.36304909560724,405.083295395383,398.170775377713,-6.91252001767072,-401.627035386548,205.997907706527,195.629127680021
1.36520241171404,409.021039629359,400.453810685872,-8.56722894348741,-404.737425157615,208.794134286423,195.943290871192
1.36735572782084,405.028298054418,400.29132904684,-4.73696900757813,-402.659813550629,204.882633530998,197.777180019631
1.36950904392765,405.834327173722,398.57340252208,-7.26092465164203,-402.203864847901,206.547625912682,195.656238935219
1.37166236003445,403.505680427042,396.171190023838,-7.33449040320443,-399.83843522544,205.420085415123,194.418349810317
1.37381567614126,402.7901987464,395.477254277136,-7.3129444692641,-399.133726511768,205.051571607832,194.082154903936
1.37596899224806,402.849031667674,397.220480406456,-5.62855126121855,-400.034756037065,204.238791464446,195.795964572619
1.37812230835487,402.047289779952,396.538122572073,-5.50916720787848,-399.292706176013,203.778228493915,195.514477682097
1.38027562446167,404.343956133114,399.71906228798,-4.62489384513441,-402.031509210547,204.484424989124,197.547084221423
1.38242894056848,405.8055017766,400.411308532757,-5.39419324384301,-403.108405154678,205.599847510221,197.508557644457
1.38458225667528,407.302579953958,400.27217692332,-7.03040303063841,-403.787378438639,207.166491492298,196.620886946341
1.38673557278208,408.904774513561,400.979459939691,-7.92531457387031,-404.942117226626,208.415044543716,196.52707268291
1.38888888888889,407.447507496909,400.994874078613,-6.45263341829599,-404.221190787761,206.950070457603,197.271120330159
1.39104220499569,411.601760835626,400.302205397034,-11.2995554385919,-405.95198311633,211.450658137109,194.501324979221
1.3931955211025,414.100696017332,400.422049897054,-13.6786461202781,-407.261372957193,213.889671068805,193.371701888388
1.3953488372093,415.648853719513,404.453842606242,-11.1950111132707,-410.051348162878,213.421932416392,196.629415746486
1.39750215331611,417.048897933725,406.798868574695,-10.2500293590302,-411.92388325421,213.649463646378,198.274419607833
1.39965546942291,417.617304925895,409.074952182554,-8.54235274334138,-413.346128554224,213.079828834618,200.266299719606
1.40180878552972,416.70884652239,408.182788407169,-8.52605811522108,-412.445817464779,212.617452318805,199.828365145974
1.40396210163652,414.413927894107,407.371350784165,-7.04257710994204,-410.892639339136,210.728252502025,200.164386837112
1.40611541774332,417.046968528919,408.240286886714,-8.80668164220498,-412.643627707816,212.926825085562,199.716802622254
1.40826873385013,416.506888711948,407.553863673653,-8.95302503829498,-412.030376192801,212.729956875122,199.300419317679
1.41042204995693,418.180693906803,407.61293234584,-10.5677615609627,-412.896813126322,214.374227733883,198.522585392439
1.41257536606374,420.40743957853,409.959208781041,-10.448230797489,-415.183324179785,215.427835188009,199.755488991776
1.41472868217054,419.30237612221,411.43785267802,-7.86452344419007,-415.370114400115,213.5834497832,201.786664616915
1.41688199827735,419.03905284372,412.129663746896,-6.90938909682433,-415.584358295308,212.974220970272,202.610137325036
1.41903531438415,421.388724308706,413.705046637644,-7.68367767106167,-417.546885473175,214.536200989884,203.010684483291
1.42118863049096,426.384932238199,416.182420926544,-10.2025113116549,-421.283676582371,218.293721774927,202.989954807445
1.42334194659776,427.531331836232,417.910350089153,-9.62098174707944,-422.720840962693,218.576156791656,204.144684171037
1.42549526270457,429.368697405972,414.819275323821,-14.5494220821509,-422.093986364896,221.959059744061,200.134926620835
1.42764857881137,426.967169149458,416.376314763485,-10.5908543859728,-421.671741956472,218.779011767715,202.892730188756
1.42980189491817,425.891723524392,416.237382209178,-9.65434131521334,-421.064552866785,217.773032419803,203.291520446983
1.43195521102498,423.138002722392,418.458740680449,-4.67926204194265,-420.798371701421,213.908632382167,206.889739319253
1.43410852713178,421.323202954635,416.001855804907,-5.32134714972887,-418.662529379771,213.322275052182,205.340254327589
1.43626184323859,421.387972961056,416.8726022772,-4.51537068385585,-419.130287619128,212.951671822456,206.178615796672
1.43841515934539,424.087619347687,417.85559611664,-6.23202323104709,-420.971607732164,215.159821289367,205.811786442797
1.4405684754522,422.868714746619,417.241159090654,-5.62755565596456,-420.054936918637,214.248135201292,205.806801717345
1.442721791559,423.061171729444,416.494474553488,-6.56669717595611,-419.777823141466,214.8139344527,204.963888688766
1.44487510766581,420.574149163396,414.778973356383,-5.79517580701258,-417.676561259889,213.184662485204,204.491898774685
1.44702842377261,418.650326413318,413.755624187989,-4.89470222532844,-416.202975300653,211.772514319323,204.43046098133
1.44918173987941,419.085218118811,414.362919046593,-4.72229907221885,-416.724068582702,211.903758595515,204.820309987187
1.45133505598622,418.126969795397,415.136523025244,-2.99044677015303,-416.63174641032,210.558708282775,206.073038127545
1.45348837209302,415.878138070777,415.306121906679,-0.572016164097533,-415.592129988728,208.225077117437,207.367052871291
1.45564168819983,414.643775897075,414.775351356574,0.131575459499288,-414.709563626825,207.256100218788,207.453463408037
1.45779500430663,418.97025615033,415.763632372336,-3.20662377799334,-417.366944261333,211.088439964161,206.278504297171
1.45994832041344,421.479972374673,416.551069133172,-4.92890324150073,-419.015520753922,213.204437808087,205.811082945836
1.46210163652024,420.500038012348,413.952077118984,-6.54796089336418,-417.226057565666,213.523999452856,203.70205811281
1.46425495262705,419.328125362234,415.243854483807,-4.08427087842762,-417.285989923021,211.706198120331,205.57979180269
1.46640826873385,419.796652534249,415.845553596888,-3.9510989373606,-417.821103065568,211.873875735805,205.947227329764
1.46856158484065,417.349394549286,414.297612683631,-3.05178186565502,-415.823503616459,210.200588207471,205.622915408988
1.47071490094746,418.383182156067,415.354946282961,-3.02823587310633,-416.869064219514,210.705709014587,206.163355204927
1.47286821705426,416.389280707358,414.890204402051,-1.49907630530674,-415.639742554705,208.944178506332,206.695564048372
1.47502153316107,415.088739954287,415.872078360688,0.783338406400674,-415.480409157487,207.152700773943,208.327708383544
1.47717484926787,410.324719013776,412.612465863446,2.28774684966965,-411.468592438611,204.018486082053,207.450106356558
1.47932816537468,406.861442616059,408.330922144485,1.46947952842538,-407.596182380272,202.695981543817,204.900200836455
1.48148148148148,402.497409991403,404.806357088528,2.30894709712481,-403.651883539966,200.094231447139,203.557652092826
1.48363479758829,399.864535876572,404.63822571631,4.77368983973832,-402.251380796441,197.545423018417,204.705957778024
1.48578811369509,399.120727033185,404.755308520724,5.6345814875387,-401.938017776955,196.743072772823,205.194945004131
1.48794142980189,397.850472250765,401.119655634072,3.26918338330739,-399.485063942418,197.290644433729,202.19441950869
1.4900947459087,399.029631059072,402.268675628598,3.23904456952641,-400.649153343835,197.895293244773,202.753860099062
1.4922480620155,397.648875622085,402.421944412345,4.77306879025952,-400.035410017215,196.437903415913,203.597506601302
1.49440137812231,395.961319615094,399.889446104089,3.92812648899456,-397.925382859592,196.01659656305,201.908786296542
1.49655469422911,396.412961525274,396.348212240896,-0.0647492843777968,-396.380586883085,198.238855404826,198.141731478259
1.49870801033592,394.45264122913,395.198832352595,0.746191123464484,-394.825736790863,196.853225052833,197.97251173803
1.50086132644272,398.256089719085,396.658079032747,-1.59801068633817,-397.457084375916,199.927050202712,197.530034173204
1.50301464254953,399.983687114748,399.214667587206,-0.769019527541673,-399.599177350977,200.376353321145,199.222824029832
1.50516795865633,401.932982079936,401.174763637943,-0.758218441992369,-401.553872858939,201.345600260964,200.208272597975
1.50732127476314,404.677151492739,401.523189438347,-3.15396205439225,-403.100170465543,203.915556773566,199.184613691977
1.50947459086994,403.228383821914,400.849830284608,-2.37855353730578,-402.039107053261,202.80346867961,199.235638373651
1.51162790697674,401.4740334152,399.879138921119,-1.59489449408153,-400.67658616816,201.534463954641,199.142122213519
1.51378122308355,396.340641634442,395.538917516371,-0.801724118071206,-395.939779575407,198.571182876257,197.36859669915
1.51593453919035,394.408016750579,393.60720178743,-0.800814963148412,-394.007609269005,197.604415856864,196.403193412141
1.51808785529716,391.910785928688,391.900167866503,-0.0106180621851877,-391.905476897596,195.960701995437,195.944774902159
1.52024117140396,392.883823491269,393.658723680027,0.774900188757954,-393.271273585648,196.054461651255,197.216811934392
1.52239448751077,393.241293675307,393.218442712881,-0.0228509624267872,-393.229868194094,196.632072318867,196.597795875227
1.52454780361757,393.559989916312,394.345147171402,0.785157255089587,-393.952568543857,196.387416330611,197.565152213246
1.52670111972438,395.239380304794,395.260815925772,0.0214356209773996,-395.250098115283,197.608972341908,197.641125773375
1.52885443583118,395.052099575335,397.486279808579,2.43418023324352,-396.269189691957,196.308959671046,199.960230020911
1.53100775193798,395.498839283552,394.760728812149,-0.738110471403388,-395.12978404785,198.118474877478,197.011309170373
1.53316106804479,395.203254988695,392.053830376913,-3.14942461178146,-393.628542682804,199.176339800238,194.452202882566
1.53531438415159,395.138056454481,391.14452644987,-3.99353000461133,-393.141291452175,199.565793229546,193.575498222629
1.5374677002584,395.340851839436,393.681658402761,-1.65919343667468,-394.511255121099,198.500022638055,196.011232483043
1.5396210163652,396.480158132422,393.211456652856,-3.268701479566,-394.845807392639,199.874429805994,194.971377586645
1.54177433247201,398.34295598429,392.721073250702,-5.621882733588,-395.532014617496,201.982419358939,193.549595258557
1.54392764857881,398.377433413548,395.215435033106,-3.16199838044253,-396.796434223327,200.769715896995,196.026718326331
1.54608096468562,398.946717432113,396.661334871855,-2.28538256025865,-397.804026151984,200.616049996186,197.187976155798
1.54823428079242,397.014679276456,394.762661941415,-2.25201733504042,-395.888670608936,199.633348305748,196.255322303188
1.55038759689922,396.767550611401,392.088894495453,-4.6786561159484,-394.428222553427,200.723103363675,193.705119189752
1.55254091300603,395.182008823488,391.988497177426,-3.19351164606206,-393.585253000457,199.187760234775,194.397492765682
1.55469422911283,397.814394495697,390.542792446394,-7.27160204930271,-394.178593471045,202.5429982725,191.635595198546
1.55684754521964,398.150610943609,394.013352946171,-4.13725799743764,-396.08198194489,201.143934470523,194.938047474367
1.55900086132644,398.362459633468,395.07145715654,-3.29100247692867,-396.716958395004,200.826731055199,195.890227339806
1.56115417743325,393.556538645537,393.565152824967,0.00861417943013976,-393.560845735252,196.773962233054,196.786883502199
1.56330749354005,392.501958405678,393.430414418935,0.928456013256834,-392.966186412306,195.78675119621,197.179435216096
1.56546080964686,392.182770751917,393.167722014999,0.984951263081825,-392.675246383458,195.598909744417,197.07633663904
1.56761412575366,392.789704197768,390.550426059517,-2.23927813825048,-391.670065128642,197.514491168009,194.155573960633
1.56976744186047,392.050391554852,390.476563605972,-1.57382794887934,-391.263477580412,196.812109751866,194.451367828547
1.57192075796727,397.078079143683,391.388683207739,-5.68939593594371,-394.233381175711,201.383737539813,192.849643635898
1.57407407407407,398.180015156008,393.20606752781,-4.97394762819749,-395.693041341909,201.576981392103,194.116059949806
1.57622739018088,398.350680142713,393.410138414381,-4.94054172833256,-395.880409278547,201.645610935523,194.234798343024
1.57838070628768,395.113147812807,391.893086745808,-3.22006106699899,-393.503117279308,199.166604439903,194.336512839405
1.58053402239449,394.070857040085,393.394209279664,-0.676647760421531,-393.732533159875,197.373752400253,196.358780759621
1.58268733850129,392.193511579472,392.410624859596,0.217113280124124,-392.302068219534,195.988199149674,196.31386906986
1.5848406546081,392.821873076916,390.63798850934,-2.18388456757606,-391.729930793128,197.502878822246,194.227051970882
1.5869939707149,394.455367404422,389.762502496079,-4.69286490834276,-392.10893495025,199.574116156382,192.534818793868
1.58914728682171,397.061523233917,390.613409893522,-6.44811334039446,-393.837466563719,201.754818287156,192.082648276564
1.59130060292851,400.510791757712,393.943014767933,-6.56777698977879,-397.226903262823,203.539284373745,193.687618889077
1.59345391903531,403.856623124601,394.898055549585,-8.95856757501627,-399.377339337093,206.407595349809,192.969743987284
1.59560723514212,405.420822691846,396.575979088537,-8.8448436033085,-400.998400890191,207.132833147577,193.865567742614
1.59776055124892,406.812704881121,398.146400275328,-8.66630460579336,-402.479552578225,207.739504743457,194.740047834767
1.59991386735573,404.97105178468,399.626309765887,-5.34474201879294,-402.298680775284,205.157896901737,197.140783873547
1.60206718346253,404.012031578146,397.896872754904,-6.11515882324125,-400.954452166525,205.063595200693,195.890856965832
1.60422049956934,402.436721489633,395.413047155195,-7.02367433443811,-398.924884322414,204.730197912035,194.194686410378
1.60637381567614,401.819417777968,395.399946965136,-6.41947081283189,-398.609682371552,204.1194442954,194.490238076152
1.60852713178295,405.228305451683,397.855596613138,-7.37270883854569,-401.54195103241,206.300507145114,195.241443887296
1.61068044788975,406.170456057397,397.970665282752,-8.19979077464416,-402.070560670074,207.18512341602,194.885437254054
1.61283376399655,407.741502270849,399.660994076654,-8.08050819419492,-403.701248173752,207.911005232522,195.79024294123
1.61498708010336,408.37311952657,400.499538710667,-7.87358081590315,-404.436329118619,208.123350171237,196.312978947382
1.61714039621016,408.169645719119,403.645217942154,-4.52442777696501,-405.907431830636,206.347036748042,199.560395082594
1.61929371231697,407.254158068786,401.964105611838,-5.2900524569481,-404.609131840312,206.272105262867,198.337026577445
1.62144702842377,405.694472310433,399.474337875494,-6.2201344349383,-402.584405092963,205.957303372685,196.627101720278
1.62360034453058,406.640987851584,399.40692337121,-7.23406448037372,-403.023955611397,206.937526165979,196.086429445418
1.62575366063738,406.02081377702,398.615750730266,-7.40506304675347,-402.318282253643,206.712938411887,195.605343841756
1.62790697674419,406.109334614604,399.480219425001,-6.62911518960289,-402.794777019802,206.369224902103,196.425552117699
1.63006029285099,407.652157248111,401.964096425131,-5.68806082298022,-404.808126836621,206.670109035546,198.138017801075
1.63221360895779,405.126563658429,402.839445253583,-2.28711840484624,-403.983004456006,203.706841031638,200.276163424368
1.6343669250646,408.160236914168,403.656633379642,-4.50360353452527,-405.908435146905,206.331920224346,199.576514922558
1.6365202411714,409.690804714907,404.406008420085,-5.2847962948216,-407.048406567496,207.487800504864,199.560606062632
1.63867355727821,411.334336086354,405.108862364468,-6.2254737218862,-408.221599225411,208.77990490412,199.441694321291
1.64082687338501,414.637423821799,403.426913948195,-11.2105098736038,-409.032168884997,212.923966847701,196.108202037296
1.64298018949182,413.95945936183,403.380257549525,-10.5792018123053,-408.669858455678,212.269330587068,196.40052786861
1.64513350559862,414.001620463827,406.581259179485,-7.42036128434239,-410.291439821656,210.710990874085,199.580448947571
1.64728682170543,412.366114940672,405.868418834358,-6.49769610631336,-409.117266887515,209.431905523493,199.685361364022
1.64944013781223,409.090330048038,403.588494410767,-5.50183563727012,-406.339412229402,207.296082842654,199.043329386749
1.65159345391904,408.206415916815,405.253422920066,-2.95299299674889,-406.729919418441,205.579704456782,201.150214961659
1.65374677002584,407.374754649618,405.257886383053,-2.11686826656432,-406.316320516336,204.745811458091,201.570509058245
1.65590008613264,408.190579649069,403.590091503383,-4.60048814568597,-405.890335576226,206.395533897378,199.494801678849
1.65805340223945,402.690906283293,401.081692478347,-1.60921380494551,-401.88629938082,202.150060044119,199.736239336701
1.66020671834625,402.762126447826,399.390131576132,-3.37199487169454,-401.076129011979,203.06706065976,198.009068352219
1.66236003445306,402.018360686041,399.37010021184,-2.64826047420166,-400.69423044894,202.333310580121,198.360919868819
1.66451335055986,408.375838218264,402.624037346017,-5.75180087224658,-405.49993778214,207.063819545255,198.436118236885
1.66666666666667,408.324639652261,403.550366763502,-4.77427288875924,-405.937503207882,206.54945627051,199.388046937371
1.66881998277347,405.866765758842,402.87398893161,-2.99277682723226,-404.370377345226,204.429771293037,199.940606052189
1.67097329888028,403.436324163577,402.916509674468,-0.519814489109194,-403.176416919022,201.978069326343,201.198347592679
1.67312661498708,403.446924696242,402.064240466484,-1.38268422975796,-402.755582581363,202.414804463,200.340778118363
1.67527993109388,403.503118798782,400.343680205999,-3.15943859278235,-401.92339950239,203.331278695782,198.592120806608
1.67743324720069,402.768325075711,399.411022187064,-3.35730288864727,-401.089673631387,203.062813982179,198.026859649208
1.67958656330749,400.409814890789,400.13385999756,-0.275954893228857,-400.271837444175,200.342884892009,199.928952552166
1.6817398794143,399.594532228246,399.376302913252,-0.218229314993948,-399.485417570749,199.90638077162,199.579036799129
1.6838931955211,398.75243740007,399.508968557694,0.756531157624124,-399.130702978882,198.997953121223,200.132749857659
1.68604651162791,397.916037070249,398.878158101518,0.96212103126868,-398.397097585883,198.47695801949,199.920139566393
1.68819982773471,396.31690726187,399.777688466308,3.46078120443843,-398.047297864089,196.428063028716,201.619234835373
1.69035314384152,395.547164518862,398.964542914054,3.41737839519243,-397.255853716458,196.064893061835,201.190960654623
1.69250645994832,391.617030159487,394.852183905514,3.23515374602715,-393.234607032501,194.19093820673,199.043668825771
1.69465977605512,389.266844190769,391.488306300195,2.22146210942532,-390.377575245482,193.522691040672,196.85488420481
1.69681309216193,386.094388537031,390.566672599328,4.47228406229749,-388.33053056818,190.811052237367,197.519478330813
1.69896640826873,387.65485949732,388.983247047609,1.32838755028956,-388.319053272465,193.163235973515,195.155817298949
1.70111972437554,389.193190321091,389.915897101968,0.722706780877047,-389.55454371153,194.235241770107,195.319301941423
1.70327304048234,393.117445966797,391.700115843376,-1.41733012342087,-392.408780905086,197.267388045109,195.141392859977
1.70542635658915,392.31055616467,393.4305736618,1.12001749712914,-392.870564913235,195.595269333771,197.275295579464
1.70757967269595,392.354217095427,392.643822783813,0.289605688386416,-392.49901993962,196.03230570352,196.4667142361
1.70973298880276,392.441594462396,390.926159834008,-1.51543462838765,-391.683877148202,196.978514545392,194.70536260281
1.71188630490956,390.1411366544,387.558993380239,-2.58214327416033,-388.85006501732,196.36163996428,192.48842505304
1.71403962101637,389.367332052281,386.621143743601,-2.74618830868042,-387.994237897941,196.056760180481,191.93747771746
1.71619293712317,388.50226490605,387.393272540755,-1.10899236529571,-387.947768723402,194.805628635673,193.142140087729
1.71834625322997,388.366076667778,386.703659641115,-1.66241702666326,-387.534868154447,195.014246847221,192.520621307226
1.72049956933678,387.447078584787,386.082174479275,-1.3649041055117,-386.764626532031,194.405991345149,192.358635186882
1.72265288544358,389.801187577055,389.407492077355,-0.393695499699618,-389.604339827205,195.097441538377,194.506898288828
1.72480620155039,388.315301436913,387.863093532504,-0.452207904408453,-388.089197484709,194.383754670661,193.705442814048
1.72695951765719,389.300822504063,388.577741969579,-0.723080534484325,-388.939282236821,195.011951519274,193.927330717547
1.729112833764,389.470823387377,386.831457429718,-2.63936595765909,-388.151140408547,196.055094672518,192.096045736029
1.7312661498708,387.917579942625,385.093000291782,-2.82457965084336,-386.505290117204,195.371079796734,191.134210320469
1.73341946597761,386.983132349735,384.236098305143,-2.74703404459228,-385.609615327439,194.865083197164,190.744532130275
1.73557278208441,387.527245146035,385.084483482037,-2.44276166399794,-386.305864314036,194.985003405016,191.320860909019
1.73772609819121,385.722827259478,385.222286898736,-0.500540360741297,-385.472557079107,193.111683810109,192.360873268998
1.73987941429802,386.478294745249,386.164470962515,-0.31382378273446,-386.321382853882,193.396059263992,192.92532358989
1.74203273040482,382.692861228886,386.246704845015,3.55384361612971,-384.469783036951,189.569508806378,194.900274230573
1.74418604651163,384.601776357751,385.429156028627,0.827379670875814,-385.015466193189,191.887198343438,193.128267849752
1.74633936261843,388.832500205571,384.520273545171,-4.31222666040003,-386.676386875371,196.572363432986,190.104023442386
1.74849267872524,395.201702927782,385.96005387135,-9.24164905643175,-390.580878399566,202.221675992107,188.359202407459
1.75064599483204,399.697787372823,386.643033318589,-13.054754054234,-393.170410345707,206.376270713529,186.794139632178
1.75279931093885,408.02952288891,392.183535603444,-15.8459872854663,-400.106529246177,211.937755087188,188.168774158989
1.75495262704565,420.449281683007,399.41359247116,-21.0356892118471,-409.931437077083,220.742485447427,189.188951629656
1.75710594315245,438.741333575286,409.882218726771,-28.8591148485152,-424.311776151029,233.800224211901,190.511551939128
1.75925925925926,458.942772666241,421.931080754263,-37.0116919119779,-440.436926710252,247.977232289109,192.459694421143
1.76141257536606,479.272459786333,431.523706084034,-47.7487537022985,-455.398082935184,263.510606744316,191.887476190868
1.76356589147287,497.859799885243,443.397603519359,-54.4621963658848,-470.628701702301,276.160998125564,194.467703576737
1.76571920757967,508.153095787491,450.424413746719,-57.728682040772,-479.288754767105,282.940888914131,196.347865852973
1.76787252368648,507.78858344342,456.638923932899,-51.1496595105212,-482.213753688159,279.469121476971,202.744632211189
1.77002583979328,493.821448739661,455.764305809531,-38.0571429301303,-474.792877274596,265.939295834896,208.8535814397
1.77217915590009,480.050138527427,452.618978896337,-27.4311596310893,-466.334558711882,253.740649079258,212.593909632624
1.77433247200689,459.486122758952,447.988001714263,-11.4981210446891,-453.737062236607,235.49212190182,218.244940334787
1.7764857881137,441.586910230144,441.795824010137,0.208913779993452,-441.691367120141,220.688998225075,221.002368895065
1.7786391042205,426.094845743107,435.529542703534,9.43469696042706,-430.812194223321,208.33007439134,222.482119831981
1.7807924203273,410.358828521763,425.947578664617,15.5887501428542,-418.15320359319,197.385039189454,220.768164403736
1.78294573643411,398.252631632498,418.628331532362,20.3756998998638,-408.44048158243,188.938465866317,219.502015716113
1.78509905254091,389.114180694681,412.076516802275,22.9623361075944,-400.595348748478,183.075922293543,217.519426454935
1.78725236864772,388.770477795972,407.996855842239,19.2263780462675,-398.383666819105,184.772049874852,213.611616944253
1.78940568475452,387.913816084785,406.459294368223,18.5454782834388,-397.186555226504,184.684168900673,212.502386325831
1.79155900086133,391.351925948955,406.647886528308,15.2959605793532,-398.999906238631,188.027982684801,210.971923553831
1.79371231696813,396.535420766205,409.251498267887,12.7160775016826,-402.893459517046,191.909671632261,210.983787884785
1.79586563307494,400.020714321715,407.787676314867,7.76696199315222,-403.904195318291,196.126876164281,207.77731915401
1.79801894918174,400.822459544305,406.949891194431,6.12743165012614,-403.886175369368,197.347513947089,206.538661422278
1.80017226528854,401.327055343579,406.760653942906,5.4335985993269,-404.043854643243,197.946728372126,206.097126271116
1.80232558139535,400.928297281056,402.56018757945,1.63189029839492,-401.744242430253,199.64820349133,202.096038938923
1.80447889750215,399.876372719765,400.04227360395,0.165900884184566,-399.959323161858,199.85523591779,200.104087244067
1.80663221360896,397.533558619136,400.874321487313,3.34076286817702,-399.203940053224,197.096397875479,202.107542177745
1.80878552971576,394.663251132832,400.266537026746,5.60328589391429,-397.464894079789,194.529982619459,202.93491146033
1.81093884582257,392.657790459264,398.112505744373,5.45471528510927,-395.385148101818,193.601537587077,201.783610514741
1.81309216192937,392.866418464459,397.461598290327,4.59517982586868,-395.164008377393,194.135619319295,201.028389058098
1.81524547803618,388.804364945797,395.849238413271,7.04487346747396,-392.326801679534,190.879745739162,201.447055940373
1.81739879414298,388.476443352712,394.080672147312,5.60422879460015,-391.278557750012,191.436107279056,199.842450470956
1.81955211024978,388.912542212019,389.87368379269,0.96114158067104,-389.393113002354,193.975700315674,195.41741268668
1.82170542635659,388.74582791128,389.716435306189,0.970607394908654,-389.231131608734,193.887610258186,195.343521350549
1.82385874246339,388.079599252139,388.931159485638,0.851560233499413,-388.505379368888,193.61401950932,194.891359859569
1.8260120585702,392.39320606863,391.483353886888,-0.90985218174194,-391.938279977759,196.651529125186,195.286750852573
1.828165374677,392.734117517435,390.924143622697,-1.80997389473782,-391.829130570066,197.272045706086,194.55708486398
1.83031869078381,393.658911476726,394.27277046616,0.613858989433652,-393.965840971443,196.522526243646,197.443314727797
1.83247200689061,391.12220502473,391.903148026451,0.780943001721482,-391.512676525591,195.170631011504,196.342045514086
1.83462532299742,387.60995840277,390.165136622293,2.55517821952367,-388.887547512532,192.527390091623,196.360157420909
1.83677863910422,383.332193483199,386.760436271856,3.42824278865709,-385.046314877527,189.951975347271,195.094339530256
1.83893195521103,385.61737249779,386.577832524698,0.960460026908095,-386.097602511244,192.328456235441,193.769146275803
1.84108527131783,387.356738823078,386.534085027843,-0.822653795234658,-386.945411925461,194.089696309156,192.855715616304
1.84323858742463,390.031701386242,388.237201424229,-1.79449996201333,-389.134451405236,195.913100674128,193.221350731108
1.84539190353144,390.290250331751,386.861813424648,-3.42843690710328,-388.576031878199,196.859343619427,191.716688258772
1.84754521963824,392.76070764454,391.036457578199,-1.72425006634103,-391.898582611369,197.24247885544,194.656103755929
1.84969853574505,395.027918487998,392.709077487915,-2.3188410000829,-393.868497987957,198.673379744041,195.195118243916
1.85185185185185,395.58298511471,391.038017973198,-4.54496714151162,-393.310501543954,200.063976128111,193.246525415843
1.85400516795866,395.359771163777,390.832357397945,-4.52741376583174,-393.096064280861,199.943592464804,193.152471816057
1.85615848406546,392.094855346762,389.817101549106,-2.27775379765654,-390.955978447934,197.186304572209,193.769673875725
1.85831180017227,392.178996467728,387.316817204263,-4.86217926346529,-389.747906835995,198.520587865597,191.227318970399
1.86046511627907,389.991355082864,388.958646516443,-1.03270856642138,-389.475000799653,195.512031824643,193.962968975011
1.86261843238587,390.184072336072,388.362896116377,-1.82117621969502,-389.273484226225,196.002624277884,193.270859948341
1.86477174849268,393.44772225404,391.778306008323,-1.66941624571683,-392.613014131181,197.558569249878,195.054444881303
1.86692506459948,396.56357272015,392.71813444285,-3.84543827730027,-394.6408535815,200.204505498725,194.436348082775
1.86907838070629,396.397930821871,392.687356365622,-3.71057445624899,-394.542643593746,200.05425263906,194.488390954686
1.87123169681309,394.641765560282,391.700115962871,-2.94164959741022,-393.170940761577,198.791707578846,194.379233182731
1.8733850129199,394.568043414949,389.067859158904,-5.50018425604463,-391.817951286927,200.034113835497,191.78383745143
1.8755383290267,394.619396940362,386.519992473954,-8.09940446640832,-390.569694707158,201.359400703385,189.210294003773
1.87769164513351,396.340745139202,390.503398907336,-5.83734623186564,-393.422072023269,201.089045685534,192.333026337735
1.87984496124031,398.853742785232,391.476410996215,-7.37733178901686,-395.165076890723,203.115537287124,192.049539603599
1.88199827734711,399.706000032275,395.693382986128,-4.01261704614654,-397.699691509202,201.859308539211,195.840382969991
1.88415159345392,402.057210203326,395.078422802179,-6.97878740114737,-398.567816502753,204.517998802237,194.049817700516
1.88630490956072,400.380991771454,395.892714301104,-4.48827747034994,-398.136853036279,202.434634620902,195.702218415377
1.88845822566753,401.881612476979,397.3317213871,-4.54989108987849,-399.60666693204,203.215751783429,196.390915148611
1.89061154177433,403.419880815973,394.707387402651,-8.71249341332214,-399.063634109312,206.066187114648,192.997446994664
1.89276485788114,401.827786004729,393.710150435747,-8.11763556898234,-397.768968220238,204.972710786856,192.796257433382
1.89491817398794,399.481766172344,392.862788017198,-6.61897815514618,-396.172277094771,203.050372163745,193.121904931026
1.89707149009475,398.750238274915,393.784568721133,-4.96566955378182,-396.267403498024,201.857953914348,194.409449583675
1.89922480620155,399.610443911311,394.819178903775,-4.79126500753631,-397.214811407543,202.200854459424,195.013956948119
1.90137812230836,401.239860431856,396.630119592471,-4.60974083938493,-398.934990012163,202.92480063562,196.010189376543
1.90353143841516,403.614644766361,399.092726937931,-4.52191782842954,-401.353685852146,204.068281297395,197.285404554751
1.90568475452196,403.553505751725,398.187444998139,-5.36606075358583,-400.870475374932,204.459783252655,196.410692122277
1.90783807062877,404.259351287568,398.739657265707,-5.51969402186057,-401.499504276637,204.889522654714,196.609981621923
1.90999138673557,400.220620854556,396.912739874983,-3.30788097957299,-398.566680364769,201.764250917064,196.802429447705
1.91214470284238,403.396113011804,396.814632535141,-6.58148047666378,-400.105372773473,204.988796744234,195.116576029238
1.91429801894918,405.847502254468,398.503566012688,-7.34393624178028,-402.175534133578,206.595719248124,195.579814885454
1.91645133505599,407.538090297781,400.335281803731,-7.20280849405015,-403.936686050756,207.370449395916,196.566236654841
1.91860465116279,410.000857406052,402.172433561641,-7.82842384441142,-406.086645483846,208.914640625232,197.172004858615
1.9207579672696,407.631289723481,401.491721573857,-6.13956814962449,-404.561505648669,206.885428936553,197.676076712116
1.9229112833764,409.951887850262,403.787663374114,-6.16422447614752,-406.869775612188,208.058056163205,198.811719448983
1.9250645994832,407.459885356398,401.16295651441,-6.29692884198789,-404.311420935404,206.878407099193,197.433013836211
1.92721791559001,404.980129814803,399.315176367831,-5.66495344697239,-402.147653091317,205.322541630888,196.825111460429
1.92937123169681,401.777142841138,395.21876340037,-6.55837944076819,-398.497953120754,204.167761140953,194.330191979801
1.93152454780362,400.254431114843,396.09696500159,-4.15746611325221,-398.175698058216,202.205948614047,195.969749444169
1.93367786391042,402.758045752849,398.720540914901,-4.03750483794818,-400.739293333875,203.397775295399,197.341518038476
1.93583118001723,410.003168643657,402.942847513431,-7.06032113022593,-406.473008078544,208.531744886942,197.941263191603
1.93798449612403,413.184635928609,403.056433152142,-10.1282027764672,-408.120534540375,211.656419352538,196.464115187837
1.94013781223084,411.508727621219,404.562952032177,-6.94577558904206,-408.035839826698,209.22725160513,198.808588221567
1.94229112833764,408.223203369553,402.754645792024,-5.46855757752917,-405.488924580789,206.845880473541,198.643044107247
1.94444444444444,410.556173545308,402.531576024212,-8.0245975210953,-406.54387478476,209.290385533202,197.253489251559
1.94659776055125,414.559963575399,403.225540541128,-11.3344230342707,-408.892752058263,212.947193304835,195.945558753429
1.94875107665805,416.224892647778,404.882578216486,-11.3423144312919,-410.553735432132,213.783603539535,196.770131892597
1.95090439276486,420.256313351304,408.244711137925,-12.0116022133794,-414.250512244615,216.133957782342,198.116554462273
1.95305770887166,421.850041762537,410.817276765012,-11.0327649975247,-416.333659263774,216.441403380031,199.892255883744
1.95521102497847,423.398257212579,411.70484983322,-11.6934073793585,-417.551553522899,217.545832295969,200.005721226931
1.95736434108527,426.531128857896,414.84060484239,-11.6905240155056,-420.685866850143,219.110826436701,201.575040413442
1.95951765719208,428.107552458946,416.286739278665,-11.8208131802805,-422.197145868805,219.964182819613,202.232963049192
1.96167097329888,428.133912076353,416.919716251994,-11.2141958243589,-422.526814164174,219.674053950356,202.852760213818
1.96382428940568,426.586286415417,414.443124465656,-12.143161949761,-420.514705440537,219.364724182589,201.149981257948
1.96597760551249,427.399930831827,415.256227213021,-12.1437036188059,-421.328079022424,219.771817225316,201.556261797108
1.96813092161929,424.993791013344,416.160968857829,-8.83282215551532,-420.577379935587,216.91330658443,203.664073351157
1.9702842377261,421.766480146817,417.089704031637,-4.67677611518013,-419.428092089227,213.221628130999,206.206463958228
1.9724375538329,420.140771140728,415.589426752231,-4.551344388497,-417.86509894648,212.346057764613,205.519041181867
1.97459086993971,420.145521259461,416.388508582938,-3.75701267652261,-418.2670149212,211.951266967992,206.315747953208
1.97674418604651,418.600164788276,416.314461900589,-2.28570288768645,-417.457313344433,210.442933837981,207.014379506451
1.97889750215332,420.238961305829,416.201535871274,-4.03742543455422,-418.220248588551,212.138193370191,206.08205521836
1.98105081826012,421.845979108314,414.517219111935,-7.32875999637872,-418.181599110124,214.587369552346,203.594229557778
1.98320413436693,418.642786286054,412.897146929222,-5.7456393568325,-415.769966607638,212.194212821443,203.575753786195
1.98535745047373,421.773089430157,414.532326578887,-7.24076285127012,-418.152708004522,214.506926140714,203.645781863808
1.98751076658053,421.739607536276,416.218094508234,-5.52151302804293,-418.978851022255,213.63056028216,205.348290740095
1.98966408268734,424.918449322012,418.697659739776,-6.22078958223665,-421.808054530894,215.569619452124,206.238435078769
1.99181739879414,426.538586405686,418.747455695559,-7.79113071012642,-422.643021050622,217.164858557906,205.478162492716
1.99397071490095,424.988307273256,418.730971897737,-6.2573353755194,-421.859639585496,215.622821324388,206.236818261109
1.99612403100775,422.629900441511,417.865619347566,-4.76428109394476,-420.247759894539,213.697090767728,206.550669126811
1.99827734711456,420.2485826885,416.979660746595,-3.26892194190509,-418.614121717548,211.758752315203,206.855369402345
2.00043066322136,420.228315557108,413.732701762407,-6.49561379470089,-416.980508659758,213.361964675904,203.618543983853
2.00258397932817,417.811853761671,414.511847779915,-3.30000598175582,-416.161850770793,210.555929871713,205.60592089908
2.00473729543497,418.573409810681,414.556746037177,-4.01666377350415,-416.565077923929,211.295036792093,205.270041131836
2.00689061154177,420.935509251683,417.022243459269,-3.91326579241451,-418.978876355476,212.424387522049,206.554488833427
2.00904392764858,419.346530283434,415.516405073352,-3.83012521008192,-417.431467678393,211.588327746758,205.843139931635
2.01119724375538,416.199187123037,417.151755746699,0.952568623661875,-416.675471434868,207.623309249688,209.05216218518
2.01335055986219,413.87481725579,414.756501020728,0.881683764938259,-414.315659138259,206.496566745426,207.819092392833
2.01550387596899,414.728738463671,413.89306343868,-0.835675024991701,-414.310900951175,207.782206744332,206.528694206844
2.0176571920758,413.952000540397,411.413033141389,-2.53896739900819,-412.682516840893,208.245483969703,204.43703287119
2.0198105081826,412.314799809138,409.7451033122,-2.56969649693747,-411.029951560669,207.442248153038,203.587703407631
2.02196382428941,405.073380404664,408.137774399191,3.06439399452773,-406.605577401928,201.004493205068,205.60108419686
2.02411714039621,403.405985885008,408.989414299564,5.5834284145555,-406.197700092286,198.911278735226,207.28642135706
2.02627045650301,401.801920259385,405.922692657211,4.12077239782559,-403.862306458298,198.84057393078,205.021732527518
2.02842377260982,400.271618942831,406.033556282546,5.76193733971445,-403.152587612689,197.254840801559,205.89774681113
2.03057708871662,401.164748641388,405.287685335362,4.12293669397428,-403.226216988375,198.520905973707,204.705311014668
2.03273040482343,400.451581210655,404.44215633758,3.99057512692497,-402.446868774117,198.230503041865,204.216365732252
2.03488372093023,400.468509957602,401.132782641051,0.664272683448871,-400.800646299326,199.902118637076,200.89852766225
2.03703703703704,402.000223842736,400.196532674218,-1.80369116851807,-401.098378258477,201.901957505627,199.19642075285
2.03919035314384,403.488878626767,400.127509768135,-3.36136885863152,-401.808194197451,203.425123742699,198.383070454752
2.04134366925065,401.814920130471,400.971232632833,-0.843687497637973,-401.393076381652,201.329303814054,200.063772567597
2.04349698535745,399.415944559013,399.53147649215,0.115531933136936,-399.473710525581,199.650206312938,199.823504212643
2.04565030146426,394.719968208434,398.908333416854,4.18836520841978,-396.814150812644,195.265801500007,201.548349312637
2.04780361757106,393.249065211724,398.208800895387,4.95973568366344,-395.728933053556,194.14466476403,201.584268289525
2.04995693367786,394.131504732699,398.162144078956,4.03063934625646,-396.146824405827,195.050432693221,201.096391712606
2.05211024978467,396.505458002986,397.193135314246,0.6876773112607,-396.849296658616,197.908890345862,198.940406312753
2.05426356589147,400.364523685377,395.396697982143,-4.96782570323398,-397.88061083376,202.666174694306,195.214436139455
2.05641688199828,397.836423727069,394.487578855043,-3.34884487202601,-396.162001291056,200.592634299548,195.569366991509
2.05857019810508,399.35394475545,396.926227226,-2.42771752945055,-398.140085990725,200.890831142451,197.249254848275
2.06072351421189,397.036345297198,397.922465260886,0.886119963687634,-397.479405279042,198.075112666755,199.404292612287
2.06287683031869,396.412294911693,396.569230369068,0.156935457375425,-396.490762640381,198.127679727159,198.363082913222
2.0650301464255,393.399241274613,396.700279857916,3.30103858330313,-395.049760566265,195.049101345655,200.00065922061
2.0671834625323,394.231727301369,395.053276644495,0.82154934312581,-394.642501972932,196.705088979122,197.93741299381
2.0693367786391,394.892055577658,392.446540073534,-2.44551550412348,-393.669297825596,198.668785540891,195.000512284705
2.07149009474591,392.276242709795,391.388536116151,-0.887706593644339,-391.832389412973,196.58197465172,195.250414761253
2.07364341085271,392.100510016072,392.033542080278,-0.0669679357932864,-392.067026048175,196.083738975932,195.983287072242
2.07579672695952,395.288185605891,393.679484701833,-1.60870090405797,-394.483835153862,198.448443254975,196.035391898888
2.07795004306632,396.287369220192,394.712741445317,-1.57462777487535,-395.500055332755,198.930998497534,196.569056835221
2.08010335917313,396.565330774402,395.002197032977,-1.56313374142474,-395.78376390369,199.064232257913,196.719531645776
2.08225667527993,395.150458367288,395.175874612535,0.0254162452468449,-395.163166489911,197.562521061021,197.600645428891
2.08440999138674,395.892127639822,396.713866087193,0.82173844737116,-396.302996863508,197.535194596226,198.767802267282
2.08656330749354,394.04078253306,393.280133027632,-0.760649505428034,-393.660457780346,197.400716019244,196.259741761102
2.08871662360034,394.517961796313,391.374598435881,-3.14336336043186,-392.946280116097,198.830662578372,194.115617537725
2.09086993970715,395.935757538334,390.390214927634,-5.54554261069921,-393.162986232984,200.740650074516,192.422336158468
2.09302325581395,396.030281306019,390.443031649417,-5.58724965660207,-393.236656477718,200.80876548131,192.427890996407
2.09517657192076,397.142054487413,392.301253347292,-4.84080114012136,-394.721653917353,200.991427813767,193.730226103585
2.09732988802756,395.112533769836,394.219811074932,-0.89272269490391,-394.666172422384,198.00262823237,196.663544190014
2.09948320413437,393.692782678106,394.415884777104,0.723102098997686,-394.054333727605,196.484840289554,197.569493438051
2.10163652024117,395.145612124267,394.362012967016,-0.783599157251047,-394.753812545641,197.964605640759,196.789206904882
2.10378983634798,393.179615486267,391.706308454744,-1.47330703152295,-392.442961970506,197.326461258895,195.116500711611
2.10594315245478,391.990924996518,389.786704102728,-2.20422089378951,-390.888814549623,197.097572945154,193.791241604469
2.10809646856158,391.830988023282,388.796752370868,-3.03423565241405,-390.313870197075,197.432611837848,192.881258359227
2.11024978466839,394.403020425907,390.435981505966,-3.96703891994167,-392.419500965936,199.185029672924,193.234471293012
2.11240310077519,394.83874031857,392.286789407695,-2.55195091087489,-393.562764863133,198.695345614723,194.86741924841
2.114556416882,396.053109080734,391.018976458744,-5.03413262198916,-393.536042769739,200.543620851361,192.992421918378
2.1167097329888,396.986779731835,392.012309662305,-4.97447006953058,-394.49954469707,200.980624900683,193.518919796387
2.11886304909561,398.332409655492,394.360449416724,-3.97196023876762,-396.346429536108,201.15218494713,195.194244588978
2.12101636520241,397.048713326504,394.904542487503,-2.14417083900111,-395.976627907004,199.596442082753,196.380185824251
2.12316968130922,395.025482492833,392.994570798958,-2.03091169387488,-394.010026645895,198.528197093354,195.481829552542
2.12532299741602,394.925161786138,391.996263385278,-2.92889840085979,-393.460712585708,198.927030093499,194.533682492209
2.12747631352283,397.615721152495,392.028651618872,-5.58706953362253,-394.822186385683,201.601395343059,193.220791042625
2.12962962962963,398.940159521182,393.864083550594,-5.07607597058779,-396.402121535888,202.008117745885,194.394003790003
2.13178294573643,399.363643901991,394.178002976442,-5.18564092554965,-396.770823439217,202.274642413771,194.496181025446
2.13393626184324,401.000668118546,395.964401953505,-5.03626616504084,-398.482535036026,203.018467141793,195.464067894232
2.13608957795004,399.047488561099,397.520957916543,-1.52653064455586,-398.284223238821,200.287009602828,197.997213635994
2.13824289405685,398.493160096642,396.487067206989,-2.00609288965302,-397.490113651815,200.249626493147,197.240487158668
