t,leadI,leadII,leadIII,aVR,aVL,aVF
0,510,512,2,-511,254,257
0.00215331610680448,509,512,3,-510.5,253,257.5
0.00430663221360896,509,512,3,-510.5,253,257.5
0.00645994832041344,508,508,0,-508,254,254
0.00861326442721792,507,505,-2,-506,254.5,251.5
0.0107665805340224,507,503,-4,-505,255.5,249.5
0.0129198966408269,506,507,1,-506.5,252.5,254
0.0150732127476314,510,505,-5,-507.5,257.5,250
0.0172265288544358,510,507,-3,-508.5,256.5,252
0.0193798449612403,511,508,-3,-509.5,257,252.5
0.0215331610680448,511,508,-3,-509.5,257,252.5
0.0236864771748493,514,506,-8,-510,261,249
0.0258397932816537,515,507,-8,-511,261.5,249.5
0.0279931093884582,518,509,-9,-513.5,263.5,250
0.0301464254952627,521,512,-9,-516.5,265,251.5
0.0322997416020672,519,511,-8,-515,263.5,251.5
0.0344530577088717,517,512,-5,-514.5,261,253.5
0.0366063738156761,517,512,-5,-514.5,261,253.5
0.0387596899224806,515,514,-1,-514.5,258,256.5
0.0409130060292851,512,509,-3,-510.5,257.5,253
0.0430663221360896,512,507,-5,-509.5,258.5,251
0.0452196382428941,513,505,-8,-509,260.5,248.5
0.0473729543496985,511,506,-5,-508.5,258,250.5
0.049526270456503,513,509,-4,-511,258.5,252.5
0.0516795865633075,510,508,-2,-509,256,253
0.053832902670112,510,507,-3,-508.5,256.5,252
0.0559862187769165,507,508,1,-507.5,253,254.5
0.0581395348837209,507,508,1,-507.5,253,254.5
0.0602928509905254,504,501,-3,-502.5,253.5,249
0.0624461670973299,499,498,-1,-498.5,250,248.5
0.0645994832041344,497,497,0,-497,248.5,248.5
0.0667527993109388,497,498,1,-497.5,248,249.5
0.0689061154177433,496,498,2,-497,247,250
0.0710594315245478,494,497,3,-495.5,245.5,250
0.0732127476313523,497,496,-1,-496.5,249,247.5
0.0753660637381568,493,496,3,-494.5,245,249.5
0.0775193798449612,495,495,0,-495,247.5,247.5
0.0796726959517657,494,493,-1,-493.5,247.5,246
0.0818260120585702,490,488,-2,-489,246,243
0.0839793281653747,485,491,6,-488,239.5,248.5
0.0861326442721792,484,489,5,-486.5,239.5,247
0.0882859603789836,484,489,5,-486.5,239.5,247
0.0904392764857881,488,491,3,-489.5,242.5,247
0.0925925925925926,491,492,1,-491.5,245,246.5
0.0947459086993971,494,490,-4,-492,249,243
0.0968992248062016,494,489,-5,-491.5,249.5,242
0.099052540913006,494,488,-6,-491,250,241
0.101205857019811,491,488,-3,-489.5,247,242.5
0.103359173126615,491,489,-2,-490,246.5,243.5
0.105512489233419,490,488,-2,-489,246,243
0.107665805340224,491,489,-2,-490,246.5,243.5
0.109819121447028,490,491,1,-490.5,244.5,246
0.111972437553833,488,487,-1,-487.5,244.5,243
0.114125753660637,487,485,-2,-486,244.5,241.5
0.116279069767442,486,484,-2,-485,244,241
0.118432385874246,483,483,0,-483,241.5,241.5
0.120585701981051,482,482,0,-482,241,241
0.122739018087855,477,481,4,-479,236.5,242.5
0.12489233419466,478,482,4,-480,237,243
0.127045650301464,484,485,1,-484.5,241.5,243
0.129198966408269,488,485,-3,-486.5,245.5,241
0.131352282515073,489,484,-5,-486.5,247,239.5
0.133505598621878,493,486,-7,-489.5,250,239.5
0.135658914728682,502,488,-14,-495,258,237
0.137812230835487,513,495,-18,-504,265.5,238.5
0.139965546942291,528,501,-27,-514.5,277.5,237
0.142118863049096,546,513,-33,-529.5,289.5,240
0.1442721791559,568,526,-42,-547,305,242
0.146425495262705,591,537,-54,-564,322.5,241.5
0.148578811369509,610,549,-61,-579.5,335.5,244
0.150732127476314,624,557,-67,-590.5,345.5,245
0.152885443583118,631,565,-66,-598,348.5,249.5
0.155038759689922,623,570,-53,-596.5,338,258.5
0.157192075796727,609,570,-39,-589.5,324,265.5
0.159345391903531,589,565,-24,-577,306.5,270.5
0.161498708010336,560,555,-5,-557.5,282.5,275
0.16365202411714,536,549,13,-542.5,261.5,281
0.165805340223945,518,537,19,-527.5,249.5,278
0.167958656330749,506,528,22,-517,242,275
0.170111972437554,493,518,25,-505.5,234,271.5
0.172265288544358,485,512,27,-498.5,229,269.5
0.174418604651163,480,508,28,-494,226,268
0.176571920757967,480,506,26,-493,227,266
0.178725236864772,482,506,24,-494,229,265
0.180878552971576,492,508,16,-500,238,262
0.183031869078381,502,508,6,-505,248,257
0.185185185185185,510,510,0,-510,255,255
0.18733850129199,509,508,-1,-508.5,255,253.5
0.189491817398794,508,508,0,-508,254,254
0.191645133505599,504,504,0,-504,252,252
0.193798449612403,500,503,3,-501.5,248.5,253
0.195951765719208,496,503,7,-499.5,244.5,255
0.198105081826012,489,500,11,-494.5,239,255.5
0.200258397932817,489,497,8,-493,240.5,252.5
0.202411714039621,485,495,10,-490,237.5,252.5
0.204565030146425,485,492,7,-488.5,239,249.5
0.20671834625323,490,492,2,-491,244,247
0.208871662360034,492,493,1,-492.5,245.5,247
0.211024978466839,493,494,1,-493.5,246,247.5
0.213178294573643,490,491,1,-490.5,244.5,246
0.215331610680448,490,493,3,-491.5,243.5,248
0.217484926787252,488,491,3,-489.5,242.5,247
0.219638242894057,485,490,5,-487.5,240,247.5
0.221791559000861,485,486,1,-485.5,242,243.5
0.223944875107666,485,485,0,-485,242.5,242.5
0.22609819121447,488,486,-2,-487,245,242
0.228251507321275,487,486,-1,-486.5,244,242.5
0.230404823428079,488,486,-2,-487,245,242
0.232558139534884,490,489,-1,-489.5,245.5,244
0.234711455641688,486,487,1,-486.5,242.5,244
0.236864771748493,487,487,0,-487,243.5,243.5
0.239018087855297,490,486,-4,-488,247,241
0.241171403962102,493,484,-9,-488.5,251,237.5
0.243324720068906,496,487,-9,-491.5,252.5,239
0.245478036175711,499,489,-10,-494,254.5,239.5
0.247631352282515,499,490,-9,-494.5,254,240.5
0.24978466838932,498,491,-7,-494.5,252.5,242
0.251937984496124,498,495,-3,-496.5,250.5,246
0.254091300602929,496,492,-4,-494,250,244
0.256244616709733,497,490,-7,-493.5,252,241.5
0.258397932816538,501,492,-9,-496.5,255,241.5
0.260551248923342,504,490,-14,-497,259,238
0.262704565030146,501,492,-9,-496.5,255,241.5
0.264857881136951,505,495,-10,-500,257.5,242.5
0.267011197243755,506,497,-9,-501.5,257.5,244
0.26916451335056,508,498,-10,-503,259,244
0.271317829457364,510,500,-10,-505,260,245
0.273471145564169,508,499,-9,-503.5,258.5,245
0.275624461670973,504,495,-9,-499.5,256.5,243
0.277777777777778,503,497,-6,-500,254.5,245.5
0.279931093884582,504,495,-9,-499.5,256.5,243
0.282084409991387,504,496,-8,-500,256,244
0.284237726098191,507,498,-9,-502.5,258,244.5
0.286391042204996,507,499,-8,-503,257.5,245.5
0.2885443583118,507,500,-7,-503.5,257,246.5
0.290697674418605,503,498,-5,-500.5,254,246.5
0.292850990525409,504,498,-6,-501,255,246
0.295004306632214,503,498,-5,-500.5,254,246.5
0.297157622739018,508,498,-10,-503,259,244
0.299310938845823,507,499,-8,-503,257.5,245.5
0.301464254952627,505,500,-5,-502.5,255,247.5
0.303617571059432,505,501,-4,-503,254.5,248.5
0.305770887166236,500,499,-1,-499.5,250.5,249
0.30792420327304,500,499,-1,-499.5,250.5,249
0.310077519379845,510,503,-7,-506.5,258.5,248
0.312230835486649,519,505,-14,-512,266.5,245.5
0.314384151593454,524,507,-17,-515.5,270.5,245
0.316537467700258,528,510,-18,-519,273,246
0.318690783807063,528,512,-16,-520,272,248
0.320844099913867,530,514,-16,-522,273,249
0.322997416020672,526,517,-9,-521.5,267.5,254
0.325150732127476,528,517,-11,-522.5,269.5,253
0.327304048234281,529,517,-12,-523,270.5,252.5
0.329457364341085,528,515,-13,-521.5,270.5,251
0.33161068044789,530,516,-14,-523,272,251
0.333763996554694,529,514,-15,-521.5,272,249.5
0.335917312661499,529,518,-11,-523.5,270,253.5
0.338070628768303,528,517,-11,-522.5,269.5,253
0.340223944875108,525,520,-5,-522.5,265,257.5
0.342377260981912,524,518,-6,-521,265,256
0.344530577088717,524,518,-6,-521,265,256
0.346683893195521,525,518,-7,-521.5,266,255.5
0.348837209302326,531,519,-12,-525,271.5,253.5
0.35099052540913,533,521,-12,-527,272.5,254.5
0.353143841515935,539,523,-16,-531,277.5,253.5
0.355297157622739,538,524,-14,-531,276,255
0.357450473729544,533,525,-8,-529,270.5,258.5
0.359603789836348,528,525,-3,-526.5,265.5,261
0.361757105943152,529,524,-5,-526.5,267,259.5
0.363910422049957,524,522,-2,-523,263,260
0.366063738156761,527,522,-5,-524.5,266,258.5
0.368217054263566,526,520,-6,-523,266,257
0.37037037037037,529,523,-6,-526,267.5,258.5
0.372523686477175,531,524,-7,-527.5,269,258.5
0.374677002583979,526,522,-4,-524,265,259
0.376830318690784,525,521,-4,-523,264.5,258.5
0.378983634797588,518,520,2,-519,258,261
0.381136950904393,515,519,4,-517,255.5,261.5
0.383290267011197,521,519,-2,-520,261.5,258.5
0.385443583118002,527,519,-8,-523,267.5,255.5
0.387596899224806,532,520,-12,-526,272,254
0.389750215331611,534,524,-10,-529,272,257
0.391903531438415,532,525,-7,-528.5,269.5,259
0.39405684754522,529,522,-7,-525.5,268,257.5
0.396210163652024,525,522,-3,-523.5,264,259.5
0.398363479758829,520,521,1,-520.5,259.5,261
0.400516795865633,520,518,-2,-519,261,258
0.402670111972438,516,515,-1,-515.5,258.5,257
0.404823428079242,513,512,-1,-512.5,257,255.5
0.406976744186047,510,513,3,-511.5,253.5,258
0.409130060292851,510,512,2,-511,254,257
0.411283376399656,511,512,1,-511.5,255,256.5
0.41343669250646,510,512,2,-511,254,257
0.415590008613264,510,513,3,-511.5,253.5,258
0.417743324720069,511,510,-1,-510.5,256,254.5
0.419896640826873,510,510,0,-510,255,255
0.422049956933678,504,506,2,-505,251,254
0.424203273040482,502,505,3,-503.5,249.5,254
0.426356589147287,498,504,6,-501,246,255
0.428509905254091,493,502,9,-497.5,242,255.5
0.430663221360896,490,499,9,-494.5,240.5,254
0.4328165374677,495,502,7,-498.5,244,254.5
0.434969853574505,498,501,3,-499.5,247.5,252
0.437123169681309,501,500,-1,-500.5,251,249.5
0.439276485788114,504,498,-6,-501,255,246
0.441429801894918,503,499,-4,-501,253.5,247.5
0.443583118001723,500,497,-3,-498.5,251.5,247
0.445736434108527,499,498,-1,-498.5,250,248.5
0.447889750215332,499,498,-1,-498.5,250,248.5
0.450043066322136,496,498,2,-497,247,250
0.452196382428941,497,497,0,-497,248.5,248.5
0.454349698535745,495,495,0,-495,247.5,247.5
0.45650301464255,494,492,-2,-493,248,245
0.458656330749354,495,492,-3,-493.5,249,244.5
0.460809646856158,495,493,-2,-494,248.5,245.5
0.462962962962963,494,493,-1,-493.5,247.5,246
0.465116279069767,493,492,-1,-492.5,247,245.5
0.467269595176572,495,494,-1,-494.5,248,246.5
0.469422911283376,495,494,-1,-494.5,248,246.5
0.471576227390181,497,496,-1,-496.5,249,247.5
0.473729543496985,499,493,-6,-496,252.5,243.5
0.47588285960379,499,493,-6,-496,252.5,243.5
0.478036175710594,500,492,-8,-496,254,242
0.480189491817399,498,495,-3,-496.5,250.5,246
0.482342807924203,496,493,-3,-494.5,249.5,245
0.484496124031008,498,494,-4,-496,251,245
0.486649440137812,503,496,-7,-499.5,255,244.5
0.488802756244617,505,499,-6,-502,255.5,246.5
0.490956072351421,505,498,-7,-501.5,256,245.5
0.493109388458226,505,495,-10,-500,257.5,242.5
0.49526270456503,503,495,-8,-499,255.5,243.5
0.497416020671835,502,496,-6,-499,254,245
0.499569336778639,497,495,-2,-496,249.5,246.5
0.501722652885444,492,492,0,-492,246,246
0.503875968992248,491,493,2,-492,244.5,247.5
0.506029285099053,493,494,1,-493.5,246,247.5
0.508182601205857,493,492,-1,-492.5,247,245.5
0.510335917312661,496,491,-5,-493.5,250.5,243
0.512489233419466,500,492,-8,-496,254,242
0.514642549526271,504,494,-10,-499,257,242
0.516795865633075,504,496,-8,-500,256,244
0.518949181739879,508,499,-9,-503.5,258.5,245
0.521102497846684,508,499,-9,-503.5,258.5,245
0.523255813953488,505,500,-5,-502.5,255,247.5
0.525409130060293,501,497,-4,-499,252.5,246.5
0.527562446167097,498,494,-4,-496,251,245
0.529715762273902,499,495,-4,-497,251.5,245.5
0.531869078380706,499,495,-4,-497,251.5,245.5
0.534022394487511,501,498,-3,-499.5,252,247.5
0.536175710594315,506,499,-7,-502.5,256.5,246
0.53832902670112,508,501,-7,-504.5,257.5,247
0.540482342807924,507,502,-5,-504.5,256,248.5
0.542635658914729,507,502,-5,-504.5,256,248.5
0.544788975021533,509,500,-9,-504.5,259,245.5
0.546942291128338,511,499,-12,-505,261.5,243.5
0.549095607235142,508,500,-8,-504,258,246
0.551248923341947,506,501,-5,-503.5,255.5,248
0.553402239448751,505,501,-4,-503,254.5,248.5
0.555555555555556,502,499,-3,-500.5,252.5,248
0.55770887166236,503,503,0,-503,251.5,251.5
0.559862187769165,509,504,-5,-506.5,257,249.5
0.562015503875969,514,505,-9,-509.5,261.5,248
0.564168819982773,521,505,-16,-513,268.5,244.5
0.566322136089578,522,505,-17,-513.5,269.5,244
0.568475452196382,523,509,-14,-516,268.5,247.5
0.570628768303187,522,509,-13,-515.5,267.5,248
0.572782084409991,520,511,-9,-515.5,264.5,251
0.574935400516796,517,510,-7,-513.5,262,251.5
0.5770887166236,509,508,-1,-508.5,255,253.5
0.579242032730405,503,504,1,-503.5,251,252.5
0.581395348837209,506,504,-2,-505,254,251
0.583548664944014,511,502,-9,-506.5,260,246.5
0.585701981050818,516,507,-9,-511.5,262.5,249
0.587855297157623,517,507,-10,-512,263.5,248.5
0.590008613264427,518,511,-7,-514.5,262.5,252
0.592161929371232,516,510,-6,-513,261,252
0.594315245478036,512,510,-2,-511,257,254
0.596468561584841,511,511,0,-511,255.5,255.5
0.598621877691645,507,504,-3,-505.5,255,250.5
0.60077519379845,503,502,-1,-502.5,252,250.5
0.602928509905254,500,499,-1,-499.5,250.5,249
0.605081826012059,501,500,-1,-500.5,251,249.5
0.607235142118863,500,500,0,-500,250,250
0.609388458225668,497,500,3,-498.5,247,251.5
0.611541774332472,498,500,2,-499,248,251
0.613695090439277,499,501,2,-500,248.5,251.5
0.615848406546081,499,497,-2,-498,250.5,247.5
0.618001722652885,497,495,-2,-496,249.5,246.5
0.62015503875969,488,492,4,-490,242,248
0.622308354866494,490,491,1,-490.5,244.5,246
0.624461670973299,491,491,0,-491,245.5,245.5
0.626614987080103,491,490,-1,-490.5,246,244.5
0.628768303186908,489,492,3,-490.5,243,247.5
0.630921619293712,490,493,3,-491.5,243.5,248
0.633074935400517,487,488,1,-487.5,243,244.5
0.635228251507321,489,487,-2,-488,245.5,242.5
0.637381567614126,490,487,-3,-488.5,246.5,242
0.63953488372093,494,491,-3,-492.5,248.5,244
0.641688199827735,494,489,-5,-491.5,249.5,242
0.643841515934539,488,488,0,-488,244,244
0.645994832041344,487,488,1,-487.5,243,244.5
0.648148148148148,487,489,2,-488,242.5,245.5
0.650301464254953,489,488,-1,-488.5,245,243.5
0.652454780361757,491,485,-6,-488,248.5,239.5
0.654608096468562,489,485,-4,-487,246.5,240.5
0.656761412575366,489,486,-3,-487.5,246,241.5
0.658914728682171,488,486,-2,-487,245,242
0.661068044788975,487,485,-2,-486,244.5,241.5
0.66322136089578,485,484,-1,-484.5,243,241.5
0.665374677002584,483,485,2,-484,240.5,243.5
0.667527993109388,481,483,2,-482,239.5,242.5
0.669681309216193,480,480,0,-480,240,240
0.671834625322997,483,479,-4,-481,243.5,237.5
0.673987941429802,484,478,-6,-481,245,236
0.676141257536606,491,482,-9,-486.5,250,236.5
0.678294573643411,505,489,-16,-497,260.5,236.5
0.680447889750215,526,499,-27,-512.5,276.5,236
0.68260120585702,547,512,-35,-529.5,291,238.5
0.684754521963824,571,526,-45,-548.5,308,240.5
0.686907838070629,597,538,-59,-567.5,328,239.5
0.689061154177433,617,550,-67,-583.5,342,241.5
0.691214470284238,633,562,-71,-597.5,352,245.5
0.693367786391042,638,571,-67,-604.5,352.5,252
0.695521102497847,632,574,-58,-603,345,258
0.697674418604651,620,576,-44,-598,332,266
0.699827734711456,601,572,-29,-586.5,315,271.5
0.70198105081826,579,568,-11,-573.5,295,278.5
0.704134366925065,558,559,1,-558.5,278.5,280
0.706287683031869,533,544,11,-538.5,261,277.5
0.708440999138674,514,532,18,-523,248,275
0.710594315245478,501,528,27,-514.5,237,277.5
0.712747631352283,499,525,26,-512,236.5,275.5
0.714900947459087,496,520,24,-508,236,272
0.717054263565892,499,518,19,-508.5,240,268.5
0.719207579672696,503,519,16,-511,243.5,267.5
0.7213608957795,506,519,13,-512.5,246.5,266
0.723514211886305,512,518,6,-515,253,262
0.725667527993109,514,516,2,-515,256,259
0.727820844099914,509,513,4,-511,252.5,258.5
0.729974160206718,499,508,9,-503.5,245,258.5
0.732127476313523,486,502,16,-494,235,259
0.734280792420327,479,500,21,-489.5,229,260.5
0.736434108527132,480,498,18,-489,231,258
0.738587424633936,488,500,12,-494,238,256
0.740740740740741,491,497,6,-494,242.5,251.5
0.742894056847545,494,496,2,-495,246,249
0.74504737295435,490,494,4,-492,243,249
0.747200689061154,489,493,4,-491,242.5,248.5
0.749354005167959,489,492,3,-490.5,243,247.5
0.751507321274763,492,494,2,-493,245,248
0.753660637381568,489,493,4,-491,242.5,248.5
0.755813953488372,486,492,6,-489,240,249
0.757967269595177,482,488,6,-485,238,247
0.760120585701981,481,485,4,-483,238.5,244.5
0.762273901808786,483,484,1,-483.5,241,242.5
0.76442721791559,486,485,-1,-485.5,243.5,242
0.766580534022395,489,488,-1,-488.5,245,243.5
0.768733850129199,492,487,-5,-489.5,248.5,241
0.770887166236004,491,489,-2,-490,246.5,243.5
0.773040482342808,491,490,-1,-490.5,246,244.5
0.775193798449612,493,489,-4,-491,248.5,242.5
0.777347114556417,492,488,-4,-490,248,242
0.779500430663221,490,487,-3,-488.5,246.5,242
0.781653746770026,492,485,-7,-488.5,249.5,239
0.78380706287683,494,487,-7,-490.5,250.5,240
0.785960378983635,492,490,-2,-491,247,244
0.788113695090439,492,490,-2,-491,247,244
0.790267011197244,489,490,1,-489.5,244,245.5
0.792420327304048,490,488,-2,-489,246,243
0.794573643410853,489,485,-4,-487,246.5,240.5
0.796726959517657,490,486,-4,-488,247,241
0.798880275624462,494,488,-6,-491,250,241
0.801033591731266,498,487,-11,-492.5,254.5,238
0.803186907838071,499,491,-8,-495,253.5,241.5
0.805340223944875,502,492,-10,-497,256,241
0.80749354005168,501,494,-7,-497.5,254,243.5
0.809646856158484,501,495,-6,-498,253.5,244.5
0.811800172265289,499,494,-5,-496.5,252,244.5
0.813953488372093,500,493,-7,-496.5,253.5,243
0.816106804478897,500,489,-11,-494.5,255.5,239
0.818260120585702,499,490,-9,-494.5,254,240.5
0.820413436692507,504,494,-10,-499,257,242
0.822566752799311,503,494,-9,-498.5,256,242.5
0.824720068906115,506,497,-9,-501.5,257.5,244
0.82687338501292,505,499,-6,-502,255.5,246.5
0.829026701119724,507,499,-8,-503,257.5,245.5
0.831180017226529,503,497,-6,-500,254.5,245.5
0.833333333333333,498,494,-4,-496,251,245
0.835486649440138,500,492,-8,-496,254,242
0.837639965546942,504,495,-9,-499.5,256.5,243
0.839793281653747,509,498,-11,-503.5,260,243.5
0.841946597760551,511,500,-11,-505.5,261,244.5
0.844099913867356,515,504,-11,-509.5,263,246.5
0.84625322997416,518,506,-12,-512,265,247
0.848406546080965,519,507,-12,-513,265.5,247.5
0.850559862187769,521,506,-15,-513.5,268,245.5
0.852713178294574,519,506,-13,-512.5,266,246.5
0.854866494401378,516,506,-10,-511,263,248
0.857019810508183,519,508,-11,-513.5,265,248.5
0.859173126614987,521,510,-11,-515.5,266,249.5
0.861326442721792,524,513,-11,-518.5,267.5,251
0.863479758828596,526,515,-11,-520.5,268.5,252
0.865633074935401,526,516,-10,-521,268,253
0.867786391042205,531,516,-15,-523.5,273,250.5
0.869939707149009,529,514,-15,-521.5,272,249.5
0.872093023255814,524,512,-12,-518,268,250
0.874246339362619,522,514,-8,-518,265,253
0.876399655469423,522,514,-8,-518,265,253
0.878552971576227,526,518,-8,-522,267,255
0.880706287683032,529,518,-11,-523.5,270,253.5
0.882859603789836,531,519,-12,-525,271.5,253.5
0.885012919896641,532,520,-12,-526,272,254
0.887166236003445,530,519,-11,-524.5,270.5,254
0.88931955211025,531,518,-13,-524.5,272,252.5
0.891472868217054,529,518,-11,-523.5,270,253.5
0.893626184323859,530,520,-10,-525,270,255
0.895779500430663,529,521,-8,-525,268.5,256.5
0.897932816537468,530,522,-8,-526,269,257
0.900086132644272,530,523,-7,-526.5,268.5,258
0.902239448751077,526,521,-5,-523.5,265.5,258
0.904392764857881,526,520,-6,-523,266,257
0.906546080964686,523,517,-6,-520,264.5,255.5
0.90869939707149,523,517,-6,-520,264.5,255.5
0.910852713178295,525,519,-6,-522,265.5,256.5
0.913006029285099,528,523,-5,-525.5,266.5,259
0.915159345391904,529,522,-7,-525.5,268,257.5
0.917312661498708,529,524,-5,-526.5,267,259.5
0.919465977605513,529,524,-5,-526.5,267,259.5
0.921619293712317,529,523,-6,-526,267.5,258.5
0.923772609819121,526,518,-8,-522,267,255
0.925925925925926,526,518,-8,-522,267,255
0.92807924203273,527,521,-6,-524,266.5,257.5
0.930232558139535,526,521,-5,-523.5,265.5,258
0.932385874246339,525,522,-3,-523.5,264,259.5
0.934539190353144,522,520,-2,-521,262,259
0.936692506459948,523,521,-2,-522,262.5,259.5
0.938845822566753,518,516,-2,-517,260,257
0.940999138673557,514,513,-1,-513.5,257.5,256
0.943152454780362,511,511,0,-511,255.5,255.5
0.945305770887166,511,511,0,-511,255.5,255.5
0.947459086993971,510,510,0,-510,255,255
0.949612403100775,510,511,1,-510.5,254.5,256
0.95176571920758,506,510,4,-508,251,257
0.953919035314384,508,510,2,-509,253,256
0.956072351421189,509,508,-1,-508.5,255,253.5
0.958225667527993,509,507,-2,-508,255.5,252.5
0.960378983634798,509,507,-2,-508,255.5,252.5
0.962532299741602,509,507,-2,-508,255.5,252.5
0.964685615848407,508,507,-1,-507.5,254.5,253
0.966838931955211,507,507,0,-507,253.5,253.5
0.968992248062016,506,506,0,-506,253,253
0.97114556416882,502,506,4,-504,249,255
0.973298880275625,495,505,10,-500,242.5,257.5
0.975452196382429,495,498,3,-496.5,246,250.5
0.977605512489233,489,495,6,-492,241.5,250.5
0.979758828596038,491,494,3,-492.5,244,248.5
0.981912144702842,491,497,6,-494,242.5,251.5
0.984065460809647,496,497,1,-496.5,247.5,249
0.986218776916451,495,495,0,-495,247.5,247.5
0.988372093023256,495,495,0,-495,247.5,247.5
0.99052540913006,496,497,1,-496.5,247.5,249
0.992678725236865,499,494,-5,-496.5,252,244.5
0.994832041343669,503,494,-9,-498.5,256,242.5
0.996985357450474,500,491,-9,-495.5,254.5,241
0.999138673557278,497,496,-1,-496.5,249,247.5
1.00129198966408,494,493,-1,-493.5,247.5,246
1.00344530577089,497,495,-2,-496,249.5,246.5
1.00559862187769,497,494,-3,-495.5,250,245.5
1.0077519379845,498,495,-3,-496.5,250.5,246
1.0099052540913,500,496,-4,-498,252,246
1.01205857019811,501,493,-8,-497,254.5,242.5
1.01421188630491,502,494,-8,-498,255,243
1.01636520241171,502,494,-8,-498,255,243
1.01851851851852,503,497,-6,-500,254.5,245.5
1.02067183462532,504,497,-7,-500.5,255.5,245
1.02282515073213,498,496,-2,-497,250,247
1.02497846683893,496,496,0,-496,248,248
1.02713178294574,491,496,5,-493.5,243,250.5
1.02928509905254,489,491,2,-490,243.5,246.5
1.03143841515935,488,489,1,-488.5,243.5,245
1.03359173126615,496,490,-6,-493,251,242
1.03574504737295,502,496,-6,-499,254,245
1.03789836347976,505,496,-9,-500.5,257,243.5
1.04005167958656,509,499,-10,-504,259.5,244.5
1.04220499569337,506,499,-7,-502.5,256.5,246
1.04435831180017,502,498,-4,-500,253,247
1.04651162790698,503,497,-6,-500,254.5,245.5
1.04866494401378,501,494,-7,-497.5,254,243.5
1.05081826012059,500,492,-8,-496,254,242
1.05297157622739,500,496,-4,-498,252,246
1.05512489233419,501,496,-5,-498.5,253,245.5
1.057278208441,499,495,-4,-497,251.5,245.5
1.0594315245478,503,499,-4,-501,253.5,247.5
1.06158484065461,506,500,-6,-503,256,247
1.06373815676141,510,499,-11,-504.5,260.5,244
1.06589147286822,511,501,-10,-506,260.5,245.5
1.06804478897502,508,498,-10,-503,259,244
1.07019810508183,505,498,-7,-501.5,256,245.5
1.07235142118863,505,500,-5,-502.5,255,247.5
1.07450473729544,509,502,-7,-505.5,258,247.5
1.07665805340224,510,503,-7,-506.5,258.5,248
1.07881136950904,508,503,-5,-505.5,256.5,249
1.08096468561585,508,503,-5,-505.5,256.5,249
1.08311800172265,508,501,-7,-504.5,257.5,247
1.08527131782946,506,499,-7,-502.5,256.5,246
1.08742463393626,510,501,-9,-505.5,259.5,246
1.08957795004307,512,503,-9,-507.5,260.5,247
1.09173126614987,514,506,-8,-510,261,249
1.09388458225668,516,507,-9,-511.5,262.5,249
1.09603789836348,521,511,-10,-516,265.5,250.5
1.09819121447028,524,514,-10,-519,267,252
1.10034453057709,525,511,-14,-518,269.5,248.5
1.10249784668389,524,509,-15,-516.5,269.5,247
1.1046511627907,524,509,-15,-516.5,269.5,247
1.1068044788975,522,513,-9,-517.5,265.5,252
1.10895779500431,521,511,-10,-516,265.5,250.5
1.11111111111111,519,512,-7,-515.5,263,252.5
1.11326442721792,512,511,-1,-511.5,256.5,255
1.11541774332472,512,512,0,-512,256,256
1.11757105943152,511,508,-3,-509.5,257,252.5
1.11972437553833,510,506,-4,-508,257,251
1.12187769164513,508,505,-3,-506.5,255.5,251
1.12403100775194,509,505,-4,-507,256.5,250.5
1.12618432385874,508,506,-2,-507,255,252
1.12833763996555,510,508,-2,-509,256,253
1.13049095607235,514,509,-5,-511.5,259.5,252
1.13264427217916,513,511,-2,-512,257.5,254.5
1.13479758828596,510,509,-1,-509.5,255.5,254
1.13695090439276,508,505,-3,-506.5,255.5,251
1.13910422049957,504,503,-1,-503.5,252.5,251
1.14125753660637,501,502,1,-501.5,250,251.5
1.14341085271318,495,499,4,-497,245.5,251.5
1.14556416881998,495,499,4,-497,245.5,251.5
1.14771748492679,493,496,3,-494.5,245,249.5
1.14987080103359,493,498,5,-495.5,244,251.5
1.1520241171404,494,496,2,-495,246,249
1.1541774332472,493,493,0,-493,246.5,246.5
1.15633074935401,494,491,-3,-492.5,248.5,244
1.15848406546081,496,493,-3,-494.5,249.5,245
1.16063738156761,497,493,-4,-495,250.5,244.5
1.16279069767442,498,494,-4,-496,251,245
1.16494401378122,498,495,-3,-496.5,250.5,246
1.16709732988803,496,496,0,-496,248,248
1.16925064599483,494,494,0,-494,247,247
1.17140396210164,494,492,-2,-493,248,245
1.17355727820844,496,493,-3,-494.5,249.5,245
1.17571059431525,495,490,-5,-492.5,250,242.5
1.17786391042205,490,488,-2,-489,246,243
1.18001722652885,490,490,0,-490,245,245
1.18217054263566,486,489,3,-487.5,241.5,246
1.18432385874246,486,487,1,-486.5,242.5,244
1.18647717484927,487,490,3,-488.5,242,246.5
1.18863049095607,490,489,-1,-489.5,245.5,244
1.19078380706288,488,486,-2,-487,245,242
1.19293712316968,485,481,-4,-483,244.5,238.5
1.19509043927649,480,479,-1,-479.5,240.5,239
1.19724375538329,481,482,1,-481.5,240,241.5
1.19939707149009,483,483,0,-483,241.5,241.5
1.2015503875969,485,484,-1,-484.5,243,241.5
1.2037037037037,490,487,-3,-488.5,246.5,242
1.20585701981051,487,486,-1,-486.5,244,242.5
1.20801033591731,491,484,-7,-487.5,249,238.5
1.21016365202412,500,485,-15,-492.5,257.5,235
1.21231696813092,510,492,-18,-501,264,237
1.21447028423773,528,499,-29,-513.5,278.5,235
1.21662360034453,547,511,-36,-529,291.5,237.5
1.21877691645134,568,523,-45,-545.5,306.5,239
1.22093023255814,590,537,-53,-563.5,321.5,242
1.22308354866494,613,550,-63,-581.5,338,243.5
1.22523686477175,634,564,-70,-599,352,247
1.22739018087855,645,574,-71,-609.5,358,251.5
1.22954349698536,647,580,-67,-613.5,357,256.5
1.23169681309216,637,581,-56,-609,346.5,262.5
1.23385012919897,615,581,-34,-598,324.5,273.5
1.23600344530577,588,573,-15,-580.5,301.5,279
1.23815676141258,561,563,2,-562,279.5,282.5
1.24031007751938,531,550,19,-540.5,256,284.5
1.24246339362618,504,536,32,-520,236,284
1.24461670973299,491,526,35,-508.5,228,280.5
1.24677002583979,486,519,33,-502.5,226.5,276
1.2489233419466,493,518,25,-505.5,234,271.5
1.2510766580534,498,518,20,-508,239,269
1.25322997416021,502,518,16,-510,243,267
1.25538329026701,507,520,13,-513.5,247,266.5
1.25753660637382,507,516,9,-511.5,249,262.5
1.25968992248062,510,517,7,-513.5,251.5,262
1.26184323858742,509,513,4,-511,252.5,258.5
1.26399655469423,506,508,2,-507,252,255
1.26614987080103,500,507,7,-503.5,246.5,257
1.26830318690784,498,503,5,-500.5,246.5,254
1.27045650301464,495,503,8,-499,243.5,255.5
1.27260981912145,489,501,12,-495,238.5,256.5
1.27476313522825,487,498,11,-492.5,238,254.5
1.27691645133506,487,497,10,-492,238.5,253.5
1.27906976744186,488,495,7,-491.5,240.5,251
1.28122308354867,489,493,4,-491,242.5,248.5
1.28337639965547,490,493,3,-491.5,243.5,248
1.28552971576227,486,490,4,-488,241,247
1.28768303186908,483,489,6,-486,238.5,247.5
1.28983634797588,484,490,6,-487,239,248
1.29198966408269,482,490,8,-486,237,249
1.29414298018949,486,489,3,-487.5,241.5,246
1.2962962962963,485,489,4,-487,240.5,246.5
1.2984496124031,489,488,-1,-488.5,245,243.5
1.30060292850991,491,489,-2,-490,246.5,243.5
1.30275624461671,488,487,-1,-487.5,244.5,243
1.30490956072351,488,487,-1,-487.5,244.5,243
1.30706287683032,486,486,0,-486,243,243
1.30921619293712,487,486,-1,-486.5,244,242.5
1.31136950904393,486,486,0,-486,243,243
1.31352282515073,487,487,0,-487,243.5,243.5
1.31567614125754,494,488,-6,-491,250,241
1.31782945736434,497,489,-8,-493,252.5,240.5
1.31998277347115,498,487,-11,-492.5,254.5,238
1.32213608957795,498,490,-8,-494,253,241
1.32428940568475,496,491,-5,-493.5,250.5,243
1.32644272179156,491,491,0,-491,245.5,245.5
1.32859603789836,492,489,-3,-490.5,247.5,243
1.33074935400517,495,491,-4,-493,249.5,243.5
1.33290267011197,499,492,-7,-495.5,253,242.5
1.33505598621878,502,493,-9,-497.5,255.5,242
1.33720930232558,502,492,-10,-497,256,241
1.33936261843239,502,491,-11,-496.5,256.5,240
1.34151593453919,497,491,-6,-494,251.5,242.5
1.34366925064599,496,493,-3,-494.5,249.5,245
1.3458225667528,496,492,-4,-494,250,244
1.3479758828596,498,494,-4,-496,251,245
1.35012919896641,501,495,-6,-498,253.5,244.5
1.35228251507321,504,496,-8,-500,256,244
1.35443583118002,507,495,-12,-501,259.5,241.5
1.35658914728682,508,496,-12,-502,260,242
1.35874246339363,506,497,-9,-501.5,257.5,244
1.36089577950043,507,498,-9,-502.5,258,244.5
1.36304909560724,510,501,-9,-505.5,259.5,246
1.36520241171404,515,504,-11,-509.5,263,246.5
1.36735572782084,510,504,-6,-507,258,249
1.36950904392765,511,502,-9,-506.5,260,246.5
1.37166236003445,508,499,-9,-503.5,258.5,245
1.37381567614126,507,498,-9,-502.5,258,244.5
1.37596899224806,507,500,-7,-503.5,257,246.5
1.37812230835487,506,499,-7,-502.5,256.5,246
1.38027562446167,509,503,-6,-506,257.5,248.5
1.38242894056848,511,504,-7,-507.5,259,248.5
1.38458225667528,513,504,-9,-508.5,261,247.5
1.38673557278208,515,505,-10,-510,262.5,247.5
1.38888888888889,513,505,-8,-509,260.5,248.5
1.39104220499569,518,504,-14,-511,266,245
1.3931955211025,521,504,-17,-512.5,269,243.5
1.3953488372093,523,509,-14,-516,268.5,247.5
1.39750215331611,525,512,-13,-518.5,269,249.5
1.39965546942291,526,515,-11,-520.5,268.5,252
1.40180878552972,525,514,-11,-519.5,268,251.5
1.40396210163652,522,513,-9,-517.5,265.5,252
1.40611541774332,525,514,-11,-519.5,268,251.5
1.40826873385013,524,513,-11,-518.5,267.5,251
1.41042204995693,526,513,-13,-519.5,269.5,250
1.41257536606374,529,516,-13,-522.5,271,251.5
1.41472868217054,528,518,-10,-523,269,254
1.41688199827735,528,519,-9,-523.5,268.5,255
1.41903531438415,531,521,-10,-526,270.5,255.5
1.42118863049096,537,524,-13,-530.5,275,255.5
1.42334194659776,538,526,-12,-532,275,257
1.42549526270457,540,522,-18,-531,279,252
1.42764857881137,537,524,-13,-530.5,275,255.5
1.42980189491817,536,524,-12,-530,274,256
1.43195521102498,533,527,-6,-530,269.5,260.5
1.43410852713178,531,524,-7,-527.5,269,258.5
1.43626184323859,531,525,-6,-528,268.5,259.5
1.43841515934539,534,526,-8,-530,271,259
1.4405684754522,532,525,-7,-528.5,269.5,259
1.442721791559,532,524,-8,-528,270,258
1.44487510766581,529,522,-7,-525.5,268,257.5
1.44702842377261,527,521,-6,-524,266.5,257.5
1.44918173987941,528,522,-6,-525,267,258
1.45133505598622,527,523,-4,-525,265.5,259.5
1.45348837209302,524,523,-1,-523.5,262.5,261
1.45564168819983,522,522,0,-522,261,261
1.45779500430663,527,523,-4,-525,265.5,259.5
1.45994832041344,530,524,-6,-527,268,259
1.46210163652024,529,521,-8,-525,268.5,256.5
1.46425495262705,528,523,-5,-525.5,266.5,259
1.46640826873385,529,524,-5,-526.5,267,259.5
1.46856158484065,526,522,-4,-524,265,259
1.47071490094746,527,523,-4,-525,265.5,259.5
1.47286821705426,524,522,-2,-523,263,260
1.47502153316107,522,523,1,-522.5,260.5,262
1.47717484926787,516,519,3,-517.5,256.5,261
1.47932816537468,512,514,2,-513,255,258
1.48148148148148,507,510,3,-508.5,252,256.5
1.48363479758829,504,510,6,-507,249,258
1.48578811369509,503,510,7,-506.5,248,258.5
1.48794142980189,501,505,4,-503,248.5,254.5
1.4900947459087,502,506,4,-504,249,255
1.4922480620155,500,506,6,-503,247,256
1.49440137812231,498,503,5,-500.5,246.5,254
1.49655469422911,499,499,0,-499,249.5,249.5
1.49870801033592,497,498,1,-497.5,248,249.5
1.50086132644272,502,500,-2,-501,252,249
1.50301464254953,504,503,-1,-503.5,252.5,251
1.50516795865633,506,505,-1,-505.5,253.5,252
1.50732127476314,509,505,-4,-507,256.5,250.5
1.50947459086994,507,504,-3,-505.5,255,250.5
1.51162790697674,505,503,-2,-504,253.5,250.5
1.51378122308355,499,498,-1,-498.5,250,248.5
1.51593453919035,497,496,-1,-496.5,249,247.5
1.51808785529716,494,494,0,-494,247,247
1.52024117140396,495,496,1,-495.5,247,248.5
1.52239448751077,495,495,0,-495,247.5,247.5
1.52454780361757,495,496,1,-495.5,247,248.5
1.52670111972438,497,497,0,-497,248.5,248.5
1.52885443583118,497,500,3,-498.5,247,251.5
1.53100775193798,498,497,-1,-497.5,249.5,248
1.53316106804479,498,494,-4,-496,251,245
1.53531438415159,498,493,-5,-495.5,251.5,244
1.5374677002584,498,496,-2,-497,250,247
1.5396210163652,499,495,-4,-497,251.5,245.5
1.54177433247201,501,494,-7,-497.5,254,243.5
1.54392764857881,501,497,-4,-499,252.5,246.5
1.54608096468562,502,499,-3,-500.5,252.5,248
1.54823428079242,500,497,-3,-498.5,251.5,247
1.55038759689922,500,494,-6,-497,253,244
1.55254091300603,498,494,-4,-496,251,245
1.55469422911283,501,492,-9,-496.5,255,241.5
1.55684754521964,501,496,-5,-498.5,253,245.5
1.55900086132644,501,497,-4,-499,252.5,246.5
1.56115417743325,495,495,0,-495,247.5,247.5
1.56330749354005,494,495,1,-494.5,246.5,248
1.56546080964686,494,495,1,-494.5,246.5,248
1.56761412575366,495,492,-3,-493.5,249,244.5
1.56976744186047,494,492,-2,-493,248,245
1.57192075796727,500,493,-7,-496.5,253.5,243
1.57407407407407,501,495,-6,-498,253.5,244.5
1.57622739018088,501,495,-6,-498,253.5,244.5
1.57838070628768,497,493,-4,-495,250.5,244.5
1.58053402239449,496,495,-1,-495.5,248.5,247
1.58268733850129,494,494,0,-494,247,247
1.5848406546081,495,492,-3,-493.5,249,244.5
1.5869939707149,497,491,-6,-494,251.5,242.5
1.58914728682171,500,492,-8,-496,254,242
1.59130060292851,504,496,-8,-500,256,244
1.59345391903531,508,497,-11,-502.5,259.5,243
1.59560723514212,510,499,-11,-504.5,260.5,244
1.59776055124892,512,501,-11,-506.5,261.5,245
1.59991386735573,510,503,-7,-506.5,258.5,248
1.60206718346253,509,501,-8,-505,258.5,246.5
1.60422049956934,507,498,-9,-502.5,258,244.5
1.60637381567614,506,498,-8,-502,257,245
1.60852713178295,510,501,-9,-505.5,259.5,246
1.61068044788975,511,501,-10,-506,260.5,245.5
1.61283376399655,513,503,-10,-508,261.5,246.5
1.61498708010336,514,504,-10,-509,262,247
1.61714039621016,514,508,-6,-511,260,251
1.61929371231697,513,506,-7,-509.5,260,249.5
1.62144702842377,511,503,-8,-507,259.5,247.5
1.62360034453058,512,503,-9,-507.5,260.5,247
1.62575366063738,511,502,-9,-506.5,260,246.5
1.62790697674419,511,503,-8,-507,259.5,247.5
1.63006029285099,513,506,-7,-509.5,260,249.5
1.63221360895779,510,507,-3,-508.5,256.5,252
1.6343669250646,514,508,-6,-511,260,251
1.6365202411714,516,509,-7,-512.5,261.5,251
1.63867355727821,518,510,-8,-514,263,251
1.64082687338501,522,508,-14,-515,268,247
1.64298018949182,521,508,-13,-514.5,267,247.5
1.64513350559862,521,512,-9,-516.5,265,251.5
1.64728682170543,519,511,-8,-515,263.5,251.5
1.64944013781223,515,508,-7,-511.5,261,250.5
1.65159345391904,514,510,-4,-512,259,253
1.65374677002584,513,510,-3,-511.5,258,253.5
1.65590008613264,514,508,-6,-511,260,251
1.65805340223945,507,505,-2,-506,254.5,251.5
1.66020671834625,507,503,-4,-505,255.5,249.5
1.66236003445306,506,503,-3,-504.5,254.5,250
1.66451335055986,514,507,-7,-510.5,260.5,250
1.66666666666667,514,508,-6,-511,260,251
1.66881998277347,511,507,-4,-509,257.5,251.5
1.67097329888028,508,507,-1,-507.5,254.5,253
1.67312661498708,508,506,-2,-507,255,252
1.67527993109388,508,504,-4,-506,256,250
1.67743324720069,507,503,-4,-505,255.5,249.5
1.67958656330749,504,504,0,-504,252,252
1.6817398794143,503,503,0,-503,251.5,251.5
1.6838931955211,502,503,1,-502.5,250.5,252
1.68604651162791,501,502,1,-501.5,250,251.5
1.68819982773471,499,503,4,-501,247.5,253.5
1.69035314384152,498,502,4,-500,247,253
1.69250645994832,493,497,4,-495,244.5,250.5
1.69465977605512,490,493,3,-491.5,243.5,248
1.69681309216193,486,492,6,-489,240,249
1.69896640826873,488,490,2,-489,243,246
1.70111972437554,490,491,1,-490.5,244.5,246
1.70327304048234,495,493,-2,-494,248.5,245.5
1.70542635658915,494,495,1,-494.5,246.5,248
1.70757967269595,494,494,0,-494,247,247
1.70973298880276,494,492,-2,-493,248,245
1.71188630490956,491,488,-3,-489.5,247,242.5
1.71403962101637,490,487,-3,-488.5,246.5,242
1.71619293712317,489,488,-1,-488.5,245,243.5
1.71834625322997,489,487,-2,-488,245.5,242.5
1.72049956933678,488,486,-2,-487,245,242
1.72265288544358,491,490,-1,-490.5,246,244.5
1.72480620155039,489,488,-1,-488.5,245,243.5
1.72695951765719,490,489,-1,-489.5,245.5,244
1.729112833764,490,487,-3,-488.5,246.5,242
1.7312661498708,488,485,-3,-486.5,245.5,241
1.73341946597761,487,484,-3,-485.5,245,240.5
1.73557278208441,488,485,-3,-486.5,245.5,241
1.73772609819121,486,485,-1,-485.5,243.5,242
1.73987941429802,487,486,-1,-486.5,244,242.5
1.74203273040482,482,486,4,-484,239,245
1.74418604651163,484,485,1,-484.5,241.5,243
1.74633936261843,489,484,-5,-486.5,247,239.5
1.74849267872524,497,486,-11,-491.5,254,237.5
1.75064599483204,503,487,-16,-495,259.5,235.5
1.75279931093885,514,494,-20,-504,267,237
1.75495262704565,530,503,-27,-516.5,278.5,238
1.75710594315245,553,516,-37,-534.5,295,239.5
1.75925925925926,578,531,-47,-554.5,312.5,242
1.76141257536606,603,543,-60,-573,331.5,241.5
1.76356589147287,626,558,-68,-592,347,245
1.76571920757967,639,567,-72,-603,355.5,247.5
1.76787252368648,639,575,-64,-607,351.5,255.5
1.77002583979328,622,574,-48,-598,335,263
1.77217915590009,605,570,-35,-587.5,320,267.5
1.77433247200689,579,564,-15,-571.5,297,274.5
1.7764857881137,556,556,0,-556,278,278
1.7786391042205,536,548,12,-542,262,280
1.7807924203273,516,536,20,-526,248,278
1.78294573643411,501,527,26,-514,237.5,276.5
1.78509905254091,490,519,29,-504.5,230.5,274
1.78725236864772,490,514,24,-502,233,269
1.78940568475452,489,512,23,-500.5,233,267.5
1.79155900086133,493,512,19,-502.5,237,265.5
1.79371231696813,499,515,16,-507,241.5,265.5
1.79586563307494,503,513,10,-508,246.5,261.5
1.79801894918174,504,512,8,-508,248,260
1.80017226528854,505,512,7,-508.5,249,259.5
1.80232558139535,505,507,2,-506,251.5,254.5
1.80447889750215,504,504,0,-504,252,252
1.80663221360896,501,505,4,-503,248.5,254.5
1.80878552971576,497,504,7,-500.5,245,255.5
1.81093884582257,494,501,7,-497.5,243.5,254
1.81309216192937,494,500,6,-497,244,253
1.81524547803618,489,498,9,-493.5,240,253.5
1.81739879414298,489,496,7,-492.5,241,251.5
1.81955211024978,490,491,1,-490.5,244.5,246
1.82170542635659,490,491,1,-490.5,244.5,246
1.82385874246339,489,490,1,-489.5,244,245.5
1.8260120585702,494,493,-1,-493.5,247.5,246
1.828165374677,494,492,-2,-493,248,245
1.83031869078381,495,496,1,-495.5,247,248.5
1.83247200689061,492,493,1,-492.5,245.5,247
1.83462532299742,488,491,3,-489.5,242.5,247
1.83677863910422,483,487,4,-485,239.5,245.5
1.83893195521103,486,487,1,-486.5,242.5,244
1.84108527131783,488,487,-1,-487.5,244.5,243
1.84323858742463,491,489,-2,-490,246.5,243.5
1.84539190353144,491,487,-4,-489,247.5,241.5
1.84754521963824,494,492,-2,-493,248,245
1.84969853574505,497,494,-3,-495.5,250,245.5
1.85185185185185,498,492,-6,-495,252,243
1.85400516795866,498,492,-6,-495,252,243
1.85615848406546,494,491,-3,-492.5,248.5,244
1.85831180017227,494,488,-6,-491,250,241
1.86046511627907,491,490,-1,-490.5,246,244.5
1.86261843238587,491,489,-2,-490,246.5,243.5
1.86477174849268,495,493,-2,-494,248.5,245.5
1.86692506459948,499,494,-5,-496.5,252,244.5
1.86907838070629,499,494,-5,-496.5,252,244.5
1.87123169681309,497,493,-4,-495,250.5,244.5
1.8733850129199,497,490,-7,-493.5,252,241.5
1.8755383290267,497,487,-10,-492,253.5,238.5
1.87769164513351,499,492,-7,-495.5,253,242.5
1.87984496124031,502,493,-9,-497.5,255.5,242
1.88199827734711,503,498,-5,-500.5,254,246.5
1.88415159345392,506,497,-9,-501.5,257.5,244
1.88630490956072,504,498,-6,-501,255,246
1.88845822566753,506,500,-6,-503,256,247
1.89061154177433,508,497,-11,-502.5,259.5,243
1.89276485788114,506,496,-10,-501,258,243
1.89491817398794,503,495,-8,-499,255.5,243.5
1.89707149009475,502,496,-6,-499,254,245
1.89922480620155,503,497,-6,-500,254.5,245.5
1.90137812230836,505,499,-6,-502,255.5,246.5
1.90353143841516,508,502,-6,-505,257,248
1.90568475452196,508,501,-7,-504.5,257.5,247
1.90783807062877,509,502,-7,-505.5,258,247.5
1.90999138673557,504,500,-4,-502,254,248
1.91214470284238,508,500,-8,-504,258,246
1.91429801894918,511,502,-9,-506.5,260,246.5
1.91645133505599,513,504,-9,-508.5,261,247.5
1.91860465116279,516,506,-10,-511,263,248
1.9207579672696,513,505,-8,-509,260.5,248.5
1.9229112833764,516,508,-8,-512,262,250
1.9250645994832,513,505,-8,-509,260.5,248.5
1.92721791559001,510,503,-7,-506.5,258.5,248
1.92937123169681,506,498,-8,-502,257,245
1.93152454780362,504,499,-5,-501.5,254.5,247
1.93367786391042,507,502,-5,-504.5,256,248.5
1.93583118001723,516,507,-9,-511.5,262.5,249
1.93798449612403,520,507,-13,-513.5,266.5,247
1.94013781223084,518,509,-9,-513.5,263.5,250
1.94229112833764,514,507,-7,-510.5,260.5,250
1.94444444444444,517,507,-10,-512,263.5,248.5
1.94659776055125,522,508,-14,-515,268,247
1.94875107665805,524,510,-14,-517,269,248
1.95090439276486,529,514,-15,-521.5,272,249.5
1.95305770887166,531,517,-14,-524,272.5,251.5
1.95521102497847,533,518,-15,-525.5,274,251.5
1.95736434108527,537,522,-15,-529.5,276,253.5
1.95951765719208,539,524,-15,-531.5,277,254.5
1.96167097329888,539,525,-14,-532,276.5,255.5
1.96382428940568,537,522,-15,-529.5,276,253.5
1.96597760551249,538,523,-15,-530.5,276.5,254
1.96813092161929,535,524,-11,-529.5,273,256.5
1.9702842377261,531,525,-6,-528,268.5,259.5
1.9724375538329,529,523,-6,-526,267.5,258.5
1.97459086993971,529,524,-5,-526.5,267,259.5
1.97674418604651,527,524,-3,-525.5,265,260.5
1.97889750215332,529,524,-5,-526.5,267,259.5
1.98105081826012,531,522,-9,-526.5,270,256.5
1.98320413436693,527,520,-7,-523.5,267,256.5
1.98535745047373,531,522,-9,-526.5,270,256.5
1.98751076658053,531,524,-7,-527.5,269,258.5
1.98966408268734,535,527,-8,-531,271.5,259.5
1.99181739879414,537,527,-10,-532,273.5,258.5
1.99397071490095,535,527,-8,-531,271.5,259.5
1.99612403100775,532,526,-6,-529,269,260
1.99827734711456,529,525,-4,-527,266.5,260.5
2.00043066322136,529,521,-8,-525,268.5,256.5
2.00258397932817,526,522,-4,-524,265,259
2.00473729543497,527,522,-5,-524.5,266,258.5
2.00689061154177,530,525,-5,-527.5,267.5,260
2.00904392764858,528,523,-5,-525.5,266.5,259
2.01119724375538,524,525,1,-524.5,261.5,263
2.01335055986219,521,522,1,-521.5,260,261.5
2.01550387596899,522,521,-1,-521.5,261.5,260
2.0176571920758,521,518,-3,-519.5,262,257.5
2.0198105081826,519,516,-3,-517.5,261,256.5
2.02196382428941,510,514,4,-512,253,259
2.02411714039621,508,515,7,-511.5,250.5,261
2.02627045650301,506,511,5,-508.5,250.5,258
2.02842377260982,504,511,7,-507.5,248.5,259
2.03057708871662,505,510,5,-507.5,250,257.5
2.03273040482343,504,509,5,-506.5,249.5,257
2.03488372093023,504,505,1,-504.5,251.5,253
2.03703703703704,506,504,-2,-505,254,251
2.03919035314384,508,504,-4,-506,256,250
2.04134366925065,506,505,-1,-505.5,253.5,252
2.04349698535745,503,503,0,-503,251.5,251.5
2.04565030146426,497,502,5,-499.5,246,253.5
2.04780361757106,495,501,6,-498,244.5,253.5
2.04995693367786,496,501,5,-498.5,245.5,253
2.05211024978467,499,500,1,-499.5,249,250.5
2.05426356589147,504,498,-6,-501,255,246
2.05641688199828,501,497,-4,-499,252.5,246.5
2.05857019810508,503,500,-3,-501.5,253,248.5
2.06072351421189,500,501,1,-500.5,249.5,251
2.06287683031869,499,499,0,-499,249.5,249.5
2.0650301464255,495,499,4,-497,245.5,251.5
2.0671834625323,496,497,1,-496.5,247.5,249
2.0693367786391,497,494,-3,-495.5,250,245.5
2.07149009474591,494,493,-1,-493.5,247.5,246
2.07364341085271,494,494,0,-494,247,247
2.07579672695952,498,496,-2,-497,250,247
2.07795004306632,499,497,-2,-498,250.5,247.5
2.08010335917313,499,497,-2,-498,250.5,247.5
2.08225667527993,497,497,0,-497,248.5,248.5
2.08440999138674,498,499,1,-498.5,248.5,250
2.08656330749354,496,495,-1,-495.5,248.5,247
2.08871662360034,497,493,-4,-495,250.5,244.5
2.09086993970715,499,492,-7,-495.5,253,242.5
2.09302325581395,499,492,-7,-495.5,253,242.5
2.09517657192076,500,494,-6,-497,253,244
2.09732988802756,497,496,-1,-496.5,249,247.5
2.09948320413437,495,496,1,-495.5,247,248.5
2.10163652024117,497,496,-1,-496.5,249,247.5
2.10378983634798,495,493,-2,-494,248.5,245.5
2.10594315245478,494,491,-3,-492.5,248.5,244
2.10809646856158,494,490,-4,-492,249,243
2.11024978466839,497,492,-5,-494.5,251,243.5
2.11240310077519,497,494,-3,-495.5,250,245.5
2.114556416882,498,492,-6,-495,252,243
2.1167097329888,499,493,-6,-496,252.5,243.5
2.11886304909561,501,496,-5,-498.5,253,245.5
2.12101636520241,500,497,-3,-498.5,251.5,247
2.12316968130922,498,495,-3,-496.5,250.5,246
2.12532299741602,498,494,-4,-496,251,245
2.12747631352283,501,494,-7,-497.5,254,243.5
2.12962962962963,502,496,-6,-499,254,245
2.13178294573643,502,496,-6,-499,254,245
2.13393626184324,504,498,-6,-501,255,246
2.13608957795004,502,500,-2,-501,252,249
2.13824289405685,502,499,-3,-500.5,252.5,248
2.14039621016365,500,497,-3,-498.5,251.5,247
2.14254952627046,497,493,-4,-495,250.5,244.5
2.14470284237726,497,493,-4,-495,250.5,244.5
2.14685615848407,495,491,-4,-493,249.5,243.5
2.14900947459087,496,494,-2,-495,249,246
2.15116279069767,495,493,-2,-494,248.5,245.5
2.15331610680448,493,492,-1,-492.5,247,245.5
2.15546942291128,497,496,-1,-496.5,249,247.5
2.15762273901809,500,497,-3,-498.5,251.5,247
2.15977605512489,503,495,-8,-499,255.5,243.5
2.1619293712317,504,495,-9,-499.5,256.5,243
2.1640826873385,504,495,-9,-499.5,256.5,243
2.16623600344531,502,496,-6,-499,254,245
2.16838931955211,502,496,-6,-499,254,245
2.17054263565892,502,498,-4,-500,253,247
2.17269595176572,497,498,1,-497.5,248,249.5
2.17484926787252,499,495,-4,-497,251.5,245.5
2.17700258397933,501,496,-5,-498.5,253,245.5
2.17915590008613,507,497,-10,-502,258.5,243.5
2.18130921619294,512,497,-15,-504.5,263.5,241
2.18346253229974,515,502,-13,-508.5,264,244.5
2.18561584840655,518,505,-13,-511.5,265.5,246
2.18776916451335,518,505,-13,-511.5,265.5,246
2.18992248062015,515,508,-7,-511.5,261,250.5
2.19207579672696,515,509,-6,-512,260.5,251.5
2.19422911283376,517,509,-8,-513,262.5,250.5
2.19638242894057,515,506,-9,-510.5,262,248.5
2.19853574504737,518,507,-11,-512.5,264.5,248
2.20068906115418,515,507,-8,-511,261.5,249.5
2.20284237726098,516,508,-8,-512,262,250
2.20499569336779,514,508,-6,-511,260,251
2.20714900947459,519,510,-9,-514.5,264,250.5
2.2093023255814,518,511,-7,-514.5,262.5,252
2.2114556416882,518,512,-6,-515,262,253
2.213608957795,515,508,-7,-511.5,261,250.5
2.21576227390181,516,507,-9,-511.5,262.5,249
2.21791559000861,514,506,-8,-510,261,249
2.22006890611542,513,507,-6,-510,259.5,250.5
2.22222222222222,516,510,-6,-513,261,252
2.22437553832903,514,512,-2,-513,258,255
2.22652885443583,517,510,-7,-513.5,262,251.5
2.22868217054264,512,509,-3,-510.5,257.5,253
2.23083548664944,505,506,1,-505.5,252,253.5
2.23298880275624,499,502,3,-500.5,248,252.5
2.23514211886305,496,499,3,-497.5,246.5,251
2.23729543496985,491,497,6,-494,242.5,251.5
2.23944875107666,490,498,8,-494,241,253
2.24160206718346,489,496,7,-492.5,241,251.5
2.24375538329027,490,496,6,-493,242,251
2.24590869939707,486,494,8,-490,239,251
2.24806201550388,482,490,8,-486,237,249
2.25021533161068,480,487,7,-483.5,236.5,247
2.25236864771749,482,487,5,-484.5,238.5,246
2.25452196382429,486,486,0,-486,243,243
2.25667527993109,491,490,-1,-490.5,246,244.5
2.2588285960379,497,493,-4,-495,250.5,244.5
2.2609819121447,494,493,-1,-493.5,247.5,246
2.26313522825151,493,490,-3,-491.5,248,243.5
2.26528854435831,488,489,1,-488.5,243.5,245
2.26744186046512,481,484,3,-482.5,239,243.5
2.26959517657192,481,483,2,-482,239.5,242.5
2.27174849267873,484,483,-1,-483.5,242.5,241
2.27390180878553,489,485,-4,-487,246.5,240.5
2.27605512489233,491,486,-5,-488.5,248,240.5
2.27820844099914,490,488,-2,-489,246,243
2.28036175710594,490,485,-5,-487.5,247.5,240
2.28251507321275,484,485,1,-484.5,241.5,243
2.28466838931955,487,484,-3,-485.5,245,240.5
2.28682170542636,488,486,-2,-487,245,242
2.28897502153316,485,481,-4,-483,244.5,238.5
2.29112833763997,482,480,-2,-481,242,239
2.29328165374677,481,481,0,-481,240.5,240.5
2.29543496985357,482,484,2,-483,240,243
2.29758828596038,482,481,-1,-481.5,241.5,240
2.29974160206718,485,483,-2,-484,243.5,240.5
2.30189491817399,486,482,-4,-484,245,239
2.30404823428079,488,483,-5,-485.5,246.5,239
2.3062015503876,490,482,-8,-486,249,237
2.3083548664944,499,486,-13,-492.5,256,236.5
2.31050818260121,512,494,-18,-503,265,238
2.31266149870801,531,503,-28,-517,279.5,237.5
2.31481481481481,550,513,-37,-531.5,293.5,238
2.31696813092162,568,524,-44,-546,306,240
2.31912144702842,590,537,-53,-563.5,321.5,242
2.32127476313523,609,548,-61,-578.5,335,243.5
2.32342807924203,620,556,-64,-588,342,246
2.32558139534884,623,562,-61,-592.5,342,250.5
2.32773471145564,614,565,-49,-589.5,331.5,258
2.32988802756245,599,564,-35,-581.5,317,264.5
2.33204134366925,578,560,-18,-569,298,271
2.33419465977606,557,552,-5,-554.5,281,273.5
2.33634797588286,538,544,6,-541,266,275
2.33850129198966,521,536,15,-528.5,253,275.5
2.34065460809647,502,523,21,-512.5,240.5,272
2.34280792420327,483,513,30,-498,226.5,271.5
2.34496124031008,476,508,32,-492,222,270
2.34711455641688,478,507,29,-492.5,224.5,268
2.34926787252369,483,507,24,-495,229.5,265.5
2.35142118863049,493,506,13,-499.5,240,259.5
2.3535745047373,501,510,9,-505.5,246,259.5
2.3557278208441,507,511,4,-509,251.5,257.5
2.3578811369509,510,509,-1,-509.5,255.5,254
2.36003445305771,508,507,-1,-507.5,254.5,253
2.36218776916451,503,504,1,-503.5,251,252.5
2.36434108527132,498,502,4,-500,247,253
2.36649440137812,493,499,6,-496,243.5,252.5
2.36864771748493,489,497,8,-493,240.5,252.5
2.37080103359173,487,496,9,-491.5,239,252.5
2.37295434969854,488,493,5,-490.5,241.5,249
2.37510766580534,486,493,7,-489.5,239.5,250
2.37726098191214,482,488,6,-485,238,247
2.37941429801895,480,485,5,-482.5,237.5,245
2.38156761412575,482,486,4,-484,239,245
2.38372093023256,482,488,6,-485,238,247
2.38587424633936,484,488,4,-486,240,246
2.38802756244617,488,488,0,-488,244,244
2.39018087855297,489,490,1,-489.5,244,245.5
2.39233419465978,488,488,0,-488,244,244
2.39448751076658,490,485,-5,-487.5,247.5,240
2.39664082687338,489,483,-6,-486,247.5,238.5
2.39879414298019,490,486,-4,-488,247,241
2.40094745908699,490,489,-1,-489.5,245.5,244
2.4031007751938,487,486,-1,-486.5,244,242.5
2.4052540913006,487,486,-1,-486.5,244,242.5
2.40740740740741,490,488,-2,-489,246,243
2.40956072351421,494,488,-6,-491,250,241
2.41171403962102,495,485,-10,-490,252.5,237.5
2.41386735572782,495,487,-8,-491,251.5,239.5
2.41602067183463,494,487,-7,-490.5,250.5,240
2.41817398794143,498,490,-8,-494,253,241
2.42032730404823,497,492,-5,-494.5,251,243.5
2.42248062015504,495,488,-7,-491.5,251,240.5
2.42463393626184,495,491,-4,-493,249.5,243.5
2.42678725236865,498,492,-6,-495,252,243
2.42894056847545,500,492,-8,-496,254,242
2.43109388458226,499,490,-9,-494.5,254,240.5
2.43324720068906,499,493,-6,-496,252.5,243.5
2.43540051679587,502,494,-8,-498,255,243
2.43755383290267,505,495,-10,-500,257.5,242.5
2.43970714900947,509,497,-12,-503,260.5,242.5
2.44186046511628,508,499,-9,-503.5,258.5,245
2.44401378122308,503,498,-5,-500.5,254,246.5
2.44616709732989,502,497,-5,-499.5,253.5,246
2.44832041343669,500,493,-7,-496.5,253.5,243
2.4504737295435,499,492,-7,-495.5,253,242.5
2.4526270456503,497,493,-4,-495,250.5,244.5
2.45478036175711,502,498,-4,-500,253,247
2.45693367786391,507,498,-9,-502.5,258,244.5
2.45908699397072,510,502,-8,-506,259,247
2.46124031007752,508,502,-6,-505,257,248
2.46339362618432,507,502,-5,-504.5,256,248.5
2.46554694229113,504,497,-7,-500.5,255.5,245
2.46770025839793,508,498,-10,-503,259,244
2.46985357450474,507,500,-7,-503.5,257,246.5
2.47200689061154,508,503,-5,-505.5,256.5,249
2.47416020671835,505,499,-6,-502,255.5,246.5
2.47631352282515,507,500,-7,-503.5,257,246.5
2.47846683893196,514,505,-9,-509.5,261.5,248
2.48062015503876,518,507,-11,-512.5,264.5,248
2.48277347114556,520,508,-12,-514,266,248
2.48492678725237,525,508,-17,-516.5,271,245.5
2.48708010335917,524,508,-16,-516,270,246
2.48923341946598,520,509,-11,-514.5,265.5,249
2.49138673557278,517,509,-8,-513,262.5,250.5
2.49354005167959,519,510,-9,-514.5,264,250.5
2.49569336778639,519,511,-8,-515,263.5,251.5
2.4978466838932,524,513,-11,-518.5,267.5,251
2.5,528,516,-12,-522,270,252
2.5021533161068,531,516,-15,-523.5,273,250.5
2.50430663221361,534,516,-18,-525,276,249
2.50645994832041,532,519,-13,-525.5,272.5,253
2.50861326442722,533,522,-11,-527.5,272,255.5
2.51076658053402,534,521,-13,-527.5,273.5,254
2.51291989664083,530,523,-7,-526.5,268.5,258
2.51507321274763,528,522,-6,-525,267,258
2.51722652885444,525,521,-4,-523,264.5,258.5
2.51937984496124,523,516,-7,-519.5,265,254.5
2.52153316106804,523,516,-7,-519.5,265,254.5
2.52368647717485,527,518,-9,-522.5,268,254.5
2.52583979328165,528,519,-9,-523.5,268.5,255
2.52799310938846,534,523,-11,-528.5,272.5,256
2.53014642549526,539,525,-14,-532,276.5,255.5
2.53229974160207,537,526,-11,-531.5,274,257.5
2.53445305770887,533,526,-7,-529.5,270,259.5
2.53660637381568,533,524,-9,-528.5,271,257.5
2.53875968992248,535,523,-12,-529,273.5,255.5
2.54091300602929,537,525,-12,-531,274.5,256.5
2.54306632213609,536,527,-9,-531.5,272.5,259
2.54521963824289,532,525,-7,-528.5,269.5,259
2.5473729543497,527,526,-1,-526.5,264,262.5
2.5495262704565,530,527,-3,-528.5,266.5,262
2.55167958656331,529,527,-2,-528,265.5,262.5
2.55383290267011,531,525,-6,-528,268.5,259.5
2.55598621877692,527,522,-5,-524.5,266,258.5
2.55813953488372,528,523,-5,-525.5,266.5,259
2.56029285099053,528,525,-3,-526.5,265.5,261
2.56244616709733,529,525,-4,-527,266.5,260.5
2.56459948320413,526,523,-3,-524.5,264.5,260
2.56675279931094,526,524,-2,-525,264,261
2.56890611541774,521,524,3,-522.5,259,263.5
2.57105943152455,520,520,0,-520,260,260
2.57321274763135,518,515,-3,-516.5,260.5,256
2.57536606373816,515,514,-1,-514.5,258,256.5
2.57751937984496,511,515,4,-513,253.5,259.5
2.57967269595177,508,513,5,-510.5,251.5,259
2.58182601205857,504,510,6,-507,249,258
2.58397932816537,505,512,7,-508.5,249,259.5
2.58613264427218,512,513,1,-512.5,255.5,257
2.58828596037898,515,515,0,-515,257.5,257.5
2.59043927648579,517,511,-6,-514,261.5,252.5
2.59259259259259,514,510,-4,-512,259,253
2.5947459086994,510,506,-4,-508,257,251
2.5968992248062,503,504,1,-503.5,251,252.5
2.59905254091301,500,503,3,-501.5,248.5,253
2.60120585701981,498,503,5,-500.5,246.5,254
2.60335917312662,498,504,6,-501,246,255
2.60551248923342,501,506,5,-503.5,248,255.5
2.60766580534022,501,501,0,-501,250.5,250.5
2.60981912144703,503,501,-2,-502,252.5,249.5
2.61197243755383,503,499,-4,-501,253.5,247.5
2.61412575366064,505,502,-3,-503.5,254,249.5
2.61627906976744,503,501,-2,-502,252.5,249.5
2.61843238587425,501,501,0,-501,250.5,250.5
2.62058570198105,500,500,0,-500,250,250
2.62273901808786,501,503,2,-502,249.5,252.5
2.62489233419466,502,500,-2,-501,252,249
2.62704565030146,500,495,-5,-497.5,252.5,245
2.62919896640827,495,495,0,-495,247.5,247.5
2.63135228251507,493,494,1,-493.5,246,247.5
2.63350559862188,491,493,2,-492,244.5,247.5
2.63565891472868,491,493,2,-492,244.5,247.5
2.63781223083549,490,492,2,-491,244,247
2.63996554694229,495,495,0,-495,247.5,247.5
2.6421188630491,499,495,-4,-497,251.5,245.5
2.6442721791559,499,493,-6,-496,252.5,243.5
2.6464254952627,502,494,-8,-498,255,243
2.64857881136951,500,493,-7,-496.5,253.5,243
2.65073212747631,499,494,-5,-496.5,252,244.5
2.65288544358312,495,496,1,-495.5,247,248.5
2.65503875968992,494,494,0,-494,247,247
2.65719207579673,496,495,-1,-495.5,248.5,247
2.65934539190353,496,493,-3,-494.5,249.5,245
2.66149870801034,498,494,-4,-496,251,245
2.66365202411714,495,490,-5,-492.5,250,242.5
2.66580534022395,494,490,-4,-492,249,243
2.66795865633075,494,493,-1,-493.5,247.5,246
2.67011197243755,499,493,-6,-496,252.5,243.5
2.67226528854436,500,494,-6,-497,253,244
2.67441860465116,502,497,-5,-499.5,253.5,246
2.67657192075797,503,500,-3,-501.5,253,248.5
2.67872523686477,501,496,-5,-498.5,253,245.5
2.68087855297158,500,494,-6,-497,253,244
2.68303186907838,500,494,-6,-497,253,244
2.68518518518519,499,494,-5,-496.5,252,244.5
2.68733850129199,497,495,-2,-496,249.5,246.5
2.68949181739879,497,494,-3,-495.5,250,245.5
2.6916451335056,500,496,-4,-498,252,246
2.6937984496124,500,498,-2,-499,251,248
2.69595176571921,499,496,-3,-497.5,251,246.5
2.69810508182601,495,492,-3,-493.5,249,244.5
2.70025839793282,497,492,-5,-494.5,251,243.5
2.70241171403962,497,491,-6,-494,251.5,242.5
2.70456503014643,493,490,-3,-491.5,248,243.5
2.70671834625323,494,491,-3,-492.5,248.5,244
2.70887166236003,490,491,1,-490.5,244.5,246
2.71102497846684,488,491,3,-489.5,242.5,247
2.71317829457364,491,491,0,-491,245.5,245.5
2.71533161068045,495,491,-4,-493,249.5,243.5
2.71748492678725,503,492,-11,-497.5,257,240.5
2.71963824289406,504,492,-12,-498,258,240
2.72179155900086,503,495,-8,-499,255.5,243.5
2.72394487510767,501,496,-5,-498.5,253,245.5
2.72609819121447,502,497,-5,-499.5,253.5,246
2.72825150732127,505,499,-6,-502,255.5,246.5
2.73040482342808,503,499,-4,-501,253.5,247.5
2.73255813953488,505,498,-7,-501.5,256,245.5
2.73471145564169,511,498,-13,-504.5,262,242.5
2.73686477174849,509,498,-11,-503.5,260,243.5
2.7390180878553,510,498,-12,-504,261,243
2.7411714039621,512,502,-10,-507,261,246
2.74332472006891,511,502,-9,-506.5,260,246.5
2.74547803617571,509,502,-7,-505.5,258,247.5
2.74763135228252,509,503,-6,-506,257.5,248.5
2.74978466838932,508,503,-5,-505.5,256.5,249
2.75193798449612,511,502,-9,-506.5,260,246.5
2.75409130060293,513,505,-8,-509,260.5,248.5
2.75624461670973,518,503,-15,-510.5,266.5,244
2.75839793281654,522,506,-16,-514,269,245
2.76055124892334,522,510,-12,-516,267,249
2.76270456503015,519,509,-10,-514,264.5,249.5
2.76485788113695,519,512,-7,-515.5,263,252.5
2.76701119724376,517,510,-7,-513.5,262,251.5
2.76916451335056,517,510,-7,-513.5,262,251.5
2.77131782945736,516,509,-7,-512.5,261.5,251
2.77347114556417,518,507,-11,-512.5,264.5,248
2.77562446167097,518,509,-9,-513.5,263.5,250
2.77777777777778,520,512,-8,-516,264,252
2.77993109388458,518,511,-7,-514.5,262.5,252
2.78208440999139,515,513,-2,-514,258.5,255.5
2.78423772609819,514,511,-3,-512.5,258.5,254
2.786391042205,513,510,-3,-511.5,258,253.5
2.7885443583118,512,508,-4,-510,258,252
2.7906976744186,511,507,-4,-509,257.5,251.5
2.79285099052541,507,505,-2,-506,254.5,251.5
2.79500430663221,503,505,2,-504,250.5,253.5
2.79715762273902,501,504,3,-502.5,249,253.5
2.79931093884582,500,503,3,-501.5,248.5,253
2.80146425495263,501,503,2,-502,249.5,252.5
2.80361757105943,501,502,1,-501.5,250,251.5
2.80577088716624,500,499,-1,-499.5,250.5,249
2.80792420327304,498,497,-1,-497.5,249.5,248
2.81007751937985,496,493,-3,-494.5,249.5,245
2.81223083548665,495,494,-1,-494.5,248,246.5
2.81438415159345,492,493,1,-492.5,245.5,247
2.81653746770026,491,495,4,-493,243.5,249.5
2.81869078380706,488,492,4,-490,242,248
2.82084409991387,489,491,2,-490,243.5,246.5
2.82299741602067,495,493,-2,-494,248.5,245.5
2.82515073212748,499,495,-4,-497,251.5,245.5
2.82730404823428,501,493,-8,-497,254.5,242.5
2.82945736434109,501,494,-7,-497.5,254,243.5
2.83161068044789,498,494,-4,-496,251,245
2.83376399655469,495,495,0,-495,247.5,247.5
2.8359173126615,492,493,1,-492.5,245.5,247
2.8380706287683,487,491,4,-489,241.5,247.5
2.84022394487511,487,490,3,-488.5,242,246.5
2.84237726098191,489,489,0,-489,244.5,244.5
2.84453057708872,487,484,-3,-485.5,245,240.5
2.84668389319552,484,484,0,-484,242,242
2.84883720930233,487,486,-1,-486.5,244,242.5
2.85099052540913,488,486,-2,-487,245,242
2.85314384151593,491,489,-2,-490,246.5,243.5
2.85529715762274,492,489,-3,-490.5,247.5,243
2.85745047372954,489,487,-2,-488,245.5,242.5
2.85960378983635,488,484,-4,-486,246,240
2.86175710594315,484,481,-3,-482.5,243.5,239
2.86391042204996,487,481,-6,-484,246.5,237.5
2.86606373815676,484,481,-3,-482.5,243.5,239
2.86821705426357,482,481,-1,-481.5,241.5,240
2.87037037037037,481,485,4,-483,238.5,244.5
2.87252368647717,491,485,-6,-488,248.5,239.5
2.87467700258398,499,489,-10,-494,254.5,239.5
2.87683031869078,510,493,-17,-501.5,263.5,238
2.87898363479759,525,501,-24,-513,274.5,238.5
2.88113695090439,545,508,-37,-526.5,291,235.5
2.8832902670112,571,522,-49,-546.5,310,236.5
2.885443583118,593,536,-57,-564.5,325,239.5
2.88759689922481,614,551,-63,-582.5,338.5,244
2.88975021533161,628,561,-67,-594.5,347.5,247
2.89190353143842,628,569,-59,-598.5,343.5,255
2.89405684754522,617,569,-48,-593,332.5,260.5
2.89621016365202,605,566,-39,-585.5,322,263.5
2.89836347975883,584,559,-25,-571.5,304.5,267
2.90051679586563,558,551,-7,-554.5,282.5,272
2.90267011197244,535,543,8,-539,263.5,275.5
2.90482342807924,511,533,22,-522,244.5,277.5
2.90697674418605,495,522,27,-508.5,234,274.5
2.90913006029285,481,516,35,-498.5,223,275.5
2.91128337639966,477,509,32,-493,222.5,270.5
2.91343669250646,475,503,28,-489,223.5,265.5
2.91559000861326,477,499,22,-488,227.5,260.5
2.91774332472007,480,496,16,-488,232,256
2.91989664082687,488,499,11,-493.5,238.5,255
2.92204995693368,496,501,5,-498.5,245.5,253
2.92420327304048,503,503,0,-503,251.5,251.5
2.92635658914729,505,503,-2,-504,253.5,250.5
2.92850990525409,502,502,0,-502,251,251
2.9306632213609,499,501,2,-500,248.5,251.5
2.9328165374677,492,497,5,-494.5,243.5,251
2.93496985357451,490,492,2,-491,244,247
2.93712316968131,490,492,2,-491,244,247
2.93927648578811,486,492,6,-489,240,249
2.94142980189492,491,493,2,-492,244.5,247.5
2.94358311800172,493,492,-1,-492.5,247,245.5
2.94573643410853,494,494,0,-494,247,247
2.94788975021533,491,492,1,-491.5,245,246.5
2.95004306632214,488,488,0,-488,244,244
2.95219638242894,485,488,3,-486.5,241,245.5
2.95434969853575,485,487,2,-486,241.5,244.5
2.95650301464255,490,488,-2,-489,246,243
2.95865633074935,488,489,1,-488.5,243.5,245
2.96080964685616,487,487,0,-487,243.5,243.5
2.96296296296296,481,485,4,-483,238.5,244.5
2.96511627906977,483,486,3,-484.5,240,244.5
2.96726959517657,487,485,-2,-486,244.5,241.5
2.96942291128338,490,484,-6,-487,248,239
2.97157622739018,490,485,-5,-487.5,247.5,240
2.97372954349699,493,486,-7,-489.5,250,239.5
2.97588285960379,495,489,-6,-492,250.5,241.5
2.97803617571059,494,487,-7,-490.5,250.5,240
2.9801894918174,495,489,-6,-492,250.5,241.5
2.9823428079242,495,490,-5,-492.5,250,242.5
2.98449612403101,495,492,-3,-493.5,249,244.5
2.98664944013781,498,489,-9,-493.5,253.5,240
2.98880275624462,496,488,-8,-492,252,240
2.99095607235142,498,490,-8,-494,253,241
2.99310938845823,500,494,-6,-497,253,244
2.99526270456503,501,494,-7,-497.5,254,243.5
2.99741602067183,503,495,-8,-499,255.5,243.5
2.99956933677864,504,497,-7,-500.5,255.5,245
3.00172265288544,501,495,-6,-498,253.5,244.5
3.00387596899225,502,492,-10,-497,256,241
3.00602928509905,499,492,-7,-495.5,253,242.5
3.00818260120586,497,492,-5,-494.5,251,243.5
3.01033591731266,493,493,0,-493,246.5,246.5
3.01248923341947,495,493,-2,-494,248.5,245.5
3.01464254952627,495,493,-2,-494,248.5,245.5
3.01679586563308,497,494,-3,-495.5,250,245.5
3.01894918173988,503,498,-5,-500.5,254,246.5
3.02110249784668,503,494,-9,-498.5,256,242.5
3.02325581395349,503,494,-9,-498.5,256,242.5
3.02540913006029,506,495,-11,-500.5,258.5,242
3.0275624461671,505,497,-8,-501,256.5,244.5
3.0297157622739,502,498,-4,-500,253,247
3.03186907838071,503,497,-6,-500,254.5,245.5
3.03402239448751,502,499,-3,-500.5,252.5,248
3.03617571059432,502,499,-3,-500.5,252.5,248
3.03832902670112,506,497,-9,-501.5,257.5,244
3.04048234280792,510,499,-11,-504.5,260.5,244
3.04263565891473,515,500,-15,-507.5,265,242.5
3.04478897502153,517,503,-14,-510,265.5,244.5
3.04694229112834,516,506,-10,-511,263,248
3.04909560723514,516,506,-10,-511,263,248
3.05124892334195,515,508,-7,-511.5,261,250.5
3.05340223944875,517,508,-9,-512.5,263,249.5
3.05555555555556,519,508,-11,-513.5,265,248.5
3.05770887166236,519,508,-11,-513.5,265,248.5
3.05986218776916,516,506,-10,-511,263,248
3.06201550387597,516,507,-9,-511.5,262.5,249
3.06416881998277,514,508,-6,-511,260,251
3.06632213608958,516,508,-8,-512,262,250
3.06847545219638,519,510,-9,-514.5,264,250.5
3.07062876830319,527,515,-12,-521,269.5,251.5
3.07278208440999,531,518,-13,-524.5,272,252.5
3.0749354005168,528,513,-15,-520.5,271.5,249
3.0770887166236,529,511,-18,-520,273.5,246.5
3.0792420327304,528,513,-15,-520.5,271.5,249
3.08139534883721,530,518,-12,-524,271,253
3.08354866494401,532,518,-14,-525,273,252
3.08570198105082,530,518,-12,-524,271,253
3.08785529715762,528,518,-10,-523,269,254
3.09000861326443,531,522,-9,-526.5,270,256.5
3.09216192937123,531,519,-12,-525,271.5,253.5
3.09431524547804,530,519,-11,-524.5,270.5,254
3.09646856158484,533,519,-14,-526,273.5,252.5
3.09862187769165,531,520,-11,-525.5,271,254.5
3.10077519379845,528,521,-7,-524.5,267.5,257
3.10292850990525,525,521,-4,-523,264.5,258.5
3.10508182601206,525,521,-4,-523,264.5,258.5
3.10723514211886,527,523,-4,-525,265.5,259.5
3.10938845822567,529,522,-7,-525.5,268,257.5
3.11154177433247,530,521,-9,-525.5,269.5,256
3.11369509043928,531,521,-10,-526,270.5,255.5
3.11584840654608,525,522,-3,-523.5,264,259.5
3.11800172265289,527,523,-4,-525,265.5,259.5
3.12015503875969,530,524,-6,-527,268,259
3.12230835486649,529,523,-6,-526,267.5,258.5
3.1244616709733,531,526,-5,-528.5,268,260.5
3.1266149870801,532,527,-5,-529.5,268.5,261
3.12876830318691,530,523,-7,-526.5,268.5,258
3.13092161929371,528,521,-7,-524.5,267.5,257
3.13307493540052,526,520,-6,-523,266,257
3.13522825150732,520,520,0,-520,260,260
3.13738156761413,518,520,2,-519,258,261
3.13953488372093,516,518,2,-517,257,260
3.14168819982774,514,519,5,-516.5,254.5,262
3.14384151593454,519,518,-1,-518.5,260,258.5
3.14599483204134,521,518,-3,-519.5,262,257.5
3.14814814814815,521,517,-4,-519,262.5,256.5
3.15030146425495,518,517,-1,-517.5,259.5,258
3.15245478036176,512,511,-1,-511.5,256.5,255
3.15460809646856,503,510,7,-506.5,248,258.5
3.15676141257537,500,509,9,-504.5,245.5,259
3.15891472868217,503,511,8,-507,247.5,259.5
3.16106804478897,504,509,5,-506.5,249.5,257
3.16322136089578,506,507,1,-506.5,252.5,254
3.16537467700258,505,504,-1,-504.5,253,251.5
3.16752799310939,506,501,-5,-503.5,255.5,248
3.16968130921619,503,504,1,-503.5,251,252.5
3.171834625323,502,502,0,-502,251,251
3.1739879414298,501,502,1,-501.5,250,251.5
3.17614125753661,497,500,3,-498.5,247,251.5
3.17829457364341,492,499,7,-495.5,242.5,253
3.18044788975022,488,496,8,-492,240,252
3.18260120585702,491,494,3,-492.5,244,248.5
3.18475452196382,496,493,-3,-494.5,249.5,245
3.18690783807063,495,493,-2,-494,248.5,245.5
3.18906115417743,496,494,-2,-495,249,246
3.19121447028424,497,495,-2,-496,249.5,246.5
3.19336778639104,494,495,1,-494.5,246.5,248
3.19552110249785,495,494,-1,-494.5,248,246.5
3.19767441860465,492,493,1,-492.5,245.5,247
3.19982773471146,494,491,-3,-492.5,248.5,244
3.20198105081826,496,491,-5,-493.5,250.5,243
3.20413436692506,499,491,-8,-495,253.5,241.5
3.20628768303187,497,490,-7,-493.5,252,241.5
3.20844099913867,496,492,-4,-494,250,244
3.21059431524548,496,494,-2,-495,249,246
3.21274763135228,493,492,-1,-492.5,247,245.5
3.21490094745909,494,493,-1,-493.5,247.5,246
3.21705426356589,496,494,-2,-495,249,246
3.2192075796727,497,491,-6,-494,251.5,242.5
3.2213608957795,500,491,-9,-495.5,254.5,241
3.22351421188631,502,493,-9,-497.5,255.5,242
3.22566752799311,502,495,-7,-498.5,254.5,244
3.22782084409991,499,495,-4,-497,251.5,245.5
3.22997416020672,495,493,-2,-494,248.5,245.5
3.23212747631352,492,495,3,-493.5,244.5,249
3.23428079242033,495,494,-1,-494.5,248,246.5
3.23643410852713,496,491,-5,-493.5,250.5,243
3.23858742463394,496,492,-4,-494,250,244
3.24074074074074,491,487,-4,-489,247.5,241.5
3.24289405684755,492,489,-3,-490.5,247.5,243
3.24504737295435,491,489,-2,-490,246.5,243.5
3.24720068906115,492,490,-2,-491,247,244
3.24935400516796,495,491,-4,-493,249.5,243.5
3.25150732127476,495,491,-4,-493,249.5,243.5
3.25366063738157,497,490,-7,-493.5,252,241.5
3.25581395348837,496,490,-6,-493,251,242
3.25796726959518,497,489,-8,-493,252.5,240.5
3.26012058570198,501,494,-7,-497.5,254,243.5
3.26227390180879,500,492,-8,-496,254,242
3.26442721791559,499,496,-3,-497.5,251,246.5
3.26658053402239,498,494,-4,-496,251,245
3.2687338501292,498,494,-4,-496,251,245
3.270887166236,497,494,-3,-495.5,250,245.5
3.27304048234281,499,492,-7,-495.5,253,242.5
3.27519379844961,498,491,-7,-494.5,252.5,242
3.27734711455642,498,493,-5,-495.5,251.5,244
3.27950043066322,499,495,-4,-497,251.5,245.5
3.28165374677003,498,494,-4,-496,251,245
3.28380706287683,501,494,-7,-497.5,254,243.5
3.28596037898363,501,497,-4,-499,252.5,246.5
3.28811369509044,502,498,-4,-500,253,247
3.29026701119724,501,495,-6,-498,253.5,244.5
3.29242032730405,504,495,-9,-499.5,256.5,243
3.29457364341085,503,493,-10,-498,256.5,241.5
3.29672695951766,505,497,-8,-501,256.5,244.5
3.29888027562446,505,497,-8,-501,256.5,244.5
3.30103359173127,508,499,-9,-503.5,258.5,245
3.30318690783807,505,499,-6,-502,255.5,246.5
3.30534022394488,508,501,-7,-504.5,257.5,247
3.30749354005168,509,499,-10,-504,259.5,244.5
3.30964685615848,510,501,-9,-505.5,259.5,246
3.31180017226529,511,500,-11,-505.5,261,244.5
3.31395348837209,510,501,-9,-505.5,259.5,246
3.3161068044789,511,502,-9,-506.5,260,246.5
3.3182601205857,516,506,-10,-511,263,248
3.32041343669251,519,508,-11,-513.5,265,248.5
3.32256675279931,522,510,-12,-516,267,249
3.32472006890612,519,509,-10,-514,264.5,249.5
3.32687338501292,520,509,-11,-514.5,265.5,249
3.32902670111972,520,507,-13,-513.5,266.5,247
3.33118001722653,521,509,-12,-515,266.5,248.5
3.33333333333333,518,509,-9,-513.5,263.5,250
3.33548664944014,512,509,-3,-510.5,257.5,253
3.33763996554694,508,506,-2,-507,255,252
3.33979328165375,506,507,1,-506.5,252.5,254
3.34194659776055,504,505,1,-504.5,251.5,253
3.34409991386736,504,503,-1,-503.5,252.5,251
3.34625322997416,506,501,-5,-503.5,255.5,248
3.34840654608096,506,499,-7,-502.5,256.5,246
3.35055986218777,505,502,-3,-503.5,254,249.5
3.35271317829457,503,502,-1,-502.5,252,250.5
3.35486649440138,503,502,-1,-502.5,252,250.5
3.35701981050818,504,502,-2,-503,253,250
3.35917312661499,498,500,2,-499,248,251
3.36132644272179,497,499,2,-498,247.5,250.5
3.3634797588286,495,495,0,-495,247.5,247.5
3.3656330749354,493,492,-1,-492.5,247,245.5
3.36778639104221,493,493,0,-493,246.5,246.5
3.36993970714901,490,494,4,-492,243,249
3.37209302325581,490,492,2,-491,244,247
3.37424633936262,492,493,1,-492.5,245.5,247
3.37639965546942,495,495,0,-495,247.5,247.5
3.37855297157623,495,494,-1,-494.5,248,246.5
3.38070628768303,497,494,-3,-495.5,250,245.5
3.38285960378984,498,492,-6,-495,252,243
3.38501291989664,493,491,-2,-492,247.5,244.5
3.38716623600345,488,492,4,-490,242,248
3.38931955211025,484,489,5,-486.5,239.5,247
3.39147286821705,485,488,3,-486.5,241,245.5
3.39362618432386,483,487,4,-485,239.5,245.5
3.39577950043066,484,486,2,-485,241,244
3.39793281653747,485,485,0,-485,242.5,242.5
3.40008613264427,487,483,-4,-485,245.5,239.5
3.40223944875108,489,483,-6,-486,247.5,238.5
3.40439276485788,489,485,-4,-487,246.5,240.5
3.40654608096469,484,485,1,-484.5,241.5,243
3.40869939707149,484,484,0,-484,242,242
3.41085271317829,488,485,-3,-486.5,245.5,241
3.4130060292851,489,486,-3,-487.5,246,241.5
3.4151593453919,487,485,-2,-486,244.5,241.5
3.41731266149871,485,482,-3,-483.5,244,239.5
3.41946597760551,486,480,-6,-483,246,237
3.42161929371232,488,481,-7,-484.5,247.5,237
3.42377260981912,487,485,-2,-486,244.5,241.5
3.42592592592593,485,481,-4,-483,244.5,238.5
3.42807924203273,483,483,0,-483,241.5,241.5
3.43023255813954,491,486,-5,-488.5,248,240.5
3.43238587424634,503,493,-10,-498,256.5,241.5
3.43453919035314,522,497,-25,-509.5,273.5,236
3.43669250645995,544,507,-37,-525.5,290.5,235
3.43884582256675,571,521,-50,-546,310.5,235.5
3.44099913867356,592,537,-55,-564.5,323.5,241
3.44315245478036,613,547,-66,-580,339.5,240.5
3.44530577088717,632,563,-69,-597.5,350.5,247
3.44745908699397,638,571,-67,-604.5,352.5,252
3.44961240310078,634,576,-58,-605,346,259
3.45176571920758,622,574,-48,-598,335,263
3.45391903531438,599,567,-32,-583,315.5,267.5
3.45607235142119,572,558,-14,-565,293,272
3.45822566752799,550,553,3,-551.5,273.5,278
3.4603789836348,529,544,15,-536.5,257,279.5
3.4625322997416,511,533,22,-522,244.5,277.5
3.46468561584841,497,526,29,-511.5,234,277.5
3.46683893195521,493,522,29,-507.5,232,275.5
3.46899224806202,492,518,26,-505,233,272
3.47114556416882,493,512,19,-502.5,237,265.5
3.47329888027562,493,508,15,-500.5,239,261.5
3.47545219638243,495,509,14,-502,240.5,261.5
3.47760551248923,496,509,13,-502.5,241.5,261
3.47975882859604,498,508,10,-503,244,259
3.48191214470284,495,508,13,-501.5,241,260.5
3.48406546080965,495,505,10,-500,242.5,257.5
3.48621877691645,493,502,9,-497.5,242,255.5
3.48837209302326,492,499,7,-495.5,242.5,253
3.49052540913006,493,496,3,-494.5,245,249.5
3.49267872523686,494,497,3,-495.5,245.5,250
3.49483204134367,494,497,3,-495.5,245.5,250
3.49698535745047,490,495,5,-492.5,242.5,250
3.49913867355728,488,494,6,-491,241,250
3.50129198966408,489,496,7,-492.5,241,251.5
3.50344530577089,487,495,8,-491,239.5,251.5
3.50559862187769,485,488,3,-486.5,241,245.5
3.5077519379845,488,488,0,-488,244,244
3.5099052540913,489,489,0,-489,244.5,244.5
3.51205857019811,492,490,-2,-491,247,244
3.51421188630491,489,489,0,-489,244.5,244.5
3.51636520241171,488,488,0,-488,244,244
3.51851851851852,485,488,3,-486.5,241,245.5
3.52067183462532,485,488,3,-486.5,241,245.5
3.52282515073213,486,485,-1,-485.5,243.5,242
3.52497846683893,485,483,-2,-484,243.5,240.5
3.52713178294574,487,482,-5,-484.5,246,238.5
3.52928509905254,487,485,-2,-486,244.5,241.5
3.53143841515935,492,487,-5,-489.5,248.5,241
3.53359173126615,493,488,-5,-490.5,249,241.5
3.53574504737295,497,490,-7,-493.5,252,241.5
3.53789836347976,498,493,-5,-495.5,251.5,244
3.54005167958656,499,491,-8,-495,253.5,241.5
3.54220499569337,498,489,-9,-493.5,253.5,240
3.54435831180017,496,487,-9,-491.5,252.5,239
3.54651162790698,494,486,-8,-490,251,239
3.54866494401378,494,488,-6,-491,250,241
3.55081826012059,496,490,-6,-493,251,242
3.55297157622739,497,490,-7,-493.5,252,241.5
3.55512489233419,498,494,-4,-496,251,245
3.557278208441,496,495,-1,-495.5,248.5,247
3.5594315245478,496,490,-6,-493,251,242
3.56158484065461,497,490,-7,-493.5,252,241.5
3.56373815676141,498,490,-8,-494,253,241
3.56589147286822,504,496,-8,-500,256,244
3.56804478897502,504,494,-10,-499,257,242
3.57019810508183,502,495,-7,-498.5,254.5,244
3.57235142118863,499,496,-3,-497.5,251,246.5
3.57450473729544,497,497,0,-497,248.5,248.5
3.57665805340224,501,493,-8,-497,254.5,242.5
3.57881136950904,504,494,-10,-499,257,242
3.58096468561585,505,495,-10,-500,257.5,242.5
3.58311800172265,501,494,-7,-497.5,254,243.5
3.58527131782946,502,496,-6,-499,254,245
3.58742463393626,503,498,-5,-500.5,254,246.5
3.58957795004307,510,501,-9,-505.5,259.5,246
3.59173126614987,513,504,-9,-508.5,261,247.5
3.59388458225668,513,503,-10,-508,261.5,246.5
3.59603789836348,511,499,-12,-505,261.5,243.5
3.59819121447028,513,500,-13,-506.5,263,243.5
3.60034453057709,512,502,-10,-507,261,246
3.60249784668389,514,504,-10,-509,262,247
3.6046511627907,515,505,-10,-510,262.5,247.5
3.6068044788975,516,505,-11,-510.5,263.5,247
3.60895779500431,517,509,-8,-513,262.5,250.5
3.61111111111111,520,509,-11,-514.5,265.5,249
3.61326442721792,519,507,-12,-513,265.5,247.5
3.61541774332472,517,506,-11,-511.5,264,247.5
3.61757105943152,519,508,-11,-513.5,265,248.5
3.61972437553833,520,510,-10,-515,265,250
3.62187769164513,520,510,-10,-515,265,250
3.62403100775194,517,512,-5,-514.5,261,253.5
3.62618432385874,517,511,-6,-514,261.5,252.5
3.62833763996555,518,511,-7,-514.5,262.5,252
3.63049095607235,522,512,-10,-517,266,251
3.63264427217916,526,513,-13,-519.5,269.5,250
3.63479758828596,529,515,-14,-522,271.5,250.5
3.63695090439277,530,515,-15,-522.5,272.5,250
3.63910422049957,528,517,-11,-522.5,269.5,253
3.64125753660637,525,518,-7,-521.5,266,255.5
3.64341085271318,526,519,-7,-522.5,266.5,256
3.64556416881998,523,520,-3,-521.5,263,258.5
3.64771748492679,524,517,-7,-520.5,265.5,255
3.64987080103359,523,517,-6,-520,264.5,255.5
3.6520241171404,528,518,-10,-523,269,254
3.6541774332472,531,519,-12,-525,271.5,253.5
3.65633074935401,534,523,-11,-528.5,272.5,256
3.65848406546081,534,524,-10,-529,272,257
3.66063738156761,537,527,-10,-532,273.5,258.5
3.66279069767442,535,529,-6,-532,270.5,261.5
3.66494401378122,535,527,-8,-531,271.5,259.5
3.66709732988803,529,523,-6,-526,267.5,258.5
3.66925064599483,527,521,-6,-524,266.5,257.5
3.67140396210164,523,522,-1,-522.5,262,260.5
3.67355727820844,523,521,-2,-522,262.5,259.5
3.67571059431525,519,519,0,-519,259.5,259.5
3.67786391042205,517,518,1,-517.5,258,259.5
3.68001722652885,517,521,4,-519,256.5,262.5
3.68217054263566,523,521,-2,-522,262.5,259.5
3.68432385874246,525,519,-6,-522,265.5,256.5
3.68647717484927,531,520,-11,-525.5,271,254.5
3.68863049095607,531,521,-10,-526,270.5,255.5
3.69078380706288,528,520,-8,-524,268,256
3.69293712316968,523,519,-4,-521,263.5,257.5
3.69509043927649,521,520,-1,-520.5,261,259.5
3.69724375538329,519,520,1,-519.5,259,260.5
3.6993970714901,517,517,0,-517,258.5,258.5
3.7015503875969,518,517,-1,-517.5,259.5,258
3.7037037037037,511,512,1,-511.5,255,256.5
3.70585701981051,502,509,7,-505.5,247.5,258
3.70801033591731,496,503,7,-499.5,244.5,255
3.71016365202412,496,504,8,-500,244,256
3.71231696813092,501,505,4,-503,248.5,254.5
3.71447028423773,508,508,0,-508,254,254
3.71662360034453,508,509,1,-508.5,253.5,255
3.71877691645134,508,507,-1,-507.5,254.5,253
3.72093023255814,501,504,3,-502.5,249,253.5
3.72308354866494,499,500,1,-499.5,249,250.5
3.72523686477175,499,498,-1,-498.5,250,248.5
3.72739018087855,496,499,3,-497.5,246.5,251
3.72954349698536,495,497,2,-496,246.5,249.5
3.73169681309216,495,499,4,-497,245.5,251.5
3.73385012919897,496,501,5,-498.5,245.5,253
3.73600344530577,495,500,5,-497.5,245,252.5
3.73815676141258,498,497,-1,-497.5,249.5,248
3.74031007751938,495,494,-1,-494.5,248,246.5
3.74246339362618,497,495,-2,-496,249.5,246.5
3.74461670973299,496,493,-3,-494.5,249.5,245
3.74677002583979,496,493,-3,-494.5,249.5,245
3.7489233419466,492,494,2,-493,245,248
3.7510766580534,493,495,2,-494,245.5,248.5
3.75322997416021,494,494,0,-494,247,247
3.75538329026701,497,494,-3,-495.5,250,245.5
3.75753660637382,499,494,-5,-496.5,252,244.5
3.75968992248062,497,492,-5,-494.5,251,243.5
3.76184323858742,498,491,-7,-494.5,252.5,242
3.76399655469423,500,495,-5,-497.5,252.5,245
3.76614987080103,499,493,-6,-496,252.5,243.5
3.76830318690784,496,495,-1,-495.5,248.5,247
3.77045650301464,497,494,-3,-495.5,250,245.5
3.77260981912145,497,493,-4,-495,250.5,244.5
3.77476313522825,498,493,-5,-495.5,251.5,244
3.77691645133506,494,491,-3,-492.5,248.5,244
3.77906976744186,496,491,-5,-493.5,250.5,243
3.78122308354867,494,491,-3,-492.5,248.5,244
3.78337639965547,494,491,-3,-492.5,248.5,244
3.78552971576227,495,493,-2,-494,248.5,245.5
3.78768303186908,494,491,-3,-492.5,248.5,244
3.78983634797588,497,493,-4,-495,250.5,244.5
3.79198966408269,504,495,-9,-499.5,256.5,243
3.79414298018949,506,496,-10,-501,258,243
3.7962962962963,506,493,-13,-499.5,259.5,240
3.7984496124031,506,495,-11,-500.5,258.5,242
3.80060292850991,505,496,-9,-500.5,257,243.5
3.80275624461671,504,499,-5,-501.5,254.5,247
3.80490956072351,504,497,-7,-500.5,255.5,245
3.80706287683032,501,499,-2,-500,251.5,248.5
3.80921619293712,503,497,-6,-500,254.5,245.5
3.81136950904393,501,495,-6,-498,253.5,244.5
3.81352282515073,504,495,-9,-499.5,256.5,243
3.81567614125754,502,496,-6,-499,254,245
3.81782945736434,507,498,-9,-502.5,258,244.5
3.81998277347115,510,501,-9,-505.5,259.5,246
3.82213608957795,512,505,-7,-508.5,259.5,249
3.82428940568475,511,504,-7,-507.5,259,248.5
3.82644272179156,512,505,-7,-508.5,259.5,249
3.82859603789836,512,504,-8,-508,260,248
3.83074935400517,510,503,-7,-506.5,258.5,248
3.83290267011197,507,501,-6,-504,256.5,247.5
3.83505598621878,505,502,-3,-503.5,254,249.5
3.83720930232558,505,503,-2,-504,253.5,250.5
3.83936261843239,510,505,-5,-507.5,257.5,250
3.84151593453919,509,505,-4,-507,256.5,250.5
3.84366925064599,507,505,-2,-506,254.5,251.5
3.8458225667528,507,503,-4,-505,255.5,249.5
3.8479758828596,510,502,-8,-506,259,247
3.85012919896641,514,502,-12,-508,263,245
3.85228251507321,517,505,-12,-511,264.5,246.5
3.85443583118002,520,507,-13,-513.5,266.5,247
3.85658914728682,524,510,-14,-517,269,248
3.85874246339363,520,510,-10,-515,265,250
3.86089577950043,517,509,-8,-513,262.5,250.5
3.86304909560724,516,509,-7,-512.5,261.5,251
3.86520241171404,515,510,-5,-512.5,260,252.5
3.86735572782084,512,506,-6,-509,259,250
3.86950904392765,514,506,-8,-510,261,249
3.87166236003445,513,508,-5,-510.5,259,251.5
3.87381567614126,514,510,-4,-512,259,253
3.87596899224806,513,509,-4,-511,258.5,252.5
3.87812230835487,511,509,-2,-510,256.5,253.5
3.88027562446167,513,511,-2,-512,257.5,254.5
3.88242894056848,514,511,-3,-512.5,258.5,254
3.88458225667528,516,508,-8,-512,262,250
3.88673557278208,516,508,-8,-512,262,250
3.88888888888889,514,508,-6,-511,260,251
3.89104220499569,512,509,-3,-510.5,257.5,253
3.8931955211025,509,506,-3,-507.5,256,251.5
3.8953488372093,510,508,-2,-509,256,253
3.89750215331611,508,507,-1,-507.5,254.5,253
3.89965546942291,506,504,-2,-505,254,251
3.90180878552972,505,499,-6,-502,255.5,246.5
3.90396210163652,502,501,-1,-501.5,251.5,250
3.90611541774333,498,498,0,-498,249,249
3.90826873385013,492,498,6,-495,243,252
3.91042204995693,493,497,4,-495,244.5,250.5
3.91257536606374,494,497,3,-495.5,245.5,250
3.91472868217054,497,497,0,-497,248.5,248.5
3.91688199827735,497,494,-3,-495.5,250,245.5
3.91903531438415,495,494,-1,-494.5,248,246.5
3.92118863049096,492,492,0,-492,246,246
3.92334194659776,492,490,-2,-491,247,244
3.92549526270457,496,493,-3,-494.5,249.5,245
3.92764857881137,494,494,0,-494,247,247
3.92980189491817,492,493,1,-492.5,245.5,247
3.93195521102498,491,494,3,-492.5,244,248.5
3.93410852713178,492,492,0,-492,246,246
3.93626184323859,492,490,-2,-491,247,244
3.93841515934539,488,487,-1,-487.5,244.5,243
3.9405684754522,486,487,1,-486.5,242.5,244
3.942721791559,485,487,2,-486,241.5,244.5
3.94487510766581,485,489,4,-487,240.5,246.5
3.94702842377261,491,488,-3,-489.5,247,242.5
3.94918173987941,494,491,-3,-492.5,248.5,244
3.95133505598622,494,491,-3,-492.5,248.5,244
3.95348837209302,492,489,-3,-490.5,247.5,243
3.95564168819983,489,484,-5,-486.5,247,239.5
3.95779500430663,485,484,-1,-484.5,243,241.5
3.95994832041344,479,481,2,-480,238.5,241.5
3.96210163652024,475,479,4,-477,235.5,241.5
3.96425495262705,478,481,3,-479.5,237.5,242
3.96640826873385,482,482,0,-482,241,241
3.96856158484065,491,486,-5,-488.5,248,240.5
3.97071490094746,493,487,-6,-490,249.5,240.5
3.97286821705426,502,488,-14,-495,258,237
3.97502153316107,515,494,-21,-504.5,268,236.5
3.97717484926787,531,502,-29,-516.5,280,236.5
3.97932816537468,550,513,-37,-531.5,293.5,238
3.98148148148148,570,526,-44,-548,307,241
3.98363479758829,596,540,-56,-568,326,242
3.98578811369509,618,554,-64,-586,341,245
3.9879414298019,637,568,-69,-602.5,353,249.5
3.9900947459087,645,576,-69,-610.5,357,253.5
3.9922480620155,641,579,-62,-610,351.5,258.5
3.99440137812231,628,577,-51,-602.5,339.5,263
3.99655469422911,606,575,-31,-590.5,318.5,272
3.99870801033592,580,567,-13,-573.5,296.5,277
4.00086132644272,558,560,2,-559,278,281
4.00301464254953,537,551,14,-544,261.5,282.5
4.00516795865633,517,542,25,-529.5,246,283.5
4.00732127476314,505,534,29,-519.5,238,281.5
4.00947459086994,496,522,26,-509,235,274
4.01162790697674,488,515,27,-501.5,230.5,271
4.01378122308355,489,514,25,-501.5,232,269.5
4.01593453919035,493,513,20,-503,236.5,266.5
4.01808785529716,500,513,13,-506.5,243.5,263
4.02024117140396,505,514,9,-509.5,248,261.5
4.02239448751077,513,517,4,-515,254.5,260.5
4.02454780361757,514,515,1,-514.5,256.5,258
4.02670111972438,513,513,0,-513,256.5,256.5
4.02885443583118,509,510,1,-509.5,254,255.5
4.03100775193798,503,508,5,-505.5,249,256.5
4.03316106804479,497,506,9,-501.5,244,257.5
4.03531438415159,492,503,11,-497.5,240.5,257
4.0374677002584,488,501,13,-494.5,237.5,257
4.0396210163652,484,498,14,-491,235,256
4.04177433247201,475,494,19,-484.5,228,256.5
4.04392764857881,478,489,11,-483.5,233.5,250
4.04608096468562,483,488,5,-485.5,239,246.5
4.04823428079242,490,488,-2,-489,246,243
4.05038759689922,492,492,0,-492,246,246
4.05254091300603,492,491,-1,-491.5,246.5,245
4.05469422911283,490,491,1,-490.5,244.5,246
4.05684754521964,486,492,6,-489,240,249
4.05900086132644,488,492,4,-490,242,248
4.06115417743325,488,487,-1,-487.5,244.5,243
4.06330749354005,486,485,-1,-485.5,243.5,242
4.06546080964686,488,484,-4,-486,246,240
4.06761412575366,490,488,-2,-489,246,243
4.06976744186047,496,489,-7,-492.5,251.5,241
4.07192075796727,501,492,-9,-496.5,255,241.5
4.07407407407407,501,493,-8,-497,254.5,242.5
4.07622739018088,498,494,-4,-496,251,245
4.07838070628768,498,492,-6,-495,252,243
4.08053402239449,492,487,-5,-489.5,248.5,241
4.08268733850129,490,485,-5,-487.5,247.5,240
4.0848406546081,486,486,0,-486,243,243
4.0869939707149,487,487,0,-487,243.5,243.5
4.08914728682171,490,486,-4,-488,247,241
4.09130060292851,494,488,-6,-491,250,241
4.09345391903531,502,493,-9,-497.5,255.5,242
4.09560723514212,503,495,-8,-499,255.5,243.5
4.09776055124892,502,493,-9,-497.5,255.5,242
4.09991386735573,504,492,-12,-498,258,240
4.10206718346253,504,493,-11,-498.5,257.5,241
4.10422049956934,503,497,-6,-500,254.5,245.5
4.10637381567614,499,493,-6,-496,252.5,243.5
4.10852713178295,501,495,-6,-498,253.5,244.5
4.11068044788975,501,495,-6,-498,253.5,244.5
4.11283376399656,501,497,-4,-499,252.5,246.5
4.11498708010336,501,496,-5,-498.5,253,245.5
4.11714039621016,503,494,-9,-498.5,256,242.5
4.11929371231697,503,494,-9,-498.5,256,242.5
4.12144702842377,505,498,-7,-501.5,256,245.5
4.12360034453058,506,497,-9,-501.5,257.5,244
4.12575366063738,507,498,-9,-502.5,258,244.5
4.12790697674419,508,499,-9,-503.5,258.5,245
4.13006029285099,506,501,-5,-503.5,255.5,248
4.1322136089578,509,501,-8,-505,258.5,246.5
4.1343669250646,511,500,-11,-505.5,261,244.5
4.1365202411714,512,499,-13,-505.5,262.5,243
4.13867355727821,516,503,-13,-509.5,264.5,245
4.14082687338501,516,503,-13,-509.5,264.5,245
4.14298018949182,518,506,-12,-512,265,247
4.14513350559862,518,508,-10,-513,264,249
4.14728682170543,517,511,-6,-514,261.5,252.5
4.14944013781223,522,511,-11,-516.5,266.5,250
4.15159345391904,522,509,-13,-515.5,267.5,248
4.15374677002584,522,509,-13,-515.5,267.5,248
4.15590008613264,523,512,-11,-517.5,267,250.5
4.15805340223945,521,512,-9,-516.5,265,251.5
4.16020671834625,523,513,-10,-518,266.5,251.5
4.16236003445306,522,514,-8,-518,265,253
4.16451335055986,520,515,-5,-517.5,262.5,255
4.16666666666667,520,514,-6,-517,263,254
4.16881998277347,524,512,-12,-518,268,250
4.17097329888028,526,512,-14,-519,270,249
4.17312661498708,526,512,-14,-519,270,249
4.17527993109388,528,516,-12,-522,270,252
4.17743324720069,528,516,-12,-522,270,252
4.17958656330749,529,520,-9,-524.5,269,255.5
4.1817398794143,527,521,-6,-524,266.5,257.5
4.1838931955211,524,519,-5,-521.5,264.5,257
4.18604651162791,528,519,-9,-523.5,268.5,255
4.18819982773471,531,520,-11,-525.5,271,254.5
4.19035314384152,533,520,-13,-526.5,273,253.5
4.19250645994832,537,523,-14,-530,275.5,254.5
4.19465977605512,537,527,-10,-532,273.5,258.5
4.19681309216193,539,528,-11,-533.5,275,258.5
4.19896640826873,536,527,-9,-531.5,272.5,259
4.20111972437554,535,531,-4,-533,269.5,263.5
4.20327304048234,537,529,-8,-533,272.5,260.5
4.20542635658915,533,527,-6,-530,269.5,260.5
4.20757967269595,532,525,-7,-528.5,269.5,259
4.20973298880276,531,526,-5,-528.5,268,260.5
4.21188630490956,532,526,-6,-529,269,260
4.21403962101637,533,527,-6,-530,269.5,260.5
4.21619293712317,531,526,-5,-528.5,268,260.5
4.21834625322997,530,528,-2,-529,266,263
4.22049956933678,530,530,0,-530,265,265
4.22265288544358,529,525,-4,-527,266.5,260.5
4.22480620155039,531,526,-5,-528.5,268,260.5
4.22695951765719,532,523,-9,-527.5,270.5,257
4.229112833764,530,524,-6,-527,268,259
4.2312661498708,526,523,-3,-524.5,264.5,260
4.23341946597761,524,526,2,-525,261,264
4.23557278208441,519,521,2,-520,258.5,261.5
4.23772609819121,518,520,2,-519,258,261
4.23987941429802,516,518,2,-517,257,260
4.24203273040482,515,519,4,-517,255.5,261.5
4.24418604651163,513,515,2,-514,255.5,258.5
4.24633936261843,512,513,1,-512.5,255.5,257
4.24849267872524,512,513,1,-512.5,255.5,257
4.25064599483204,510,512,2,-511,254,257
4.25279931093885,511,514,3,-512.5,254,258.5
4.25495262704565,511,512,1,-511.5,255,256.5
4.25710594315245,507,512,5,-509.5,251,258.5
4.25925925925926,503,505,2,-504,250.5,253.5
4.26141257536606,496,503,7,-499.5,244.5,255
4.26356589147287,499,502,3,-500.5,248,252.5
4.26571920757967,505,504,-1,-504.5,253,251.5
4.26787252368648,504,505,1,-504.5,251.5,253
4.27002583979328,508,506,-2,-507,255,252
4.27217915590009,507,505,-2,-506,254.5,251.5
4.27433247200689,505,503,-2,-504,253.5,250.5
4.2764857881137,501,502,1,-501.5,250,251.5
4.2786391042205,494,498,4,-496,245,251
4.2807924203273,493,495,2,-494,245.5,248.5
4.28294573643411,489,495,6,-492,241.5,250.5
4.28509905254091,493,495,2,-494,245.5,248.5
4.28725236864772,498,498,0,-498,249,249
4.28940568475452,502,498,-4,-500,253,247
4.29155900086133,501,497,-4,-499,252.5,246.5
4.29371231696813,502,499,-3,-500.5,252.5,248
4.29586563307494,498,496,-2,-497,250,247
4.29801894918174,497,493,-4,-495,250.5,244.5
4.30017226528854,492,493,1,-492.5,245.5,247
4.30232558139535,492,492,0,-492,246,246
4.30447889750215,493,494,1,-493.5,246,247.5
4.30663221360896,495,492,-3,-493.5,249,244.5
4.30878552971576,500,497,-3,-498.5,251.5,247
4.31093884582257,506,499,-7,-502.5,256.5,246
4.31309216192937,505,499,-6,-502,255.5,246.5
4.31524547803618,506,496,-10,-501,258,243
4.31739879414298,503,495,-8,-499,255.5,243.5
4.31955211024979,501,497,-4,-499,252.5,246.5
4.32170542635659,502,497,-5,-499.5,253.5,246
4.32385874246339,500,497,-3,-498.5,251.5,247
4.3260120585702,497,495,-2,-496,249.5,246.5
4.328165374677,498,497,-1,-497.5,249.5,248
4.33031869078381,498,497,-1,-497.5,249.5,248
4.33247200689061,500,493,-7,-496.5,253.5,243
4.33462532299742,505,495,-10,-500,257.5,242.5
4.33677863910422,504,498,-6,-501,255,246
4.33893195521103,506,498,-8,-502,257,245
4.34108527131783,503,500,-3,-501.5,253,248.5
4.34323858742463,500,497,-3,-498.5,251.5,247
4.34539190353144,503,497,-6,-500,254.5,245.5
4.34754521963824,501,499,-2,-500,251.5,248.5
4.34969853574505,501,495,-6,-498,253.5,244.5
4.35185185185185,502,495,-7,-498.5,254.5,244
4.35400516795866,502,493,-9,-497.5,255.5,242
4.35615848406546,498,496,-2,-497,250,247
4.35831180017227,500,497,-3,-498.5,251.5,247
4.36046511627907,504,499,-5,-501.5,254.5,247
4.36261843238587,505,500,-5,-502.5,255,247.5
4.36477174849268,506,501,-5,-503.5,255.5,248
4.36692506459948,508,501,-7,-504.5,257.5,247
4.36907838070629,510,500,-10,-505,260,245
4.37123169681309,512,501,-11,-506.5,261.5,245
4.3733850129199,512,502,-10,-507,261,246
4.3755383290267,512,505,-7,-508.5,259.5,249
4.37769164513351,509,502,-7,-505.5,258,247.5
4.37984496124031,508,504,-4,-506,256,250
4.38199827734711,511,507,-4,-509,257.5,251.5
4.38415159345392,510,506,-4,-508,257,251
4.38630490956072,513,503,-10,-508,261.5,246.5
4.38845822566753,513,503,-10,-508,261.5,246.5
4.39061154177433,514,505,-9,-509.5,261.5,248
4.39276485788114,512,505,-7,-508.5,259.5,249
4.39491817398794,514,507,-7,-510.5,260.5,250
4.39707149009475,516,510,-6,-513,261,252
4.39922480620155,520,512,-8,-516,264,252
4.40137812230835,520,512,-8,-516,264,252
4.40353143841516,516,509,-7,-512.5,261.5,251
4.40568475452196,514,507,-7,-510.5,260.5,250
4.40783807062877,514,507,-7,-510.5,260.5,250
4.40999138673557,518,510,-8,-514,263,251
4.41214470284238,516,510,-6,-513,261,252
4.41429801894918,517,513,-4,-515,260.5,254.5
4.41645133505599,517,512,-5,-514.5,261,253.5
4.41860465116279,517,514,-3,-515.5,260,255.5
4.4207579672696,515,509,-6,-512,260.5,251.5
4.4229112833764,513,508,-5,-510.5,259,251.5
4.4250645994832,511,506,-5,-508.5,258,250.5
4.42721791559001,513,506,-7,-509.5,260,249.5
4.42937123169681,509,509,0,-509,254.5,254.5
4.43152454780362,511,508,-3,-509.5,257,252.5
4.43367786391042,507,508,1,-507.5,253,254.5
4.43583118001723,506,508,2,-507,252,255
4.43798449612403,502,503,1,-502.5,250.5,252
4.44013781223084,498,499,1,-498.5,248.5,250
4.44229112833764,495,496,1,-495.5,247,248.5
4.44444444444444,490,494,4,-492,243,249
4.44659776055125,490,497,7,-493.5,241.5,252
4.44875107665805,490,494,4,-492,243,249
4.45090439276486,494,495,1,-494.5,246.5,248
4.45305770887166,495,496,1,-495.5,247,248.5
4.45521102497847,494,494,0,-494,247,247
4.45736434108527,488,489,1,-488.5,243.5,245
4.45951765719208,484,485,1,-484.5,241.5,243
4.46167097329888,484,488,4,-486,240,246
4.46382428940568,492,492,0,-492,246,246
4.46597760551249,492,490,-2,-491,247,244
4.46813092161929,494,491,-3,-492.5,248.5,244
4.4702842377261,494,491,-3,-492.5,248.5,244
4.4724375538329,495,492,-3,-493.5,249,244.5
4.47459086993971,497,490,-7,-493.5,252,241.5
4.47674418604651,493,489,-4,-491,248.5,242.5
4.47889750215332,490,488,-2,-489,246,243
4.48105081826012,491,489,-2,-490,246.5,243.5
4.48320413436693,489,489,0,-489,244.5,244.5
4.48535745047373,490,488,-2,-489,246,243
4.48751076658053,488,488,0,-488,244,244
4.48966408268734,487,490,3,-488.5,242,246.5
4.49181739879414,482,485,3,-483.5,239.5,244
4.49397071490095,481,480,-1,-480.5,241,239.5
4.49612403100775,479,479,0,-479,239.5,239.5
4.49827734711456,483,483,0,-483,241.5,241.5
4.50043066322136,484,482,-2,-483,243,240
4.50258397932817,484,482,-2,-483,243,240
4.50473729543497,487,484,-3,-485.5,245,240.5
4.50689061154177,488,486,-2,-487,245,242
4.50904392764858,497,489,-8,-493,252.5,240.5
4.51119724375538,511,490,-21,-500.5,266,234.5
4.51335055986219,528,499,-29,-513.5,278.5,235
4.51550387596899,547,508,-39,-527.5,293,234.5
4.5176571920758,562,519,-43,-540.5,302.5,238
4.5198105081826,585,533,-52,-559,318.5,240.5
4.52196382428941,608,547,-61,-577.5,334.5,243
4.52411714039621,629,563,-66,-596,347.5,248.5
4.52627045650302,637,572,-65,-604.5,351,253.5
4.52842377260982,632,574,-58,-603,345,258
4.53057708871662,617,571,-46,-594,331.5,262.5
4.53273040482343,594,566,-28,-580,311,269
4.53488372093023,570,560,-10,-565,290,275
4.53703703703704,544,550,6,-547,269,278
4.53919035314384,527,542,15,-534.5,256,278.5
4.54134366925065,509,534,25,-521.5,242,279.5
4.54349698535745,496,527,31,-511.5,232.5,279
4.54565030146426,485,515,30,-500,227.5,272.5
4.54780361757106,481,510,29,-495.5,226,269.5
4.54995693367786,484,507,23,-495.5,230.5,265
4.55211024978467,486,507,21,-496.5,232.5,264
4.55426356589147,494,507,13,-500.5,240.5,260
4.55641688199828,502,509,7,-505.5,247.5,258
4.55857019810508,508,511,3,-509.5,252.5,257
4.56072351421189,511,514,3,-512.5,254,258.5
4.56287683031869,507,510,3,-508.5,252,256.5
4.5650301464255,502,505,3,-503.5,249.5,254
4.5671834625323,498,502,4,-500,247,253
4.5693367786391,497,501,4,-499,246.5,252.5
4.57149009474591,494,500,6,-497,244,253
4.57364341085271,488,498,10,-493,239,254
4.57579672695952,486,495,9,-490.5,238.5,252
4.57795004306632,487,495,8,-491,239.5,251.5
4.58010335917313,487,494,7,-490.5,240,250.5
4.58225667527993,490,493,3,-491.5,243.5,248
4.58440999138674,490,490,0,-490,245,245
4.58656330749354,492,490,-2,-491,247,244
4.58871662360034,494,492,-2,-493,248,245
4.59086993970715,491,491,0,-491,245.5,245.5
4.59302325581395,493,491,-2,-492,247.5,244.5
4.59517657192076,489,493,4,-491,242.5,248.5
4.59732988802756,491,491,0,-491,245.5,245.5
4.59948320413437,488,487,-1,-487.5,244.5,243
4.60163652024117,488,486,-2,-487,245,242
4.60378983634798,490,486,-4,-488,247,241
4.60594315245478,492,488,-4,-490,248,242
4.60809646856158,494,488,-6,-491,250,241
4.61024978466839,493,488,-5,-490.5,249,241.5
4.61240310077519,491,488,-3,-489.5,247,242.5
4.614556416882,489,488,-1,-488.5,245,243.5
4.6167097329888,487,486,-1,-486.5,244,242.5
4.61886304909561,487,484,-3,-485.5,245,240.5
4.62101636520241,493,486,-7,-489.5,250,239.5
4.62316968130922,497,487,-10,-492,253.5,238.5
4.62532299741602,497,488,-9,-492.5,253,239.5
4.62747631352283,494,488,-6,-491,250,241
4.62962962962963,492,488,-4,-490,248,242
4.63178294573643,492,489,-3,-490.5,247.5,243
4.63393626184324,494,490,-4,-492,249,243
4.63608957795004,498,492,-6,-495,252,243
4.63824289405685,503,490,-13,-496.5,258,238.5
4.64039621016365,506,494,-12,-500,259,241
4.64254952627046,509,496,-13,-502.5,261,241.5
4.64470284237726,511,499,-12,-505,261.5,243.5
4.64685615848407,510,498,-12,-504,261,243
4.64900947459087,506,500,-6,-503,256,247
4.65116279069767,505,499,-6,-502,255.5,246.5
4.65331610680448,505,498,-7,-501.5,256,245.5
4.65546942291128,504,495,-9,-499.5,256.5,243
4.65762273901809,505,495,-10,-500,257.5,242.5
4.65977605512489,508,498,-10,-503,259,244
4.6619293712317,508,500,-8,-504,258,246
4.6640826873385,509,501,-8,-505,258.5,246.5
4.66623600344531,509,502,-7,-505.5,258,247.5
4.66838931955211,513,504,-9,-508.5,261,247.5
4.67054263565892,511,502,-9,-506.5,260,246.5
4.67269595176572,510,501,-9,-505.5,259.5,246
4.67484926787252,513,502,-11,-507.5,262,245.5
4.67700258397933,516,502,-14,-509,265,244
4.67915590008613,516,505,-11,-510.5,263.5,247
4.68130921619294,516,506,-10,-511,263,248
4.68346253229974,517,506,-11,-511.5,264,247.5
4.68561584840655,518,508,-10,-513,264,249
4.68776916451335,516,509,-7,-512.5,261.5,251
4.68992248062016,518,508,-10,-513,264,249
4.69207579672696,522,507,-15,-514.5,268.5,246
4.69422911283376,525,510,-15,-517.5,270,247.5
4.69638242894057,526,513,-13,-519.5,269.5,250
4.69853574504737,526,515,-11,-520.5,268.5,252
4.70068906115418,525,516,-9,-520.5,267,253.5
4.70284237726098,527,517,-10,-522,268.5,253.5
4.70499569336779,527,518,-9,-522.5,268,254.5
4.70714900947459,525,517,-8,-521,266.5,254.5
4.7093023255814,528,516,-12,-522,270,252
4.7114556416882,528,516,-12,-522,270,252
4.713608957795,531,519,-12,-525,271.5,253.5
4.71576227390181,534,521,-13,-527.5,273.5,254
4.71791559000861,534,521,-13,-527.5,273.5,254
4.72006890611542,533,523,-10,-528,271.5,256.5
4.72222222222222,534,524,-10,-529,272,257
4.72437553832903,533,522,-11,-527.5,272,255.5
4.72652885443583,532,520,-12,-526,272,254
4.72868217054264,532,523,-9,-527.5,270.5,257
4.73083548664944,535,522,-13,-528.5,274,254.5
4.73298880275625,531,521,-10,-526,270.5,255.5
4.73514211886305,528,525,-3,-526.5,265.5,261
4.73729543496985,531,525,-6,-528,268.5,259.5
4.73944875107666,528,523,-5,-525.5,266.5,259
4.74160206718346,532,525,-7,-528.5,269.5,259
4.74375538329027,533,524,-9,-528.5,271,257.5
4.74590869939707,533,523,-10,-528,271.5,256.5
4.74806201550388,532,523,-9,-527.5,270.5,257
4.75021533161068,528,522,-6,-525,267,258
4.75236864771749,526,522,-4,-524,265,259
4.75452196382429,526,524,-2,-525,264,261
4.75667527993109,525,523,-2,-524,263.5,260.5
4.7588285960379,527,524,-3,-525.5,265,260.5
4.7609819121447,530,524,-6,-527,268,259
4.76313522825151,527,523,-4,-525,265.5,259.5
4.76528854435831,526,519,-7,-522.5,266.5,256
4.76744186046512,524,520,-4,-522,264,258
4.76959517657192,522,521,-1,-521.5,261.5,260
4.77174849267873,517,518,1,-517.5,258,259.5
4.77390180878553,514,516,2,-515,256,259
4.77605512489233,506,515,9,-510.5,248.5,262
4.77820844099914,505,511,6,-508,249.5,258.5
4.78036175710594,505,510,5,-507.5,250,257.5
4.78251507321275,508,511,3,-509.5,252.5,257
4.78466838931955,514,512,-2,-513,258,255
4.78682170542636,520,513,-7,-516.5,263.5,253
4.78897502153316,522,515,-7,-518.5,264.5,254
4.79112833763997,516,515,-1,-515.5,258.5,257
4.79328165374677,514,512,-2,-513,258,255
4.79543496985357,505,511,6,-508,249.5,258.5
4.79758828596038,501,505,4,-503,248.5,254.5
4.79974160206718,496,501,5,-498.5,245.5,253
4.80189491817399,495,500,5,-497.5,245,252.5
4.80404823428079,499,501,2,-500,248.5,251.5
4.8062015503876,500,501,1,-500.5,249.5,251
4.8083548664944,505,505,0,-505,252.5,252.5
4.81050818260121,504,504,0,-504,252,252
4.81266149870801,503,505,2,-504,250.5,253.5
4.81481481481481,498,503,5,-500.5,246.5,254
4.81696813092162,498,499,1,-498.5,248.5,250
4.81912144702842,501,498,-3,-499.5,252,247.5
4.82127476313523,498,496,-2,-497,250,247
4.82342807924203,499,499,0,-499,249.5,249.5
4.82558139534884,504,501,-3,-502.5,253.5,249
4.82773471145564,505,502,-3,-503.5,254,249.5
4.82988802756245,503,502,-1,-502.5,252,250.5
4.83204134366925,499,499,0,-499,249.5,249.5
4.83419465977606,497,496,-1,-496.5,249,247.5
4.83634797588286,493,492,-1,-492.5,247,245.5
4.83850129198966,495,493,-2,-494,248.5,245.5
4.84065460809647,497,496,-1,-496.5,249,247.5
4.84280792420327,496,495,-1,-495.5,248.5,247
4.84496124031008,495,495,0,-495,247.5,247.5
4.84711455641688,494,495,1,-494.5,246.5,248
4.84926787252369,490,492,2,-491,244,247
4.85142118863049,493,494,1,-493.5,246,247.5
4.8535745047373,499,494,-5,-496.5,252,244.5
4.8557278208441,503,495,-8,-499,255.5,243.5
4.8578811369509,508,499,-9,-503.5,258.5,245
4.86003445305771,511,503,-8,-507,259.5,247.5
4.86218776916451,510,501,-9,-505.5,259.5,246
4.86434108527132,507,502,-5,-504.5,256,248.5
4.86649440137812,501,499,-2,-500,251.5,248.5
4.86864771748493,500,498,-2,-499,251,248
4.87080103359173,498,495,-3,-496.5,250.5,246
4.87295434969854,499,494,-5,-496.5,252,244.5
4.87510766580534,501,496,-5,-498.5,253,245.5
4.87726098191215,502,498,-4,-500,253,247
4.87941429801895,501,499,-2,-500,251.5,248.5
4.88156761412575,503,499,-4,-501,253.5,247.5
4.88372093023256,500,498,-2,-499,251,248
4.88587424633936,499,495,-4,-497,251.5,245.5
4.88802756244617,495,492,-3,-493.5,249,244.5
4.89018087855297,497,491,-6,-494,251.5,242.5
4.89233419465978,500,493,-7,-496.5,253.5,243
4.89448751076658,501,496,-5,-498.5,253,245.5
4.89664082687339,505,497,-8,-501,256.5,244.5
4.89879414298019,506,499,-7,-502.5,256.5,246
4.90094745908699,505,501,-4,-503,254.5,248.5
4.9031007751938,506,499,-7,-502.5,256.5,246
4.9052540913006,504,501,-3,-502.5,253.5,249
4.90740740740741,505,498,-7,-501.5,256,245.5
4.90956072351421,506,496,-10,-501,258,243
4.91171403962102,505,500,-5,-502.5,255,247.5
4.91386735572782,506,500,-6,-503,256,247
4.91602067183463,507,500,-7,-503.5,257,246.5
4.91817398794143,505,502,-3,-503.5,254,249.5
4.92032730404823,505,502,-3,-503.5,254,249.5
4.92248062015504,504,503,-1,-503.5,252.5,251
4.92463393626184,506,500,-6,-503,256,247
4.92678725236865,507,499,-8,-503,257.5,245.5
4.92894056847545,510,501,-9,-505.5,259.5,246
4.93109388458226,507,504,-3,-505.5,255,250.5
4.93324720068906,510,502,-8,-506,259,247
4.93540051679587,508,504,-4,-506,256,250
4.93755383290267,510,505,-5,-507.5,257.5,250
4.93970714900948,509,504,-5,-506.5,257,249.5
4.94186046511628,514,504,-10,-509,262,247
4.94401378122308,516,502,-14,-509,265,244
4.94616709732989,521,506,-15,-513.5,268,245.5
4.94832041343669,522,509,-13,-515.5,267.5,248
4.9504737295435,522,509,-13,-515.5,267.5,248
4.9526270456503,523,512,-11,-517.5,267,250.5
4.95478036175711,521,512,-9,-516.5,265,251.5
4.95693367786391,521,511,-10,-516,265.5,250.5
4.95908699397071,520,513,-7,-516.5,263.5,253
4.96124031007752,517,509,-8,-513,262.5,250.5
4.96339362618432,516,508,-8,-512,262,250
4.96554694229113,512,510,-2,-511,257,254
4.96770025839793,513,511,-2,-512,257.5,254.5
4.96985357450474,516,512,-4,-514,260,254
4.97200689061154,515,513,-2,-514,258.5,255.5
4.97416020671835,517,514,-3,-515.5,260,255.5
4.97631352282515,515,512,-3,-513.5,259,254.5
4.97846683893196,512,506,-6,-509,259,250
4.98062015503876,507,505,-2,-506,254.5,251.5
4.98277347114556,504,505,1,-504.5,251.5,253
4.98492678725237,502,504,2,-503,250,253
4.98708010335917,500,502,2,-501,249,252
4.98923341946598,499,502,3,-500.5,248,252.5
4.99138673557278,497,502,5,-499.5,246,253.5
4.99354005167959,495,499,4,-497,245.5,251.5
4.99569336778639,492,495,3,-493.5,244.5,249
4.9978466838932,493,493,0,-493,246.5,246.5
5,499,495,-4,-497,251.5,245.5
5.0021533161068,502,499,-3,-500.5,252.5,248
5.00430663221361,502,498,-4,-500,253,247
5.00645994832041,501,499,-2,-500,251.5,248.5
5.00861326442722,498,497,-1,-497.5,249.5,248
5.01076658053402,492,498,6,-495,243,252
5.01291989664083,489,490,1,-489.5,244,245.5
5.01507321274763,488,488,0,-488,244,244
5.01722652885444,486,485,-1,-485.5,243.5,242
5.01937984496124,489,489,0,-489,244.5,244.5
5.02153316106804,490,490,0,-490,245,245
5.02368647717485,491,490,-1,-490.5,246,244.5
5.02583979328165,492,491,-1,-491.5,246.5,245
5.02799310938846,489,491,2,-490,243.5,246.5
5.03014642549526,489,488,-1,-488.5,245,243.5
5.03229974160207,486,485,-1,-485.5,243.5,242
5.03445305770887,488,485,-3,-486.5,245.5,241
5.03660637381568,487,486,-1,-486.5,244,242.5
5.03875968992248,489,486,-3,-487.5,246,241.5
5.04091300602929,487,486,-1,-486.5,244,242.5
5.04306632213609,481,483,2,-482,239.5,242.5
5.04521963824289,482,484,2,-483,240,243
5.0473729543497,482,483,1,-482.5,240.5,242
5.0495262704565,484,479,-5,-481.5,244.5,237
5.05167958656331,483,480,-3,-481.5,243,238.5
5.05383290267011,486,482,-4,-484,245,239
5.05598621877692,487,484,-3,-485.5,245,240.5
5.05813953488372,490,485,-5,-487.5,247.5,240
5.06029285099053,500,490,-10,-495,255,240
5.06244616709733,507,493,-14,-500,260.5,239.5
5.06459948320413,522,502,-20,-512,271,241
5.06675279931094,539,506,-33,-522.5,286,236.5
5.06890611541774,557,515,-42,-536,299.5,236.5
5.07105943152455,575,526,-49,-550.5,312,238.5
5.07321274763135,594,538,-56,-566,325,241
5.07536606373816,613,551,-62,-582,337.5,244.5
5.07751937984496,625,562,-63,-593.5,344,249.5
5.07967269595177,622,568,-54,-595,338,257
5.08182601205857,612,571,-41,-591.5,326.5,265
5.08397932816538,592,562,-30,-577,311,266
5.08613264427218,570,553,-17,-561.5,293.5,268
5.08828596037898,544,543,-1,-543.5,272.5,271
5.09043927648579,526,540,14,-533,256,277
5.09259259259259,508,529,21,-518.5,243.5,275
5.0947459086994,489,519,30,-504,229.5,274.5
5.0968992248062,480,513,33,-496.5,223.5,273
5.09905254091301,477,511,34,-494,221.5,272.5
5.10120585701981,478,504,26,-491,226,265
5.10335917312662,485,503,18,-494,233.5,260.5
5.10551248923342,487,500,13,-493.5,237,256.5
5.10766580534022,490,501,11,-495.5,239.5,256
5.10981912144703,489,498,9,-493.5,240,253.5
5.11197243755383,490,497,7,-493.5,241.5,252
5.11412575366064,494,500,6,-497,244,253
5.11627906976744,498,503,5,-500.5,246.5,254
5.11843238587425,499,500,1,-499.5,249,250.5
5.12058570198105,496,497,1,-496.5,247.5,249
5.12273901808786,495,494,-1,-494.5,248,246.5
5.12489233419466,490,493,3,-491.5,243.5,248
5.12704565030146,492,494,2,-493,245,248
5.12919896640827,495,494,-1,-494.5,248,246.5
5.13135228251507,493,495,2,-494,245.5,248.5
5.13350559862188,492,495,3,-493.5,244.5,249
5.13565891472868,490,494,4,-492,243,249
5.13781223083549,490,491,1,-490.5,244.5,246
5.13996554694229,489,489,0,-489,244.5,244.5
5.1421188630491,490,488,-2,-489,246,243
5.1442721791559,488,489,1,-488.5,243.5,245
5.1464254952627,491,490,-1,-490.5,246,244.5
5.14857881136951,487,488,1,-487.5,243,244.5
5.15073212747631,488,488,0,-488,244,244
5.15288544358312,491,492,1,-491.5,245,246.5
5.15503875968992,492,489,-3,-490.5,247.5,243
5.15719207579673,491,487,-4,-489,247.5,241.5
5.15934539190353,489,483,-6,-486,247.5,238.5
5.16149870801034,491,486,-5,-488.5,248,240.5
5.16365202411714,494,488,-6,-491,250,241
5.16580534022394,494,489,-5,-491.5,249.5,242
5.16795865633075,493,488,-5,-490.5,249,241.5
5.17011197243755,493,491,-2,-492,247.5,244.5
5.17226528854436,493,489,-4,-491,248.5,242.5
5.17441860465116,495,489,-6,-492,250.5,241.5
5.17657192075797,497,488,-9,-492.5,253,239.5
5.17872523686477,501,491,-10,-496,255.5,240.5
5.18087855297158,501,492,-9,-496.5,255,241.5
5.18303186907838,503,493,-10,-498,256.5,241.5
5.18518518518519,504,495,-9,-499.5,256.5,243
5.18733850129199,503,499,-4,-501,253.5,247.5
5.18949181739879,498,494,-4,-496,251,245
5.1916451335056,494,491,-3,-492.5,248.5,244
5.1937984496124,495,489,-6,-492,250.5,241.5
5.19595176571921,500,493,-7,-496.5,253.5,243
5.19810508182601,502,494,-8,-498,255,243
5.20025839793282,504,495,-9,-499.5,256.5,243
5.20241171403962,503,497,-6,-500,254.5,245.5
5.20456503014643,504,499,-5,-501.5,254.5,247
5.20671834625323,500,496,-4,-498,252,246
5.20887166236003,499,496,-3,-497.5,251,246.5
5.21102497846684,497,491,-6,-494,251.5,242.5
5.21317829457364,499,492,-7,-495.5,253,242.5
5.21533161068045,502,493,-9,-497.5,255.5,242
5.21748492678725,508,495,-13,-501.5,260.5,241
5.21963824289406,509,498,-11,-503.5,260,243.5
5.22179155900086,512,501,-11,-506.5,261.5,245
5.22394487510767,514,504,-10,-509,262,247
5.22609819121447,513,502,-11,-507.5,262,245.5
5.22825150732127,515,502,-13,-508.5,264,244.5
5.23040482342808,515,501,-14,-508,264.5,243.5
5.23255813953488,517,505,-12,-511,264.5,246.5
5.23471145564169,521,506,-15,-513.5,268,245.5
5.23686477174849,520,508,-12,-514,266,248
5.2390180878553,519,507,-12,-513,265.5,247.5
5.2411714039621,516,510,-6,-513,261,252
5.24332472006891,514,508,-6,-511,260,251
5.24547803617571,515,507,-8,-511,261.5,249.5
5.24763135228252,515,506,-9,-510.5,262,248.5
5.24978466838932,519,507,-12,-513,265.5,247.5
5.25193798449612,522,510,-12,-516,267,249
5.25409130060293,528,514,-14,-521,271,250
5.25624461670973,529,514,-15,-521.5,272,249.5
5.25839793281654,524,517,-7,-520.5,265.5,255
5.26055124892334,524,515,-9,-519.5,266.5,253
5.26270456503015,523,515,-8,-519,265.5,253.5
5.26485788113695,525,514,-11,-519.5,268,251.5
5.26701119724376,527,515,-12,-521,269.5,251.5
5.26916451335056,527,515,-12,-521,269.5,251.5
5.27131782945736,529,517,-12,-523,270.5,252.5
5.27347114556417,530,518,-12,-524,271,253
5.27562446167097,531,522,-9,-526.5,270,256.5
5.27777777777778,531,522,-9,-526.5,270,256.5
5.27993109388458,531,522,-9,-526.5,270,256.5
5.28208440999139,530,519,-11,-524.5,270.5,254
5.28423772609819,532,522,-10,-527,271,256
5.286391042205,533,521,-12,-527,272.5,254.5
5.2885443583118,531,521,-10,-526,270.5,255.5
5.29069767441861,531,523,-8,-527,269.5,257.5
5.29285099052541,530,525,-5,-527.5,267.5,260
5.29500430663221,528,524,-4,-526,266,260
5.29715762273902,526,522,-4,-524,265,259
5.29931093884582,522,519,-3,-520.5,262.5,258
5.30146425495263,523,521,-2,-522,262.5,259.5
5.30361757105943,524,519,-5,-521.5,264.5,257
5.30577088716624,528,521,-7,-524.5,267.5,257
5.30792420327304,529,522,-7,-525.5,268,257.5
5.31007751937985,529,523,-6,-526,267.5,258.5
5.31223083548665,529,523,-6,-526,267.5,258.5
5.31438415159345,527,523,-4,-525,265.5,259.5
5.31653746770026,522,522,0,-522,261,261
5.31869078380706,523,520,-3,-521.5,263,258.5
5.32084409991387,520,514,-6,-517,263,254
5.32299741602067,517,514,-3,-515.5,260,255.5
5.32515073212748,514,517,3,-515.5,255.5,260
5.32730404823428,516,517,1,-516.5,257.5,259
5.32945736434109,515,514,-1,-514.5,258,256.5
5.33161068044789,518,515,-3,-516.5,260.5,256
5.33376399655469,514,512,-2,-513,258,255
5.3359173126615,510,512,2,-511,254,257
5.3380706287683,503,506,3,-504.5,250,254.5
5.34022394487511,502,503,1,-502.5,250.5,252
5.34237726098191,501,505,4,-503,248.5,254.5
5.34453057708872,501,506,5,-503.5,248,255.5
5.34668389319552,505,505,0,-505,252.5,252.5
5.34883720930233,504,507,3,-505.5,250.5,255
5.35099052540913,501,505,4,-503,248.5,254.5
5.35314384151593,502,504,2,-503,250,253
5.35529715762274,498,498,0,-498,249,249
5.35745047372954,497,499,2,-498,247.5,250.5
5.35960378983635,499,499,0,-499,249.5,249.5
5.36175710594315,501,502,1,-501.5,250,251.5
5.36391042204996,499,499,0,-499,249.5,249.5
5.36606373815676,496,498,2,-497,247,250
5.36821705426357,493,500,7,-496.5,243,253.5
5.37037037037037,494,497,3,-495.5,245.5,250
5.37252368647717,490,492,2,-491,244,247
5.37467700258398,492,490,-2,-491,247,244
5.37683031869078,488,491,3,-489.5,242.5,247
5.37898363479759,490,492,2,-491,244,247
5.38113695090439,492,492,0,-492,246,246
5.3832902670112,490,490,0,-490,245,245
5.385443583118,492,491,-1,-491.5,246.5,245
5.38759689922481,493,492,-1,-492.5,247,245.5
5.38975021533161,496,490,-6,-493,251,242
5.39190353143842,499,490,-9,-494.5,254,240.5
5.39405684754522,499,490,-9,-494.5,254,240.5
5.39621016365202,498,491,-7,-494.5,252.5,242
5.39836347975883,494,491,-3,-492.5,248.5,244
5.40051679586563,492,492,0,-492,246,246
5.40267011197244,489,489,0,-489,244.5,244.5
5.40482342807924,489,492,3,-490.5,243,247.5
5.40697674418605,497,493,-4,-495,250.5,244.5
5.40913006029285,501,491,-10,-496,255.5,240.5
5.41128337639966,507,493,-14,-500,260.5,239.5
5.41343669250646,504,495,-9,-499.5,256.5,243
5.41559000861326,504,496,-8,-500,256,244
5.41774332472007,498,494,-4,-496,251,245
5.41989664082687,497,494,-3,-495.5,250,245.5
5.42204995693368,495,494,-1,-494.5,248,246.5
5.42420327304048,495,494,-1,-494.5,248,246.5
5.42635658914729,496,489,-7,-492.5,251.5,241
5.42850990525409,495,491,-4,-493,249.5,243.5
5.4306632213609,497,491,-6,-494,251.5,242.5
5.4328165374677,501,494,-7,-497.5,254,243.5
5.43496985357451,499,495,-4,-497,251.5,245.5
5.43712316968131,502,494,-8,-498,255,243
5.43927648578811,498,494,-4,-496,251,245
5.44142980189492,499,497,-2,-498,250.5,247.5
5.44358311800172,498,493,-5,-495.5,251.5,244
5.44573643410853,493,489,-4,-491,248.5,242.5
5.44788975021533,491,486,-5,-488.5,248,240.5
5.45004306632214,492,490,-2,-491,247,244
5.45219638242894,491,490,-1,-490.5,246,244.5
5.45434969853575,493,490,-3,-491.5,248,243.5
5.45650301464255,493,490,-3,-491.5,248,243.5
5.45865633074935,497,493,-4,-495,250.5,244.5
5.46080964685616,499,493,-6,-496,252.5,243.5
5.46296296296296,500,492,-8,-496,254,242
5.46511627906977,502,491,-11,-496.5,256.5,240
5.46726959517657,500,493,-7,-496.5,253.5,243
5.46942291128338,500,493,-7,-496.5,253.5,243
5.47157622739018,498,493,-5,-495.5,251.5,244
5.47372954349699,500,494,-6,-497,253,244
5.47588285960379,500,497,-3,-498.5,251.5,247
5.47803617571059,501,496,-5,-498.5,253,245.5
5.4801894918174,499,492,-7,-495.5,253,242.5
5.4823428079242,497,490,-7,-493.5,252,241.5
5.48449612403101,497,491,-6,-494,251.5,242.5
5.48664944013781,497,495,-2,-496,249.5,246.5
5.48880275624462,502,495,-7,-498.5,254.5,244
5.49095607235142,501,496,-5,-498.5,253,245.5
5.49310938845823,505,499,-6,-502,255.5,246.5
5.49526270456503,506,500,-6,-503,256,247
5.49741602067184,511,499,-12,-505,261.5,243.5
5.49956933677864,512,499,-13,-505.5,262.5,243
5.50172265288544,512,499,-13,-505.5,262.5,243
5.50387596899225,515,504,-11,-509.5,263,246.5
5.50602928509905,516,504,-12,-510,264,246
5.50818260120586,516,505,-11,-510.5,263.5,247
5.51033591731266,518,508,-10,-513,264,249
5.51248923341947,518,509,-9,-513.5,263.5,250
5.51464254952627,517,507,-10,-512,263.5,248.5
5.51679586563308,517,505,-12,-511,264.5,246.5
5.51894918173988,514,506,-8,-510,261,249
5.52110249784668,513,506,-7,-509.5,260,249.5
5.52325581395349,515,508,-7,-511.5,261,250.5
5.52540913006029,512,509,-3,-510.5,257.5,253
5.5275624461671,515,509,-6,-512,260.5,251.5
5.5297157622739,512,511,-1,-511.5,256.5,255
5.53186907838071,510,507,-3,-508.5,256.5,252
5.53402239448751,513,503,-10,-508,261.5,246.5
5.53617571059432,508,505,-3,-506.5,255.5,251
5.53832902670112,511,506,-5,-508.5,258,250.5
5.54048234280792,513,508,-5,-510.5,259,251.5
5.54263565891473,516,507,-9,-511.5,262.5,249
5.54478897502153,513,507,-6,-510,259.5,250.5
5.54694229112834,508,508,0,-508,254,254
5.54909560723514,502,503,1,-502.5,250.5,252
5.55124892334195,499,500,1,-499.5,249,250.5
5.55340223944875,494,495,1,-494.5,246.5,248
5.55555555555556,494,496,2,-495,246,249
5.55770887166236,495,496,1,-495.5,247,248.5
5.55986218776916,497,496,-1,-496.5,249,247.5
5.56201550387597,496,496,0,-496,248,248
5.56416881998277,493,495,2,-494,245.5,248.5
5.56632213608958,488,492,4,-490,242,248
5.56847545219638,484,489,5,-486.5,239.5,247
5.57062876830319,484,487,3,-485.5,240.5,245
5.57278208440999,485,485,0,-485,242.5,242.5
5.5749354005168,484,487,3,-485.5,240.5,245
5.5770887166236,485,486,1,-485.5,242,243.5
5.5792420327304,483,486,3,-484.5,240,244.5
5.58139534883721,485,487,2,-486,241.5,244.5
5.58354866494401,489,491,2,-490,243.5,246.5
5.58570198105082,493,490,-3,-491.5,248,243.5
5.58785529715762,496,489,-7,-492.5,251.5,241
5.59000861326443,495,487,-8,-491,251.5,239.5
5.59216192937123,495,489,-6,-492,250.5,241.5
5.59431524547804,494,488,-6,-491,250,241
5.59646856158484,492,488,-4,-490,248,242
5.59862187769165,490,487,-3,-488.5,246.5,242
5.60077519379845,486,487,1,-486.5,242.5,244
5.60292850990525,483,484,1,-483.5,241,242.5
5.60508182601206,484,484,0,-484,242,242
5.60723514211886,483,481,-2,-482,242.5,239.5
5.60938845822567,483,484,1,-483.5,241,242.5
5.61154177433247,484,482,-2,-483,243,240
5.61369509043928,483,484,1,-483.5,241,242.5
5.61584840654608,479,481,2,-480,238.5,241.5
5.61800172265289,479,481,2,-480,238.5,241.5
5.62015503875969,477,477,0,-477,238.5,238.5
5.62230835486649,473,475,2,-474,235.5,238.5
5.6244616709733,480,475,-5,-477.5,242.5,235
5.6266149870801,486,480,-6,-483,246,237
5.62876830318691,495,483,-12,-489,253.5,235.5
5.63092161929371,507,488,-19,-497.5,263,234.5
5.63307493540052,525,499,-26,-512,275.5,236.5
5.63522825150732,544,512,-32,-528,288,240
5.63738156761413,561,520,-41,-540.5,301,239.5
5.63953488372093,580,532,-48,-556,314,242
5.64168819982774,596,540,-56,-568,326,242
5.64384151593454,612,550,-62,-581,337,244
5.64599483204134,618,557,-61,-587.5,339.5,248
5.64814814814815,615,562,-53,-588.5,334,254.5
5.65030146425495,604,562,-42,-583,323,260
5.65245478036176,584,559,-25,-571.5,304.5,267
5.65460809646856,559,552,-7,-555.5,283,272.5
5.65676141257537,535,542,7,-538.5,264,274.5
5.65891472868217,512,529,17,-520.5,247.5,273
5.66106804478898,493,517,24,-505,234.5,270.5
5.66322136089578,480,509,29,-494.5,225.5,269
5.66537467700258,477,506,29,-491.5,224,267.5
5.66752799310939,474,501,27,-487.5,223.5,264
5.66968130921619,481,502,21,-491.5,230,261.5
5.671834625323,487,504,17,-495.5,235,260.5
5.6739879414298,491,502,11,-496.5,240,256.5
5.67614125753661,493,500,7,-496.5,243,253.5
5.67829457364341,496,498,2,-497,247,250
5.68044788975022,498,499,1,-498.5,248.5,250
5.68260120585702,499,498,-1,-498.5,250,248.5
5.68475452196382,498,498,0,-498,249,249
5.68690783807063,495,498,3,-496.5,246,250.5
5.68906115417743,490,498,8,-494,241,253
5.69121447028424,483,493,10,-488,236.5,251.5
5.69336778639104,480,491,11,-485.5,234.5,251
5.69552110249785,478,484,6,-481,236,245
5.69767441860465,480,483,3,-481.5,238.5,243
5.69982773471146,483,484,1,-483.5,241,242.5
5.70198105081826,483,485,2,-484,240.5,243.5
5.70413436692507,484,486,2,-485,241,244
5.70628768303187,487,487,0,-487,243.5,243.5
5.70844099913867,493,489,-4,-491,248.5,242.5
5.71059431524548,494,489,-5,-491.5,249.5,242
5.71274763135228,496,489,-7,-492.5,251.5,241
5.71490094745909,495,487,-8,-491,251.5,239.5
5.71705426356589,494,486,-8,-490,251,239
5.7192075796727,489,486,-3,-487.5,246,241.5
5.7213608957795,487,486,-1,-486.5,244,242.5
5.72351421188631,489,488,-1,-488.5,245,243.5
5.72566752799311,490,488,-2,-489,246,243
5.72782084409991,490,487,-3,-488.5,246.5,242
5.72997416020672,491,486,-5,-488.5,248,240.5
5.73212747631352,493,487,-6,-490,249.5,240.5
5.73428079242033,492,484,-8,-488,250,238
5.73643410852713,493,486,-7,-489.5,250,239.5
5.73858742463394,493,488,-5,-490.5,249,241.5
5.74074074074074,493,489,-4,-491,248.5,242.5
5.74289405684755,497,489,-8,-493,252.5,240.5
5.74504737295435,496,490,-6,-493,251,242
5.74720068906115,496,489,-7,-492.5,251.5,241
5.74935400516796,497,489,-8,-493,252.5,240.5
5.75150732127476,498,488,-10,-493,254,239
5.75366063738157,497,490,-7,-493.5,252,241.5
5.75581395348837,498,492,-6,-495,252,243
5.75796726959518,501,493,-8,-497,254.5,242.5
5.76012058570198,500,493,-7,-496.5,253.5,243
5.76227390180879,502,495,-7,-498.5,254.5,244
5.76442721791559,498,494,-4,-496,251,245
5.76658053402239,497,492,-5,-494.5,251,243.5
5.7687338501292,497,490,-7,-493.5,252,241.5
5.770887166236,499,489,-10,-494,254.5,239.5
5.77304048234281,497,492,-5,-494.5,251,243.5
5.77519379844961,499,491,-8,-495,253.5,241.5
5.77734711455642,497,495,-2,-496,249.5,246.5
5.77950043066322,496,493,-3,-494.5,249.5,245
5.78165374677003,499,493,-6,-496,252.5,243.5
5.78380706287683,501,493,-8,-497,254.5,242.5
5.78596037898363,503,496,-7,-499.5,255,244.5
5.78811369509044,509,496,-13,-502.5,261,241.5
5.79026701119724,512,497,-15,-504.5,263.5,241
5.79242032730405,511,501,-10,-506,260.5,245.5
5.79457364341085,510,502,-8,-506,259,247
5.79672695951766,507,500,-7,-503.5,257,246.5
5.79888027562446,504,502,-2,-503,253,250
5.80103359173127,510,503,-7,-506.5,258.5,248
5.80318690783807,516,503,-13,-509.5,264.5,245
5.80534022394488,523,504,-19,-513.5,271,242.5
5.80749354005168,522,507,-15,-514.5,268.5,246
5.80964685615848,519,507,-12,-513,265.5,247.5
5.81180017226529,518,510,-8,-514,263,251
5.81395348837209,519,509,-10,-514,264.5,249.5
5.8161068044789,522,512,-10,-517,266,251
5.8182601205857,523,512,-11,-517.5,267,250.5
5.82041343669251,524,513,-11,-518.5,267.5,251
5.82256675279931,526,511,-15,-518.5,270.5,248
5.82472006890612,528,512,-16,-520,272,248
5.82687338501292,530,516,-14,-523,272,251
5.82902670111972,526,515,-11,-520.5,268.5,252
5.83118001722653,526,516,-10,-521,268,253
5.83333333333333,524,516,-8,-520,266,254
5.83548664944014,526,517,-9,-521.5,267.5,254
5.83763996554694,529,517,-12,-523,270.5,252.5
5.83979328165375,529,518,-11,-523.5,270,253.5
5.84194659776055,529,518,-11,-523.5,270,253.5
5.84409991386736,528,518,-10,-523,269,254
5.84625322997416,529,520,-9,-524.5,269,255.5
5.84840654608097,529,524,-5,-526.5,267,259.5
5.85055986218777,534,522,-12,-528,273,255
5.85271317829457,528,525,-3,-526.5,265.5,261
5.85486649440138,527,523,-4,-525,265.5,259.5
5.85701981050818,524,520,-4,-522,264,258
5.85917312661499,526,518,-8,-522,267,255
5.86132644272179,527,520,-7,-523.5,267,256.5
