t,leadI,leadII,leadIII,aVR,aVL,aVF
0,-0.430490502668777,0.0399767413091453,0.470467243977923,0.195256880679816,-0.45047887332335,0.255221992643534
0.00214661371686165,-0.889855717702209,0.0412404022370423,0.931096119939251,0.424307657732583,-0.91047591882073,0.486168261088147
0.0042932274337233,-1.24989777112444,0.0425536164266497,1.29245138755109,0.603672077348897,-1.27117457933777,0.667502501988871
0.00643984115058495,-1.43653879230302,0.043491623016027,1.48003041531905,0.696523584643497,-1.45828460381103,0.761761019167538
0.0085864548674466,-1.41696642777241,0.0437479830441404,1.46071441081655,0.686609222364137,-1.43884041929448,0.752231196930348
0.0107330685843083,-1.20126159892667,0.043209409480281,1.24447100840695,0.579026094723196,-1.22286630366681,0.643840208943618
0.0128796823011699,-0.8329243488942,0.0420038904597961,0.874928239353996,0.395460229217202,-0.853926294124098,0.458466064906896
0.0150262960180316,-0.375643333302679,0.0405105564006443,0.416153889703323,0.167566388451017,-0.395898611503001,0.228332223051984
0.0171729097348932,0.0969448294248241,0.0393159000162244,-0.0576289294085997,-0.0681303647205243,0.0772868794167119,-0.00915651469618761
0.0193195234517549,0.505996129638075,0.0391024797705987,-0.466893649867477,-0.272549304704337,0.486444889752776,-0.213895585048439
0.0214661371686165,0.769087861160315,0.0404665262603113,-0.728621334900004,-0.404777193710313,0.74885459803016,-0.344077404319846
0.0236127508854782,0.803688768985153,0.0436804741972423,-0.760008294787911,-0.423684621591198,0.781848531886532,-0.358163910295334
0.0257593646023398,0.536155954340304,0.0484418987118005,-0.487714055628504,-0.292298926526052,0.511935004984404,-0.219636078458352
0.0279059783192015,-0.0841985831991277,0.0536740171545408,0.137872600353668,0.0152622830222935,-0.111035591776398,0.0957733087541046
0.0300525920360631,-1.07071554593641,0.0574542935757874,1.1281698395122,0.506630626180314,-1.09944269272431,0.592812066543995
0.0321992057529248,-2.39123703181441,0.0571362075919902,2.4483732394064,1.16705041211121,-2.41980513561041,1.2527547234992
0.0343458194697864,-3.97104138421338,0.0496887632660204,4.0207301474794,1.96067631047368,-3.99588576584639,2.03520945537271
0.0364924331866481,-5.7071889035477,0.0322123522075163,5.73940125575522,2.83748827567009,-5.72329507965146,2.88580680398137
0.0386390469035097,-7.48953374261948,0.00251653934240101,7.49205028196188,3.74350860163854,-7.49079201229068,3.74728341065214
0.0407856606203714,-9.22081035108397,-0.0403978985956351,9.18041245248834,4.6306041248398,-9.20061140178615,4.57000727694635
0.042932274337233,-10.829236715672,-0.096067627508219,10.7331690881638,5.46265217159013,-10.7812029019179,5.3185507303278
0.0450788880540947,-12.271405593954,-0.162450750711111,12.1089548432428,6.21692817233253,-12.1901802185984,5.97325204626587
0.0472255017709563,-13.5282609302366,-0.235714999997809,13.2925459302388,6.8819879651172,-13.4104034302377,6.52841546512049
0.049372115487818,-14.5994740433181,-0.309770115574365,14.2897039277437,7.45462207944623,-14.4445889855309,6.98996690608468
0.0515187292046796,-15.5000215190322,-0.375917947936007,15.1241035710962,7.93796973348411,-15.3120625450642,7.3740928115801
0.0536653429215413,-16.258945746142,-0.423484770015078,15.8354609761269,8.34121525807853,-16.0472033611344,7.70598810305591
0.0558119566384029,-16.9175056843267,-0.44202097163353,16.4754847126932,8.67976332798013,-16.69649519851,8.01673187052983
0.0579585703552646,-17.5238327115854,-0.424623204900543,17.0992095066849,8.97422795824298,-17.3115211091352,8.33729315089217
0.0601051840721262,-18.1229732796315,-0.370963672141286,17.7520096074902,9.24696847588638,-17.9374914435608,8.69052296767445
0.0622517977889879,-18.7436835484084,-0.288423795210677,18.4552597531977,9.51605367180954,-18.5994716508031,9.08341797899352
0.0643984115058495,-19.3860195213801,-0.190501374810773,19.1955181465694,9.78826044809545,-19.2907688339747,9.50250838587929
0.0665450252227112,-20.0154997772989,-0.0930215572714335,19.9224782200274,10.0542606672851,-19.9689889986631,9.914728331378
0.0686916389395728,-20.5685707430541,-0.00978011992267209,20.5587906231315,10.2891754314884,-20.5636806830928,10.2745052516044
0.0708382526564345,-20.9698827984246,0.0506552758937974,21.0205380743184,10.4596137612654,-20.9952104363715,10.5355966751061
0.0729848663732961,-21.1566491161983,0.0860624841446578,21.2427116003429,10.5352933160268,-21.1996803582706,10.6643870422438
0.0751314800901578,-21.1020475018732,0.0996702374150827,21.2017177392882,10.501188632229,-21.1518826205807,10.6506939883517
0.0772780938070194,-20.829594330207,0.0979677750470752,20.927562105254,10.3658132775799,-20.8785782177305,10.5127649401506
0.0794247075238811,-20.4130792315922,0.0881378050866896,20.5012170366789,10.1624707132527,-20.4571481341355,10.2946774208828
0.0815713212407427,-19.9607737505317,0.0759118650639869,20.0366856155957,9.94243094273384,-19.9987296830637,10.0562987403298
0.0837179349576044,-19.5873084899654,0.0643550973505682,19.651663587316,9.76147669630742,-19.6194860386407,9.85800934233327
0.085864548674466,-19.3809303100648,0.0537457835659584,19.4346760936308,9.66359226324944,-19.4078032018478,9.74421093859838
0.0880111623913277,-19.3763650438025,0.0424062956045713,19.4187713394071,9.66697937409898,-19.3975681916048,9.73058881750584
0.0901577761081893,-19.5427345927171,0.0281119476867237,19.5708465404038,9.75731132251519,-19.5567905665605,9.79947924404528
0.092304389825051,-19.7913807901831,0.00957303864129565,19.8009538288244,9.89090387577092,-19.7961673095038,9.90526343373287
0.0944510035419126,-20.0013187582345,-0.0125368595743207,19.9887818986601,10.0069278089044,-19.9950503284473,9.98812251954291
0.0965976172587743,-20.0536076889754,-0.0354361040620017,20.0181715849134,10.0445218965187,-20.0358896369444,9.99136774042571
0.0987442309756359,-19.8635522768205,-0.0551723066243015,19.8083799701962,9.95936229172242,-19.8359661235084,9.87660383178597
0.100890844692498,-19.4020596254529,-0.0684615257182122,19.3335980997347,9.73526057558554,-19.3678288625938,9.63256828700823
0.103037458409359,-18.702439935241,-0.0747494859321091,18.6276904493089,9.38859471058653,-18.6650651922749,9.27647048168837
0.105184072126221,-17.8535942351493,-0.0773942204066191,17.7762000147427,8.96549422777796,-17.814897124946,8.84940289716803
0.107330685843083,-16.9831222772772,-0.0829586988031319,16.9001635784741,8.53304048804018,-16.9416429278757,8.40860243983549
0.109477299559944,-16.234054389589,-0.0984764101084876,16.1355779794805,8.16626539984876,-16.1848161845348,8.01855078468603
0.111623913276806,-15.7378209909066,-0.127786406751154,15.6100345841554,7.93280369882887,-15.673927787531,7.74112408870214
0.113770526993667,-15.5858769161167,-0.168739384732545,15.4171375313842,7.87730815042463,-15.5015072237504,7.62419907332582
0.115917140710529,-15.8044539612697,-0.212777830732598,15.5916761305371,8.00861589600113,-15.6980650459034,7.68944914990223
0.118063754427391,-16.3400581418021,-0.247320655878841,16.0927374859232,8.29368939884045,-16.2163978138626,7.92270841502219
0.120210368144252,-17.0642121979553,-0.260083119168653,16.8041290787867,8.662147658562,-16.934170638371,8.27202297980902
0.122356981861114,-17.8017286196526,-0.243539666143365,17.5581889535092,9.02263414289796,-17.6799587865809,8.65732464368291
0.124503595577976,-18.377904159198,-0.197680417460328,18.1802237417377,9.28779228832916,-18.2790639504678,8.99127166213867
0.126650209294837,-18.6705191222602,-0.130064323333222,18.540454798927,9.4002917227967,-18.6054869605936,9.20519523779687
0.128796823011699,-18.6479061299047,-0.0534326231638485,18.5944735067409,9.35066937653428,-18.6211898183228,9.27052044178851
0.130943436728561,-18.3780817030288,0.0179029867546325,18.3959846897835,9.1800893581371,-18.3870331964062,9.20694383826905
0.133090050445422,-18.0047115570019,0.0715063672848104,18.0762179242867,8.96660259485854,-18.0404647406443,9.07386214578576
0.135236664162284,-17.698036047275,0.0992049880980878,17.7972410353731,8.79941552958848,-17.7476385413241,8.94822301173561
0.137383277879146,-17.5972119260087,0.0981991652506245,17.6954110912593,8.74950638037905,-17.646311508634,8.89680512825499
0.139529891596007,-17.7626016393761,0.0710951313543901,17.8336967707305,8.84575325401085,-17.7981492050533,8.95239595104243
0.141676505312869,-18.1531804143479,0.0251532916644347,18.1783337060123,9.06401356134172,-18.1657570601801,9.10174349883837
0.143823119029731,-18.6369760443362,-0.0290713851777433,18.6079046591584,9.33302371475696,-18.6224403517473,9.28941663699034
0.145969732746592,-19.0326573150003,-0.0796480533190319,18.9530092616812,9.55615268415964,-18.9928332883407,9.4366806041811
0.148116346463454,-19.1700091635825,-0.115666285782934,19.0543428777996,9.64283772468274,-19.1121760206911,9.46933829600834
0.150262960180316,-18.9494113733219,-0.129742583686428,18.8196687896354,9.53957697850415,-18.8845400814787,9.34496310297451
0.152409573897177,-18.3794230042506,-0.119867636967185,18.2595553672835,9.24964532060891,-18.3194891857671,9.06984386515814
0.154556187614039,-17.5788530113993,-0.0897386449701642,17.4891143664291,8.83429582818473,-17.5339836889142,8.69968786072948
0.156702801330901,-16.7427275001008,-0.0472880362546847,16.6954394638461,8.39500776817774,-16.7190834819735,8.32407571379571
0.158849415047762,-16.0847528456267,-0.00202820232799422,16.0827246432987,8.04339052397733,-16.0837387444627,8.04034822048534
0.160996028764624,-15.7766956779125,0.0376570373906318,15.8143527153031,7.86951932026092,-15.7955241966078,7.92600487634687
0.163142642481485,-15.9044642316148,0.0663453344472005,15.970809566062,7.9190594485838,-15.9376368988384,8.01857745025461
0.165289256198347,-16.4522670921729,0.0821822661808822,16.5344493583538,8.18504241299602,-16.4933582252634,8.30831581226735
0.167435869915209,-17.3146132893846,0.0864198592164929,17.4010331486011,8.61409671508407,-17.3578232189929,8.74372650390881
0.16958248363207,-18.3270285477491,0.0823110707423347,18.4093396184915,9.1223587385034,-18.3681840831203,9.2458253446169
0.171729097348932,-19.3034925466995,0.0738287757085608,19.377321322408,9.61483188549546,-19.3404069345538,9.7255750490583
0.173875711065794,-20.0708998232822,0.0645791981611283,20.1354790214433,10.0031603125605,-20.1031894223627,10.1000291098022
0.176022324782655,-20.4954128142673,0.0571169213343445,20.5525297356016,10.2191479464665,-20.5239712749345,10.304823328468
0.178168938499517,-20.4998581791646,0.0527058895321478,20.5525640686968,10.2235761448162,-20.5262111239307,10.3026349791145
0.180315552216379,-20.0735533638317,0.0514490538347411,20.1250024176664,10.0110521549985,-20.0992778907491,10.0882257357506
0.18246216593324,-19.2752262482286,0.0526450236727669,19.3278712719013,9.61129061227789,-19.3015487600649,9.69025814778704
0.184608779650102,-18.2269857553934,0.0552200790931059,18.2822058344865,9.08588283815012,-18.2545957949399,9.16871295678978
0.186755393366964,-17.0958108312821,0.0581128506204075,17.1539236819025,8.51884899033086,-17.1248672565923,8.60601826626147
0.188902007083825,-16.0617912988648,0.0605372708014379,16.1223285696662,8.00062701403169,-16.0920599342655,8.09143292023384
0.191048620800687,-15.2788141154853,0.062099371035068,15.3409134865204,7.60835737222514,-15.3098638010029,7.70150642877774
0.193195234517549,-14.839044087585,0.0627830835179092,14.9018271711029,7.38813050203354,-14.8704356293439,7.4823051273104
0.19534184823441,-14.7529179426245,0.0628440318208737,14.8157619744454,7.34503695540184,-14.784339958535,7.43930300313315
0.197488461951272,-14.9509667779889,0.0626586671152555,15.0136254451042,7.44415405543684,-14.9822961115466,7.53814205610973
0.199635075668134,-15.3058997230591,0.0625728916710757,15.3684726147302,7.62166341569403,-15.3371861688947,7.71552275320064
0.201781689384995,-15.6669707205793,0.0627845234384756,15.7297552440178,7.8020930985704,-15.6983629822985,7.89626988372811
0.203928303101857,-15.8959572130829,0.0632818397952309,15.9592390528782,7.91633768664386,-15.9275981329806,8.0112604463367
0.206074916818718,-15.8951790964849,0.0638484250058728,15.9590275214908,7.91566533573952,-15.9271033089879,8.01143797324833
0.20822153053558,-15.6216076752298,0.0641331911323205,15.6857408663621,7.77873724204874,-15.653674270796,7.87493702874723
0.210368144252442,-15.0858923121961,0.0637731759173644,15.1496654881135,7.51105956813937,-15.1177789001548,7.60671933201542
0.212514757969303,-14.3398467231234,0.0625450285137634,14.4023917516372,7.13865084730483,-14.3711192373803,7.23246839007548
0.214661371686165,-13.4589241090667,0.0605096655735944,13.5194337746403,6.69920722174656,-13.4891789418535,6.78997172010695
0.216807985403027,-12.52604025534,0.0581059748197058,12.5841462301597,6.23396714026013,-12.5550932427498,6.32112610248969
0.218954599119888,-11.6202476798536,0.0561479157078966,11.6763955955615,5.78204988207284,-11.6483216377075,5.86627175563469
0.22110121283675,-10.8104503802209,0.0556897235763808,10.8661401037973,5.37738032832225,-10.8382952420091,5.46091491368682
0.223247826553612,-10.1524342897074,0.0577495468734109,10.2101838365808,5.04734237141701,-10.1813090631441,5.13396669172712
0.225394440270473,-9.68720953726887,0.0629223441981066,9.75013188146697,4.81214359653538,-9.71867070936792,4.90652711283254
0.227541053987335,-9.4392991058794,0.0709620856655035,9.5102611915449,4.68416851010695,-9.47478014871215,4.7906116386052
0.229687667704197,-9.41452139327939,0.0804586024311248,9.49497999571051,4.66703139542413,-9.45475069449495,4.78771929907082
0.231834281421058,-9.59775854005254,0.0887580582155694,9.68651659826811,4.75450024091849,-9.64213756916032,4.88763732824184
0.23398089513792,-9.95202614050542,0.0922590719881282,10.0442852124935,4.92988353425865,-9.99815567649948,5.06827214224084
0.236127508854782,-10.4204146619761,0.087145306676328,10.5075599686525,5.16663467764991,-10.4639873153143,5.2973526376644
0.238274122571643,-10.9316640516716,0.0704890827288274,11.0021531344004,5.43058748447138,-10.966908593036,5.53632110856462
0.240420736288505,-11.4085031930798,0.0414985168458823,11.4500017099257,5.68350233811694,-11.4292524515027,5.74575011338577
0.242567350005367,-11.7766517364796,0.00252593385642125,11.779177670336,5.88706290131158,-11.7779147034078,5.89085180209621
0.244713963722228,-11.9726938179774,-0.0406271622214923,11.9320666557559,6.00666049009942,-11.9523802368666,5.94571974676718
0.24686057743909,-11.9505916441404,-0.0795061562292193,11.8710854879112,6.0150489001848,-11.9108385660258,5.89578966584097
0.249007191155951,-11.6877429393761,-0.105008733288984,11.5827342060872,5.89637583633256,-11.6352385727316,5.73886273639908
0.251153804872813,-11.1908210436373,-0.110180903753342,11.080640139884,5.65050097369534,-11.1357305917607,5.48522961806532
0.253300418589675,-10.4995503247151,-0.0928044407866948,10.4067458839284,5.2961773827509,-10.4531481043218,5.15697072157086
0.255447032306536,-9.68502879910865,-0.0565957795725464,9.6284330195361,4.8708122893406,-9.65673090932237,4.78591861998178
0.257593646023398,-8.84005636594,-0.0103957352686606,8.82966063067134,4.42522605060433,-8.83485849830567,4.40963244770134
0.25974025974026,-8.06220014903177,0.0342910933786068,8.09649124241037,4.01395452782658,-8.07934569572107,4.06539116789449
0.261886873457121,-7.43407440175293,0.0664013733103642,7.5004757750633,3.68383651422128,-7.46727508840811,3.78343857418683
0.264033487173983,-7.00692393097792,0.0780786821790023,7.08500261315692,3.46442262439946,-7.04596327206742,3.58154064766796
0.266180100890845,-6.79192010300434,0.0665005979755287,6.85842070097987,3.3627097525144,-6.8251704019921,3.4624606494777
0.268326714607706,-6.76008247819206,0.0345139087822207,6.79459638697428,3.36278428470492,-6.77733943258318,3.41455514787825
0.270473328324568,-6.84905052195337,-0.00998645995947852,6.83906406199389,3.42951849095643,-6.84405729197363,3.41453880101721
0.27261994204143,-6.97417305193291,-0.0558785366666713,6.91829451526624,3.51502579429979,-6.94623378359957,3.43120798929978
0.274766555758291,-7.04179103915823,-0.0915868711072719,6.95020416805096,3.56668895513275,-6.9959976036046,3.42930864847184
0.276913169475153,-6.96323558571522,-0.108210843820281,6.85502474189494,3.53572321476775,-6.90913016380508,3.37340694903733
0.279059783192015,-6.66866988161332,-0.102019641472947,6.56665024014038,3.38534476154314,-6.61766006087685,3.23231529933372
0.281206396908876,-6.12017789492215,-0.0752980837489664,6.04487981117318,3.09773798933556,-6.08252885304767,2.98479086371211
0.283353010625738,-5.32295960669346,-0.0351702125074692,5.28778939418599,2.67906490960046,-5.30537450043972,2.62630959083926
0.2854996243426,-4.33214134061903,0.00899398892924308,4.34113532954827,2.16157367584489,-4.33663833508365,2.17506465923876
0.287646238059461,-3.2514021807536,0.0484203708375819,3.29982255159118,1.60149090495801,-3.27561236617239,1.67412146121438
0.289792851776323,-2.21976084524833,0.0770240676346813,2.29678491288301,1.07136838880682,-2.25827287906567,1.18690449025885
0.291939465493185,-1.38558949408446,0.0923242665112428,1.4779137605957,0.646632613786608,-1.43175162734008,0.785119013553472
0.294086079210046,-0.871846736849431,0.0952607065622071,0.967107443411639,0.388293015143612,-0.919477090130535,0.531184074986923
0.296232692926908,-0.741425685539752,0.0892675851219502,0.830693270661702,0.326079050208901,-0.786059478100727,0.459980427891826
0.298379306643769,-0.973696810889508,0.0790216782414562,1.05271848913096,0.447337566324026,-1.01320765001024,0.56587008368621
0.300525920360631,-1.46140232478596,0.0692068399015033,1.53060916468746,0.696097742442228,-1.49600574473671,0.799908002294483
0.302672534077493,-2.03146203992111,0.0635076082683811,2.09496964818949,0.983977215826364,-2.0632158440553,1.07923862822894
0.304819147794354,-2.48572041988728,0.0639247489998478,2.54964516888713,1.21089783544372,-2.5176827943872,1.30678495894349
0.306965761511216,-2.65081984839983,0.0704314695803361,2.72125131798016,1.29019418940975,-2.68603558319,1.39584139378025
0.309112375228078,-2.42299516166228,0.0809663844684929,2.50396154613077,1.17101438859689,-2.46347835389653,1.29246396529963
0.311258988944939,-1.79499379742321,0.0917685177522727,1.88676231517549,0.85161263983547,-1.84087805629935,0.989265416463879
0.313405602661801,-0.857690150227853,0.0980671308671837,0.955757281095037,0.379811509680335,-0.906723715661445,0.52691220598111
0.315552216378663,0.223717949550104,0.0951116907242019,-0.128606258825903,-0.159414820137153,0.176162104188004,-0.0167472840508504
0.317698830095524,1.2518126932768,0.0794461783568254,-1.17236651491998,-0.665629435816813,1.21208960409839,-0.546460168281575
0.319845443812386,2.0449750782036,0.0502043424260075,-1.9947707357776,-1.04758971031481,2.0198729069906,-0.972283196675794
0.321992057529248,2.4772901956848,0.0100667412193146,-2.46722345446548,-1.24367846845206,2.47225682507514,-1.22857835662309
0.324138671246109,2.4993109027653,-0.0345568568147357,-2.53386775958003,-1.23237702297528,2.51658933117266,-1.28421230819738
0.326285284962971,2.13569687657808,-0.074491856601224,-2.2101887331793,-1.03060250998843,2.17294280487869,-1.14234029489026
0.328431898679833,1.46403747332845,-0.0999967732157232,-1.56403424654418,-0.682020350056366,1.51403585993632,-0.83201550987995
0.330578512396694,0.584988237936914,-0.103754214925793,-0.688742452862706,-0.240617011505561,0.63686534539981,-0.39624833389425
0.332725126113556,-0.40515478120165,-0.0836279333967114,0.321526847804938,0.244391357299181,-0.363340814503294,0.118949457204113
0.334871739830418,-1.43190375307278,-0.0439692513920262,1.38793450168076,0.737936502232405,-1.40991912737677,0.671982625144366
0.337018353547279,-2.44824353489347,0.00518995739317372,2.45343349228664,1.22152678875015,-2.45083851359005,1.22931172483991
0.339164967264141,-3.43155007095021,0.0507349629613986,3.48228503391161,1.69040755399441,-3.45691755243091,1.7665099984365
0.341311580981002,-4.37681000073023,0.0798628419266942,4.45667284265693,2.14847357940177,-4.41674142169358,2.26826784229181
0.343458194697864,-5.29025793970504,0.0832597433980717,5.37351768310311,2.60349909815348,-5.33188781140407,2.72838871325059
0.345604808414726,-6.18505401207534,0.0573776515783682,6.2424316636537,3.06383818024848,-6.21374283786452,3.14990465761604
0.347751422131587,-7.07830126301269,0.00542789281788127,7.08372915583057,3.5364366850974,-7.08101520942163,3.54457852432422
0.349898035848449,-7.98762595981734,-0.0631106994662811,7.92451526035106,4.02536832964181,-7.9560706100842,3.93070228044239
0.352044649565311,-8.9259702138652,-0.134484948338977,8.79148526552622,4.53022758110209,-8.85872773969571,4.32850015859362
0.354191263282172,-9.894851919468,-0.193840550862662,9.70101136860534,5.04434623516533,-9.79793164403667,4.75358540887134
0.356337876999034,-10.878269477823,-0.22879949539129,10.6494699824317,5.55353448660713,-10.7638697301273,5.21033524352019
0.358484490715896,-11.8404826782651,-0.232406386161374,11.6080762921037,6.03644453221324,-11.7242794851844,5.68783495297118
0.360631104432757,-12.7302400022404,-0.204613526833183,12.5256264754072,6.46742676453677,-12.6279332388238,6.160506474287
0.362777718149619,-13.4917991482729,-0.15196946003297,13.33982968824,6.82188430415296,-13.4158144182565,6.5939301141035
0.364924331866481,-14.0803740148586,-0.0856384006214559,13.9947356142372,7.08300620774004,-14.0375548145479,6.95454860680786
0.367070945583342,-14.4775257371707,-0.0183085206093858,14.4592172165613,7.24791712889006,-14.468371476866,7.22045434797598
0.369217559300204,-14.7010929399249,0.0390513953511252,14.740144335276,7.33102077228689,-14.7206186376005,7.38959786531358
0.371364173017066,-14.8051109010897,0.0795650254278043,14.8846759265175,7.36277293783096,-14.8448934138036,7.48212047597266
0.373510786733927,-14.8682419624614,0.101357757790325,14.9695997202517,7.38344210233552,-14.9189208413565,7.53547873902101
0.375657400450789,-14.9735420153162,0.107019575262831,15.080561590579,7.43326122002669,-15.0270518029476,7.59379058292094
0.377804014167651,-15.1856229483817,0.102065862861174,15.2876888112429,7.54177854276027,-15.2366558798123,7.69487733705203
0.379950627884512,-15.5319978916063,0.0929837174320297,15.6249816090383,7.71950708708711,-15.5784897503223,7.85898266323516
0.382097241601374,-15.9939522231299,0.0853915157560058,16.0793437388859,7.95428035368696,-16.0366479810079,8.08236762732097
0.384243855318235,-16.5095587301014,0.0826836269580891,16.5922423570595,8.21343755157165,-16.5509005435804,8.33746299200878
0.386390469035097,-16.9881225269806,0.0853604400768431,17.0734829670575,8.45138104345189,-17.030802747019,8.57942170356715
0.388537082751959,-17.3321530333956,0.0910992104735872,17.4232522438692,8.62052691146102,-17.3777026386324,8.7571757271714
0.39068369646882,-17.4608828875819,0.0955114807644162,17.5563943683463,8.68268570340874,-17.5086386279641,8.82595292455536
0.392830310185682,-17.329214703218,0.0934432007427051,17.4226579039607,8.61788575123765,-17.3759363035894,8.7580505523517
0.394976923902544,-16.9377840746563,0.0805844315272018,17.0183685061835,8.42859982156454,-16.9780762904199,8.54947646885535
0.397123537619405,-16.3325038409396,0.0550597275538164,16.3875635684935,8.13872205669291,-16.3600337047166,8.22131164802364
0.399270151336267,-15.5942827223342,0.0185862701761097,15.6128689925103,7.78784822607906,-15.6035758574223,7.81572763134323
0.401416765053129,-14.8213103585919,-0.0232384776674316,14.7980718809245,7.42227441812968,-14.8096911197582,7.38741670162853
0.40356337876999,-14.1077504807133,-0.0618564817543125,14.045893998959,7.08480348123381,-14.0768222398361,6.99201875860234
0.405709992486852,-13.5239529693301,-0.0879139055711547,13.4360390637589,6.80593343745061,-13.4799960165445,6.67406257909388
0.407856606203714,-13.10385579862,-0.0941917643503523,13.0096640342697,6.59902378148518,-13.0567599164448,6.45773613495966
0.410003219920575,-12.8442474553597,-0.0782658353182851,12.7659816200414,6.46125664533899,-12.8051145377006,6.34385789236157
0.412149833637437,-12.7171746480394,-0.0437064663181627,12.6734681817213,6.38044055717879,-12.6953214148803,6.31488085770154
0.414296447354299,-12.6913231472128,0.000785691954148892,12.6921088391669,6.34526872762931,-12.6917159931899,6.34644726556054
0.41644306107116,-12.7533641756814,0.0439137129870663,12.7972778886684,6.35472523134715,-12.7753210321749,6.42059580082775
0.418589674788022,-12.9196129877122,0.0749389479138558,12.9945519356261,6.4223370198992,-12.9570824616692,6.53474544176998
0.420736288504884,-13.2326780639703,0.0864335998026144,13.3191116637729,6.57312223208385,-13.2758948638716,6.70277263178777
0.422882902221745,-13.7442102899925,0.0760107507304979,13.820221040723,6.83409976963099,-13.7822156653577,6.94811589572674
0.425029515938607,-14.4897429274456,0.0467844316465331,14.5365273590921,7.22147924789951,-14.5131351432688,7.29165589536931
0.427176129655468,-15.4631122543313,0.00653358348845624,15.4696458378198,7.72828933542143,-15.4663790460756,7.73808971065412
0.42932274337233,-16.5964203404834,-0.0343061076438989,16.5621142328395,8.31536322406363,-16.5792672866614,8.26390406259778
0.431469357089192,-17.7487875035652,-0.0654906039789258,17.6832968995863,8.90713905377207,-17.7160422015757,8.80890314780368
0.433615970806053,-18.7053603320374,-0.0799804545747944,18.6253798774626,9.39267039330607,-18.66537010475,9.27269971144388
0.435762584522915,-19.1882167055157,-0.0760891107751061,19.1121275947406,9.63215290814541,-19.1501721501282,9.51801924198275
0.437909198239777,-18.8820055516463,-0.0577777802179143,18.8242277714284,9.46989166593209,-18.8531166615373,9.38322499560522
0.440055811956638,-17.4766307904184,-0.032840369926912,17.4437904204915,8.75473558017264,-17.4602106054549,8.70547502528227
0.4422024256735,-14.7245242715558,-0.00978951275556392,14.7147347588002,7.36715689215566,-14.719629515178,7.35247262302232
0.444349039390362,-10.5018127080399,0.00512839911744297,10.5069411071573,5.24834215446123,-10.5043769075986,5.25603475313739
0.446495653107223,-4.85558618658401,0.00955612349688639,4.86514231008089,2.42301503154356,-4.86036424833245,2.43734921678889
0.448642266824085,1.98100882002216,0.00476225950873821,-1.97624656051342,-0.992885539765448,1.97862769026779,-0.985742150502341
0.450788880540947,9.61544595922579,-0.00622895026724846,-9.62167490949304,-4.80460850447927,9.61856043435941,-4.81395192988014
0.452935494257808,17.558445279108,-0.0211370737196166,-17.5795823528277,-8.76865410269421,17.5690138159678,-8.80035971327363
0.45508210797467,25.3016473227998,-0.040160361778362,-25.3418076845781,-12.6307434805107,25.3217275036889,-12.6909840231782
0.457228721691532,32.3830709501989,-0.0657693712434746,-32.4488403214424,-16.1586507894777,32.4159556358207,-16.257304846343
0.459375335408393,38.4199076518304,-0.100420421678001,-38.5203280735085,-19.1597436150762,38.4701178626694,-19.3103742475932
0.461521949125255,43.1049876215685,-0.143402814340442,-43.2483904359089,-21.480792403614,43.1766890287387,-21.6958966251247
0.463668562842117,46.1805732923551,-0.188756950877858,-46.369330243233,-22.9959081707386,46.274951767794,-23.2790435970554
0.465815176558978,47.4120502861227,-0.225793137534009,-47.6378434236567,-23.5931285742944,47.5249468548897,-23.9318182805954
0.46796179027584,46.5823705217125,-0.242442077833446,-46.824812599546,-23.1699642219395,46.7035915606292,-23.5336273386897
0.470108403992701,43.5194766568089,-0.230098876419726,-43.7495755332286,-21.6446888901946,43.6345260950187,-21.9898372048242
0.472255017709563,38.1570361816878,-0.187607702581963,-38.3446438842698,-18.9847142395529,38.2508400329788,-19.2661257934259
0.474401631426425,30.6147029306044,-0.122352203077135,-30.7370551336816,-15.2461753637636,30.675879032143,-15.4297036683793
0.476548245143286,21.2700886124122,-0.0480092927973709,-21.3180979052095,-10.6110396598074,21.2940932588108,-10.6830535990035
0.478694858860148,10.7870982174998,0.0197686884967925,-10.767329529003,-5.4034334529983,10.7772138732514,-5.37378042025311
0.48084147257701,0.071522624796672,0.067817552106453,-0.00370507269021901,-0.0696700884515625,0.0376138487434455,0.032056239708117
0.482988086293871,-9.85341245542016,0.0885981242497867,9.94201057966994,4.88240716558519,-9.89771151754505,5.01530435195987
0.485134700010733,-18.028433142269,0.0813862797739179,18.1098194220429,8.97352343124752,-18.0691262821559,9.09560285090839
0.487281313727595,-23.7477523336487,0.0515740236739838,23.7993263573227,11.8480891549874,-23.7735393454857,11.9254501904983
0.489427927444456,-26.6997606364763,0.00852494698099173,26.7082855834573,13.3456178447476,-26.7040231099668,13.3584052652191
0.491574541161318,-27.0158917664473,-0.0373549389532617,26.978536827494,13.5266233527003,-26.9972142969707,13.4705909442704
0.49372115487818,-25.214842118629,-0.0774805035511624,25.1373616150779,12.6461613110901,-25.1761018668535,12.5299405557634
0.495867768595041,-22.062545591587,-0.106914127282588,21.9556314643044,11.0847298594348,-22.0090885279457,10.9243586685109
0.498014382311903,-18.3916691747938,-0.124441127083246,18.2672280477105,9.2580551509385,-18.3294486112521,9.07139346031364
0.500160996028765,-14.9308281030104,-0.131017248981813,14.7998108540286,7.53092267599613,-14.8653194785195,7.33439680252341
0.502307609745626,-12.1838301361753,-0.127697656037992,12.0561324801373,6.15576389610662,-12.1199813081563,5.96421741204963
0.504454223462488,-10.3795181213086,-0.114461288257873,10.2650568330507,5.24698970478323,-10.3222874771797,5.07529777239642
0.50660083717935,-9.49134708356193,-0.0906368247917373,9.40071025877019,4.79099195417683,-9.44602867116606,4.65503671698923
0.508747450896211,-9.30889348013716,-0.0564507768176765,9.25244270331948,4.68267212847742,-9.28066809172832,4.5979959632509
0.510894064613073,-9.53427231926715,-0.0144703558452309,9.51980196342192,4.77437133755619,-9.52703714134454,4.75266580378834
0.513040678329934,-9.875718992087,0.0300640372465485,9.90578302933355,4.92282747742023,-9.89075101071028,4.96792353329005
0.515187292046796,-10.1170747391545,0.0701592053424459,10.187233944497,5.02345776690605,-10.1521543418258,5.12869657491972
0.517333905763658,-10.1525160052208,0.0987015948986223,10.2512176001194,5.02690720516108,-10.2018668026701,5.17495959750902
0.519480519480519,-9.98657087397409,0.110163373272343,10.0967342472464,4.93820375035087,-10.0416525606103,5.10344881025939
0.521627133197381,-9.70692733710077,0.1019803623496,9.80890769945037,4.80247348737558,-9.75791751827557,4.95544403089998
0.523773746914243,-9.44086248276894,0.0753998383859681,9.5162623211549,4.68273132219148,-9.47856240196192,4.79583107977044
0.525920360631104,-9.30688207337901,0.0356482248969319,9.34253029827594,4.63561692424104,-9.32470618582748,4.68908926158644
0.528066974347966,-9.37302667710907,-0.0087465462047241,9.36428013090435,4.6908866116569,-9.36865340400671,4.67776679234981
0.530213588064828,-9.63198726893965,-0.0475984760133809,9.58438879292627,4.83979287247652,-9.60818803093296,4.76839515845645
0.532360201781689,-9.99940182296586,-0.0715735776525154,9.92782824531334,5.03548770030919,-9.9636150341396,4.92812733383041
0.534506815498551,-10.3355998429226,-0.0750294430702202,10.2605703998523,5.20531464299639,-10.2980851213874,5.09277047839106
0.536653429215413,-10.4845485921844,-0.058162095963014,10.4263864962214,5.2713553440737,-10.4554675442029,5.18411220012918
0.538800042932274,-10.3189935956334,-0.0273557988590119,10.2916377967744,5.1731746972462,-10.3053156962039,5.13214099895769
0.540946656649136,-9.77907632963814,0.00670909900669238,9.78578542864483,4.88618361531572,-9.78243087914148,4.89624726382576
0.543093270365998,-8.89346131431799,0.0325629336728316,8.92602424799083,4.43044919032258,-8.90974278115441,4.47929359083183
0.545239884082859,-7.77677098774387,0.041729941171279,7.81850092891515,3.8675205232863,-7.79763595832951,3.93011543504321
0.547386497799721,-6.60354286165116,0.031470824981259,6.63501368663242,3.28603601833495,-6.61927827414179,3.33324225580684
0.549533111516583,-5.56522190994568,0.0056537686799733,5.57087567862565,2.77978407063285,-5.56804879428566,2.78826472365281
0.551679725233444,-4.82155715975137,-0.026495450716997,4.79506170903437,2.42402630523418,-4.80830943439287,2.38428312915869
0.553826338950306,-4.46013808341152,-0.0534462770730136,4.4066918063385,2.25679218024226,-4.43341494487501,2.17662276463274
0.555972952667168,-4.47628485435326,-0.0653188252854825,4.41096602906778,2.27080183981937,-4.44362544171052,2.17282360189115
0.558119566384029,-4.77930582703333,-0.0573601299533774,4.72194569707995,2.41833297849335,-4.75062576205664,2.33229278356329
0.560266180100891,-5.22203843218279,-0.0315579773355389,5.19048045484725,2.62679820475916,-5.20625944351502,2.57946123875585
0.562412793817752,-5.64286568216466,0.00423671407607632,5.64710239624074,2.81931448404429,-5.6449840392027,2.82566955515841
0.564559407534614,-5.90672241921479,0.0391668312198048,5.9458892504346,2.93377779399749,-5.9263058348247,2.9925280408272
0.566706021251476,-5.93413830076632,0.0629487563464447,5.99708705711276,2.93559477220994,-5.96561267893954,3.0300179067296
0.568852634968337,-5.71251501580899,0.0689224712673623,5.78143748707635,2.82179627227081,-5.74697625144267,2.92517997917186
0.570999248685199,-5.28920925958079,0.0557692897448738,5.34497854932567,2.61671998491796,-5.31709390445323,2.70037391953527
0.573145862402061,-4.7504732448981,0.0275802497443452,4.77805349464245,2.36144649757688,-4.76426336977028,2.4028168721934
0.575292476118922,-4.19327715749069,-0.00765518933597195,4.18562196815472,2.10046617341333,-4.1894495628227,2.08898338940937
0.577439089835784,-3.69816700632722,-0.0407219732689295,3.65744503305829,1.86944448979807,-3.67780601969275,1.80836152989468
0.579585703552646,-3.31048588315089,-0.0642133192262019,3.24627256392469,1.68734960118855,-3.27837922353779,1.59102962234924
0.581732317269507,-3.03430906460346,-0.0748135220143843,2.95949554258908,1.55456129330892,-2.99690230359627,1.44234101028735
0.583878930986369,-2.83877521720397,-0.0738386242392091,2.76493659296477,1.45630692072159,-2.80185590508437,1.34554898436278
0.586025544703231,-2.67214701861607,-0.0658450522997485,2.60630196631632,1.36899603545791,-2.6392244924662,1.27022845700829
0.588172158420092,-2.47730379796472,-0.0561921178480394,2.42111168011668,1.26674795790638,-2.4492077390407,1.18245978113432
0.590318772136954,-2.20407799100099,-0.0489730930528849,2.1551048979481,1.12652554202694,-2.17959144447454,1.05306590244761
0.592465385853816,-1.81726519464767,-0.0463342068627384,1.77093098778494,0.931799700755206,-1.7940980912163,0.862298390461098
0.594611999570677,-1.3017756376838,-0.0492175968142854,1.25255804086951,0.675496617249042,-1.27716683927666,0.601670222027614
0.596758613287539,-0.666512771505046,-0.0586250337960984,0.607887737708948,0.362568902650572,-0.637200254606997,0.274631351956425
0.598905227004401,0.053638202587404,-0.0762078645020437,-0.129846067089448,0.0112848309573199,0.0917421348384258,-0.103026965795746
0.601051840721262,0.800446678760056,-0.103602196127435,-0.904048874887491,-0.348422241316311,0.852247776823774,-0.503825535507463
0.603198454438124,1.50174842512221,-0.140956417183834,-1.64270484230605,-0.68039600396919,1.57222663371413,-0.891830629744941
0.605345068154985,2.08655888824071,-0.185627615320049,-2.27218650356076,-0.950465636460331,2.17937269590074,-1.2289070594404
0.607491681871847,2.50161159638965,-0.231730946486197,-2.73334254287585,-1.13494032495173,2.61747706963275,-1.48253674468102
0.609638295588709,2.72411480203302,-0.270699682315667,-2.99481448434869,-1.22670755985868,2.85946464319086,-1.63275708333218
0.61178490930557,2.76692421172951,-0.292855558476157,-3.05977977020567,-1.23703432662668,2.91335199096759,-1.67631766434091
0.613931523022432,2.67494024649171,-0.289953430857768,-2.96489367734947,-1.19249340781697,2.81991696192059,-1.62742355410362
0.616078136739294,2.51430521042732,-0.258144074269491,-2.77244928469682,-1.12808056807892,2.64337724756207,-1.51529667948315
0.618224750456155,2.35795658254056,-0.200025265867482,-2.55798184840804,-1.07896565833654,2.4579692154743,-1.37900355713776
0.620371364173017,2.27144437878752,-0.124458283563044,-2.39590266235056,-1.07349304761224,2.33367352056904,-1.2601804729568
0.622517977889879,2.30167570517819,-0.0439950980788276,-2.34567080325702,-1.12884030354968,2.3236732542176,-1.19483295066792
0.62466459160674,2.46972888354484,0.0288666782845968,-2.44086220526024,-1.24929778091472,2.45529554440254,-1.20599776348782
0.626811205323602,2.76858615134161,0.0849444212899319,-2.68364173005168,-1.42676528631577,2.72611394069664,-1.29934865438087
0.628957819040464,3.16740463829989,0.120068178510256,-3.04733645978963,-1.64373640840507,3.10737054904476,-1.46363414063969
0.631104432757325,3.62364062320586,0.135032589816734,-3.48860803338912,-1.8793366065113,3.55612432829749,-1.67678772178619
0.633251046474187,4.10122410069739,0.134261420312009,-3.96696268038538,-2.1177427605047,4.03409339054138,-1.91635063003669
0.635397660191049,4.58839480440418,0.123893637295671,-4.46450116710851,-2.35614422084993,4.52644798575634,-2.17030376490642
0.63754427390791,5.10648193944295,0.109951624364224,-4.99653031507873,-2.60821678190359,5.05150612726084,-2.44328934535725
0.639690887624772,5.70332464786407,0.0970383125287126,-5.60628633533536,-2.90018148019639,5.65480549159971,-2.75462401140332
0.641837501341634,6.43132384896988,0.0877472086695436,-6.34357664030033,-3.25953552881971,6.3874502446351,-3.12791471581539
0.643984115058495,7.31729180657164,0.0827401179314436,-7.23455168864019,-3.70001596225154,7.27592174760591,-3.57590578535437
0.646130728775357,8.33624558053859,0.081295634347977,-8.25494994619061,-4.20877060744328,8.2955977633646,-4.08682715592132
0.648277342492218,9.40181876961183,0.0820672951102803,-9.31975147450155,-4.74194303236105,9.36078512205668,-4.61884208969563
0.65042395620908,10.3809970147632,0.0838007313380539,-10.2971962834252,-5.23239887305064,10.3390966490942,-5.10669777604356
0.652570569925942,11.1313957710959,0.0858203631968824,-11.045575407899,-5.60860806714637,11.0884855894974,-5.47987752235104
0.654717183642803,11.5489301961527,0.0881833481999788,-11.4607468479528,-5.81855677217636,11.5048385220527,-5.68628174987639
0.656863797359665,11.6076002669488,0.0914915620823567,-11.5161087048664,-5.84954591451556,11.5618544859076,-5.71230857139202
0.659010411076527,11.3748363291449,0.0964375355360626,-11.2783987936089,-5.73563693234049,11.3266175613769,-5.5909806290364
0.661157024793388,10.9951097542436,0.103228025224917,-10.8918817290187,-5.54916888973427,10.9434957416312,-5.3943268518969
0.66330363851025,10.6471829091021,0.111071105076807,-10.5361118040253,-5.37912700708946,10.5916473565637,-5.21252034947425
0.665450252227112,10.4906703159569,0.11792029789295,-10.3727500180639,-5.30429530692491,10.4317101670104,-5.12741486008549
0.667596865943973,10.6210079091339,0.120632816973896,-10.50037509216,-5.37082036305389,10.5606915006469,-5.18987113759305
0.669743479660835,11.0475446673344,0.115612041323251,-10.9319326260111,-5.58157835432882,10.9897386466728,-5.40816029234394
0.671890093377697,11.70001920731,0.0998697436441072,-11.6001494636659,-5.89994447547706,11.650084335488,-5.7501398600109
0.674036707094558,12.4584711237774,0.0722802291369621,-12.3861908946405,-6.2653756764572,12.422331009209,-6.15695533275176
0.67618332081142,13.1942136603975,0.034646080613331,-13.1595675797842,-6.61442987050542,13.1768906200908,-6.56246074958542
0.678329934528282,13.8068975286302,-0.00788633765367209,-13.8147838662838,-6.89950559548825,13.810840697457,-6.91133510196875
0.680476548245143,14.2456995917979,-0.0474613086186718,-14.2931609004165,-7.09911914158959,14.2694302461072,-7.1703111045176
0.682623161962005,14.5102765057734,-0.0753215223572945,-14.5855980281307,-7.21747749170806,14.5479372669521,-7.33045977524401
0.684769775678867,14.6357900876936,-0.0844050334704753,-14.720195121164,-7.27569252711155,14.6779926044288,-7.40230007731726
0.686916389395728,14.6714724465173,-0.0717871424418557,-14.7432595889592,-7.29984265203773,14.7073660177382,-7.40752336570051
0.68906300311259,14.6617398820688,-0.0398543703549776,-14.7015942524238,-7.31094275585691,14.6816670672463,-7.37072431138938
0.691209616829451,14.6346171668846,0.00434899243215691,-14.6302681744524,-7.31948307965838,14.6324426706685,-7.31295959101014
0.693356230546313,14.5978812884562,0.0512136903961042,-14.5466675980601,-7.32454748942613,14.5722744432581,-7.24772695383197
0.695502844263175,14.5413552682196,0.0911218243929315,-14.4502334438266,-7.31623854630625,14.4957943560231,-7.17955580971685
0.697649457980036,14.4439289806698,0.116590844478976,-14.3273381361909,-7.28025991257441,14.3856335584303,-7.10537364585594
0.699796071696898,14.2839662807094,0.123590341356052,-14.1603759393533,-7.20377831103272,14.2221711100314,-7.01839279899864
0.70194268541376,14.0504061477072,0.112005770212417,-13.9384003774948,-7.08120595895983,13.994403262601,-6.91319730364121
0.704089299130621,13.7503639504863,0.0853847926727102,-13.6649791578135,-6.91787437157948,13.7076715541499,-6.78979718257042
0.706235912847483,13.4095372640902,0.0500896603806557,-13.3594476037095,-6.72981346223543,13.3844924338999,-6.65467897166444
0.708382526564345,13.0643462300649,0.0139102277512275,-13.0504360023137,-6.53912822890808,13.0573911161893,-6.51826288728124
0.710529140281206,12.7478420460158,-0.0158117887781705,-12.7636538347939,-6.3660151286188,12.7557479404049,-6.38973281178606
0.712675753998068,12.4738633916239,-0.0343377383681689,-12.5082011299921,-6.21976282662787,12.491032260808,-6.27126943418012
0.71482236771493,12.2253687650629,-0.0414116314376427,-12.2667803965005,-6.09197856681263,12.2460745807817,-6.15409601396909
0.716968981431791,11.9524530503106,-0.0419623499907237,-11.9944154003013,-5.95524535015994,11.973434225306,-6.01818887514603
0.719115595148653,11.5824545270196,-0.0448175586213995,-11.627272085641,-5.7688184841991,11.6048633063303,-5.8360448221312
0.721262208865515,11.039818235479,-0.059448030451845,-11.0992662659309,-5.49018510251359,11.0695422507049,-5.57935714819135
0.723408822582376,10.2694063959705,-0.0919297999313122,-10.3613361959018,-5.0887382980196,10.3153712959362,-5.22663299791657
0.725555436299238,9.2553618659501,-0.141950696097513,-9.39731256204762,-4.55670558492629,9.32633721399886,-4.76963162907256
0.7277020500161,8.02873562113883,-0.202327242141755,-8.23106286328059,-3.91320418949854,8.12989924220971,-4.21669505271117
0.729848663732961,6.66064783246498,-0.261355723093395,-6.92200355555838,-3.19964605468579,6.79132569401168,-3.59167963932589
0.731995277449823,5.24299354975209,-0.306948088509269,-5.54994163826136,-2.46802273062141,5.39646759400673,-2.92844486338532
0.734141891166684,3.86380655094288,-0.33061575920989,-4.19442231015277,-1.7665953958665,4.02911443054783,-2.26251903468133
0.736288504883546,2.58682147158501,-0.329613447259913,-2.91643491884493,-1.12860401216255,2.75162819521497,-1.62302418305242
0.738435118600408,1.44268228768408,-0.306793726200593,-1.74947601388467,-0.567944280741742,1.59607915078437,-1.02813487004263
0.740581732317269,0.43325659305087,-0.268891027287566,-0.702147620338436,-0.0821827828816519,0.567702106694653,-0.485519323813001
0.742728346034131,-0.455959985421545,-0.224259367730443,0.231700617691102,0.340109676575994,-0.343830301556323,0.00372062498032966
0.744874959750993,-1.24344749442999,-0.180769639792483,1.06267785463751,0.712108567111237,-1.15306267453375,0.440954107422513
0.747021573467854,-1.94557210832574,-0.144181756437693,1.80139035188804,1.04487693238172,-1.87348123010689,0.828604297725176
0.749168187184716,-2.57799066213875,-0.117084494329545,2.4609061678092,1.34753757823415,-2.51944841497398,1.17191083673983
0.751314800901578,-3.16060637487054,-0.0985341264199497,3.06207224845059,1.62957025064524,-3.11133931166056,1.48176906101532
0.753461414618439,-3.72002195522129,-0.0846728265206848,3.63534912870061,1.90234739087099,-3.67768554196095,1.77533815108996
0.755608028335301,-4.28544389933501,-0.070402932126526,4.21504096720849,2.17792341573077,-4.25024243327175,2.07231901754098
0.757754642052163,-4.87870715885745,-0.0515280910767451,4.82717906778071,2.4651176249671,-4.85294311331908,2.38782548835198
0.759901255769024,-5.5033822451069,-0.0262954743056529,5.47708677080124,2.76483885970628,-5.49023450795407,2.7253956482478
0.762047869485886,-6.13893073517887,0.00438429995793602,6.1433150351368,3.06727321761047,-6.14112288515784,3.07384966754737
0.764194483202748,-6.74323666472417,0.0378592023399466,6.78109586706411,3.35268873119211,-6.76216626589414,3.40947753470203
0.766341096919609,-7.26288490502597,0.0709902237722167,7.33387512879819,3.59594734062688,-7.29838001691208,3.7024326762852
0.768487710636471,-7.64774670837553,0.100990253418608,7.74873696179414,3.77337822747846,-7.69824183508483,3.92486360760637
0.770634324353333,-7.86537287514355,0.125573954827291,7.99094682997085,3.86989946015813,-7.9281598525572,4.05826039239907
0.772780938070194,-7.91091035804332,0.142601938546647,8.05351229658997,3.88415420974834,-7.98221132731665,4.09805711756831
0.774927551787056,-7.80946210066967,0.149645535241935,7.95910763591161,3.82990828271387,-7.88428486829064,4.05437658557677
0.777074165503918,-7.60976635377104,0.143912010815059,7.7536783645861,3.73292717147799,-7.68172235917857,3.94879518770058
0.779220779220779,-7.37046333984788,0.122795443769774,7.49325878361766,3.62383394803905,-7.43186106173277,3.80802711369372
0.781367392937641,-7.14282901473283,0.0850215021136178,7.22785051684645,3.52890375630961,-7.18533976578964,3.65643600948003
0.783514006654502,-6.9559454619377,0.0320233256312037,6.9879687875689,3.46196106815325,-6.9719571247533,3.50999605660005
0.785660620371364,-6.81030791918673,-0.0310722750560625,6.77923564413067,3.4206900971214,-6.7947717816587,3.3740816845373
0.787807234088226,-6.68275687682432,-0.0955364732673264,6.587220403557,3.38914667504583,-6.63498864019066,3.24584196514484
0.789953847805087,-6.54022696684314,-0.150659804913836,6.3895671619293,3.34544338587849,-6.46489706438622,3.11945367850773
0.792100461521949,-6.35516518268015,-0.186758755740505,6.16840642693964,3.27096196921033,-6.2617858048099,2.99082383559957
0.794247075238811,-6.11497422831734,-0.198612829911093,5.91636139840625,3.15679352911422,-6.0156678133618,2.85887428424758
0.796393688955672,-5.82210477679162,-0.187808299835376,5.63429647695625,3.0049565383135,-5.72820062687393,2.72324408856044
0.798540302672534,-5.48737704290144,-0.162648339661938,5.32472870323951,2.82501269128169,-5.40605287307047,2.58104018178878
0.800686916389396,-5.12264680084805,-0.135307228928954,4.9873395719191,2.6289770148885,-5.05499318638358,2.42601617149507
0.802833530106257,-4.73803236581948,-0.117258635418744,4.62077373040074,2.42764550061911,-4.67940304811011,2.251757547491
0.804980143823119,-4.34458070890063,-0.11492784085527,4.22965286804536,2.22975427487795,-4.28711678847299,2.05736251359504
0.807126757539981,-3.95855393561722,-0.127450930960446,3.83110300465678,2.04300243328884,-3.894828470137,1.85182603684817
0.809273371256842,-3.60178675402226,-0.147394388386413,3.45439236563585,1.87459057120434,-3.52808955982906,1.65349898862472
0.811419984973704,-3.29522763289161,-0.163901590227538,3.13132604266407,1.72956461155957,-3.21327683777784,1.48371222621827
0.813566598690566,-3.04813364355433,-0.166783981957199,2.88134966159713,1.60745881275576,-2.96474165257573,1.35728283981997
0.815713212407427,-2.84948236189872,-0.149980618130248,2.69950174376847,1.49973149001448,-2.7744920528336,1.27476056281911
0.817859826124289,-2.6677118917794,-0.113323484773598,2.5543884070058,1.3905176882765,-2.6110501493926,1.2205324611161
0.820006439841151,-2.46019022788561,-0.0622149276762445,2.39797530020936,1.26120257778093,-2.42908276404748,1.16788018626656
0.822153053558012,-2.18846594270634,-0.00552332388198512,2.18294261882435,1.09699463329416,-2.18570428076535,1.08870964747118
0.824299667274874,-1.83287002822939,0.047356264333152,1.88022629256255,0.892756881948121,-1.85654816039597,0.963791278447849
0.826446280991735,-1.40101867701911,0.0891103739519992,1.49012905097111,0.655954151533554,-1.44557386399511,0.789619712461553
0.828592894708597,-0.927508152364432,0.115983487064327,1.04349163942876,0.405762332650053,-0.985499895896596,0.579737563246543
0.830739508425459,-0.464985917569796,0.127944995280551,0.592930912850347,0.168520461144623,-0.528958415210071,0.360437954065449
0.83288612214232,-0.0693541857419785,0.127850011445489,0.197204197187467,-0.029247912851755,-0.133279191464723,0.162527104316478
0.835032735859182,0.216162245339386,0.12010011267758,-0.0960621326618055,-0.168131179008483,0.156112189000596,0.0120189900078874
0.837179349576044,0.372901841767377,0.109289368008104,-0.263612473759273,-0.24109560488774,0.318257157763325,-0.0771615528755848
0.839325963292905,0.411111900603003,0.0991735763055355,-0.311938324297467,-0.255142738454269,0.361525112450235,-0.106382373995966
0.841472577009767,0.366152731990577,0.0921137018398123,-0.274039030150765,-0.229133216915195,0.320095881070671,-0.0909626641554763
0.843619190726629,0.288454084260094,0.0889813295545553,-0.199472754705539,-0.188717706907325,0.243963419482816,-0.0552457125754916
0.84576580444349,0.230536779995028,0.0894086003168859,-0.141128179678142,-0.159972690155957,0.185832479836585,-0.0258597896806282
0.847912418160352,0.234853719562682,0.0922246817007355,-0.142629037861947,-0.163539200631709,0.188741378712315,-0.0252021780806057
0.850059031877214,0.325676324916286,0.0959331310001312,-0.229743193916155,-0.210804727958209,0.27770975941622,-0.0669050314580119
0.852205645594075,0.506793572875077,0.0991273699281082,-0.407666202946969,-0.302960471401593,0.457229887911023,-0.15426941650943
0.854352259310937,0.764846176759377,0.100791789947419,-0.664054386811958,-0.432818983353398,0.714450281785667,-0.28163129843227
0.856498873027799,1.07639450344052,0.100476190415224,-0.975918313025296,-0.588435346927872,1.02615640823291,-0.437721061305036
0.85864548674466,1.41590429154897,0.0983527500499051,-1.31755154149907,-0.757128520799439,1.36672791652402,-0.609599395724581
0.860792100461522,1.76187502861859,0.0951682798654404,-1.66670674875315,-0.928521654242015,1.71429088868587,-0.785769234443854
0.862938714178384,2.09916972727436,0.0920979668831053,-2.00707176039125,-1.09563384707873,2.05312074383281,-0.957486896754074
0.865085327895245,2.41720711818432,0.0905014131830015,-2.32670570500131,-1.25385426568366,2.37195641159281,-1.11810214590916
0.867231941612107,2.70582108472242,0.0915876909387007,-2.61423339378372,-1.39870438783056,2.66002723925307,-1.26132285142251
0.869378555328968,2.95207990443856,0.0960184880243684,-2.85606141641419,-1.52404919623146,2.90407066042637,-1.38002146419491
0.87152516904583,3.14070888983086,0.103514482091595,-3.03719440773926,-1.62211168596123,3.08895164878506,-1.46683996282383
0.873671782762692,3.2581075694591,0.112568552923972,-3.14553901653513,-1.68533806119153,3.20182329299711,-1.51648523180558
0.875818396479554,3.29749199153366,0.120392343751919,-3.17709964778174,-1.70894216764279,3.2372958196577,-1.52835365201491
0.877965010196415,3.26252769027624,0.123210050582629,-3.13931763969361,-1.69286887042943,3.20092266498493,-1.50805379455549
0.880111623913277,3.16856036916129,0.116950301475159,-3.05161006768613,-1.64275533531822,3.11008521842371,-1.46732988310549
0.882258237630138,3.04189205360669,0.0982721552137578,-2.94361989839293,-1.57008210441022,2.99275597599981,-1.42267387158959
0.884404851347,2.91726770395268,0.0657141947036055,-2.85155350924907,-1.49149094932814,2.88441060660088,-1.39291965727273
0.886551465063862,2.8330145170156,0.020621456892824,-2.81239306012278,-1.42681798695421,2.82270378856919,-1.39588580161498
0.888698078780723,2.8237477412125,-0.0325471589610037,-2.8562949001735,-1.39560029112575,2.840021320693,-1.44442102956725
0.890844692497585,2.91212993915379,-0.0868131124028514,-2.99894305155664,-1.41265841337547,2.95553649535522,-1.54287808197975
0.892991306214447,3.10231651820777,-0.134118633392868,-3.23643515160064,-1.48409894240745,3.1693758349042,-1.68527689249675
0.895137919931308,3.37731948372038,-0.167115539459378,-3.54443502317975,-1.6051019721305,3.46087725345006,-1.85577528131957
0.89728453364817,3.70094425170534,-0.180623894417517,-3.88156814612286,-1.76016017864391,3.7912561989141,-2.03109602027019
0.899431147365032,4.02348706580237,-0.17241275105333,-4.1958998168557,-1.92553715737452,4.10969344132903,-2.18415628395451
0.901577761081893,4.28989224084731,-0.143438382284447,-4.43333062313176,-2.07322692928143,4.36161143198954,-2.2883845027081
0.903724374798755,4.44929051718941,-0.0977179981998732,-4.54700851538929,-2.17578625949477,4.49814951628935,-2.32236325679458
0.905870988515617,4.4648659671427,-0.0417188721764718,-4.50658483931917,-2.21157354748311,4.48572540323094,-2.27415185574782
0.908017602232478,4.32244360124836,0.0168482307662752,-4.30559537048208,-2.16964591600732,4.31401948586522,-2.1443735698579
0.91016421594934,4.03566131779971,0.0705165420491096,-3.9651447757506,-2.05308892992441,4.00040304677515,-1.94731411685074
0.912310829666201,3.6458698133192,0.113248613867999,-3.5326211994512,-1.8795592135936,3.5892455063852,-1.7096862927916
0.914457443383063,3.21602628134304,0.140961287490334,-3.07506499385271,-1.67849378441669,3.14554563759787,-1.46705185318119
0.916604057099925,2.81931356468089,0.15147641755203,-2.66783714712886,-1.48539499111646,2.74357535590488,-1.25818036478842
0.918750670816787,2.52465867471599,0.144263725889641,-2.38039494882635,-1.33446120030282,2.45252681177117,-1.11806561146836
0.920897284533648,2.38249655789846,0.120338073217054,-2.26215848468141,-1.25141731555776,2.32232752128993,-1.07091020573218
0.92304389825051,2.41459032127299,0.0824582510468185,-2.33213207022617,-1.2485242861599,2.37336119574958,-1.12483690958967
0.925190511967371,2.61098945541117,0.0354764303667992,-2.57551302504438,-1.32323294288899,2.59325124022778,-1.27001829733879
0.927337125684233,2.93515607699088,-0.0135580246879332,-2.94871410167881,-1.46079902615147,2.94193508933484,-1.48113606318337
0.929483739401095,3.33545475845424,-0.0560048791708955,-3.39145963762514,-1.63972493964167,3.36345719803969,-1.72373225839802
0.931630353117956,3.75882575018237,-0.0832087945270247,-3.84203454470939,-1.83780847782767,3.80043014744588,-1.96262166961821
0.933776966834818,4.16190822737806,-0.0888055239628132,-4.25071375134088,-2.03655135170762,4.20631098935947,-2.16975963765184
0.93592358055168,4.5165322671261,-0.0709206771230167,-4.58745294424911,-2.22280579500154,4.55199260568761,-2.32918681068607
0.938070194268541,4.8093264348099,-0.0331909757231802,-4.84251741053308,-2.38806772954336,4.82592192267149,-2.43785419312813
0.940216807985403,5.03760709450769,0.0159725537749726,-5.02163454073272,-2.52678982414133,5.0296208176202,-2.50283099347887
0.942363421702265,5.20466706245809,0.0655552013016188,-5.13911186115647,-2.63511113187985,5.17188946180728,-2.53677832992743
0.944510035419126,5.31691347146627,0.104639294599817,-5.21227417686645,-2.71077638303304,5.26459382416636,-2.55381744113332
0.946656649135988,5.38359551938509,0.124801618687193,-5.2587939006979,-2.75419856903614,5.32119471004149,-2.56699614100535
0.94880326285285,5.41804808881033,0.121775016681408,-5.29627307212892,-2.76991155274587,5.35716058046962,-2.58724902772376
0.950949876569711,5.43835962393882,0.096258429036784,-5.34210119490204,-2.7673090264878,5.39023040942043,-2.62292138293263
0.953096490286573,5.46558640859069,0.0538637256014054,-5.41172268298929,-2.75972506709605,5.43865454578999,-2.67892947869394
0.955243104003434,5.51881805355055,0.00416420799980115,-5.51465384555075,-2.76149113077517,5.51673594955064,-2.75524481877547
0.957389717720296,5.60800123543949,-0.0411944611891521,-5.64919569662864,-2.78340338712517,5.62859846603407,-2.8451950789089
0.959536331437158,5.7270698691669,-0.0712035301920071,-5.79827339935891,-2.82793316948745,5.76267163426291,-2.93473846477546
0.96168294515402,5.85100607809769,-0.0785166530911409,-5.92952273118883,-2.88624471250328,5.89026440464326,-3.00401969213999
0.963829558870881,5.93987911855829,-0.0618232367809781,-6.00170235533927,-2.93902794088866,5.97079073694878,-3.03176279606012
0.965976172587743,5.95028025838818,-0.0265007289334307,-5.97678098732161,-2.96188976472737,5.96353062285489,-3.00164085812752
0.968122786304604,5.85118201724612,0.016916751782321,-5.8342652654638,-2.93404938451422,5.84272364135496,-2.90867425684074
0.970269400021466,5.63897783086926,0.0559146679321492,-5.58306316293711,-2.8474462494007,5.61102049690318,-2.76357424750248
0.972416013738328,5.34621327380565,0.0796312414327121,-5.26658203237294,-2.71292225761918,5.30639765308929,-2.59347539547011
0.974562627455189,5.04018695053374,0.0818010305634793,-4.95838591997026,-2.56099399054861,4.999286435252,-2.43829244470339
0.976709241172051,4.81059553429771,0.0622976988415206,-4.74829783545619,-2.43644661656962,4.77944668487695,-2.34300006830734
0.978855854888913,4.74891919267825,0.0270053617515214,-4.72191383092673,-2.38796227721489,4.73541651180249,-2.3474542345876
0.981002468605774,4.92532080311219,-0.0139152476889122,-4.9392360508011,-2.45570277771164,4.93227842695664,-2.47657564924501
0.983149082322636,5.37028233367865,-0.0489806041682062,-5.41926293784686,-2.66065086475522,5.39477263576276,-2.73412177100753
0.985295696039498,6.06697390796898,-0.0687838118844046,-6.13575771985338,-2.99909504804229,6.10136581391118,-3.10227076586889
0.987442309756359,6.95641967082524,-0.0687073183242272,-7.02512698914947,-3.44385617625051,6.99077332998735,-3.54691715373685
0.989588923473221,7.95242361248267,-0.0498649797549339,-8.00228859223761,-3.95127931636387,7.97735610236014,-4.02607678599627
0.991735537190083,8.95955998147432,-0.017920567559004,-8.97748054903332,-4.47081970695766,8.96852026525382,-4.49770055829616
0.993882150906944,9.88752605638664,0.0195205755355791,-9.86800548085107,-4.95352331596111,9.87776576861885,-4.92424245265774
0.996028764623806,10.6588396561533,0.0556556638273814,-10.6031839923259,-5.35724765999035,10.6310118242396,-5.27376416424928
0.998175378340667,11.2116844592334,0.0862658575757892,-11.1254186016576,-5.64897515840461,11.1685515304455,-5.51957637204093
1.00032199205753,11.502276696878,0.110075905808487,-11.3922007910695,-5.80617630134323,11.4472387439737,-5.6410624426305
1.00246860577439,11.5098176047464,0.127854318850582,-11.3819632858958,-5.81883596179848,11.4458904453211,-5.62705448352261
1.00461521949125,11.2432110534107,0.140810874460346,-11.1024001789504,-5.69201096393553,11.1728056161806,-5.48079465224502
1.00676183320811,10.7453643372933,0.148997851107701,-10.5963664861856,-5.44718109420052,10.6708654117395,-5.22368431753896
1.00890844692498,10.090552678911,0.150361254518196,-9.94019142439281,-5.1204569667146,10.0153720516519,-4.89491508493731
1.01105506064184,9.37315128165146,0.140864241165918,-9.23228704048554,-4.75700776140869,9.3027191610685,-4.54571139965981
1.0132016743587,8.6899774324834,0.115768600686894,-8.5742088317965,-4.40287301658514,8.63209313213995,-4.2292201155548
1.01534828807556,8.12117971478073,0.0717722413535352,-8.04940747342719,-4.09647597806713,8.08529359410396,-3.98881761603683
1.01749490179242,7.7149885178419,0.00933829502980055,-7.7056502228121,-3.86216340643585,7.710319370327,-3.84815596389115
1.01964151550928,7.47992245376195,-0.0656862078446697,-7.54560866160662,-3.70711812295864,7.51276555768429,-3.80564743472565
1.02178812922615,7.38517493651005,-0.14205918025567,-7.52723411676572,-3.62155787812719,7.45620452663789,-3.8346466485107
1.02393474294301,7.36735641465209,-0.205268058882315,-7.5726244735344,-3.58104417788489,7.46999044409325,-3.88894626620836
1.02608135665987,7.34099000965346,-0.241519441498393,-7.58250945115185,-3.54973528407753,7.46174973040265,-3.91201444632512
1.02822797037673,7.2113771432782,-0.242269757241355,-7.45364690051956,-3.48455369301842,7.33251202189888,-3.84795832888046
1.03037458409359,6.8900000201895,-0.207289847527501,-7.09728986771701,-3.341355086331,6.99364494395326,-3.65228985762225
1.03252119781045,6.31217956699648,-0.144705602191059,-6.45688516918754,-3.08373698240271,6.38453236809201,-3.3007953856893
1.03466781152732,5.45388318607938,-0.0680160916239492,-5.52189927770333,-2.69293354722771,5.48789123189135,-2.79495768466364
1.03681442524418,4.34193900575754,0.00835398241722865,-4.33358502334031,-2.17514649408739,4.33776201454893,-2.16261552046154
1.03896103896104,3.05249467145744,0.0729715740827687,-2.97952309737467,-1.56273312277011,3.01600888441606,-1.45327576164595
1.0411076526779,1.69670901509103,0.119481427768282,-1.57722758732275,-0.908095221429656,1.63696830120689,-0.728873079777233
1.04325426639476,0.397832515084815,0.146621096797686,-0.251211418287129,-0.27222680594125,0.324521966685972,-0.0522951607447219
1.04540088011162,-0.733098713722214,0.156720758326829,0.889819472049043,0.288188977697693,-0.811459092885628,0.523270115187936
1.04754749382849,-1.61619297698497,0.153594741267806,1.76978771825278,0.731299117858584,-1.69299034761888,0.961691229760293
1.04969410754535,-2.21255097153411,0.140703881759219,2.35325485329333,1.03592354488745,-2.28290291241372,1.24697936752628
1.05184072126221,-2.52470202635569,0.120188189674678,2.64489021603037,1.20225691834051,-2.58479612119303,1.38253920285253
1.05398733497907,-2.58938761684291,0.0929677847246612,2.68235540156757,1.24820991605912,-2.63587150920524,1.38766159314611
1.05613394869593,-2.46537202181428,0.0597027232337146,2.52507474504799,1.20283464929028,-2.49522338343113,1.29238873414085
1.05828056241279,-2.2195339790538,0.0220851700220157,2.24161914907582,1.09872440451589,-2.23057656406481,1.13185215954892
1.06042717612966,-1.91484213165705,-0.0162133049048737,1.89862882675218,0.965527718280962,-1.90673547920461,0.941207760923652
1.06257378984652,-1.60337393011297,-0.049542464979812,1.55383146513316,0.826458197546392,-1.57860269762307,0.752144500076674
1.06472040356338,-1.32570187166881,-0.071488212311622,1.25421365935718,0.698595041990214,-1.28995776551299,0.591362723522781
1.06686701728024,-1.11487906902183,-0.0769864126604066,1.03789265636143,0.59593274084112,-1.07638586269163,0.48045312185051
1.0690136309971,-1.00063533295933,-0.0644038145212159,0.936231518438117,0.532519573740274,-0.968433425698725,0.43591385195845
1.07116024471396,-1.0096039959419,-0.0364617405793418,0.973142255362556,0.52303286826062,-0.991373125652227,0.468340257391607
1.07330685843083,-1.16056267087392,0.000558974941933661,1.16112164581585,0.580001847965993,-1.16084215834489,0.580840310378893
1.07545347214769,-1.45699293870672,0.0389163533586782,1.4959092920654,0.709038292674023,-1.47645111538606,0.76741282271204
1.07760008586455,-1.88026554230978,0.0717786581940027,1.95204420050379,0.90424344205789,-1.91615487140678,1.01191142934889
1.07974669958141,-2.38601567750047,0.0949374938471218,2.48095317134759,1.14553909182667,-2.43348442442403,1.28794533259736
1.08189331329827,-2.90582242870316,0.107434424530926,3.01325685323408,1.39919400208612,-2.95953964096862,1.5603456388825
1.08403992701513,-3.35640882113825,0.111149961548487,3.46755878268674,1.62262942979488,-3.4119838019125,1.78935437211761
1.086186540732,-3.65752678011506,0.109682106941008,3.76720888705607,1.77392233658703,-3.71236783358557,1.93844549699854
1.08833315444886,-3.75632467145843,0.106936339229281,3.86326101068771,1.82469416611458,-3.80979284107307,1.9850986749585
1.09047976816572,-3.65131497318443,0.105821015550681,3.75713598873511,1.77274697881687,-3.70422548095977,1.93147850214289
1.09262638188258,-3.40576544349541,0.107349015094813,3.51311445859023,1.6492082142003,-3.45943995104282,1.81023173684252
1.09477299559944,-3.1414259442335,0.110328885142379,3.25175482937588,1.51554852954556,-3.19659038680469,1.68104185725913
1.0969196093163,-3.01019497930216,0.111706875352667,3.12190185465482,1.44924405197475,-3.06604841697849,1.61680436500375
1.09906622303317,-3.15101664898164,0.10749886940058,3.25851551838222,1.52175888979053,-3.20476608368193,1.6830071938914
1.10121283675003,-3.64629007475342,0.0941264294931106,3.74041650424653,1.77608182263015,-3.69335328949998,1.91727146686982
1.10335945046689,-4.49190713103255,0.0698490006959369,4.56175613172848,2.2110290651683,-4.52683163138052,2.31580256621221
1.10550606418375,-5.5882773941341,0.0358870504798476,5.62416444461395,2.77619517182713,-5.60622091937403,2.8300257475469
1.10765267790061,-6.7512070203166,-0.0031980814269723,6.74800893888963,3.37720255087179,-6.74960797960312,3.37240542873133
1.10979929161747,-7.73623347437518,-0.0402030382754507,7.69603043609972,3.88821825632531,-7.71613195523745,3.82791369891214
1.11194590533434,-8.269694913487,-0.0671068325556849,8.20258808093131,4.16840087302134,-8.23614149720915,4.06774062418781
1.1140925190512,-8.0826590039688,-0.0775751998636121,8.00508380410519,4.08011710191621,-8.043871404037,3.96375430212079
1.11623913276806,-6.94640449054155,-0.0691791984132508,6.8772252921283,3.5077918444774,-6.91181489133492,3.40402304685752
1.11838574648492,-4.70758713029033,-0.0442501829941513,4.66333694729617,2.37591865664224,-4.68546203879325,2.30954338215101
1.12053236020178,-1.31746083728074,-0.00890552594705958,1.30855531133368,0.663183181613901,-1.31300807430721,0.649824892693311
1.12267897391864,3.15384331364564,0.0292295545481202,-3.12461375909752,-1.59153643409688,3.13922853637158,-1.5476921022747
1.1248255876355,8.5251394146348,0.0634823736302476,-8.46165704100455,-4.29431089413252,8.49339822781968,-4.19908733368715
1.12697220135237,14.532926230264,0.0897956786039472,-14.44313055166,-7.31136095443395,14.488028390962,-7.17666743652803
1.12911881506923,20.8695145803688,0.107172875768314,-20.7623417046005,-10.4883437280686,20.8159281424847,-10.3275844144161
1.13126542878609,27.2138755808613,0.117019161274315,-27.096856419587,-13.6654473710678,27.1553660002241,-13.4899186291563
1.13341204250295,33.2429067094576,0.121813642112227,-33.1210930673453,-16.6823601757849,33.1819998884014,-16.4996397126166
1.13555865621981,38.6231381365896,0.123658370774266,-38.4994797658153,-19.3733982536819,38.5613089512025,-19.1879106975205
1.13770526993667,42.9969577905502,0.123200652084892,-42.8737571384653,-21.5600792213175,42.9353574645078,-21.3752782431902
1.13985188365354,45.984917783553,0.119267715827233,-45.8656500677257,-23.0520927496901,45.9252839256394,-22.8731911759493
1.1419984973704,47.2199783176653,0.109334108514837,-47.1106442091505,-23.6646562130901,47.1653112634079,-23.5006550503178
1.14414511108726,46.4118517510641,0.0907008413723967,-46.3211509096917,-23.2512762962183,46.3665013303779,-23.1152250341597
1.14629172480412,43.4214904640971,0.0620384036607177,-43.3594520604364,-21.7417644338789,43.3904712622667,-21.6487068283878
1.14843833852098,38.320038422965,0.0247756909963933,-38.2952627319686,-19.1724070569807,38.3076505774668,-19.1352435204861
1.15058495223784,31.4144562112388,-0.0162437862469561,-31.4306999974857,-15.6991062124959,31.4225781043622,-15.7234718918663
1.15273156595471,23.2336762789839,-0.0533083474732995,-23.2869846264572,-11.5901839657553,23.2603304527205,-11.6701464869652
1.15487817967157,14.4764052527432,-0.0777227437965402,-14.5541279965398,-7.19934125447334,14.5152666246415,-7.31592537016815
1.15702479338843,5.92536841972216,-0.082602331046262,-6.00797075076842,-2.92138304433795,5.96666958524529,-3.04528654090734
1.15917140710529,-1.66226990027436,-0.0655444962754372,1.59672540399892,0.863907198274899,-1.62949765213664,0.765590453861743
1.16131802082215,-7.6709095124381,-0.0299552460582924,7.64095426637981,3.8504323792482,-7.65593188940896,3.80549951016076
1.16346463453901,-11.724829373107,0.0156296837315685,11.7404590568385,5.85459984468771,-11.7326442149728,5.87804437028506
1.16561124825588,-13.7443912841314,0.0599014896610083,13.8042927737924,6.84224489723518,-13.7743420289619,6.93209713172669
1.16775786197274,-13.9443656216183,0.0918265974076817,14.036192219026,6.92626951210532,-13.9902789203222,7.06400940821684
1.1699044756896,-12.7737422799644,0.103411091878835,12.8771533718432,6.33516559404278,-12.8254478259038,6.49028223186103
1.17205108940646,-10.8121216894903,0.0915801954371523,10.9037018849274,5.36027074702655,-10.8579117872088,5.49764104018228
1.17419770312332,-8.64855918312222,0.0589081843405805,8.7074673674628,4.29482549939082,-8.67801327529251,4.38318777590169
1.17634431684018,-6.77176174451416,0.0131142556195182,6.78487600013368,3.37932374444732,-6.77831887232392,3.3989951278766
1.17849093055705,-5.49560420253049,-0.0346474218582028,5.46095678067229,2.76512581219435,-5.47828049160139,2.71315467940704
1.18063754427391,-4.93263041130523,-0.0724894662332756,4.86014094507196,2.50255993876925,-4.89638567818859,2.39382573941934
1.18278415799077,-5.01421157481344,-0.0909208927909598,4.92329068202248,2.5525662338022,-4.96875112841796,2.41618489461576
1.18493077170763,-5.54450884900214,-0.0854419600366896,5.45906688896545,2.81497540451942,-5.5017878689838,2.68681246446438
1.18707738542449,-6.27002030344784,-0.057594705257933,6.21242559818991,3.16380750435289,-6.24122295081888,3.07741544646599
1.18922399914135,-6.94732681741669,-0.0140726430448767,6.93325417437182,3.48069973023078,-6.94029049589425,3.45959076566347
1.19137061285822,-7.39613794642091,0.0355641394524329,7.43170208587334,3.68028690348424,-7.41392001614713,3.73363311266289
1.19351722657508,-7.53006989981588,0.0814917188016475,7.61156161861753,3.72428909050712,-7.57081575921671,3.84652666870959
1.19566384029194,-7.3622196706851,0.1156540205843,7.4778736912694,3.6232828250504,-7.42004668097725,3.79676385592685
1.1978104540088,-6.98668578456238,0.13288754109274,7.11957332565513,3.42689912173482,-7.05312955510875,3.62623043337393
1.19995706772566,-6.54156082813318,0.131260879833232,6.67282170796642,3.20514997414998,-6.6071912680498,3.40204129389982
1.20210368144252,-6.16331987697416,0.111933309217254,6.27525318619141,3.02569328387845,-6.21928653158278,3.19359324770433
1.20425029515939,-5.94529779046123,0.0787799783686176,6.02407776882985,2.93325890604631,-5.98468777964554,3.05142887359923
1.20639690887625,-5.91239942296147,0.0378466966042666,5.95024611956574,2.9372763631786,-5.93132277126361,2.994046408085
1.20854352259311,-6.01956113288169,-0.00348501258550424,6.01607612029619,3.0115230727336,-6.01781862658894,3.00629555385534
1.21069013630997,-6.17341557419396,-0.0377977887875254,6.13561778540644,3.10560668149074,-6.1545166798002,3.04890999830946
1.21283675002683,-6.26789658724126,-0.0594136341816584,6.20848295305961,3.16365511071146,-6.23818977015044,3.07453465943897
1.21498336374369,-6.21938463794686,-0.0662527933590229,6.15313184458784,3.14281871565294,-6.18625824126735,3.04343952561441
1.21712997746056,-5.98820254482218,-0.060937538074485,5.92726500674769,3.02457004144833,-5.95773377578494,2.9331637343366
1.21927659117742,-5.58018485513897,-0.0502641331135806,5.52992072202539,2.81522449412627,-5.55505278858218,2.7398282944559
1.22142320489428,-5.03125398957352,-0.0428585748395103,4.98839541473401,2.53705628220652,-5.00982470215377,2.47276841994725
1.22356981861114,-4.38502971172181,-0.0458877736088605,4.33914193811295,2.21545874266534,-4.36208582491738,2.14662708225205
1.225716432328,-3.67521621391941,-0.0622940995598197,3.61292211435959,1.86875515673961,-3.6440691641395,1.77531400739988
1.22786304604486,-2.92053357951251,-0.089740254586072,2.83079332492644,1.50513691704929,-2.87566345221948,1.37052653517018
1.23000965976173,-2.13272991273249,-0.121562381488987,2.0111675312435,1.12714614711074,-2.071948721988,0.944802574877258
1.23215627347859,-1.33135880443898,-0.149088424927824,1.18227037951116,0.740223614683404,-1.25681459197507,0.516590977291669
1.23430288719545,-0.555835086536588,-0.164228000889414,0.391607085647174,0.360031543713001,-0.473721086091881,0.11368954237888
1.23644950091231,0.132838330426609,-0.161512280600582,-0.29435061102719,0.0143369750869866,0.213594470726899,-0.227931445813886
1.23859611462917,0.662857359776228,-0.139330389701347,-0.802187749477575,-0.26176348503744,0.732522554626901,-0.470759069589461
1.24074272834603,0.971329046225082,-0.100310357196711,-1.07163940342179,-0.435509344514185,1.02148422482344,-0.585974880309252
1.2428893420629,1.02576314882975,-0.0506703815562241,-1.07643353038598,-0.487546383636765,1.05109833960787,-0.563551955971101
1.24503595577976,0.839670832706473,0.00147154379408822,-0.838199288912384,-0.42057118825028,0.838935060809429,-0.418363872559148
1.24718256949662,0.476633491701598,0.0483072146954635,-0.428326277006135,-0.262470353198531,0.452479884353867,-0.190009531155336
1.24932918321348,0.0408667544156034,0.0842226338643968,0.0433558794487933,-0.0625446941400001,-0.00124456251659496,0.0637892566565951
1.25147579693034,-0.343576437353749,0.106742294832787,0.450318732186537,0.118417071260481,-0.396947584770143,0.278530513509662
1.2536224106472,-0.559621189766779,0.116425303917057,0.676046493683835,0.221597942924861,-0.617833841725307,0.396235898800446
1.25576902436407,-0.523336145143683,0.116002546956974,0.639338692100657,0.203666799093354,-0.58133741862217,0.377670619528816
1.25791563808093,-0.203176675492831,0.109199931897747,0.312376607390578,0.0469883717975422,-0.257776641441705,0.210788269644163
1.26006225179779,0.372586504400647,0.0996557342082478,-0.272930770192399,-0.236121119304447,0.322758637296523,-0.0866375179920756
1.26220886551465,1.12287392839237,0.0901962998275512,-1.03267762856482,-0.606535114109962,1.0777757784786,-0.471240664368635
1.26435547923151,1.93422971798592,0.0825595297593777,-1.85167018822654,-1.00839462387265,1.89294995310623,-0.884555329233581
1.26650209294837,2.68928672750541,0.0775046593089665,-2.61178206819645,-1.38339569340719,2.65053439785093,-1.26713870444374
1.26864870666524,3.29491598676686,0.0751508860588693,-3.21976510070799,-1.68503343641287,3.25734054373743,-1.57230710732456
1.2707953203821,3.70195696246755,0.0753559089155345,-3.62660105355202,-1.88865643569154,3.66427900800978,-1.77562257231824
1.27294193409896,3.91153868294288,0.0779719676642901,-3.83356671527859,-1.99475532530359,3.87255269911074,-1.87779737380715
1.27508854781582,3.96744983273406,0.0828853055494515,-3.88456452718461,-2.02516756914176,3.92600717995934,-1.90083961081758
1.27723516153268,3.93844940455388,0.0898342625340083,-3.84861514201988,-2.01414183354395,3.89353227328688,-1.87939043974293
1.27938177524954,3.89744977012024,0.0980893740209622,-3.79936039609928,-1.9977695720706,3.84840508310976,-1.85063551103916
1.28152838896641,3.90463774892012,0.10614473061019,-3.79849301830993,-2.00539123976515,3.85156538361502,-1.84617414384987
1.28367500268327,3.99855556057704,0.111595003916515,-3.88696055666053,-2.05507528224678,3.94275805861879,-1.88768277637201
1.28582161640013,4.19479483034007,0.111343828277966,-4.08345100206211,-2.15306932930902,4.13912291620109,-1.98605358689207
1.28796823011699,4.48899208264081,0.102202732176485,-4.38678935046433,-2.29559740740865,4.43789071655257,-2.14229330914392
1.29011484383385,4.86080023219024,0.0818056989090312,-4.77899453328121,-2.47130296554964,4.81989738273572,-2.34859441718609
1.29226145755071,5.27774851041222,0.0496113935160094,-5.22813711689621,-2.66367995196411,5.25294281365421,-2.5892628616901
1.29440807126758,5.70004644591567,0.00764228104829166,-5.69240416486738,-2.85384436348198,5.69622530539153,-2.84238094190955
1.29655468498444,6.08746768753405,-0.0394158301044888,-6.12688351763854,-3.02402592871478,6.10717560258629,-3.08314967387151
1.2987012987013,6.40759227606946,-0.0849830123575866,-6.49257528842704,-3.16130463185593,6.45008378224825,-3.28877915039231
1.30084791241816,6.6427646712999,-0.122092590874704,-6.7648572621746,-3.2603360402126,6.70381096673725,-3.44347492652465
1.30299452613502,6.79296856963704,-0.145070136391912,-6.93803870602895,-3.32394921662256,6.865503637833,-3.54155442121043
1.30514113985188,6.87368206671341,-0.150690652206637,-7.02437271892005,-3.36149570725339,6.94902739281673,-3.58753168556334
1.30728775356875,6.91018574501266,-0.138566519976392,-7.04875226498906,-3.38580961251814,6.97946900500086,-3.59365939248272
1.30943436728561,6.93104433286099,-0.111152030485505,-7.04219636334649,-3.40994615118774,6.98662034810374,-3.576674196916
1.31158098100247,6.96323087263955,-0.0738164342798026,-7.03704730691936,-3.44470721917988,7.00013908977945,-3.55543187059958
1.31372759471933,7.03033770126964,-0.0348040585378422,-7.06514175980748,-3.4977668213659,7.04773973053856,-3.54997290917266
1.31587420843619,7.15386959353679,-0.00434866774899354,-7.15821826128578,-3.5747604628939,7.15604392741129,-3.58128346451739
1.31802082215305,7.35566561500693,0.00750034781799997,-7.34816526718893,-3.68158298141247,7.35191544109793,-3.67033245968547
1.32016743586992,7.65789536681404,-0.00615341943882039,-7.66404878625286,-3.82587097368761,7.66097207653345,-3.83510110284584
1.32231404958678,8.07769957469096,-0.04650832100915,-8.12420789570011,-4.0155956268409,8.10095373519553,-4.08535810835463
1.32446066330364,8.61719809416523,-0.108160175738777,-8.725358269904,-4.25451895921322,8.67127818203461,-4.41675922282139
1.3266072770205,9.25414684401136,-0.180450858936645,-9.434597702948,-4.53684799253736,9.34437227347968,-4.80752428094232
1.32875389073736,9.94016685722321,-0.250761782989244,-10.1909286402125,-4.84470253711699,10.0655477487178,-5.22084521160085
1.33090050445422,10.6102912479804,-0.308469167616134,-10.9187604155965,-5.15091104018214,10.7645258317885,-5.61361479160634
1.33304711817109,11.2015137190803,-0.347760233066018,-11.5492739521463,-5.42687674300713,11.3753938356133,-5.94851709260616
1.33519373188795,11.6729020673269,-0.368039385634284,-12.0409414529612,-5.65243134084631,11.856921760144,-6.20449041929773
1.33734034560481,12.0183905905423,-0.372065077321396,-12.3904556678637,-5.82316275661043,12.204423129203,-6.38126037259252
1.33948695932167,12.2661660500611,-0.363171606140055,-12.6293376562011,-5.95149722196051,12.4477518531311,-6.49625463117059
1.34163357303853,12.4643412374682,-0.343129146552678,-12.8074703840209,-6.06060604545777,12.6359058107446,-6.57529976528679
1.34378018675539,12.6587422282963,-0.311592144650813,-12.9703343729471,-6.17357504182273,12.8145383006217,-6.64096325879895
1.34592680047225,12.8721067485545,-0.267219842485093,-13.1393265910396,-6.30244345303471,13.0057166697971,-6.70327321676235
1.34807341418912,13.093000491965,-0.20971164732443,-13.3027121392895,-6.4416444223203,13.1978563156272,-6.75621189330695
1.35022002790598,13.2781091463693,-0.141523699531775,-13.4196328459011,-6.56829272341877,13.3488709961352,-6.78057827271643
1.35236664162284,13.3662507992283,-0.0682767917449145,-13.4345275909732,-6.64898700374167,13.4003891951007,-6.75140219135904
1.3545132553397,13.2991104698228,0.00229889029168938,-13.2968115795311,-6.65070468005725,13.297961024677,-6.64725634461972
1.35665986905656,13.0425807667312,0.0622252484981136,-12.9803555182331,-6.55240300761466,13.0114681424821,-6.45906513486749
1.35880648277342,12.6025983607833,0.105043817810463,-12.4975545429729,-6.3538210892969,12.5500764518781,-6.19625536258121
1.36095309649029,12.0303739405224,0.12692651288527,-11.9034474276372,-6.07865022670386,11.9669106840798,-5.88826045737595
1.36309971020715,11.4147285989628,0.127067342887912,-11.2876612560749,-5.77089797092537,11.3511949275189,-5.5802969565935
1.36524632392401,10.8633388796153,0.107585452396474,-10.7557534272188,-5.48546216600587,10.809546153417,-5.32408398741116
1.36739293764087,10.4778059105107,0.0731774398403726,-10.4046284706703,-5.27549167517552,10.4412171905905,-5.16572551541496
1.36953955135773,10.3282920268811,0.0305910877846693,-10.2977009390964,-5.17944155733288,10.3129964829888,-5.13355492565588
1.37168616507459,10.4331228900624,-0.0121927080536239,-10.4453155981161,-5.21046509100441,10.4392192440893,-5.22875415308485
1.37383277879146,10.7485414230822,-0.0472476056645356,-10.7957890287467,-5.35064690870882,10.7721652259145,-5.42151831720563
1.37597939250832,11.172993656139,-0.0684764799938435,-11.2414701361329,-5.5522585880726,11.207231896136,-5.65497330806337
1.37812600622518,11.5674380748929,-0.0734845016835007,-11.6409225765765,-5.74697678660472,11.6041803257347,-5.85720353912998
1.38027261994204,11.7882329834371,-0.0647035521786624,-11.8529365356157,-5.86176471562921,11.8205847595264,-5.9588200438972
1.3824192336589,11.7238626671216,-0.0488693377775948,-11.7727320048992,-5.83749666467202,11.7482973360104,-5.91080067133842
1.38456584737576,11.3236504751345,-0.0346374783076448,-11.3582879534422,-5.64450649841344,11.3409692142884,-5.69646271587491
1.38671246109263,10.6081507181195,-0.0291903849965913,-10.637341103116,-5.28948016656143,10.6227459106178,-5.33326574405632
1.38885907480949,9.65743775161513,-0.0353210094915211,-9.69275876110665,-4.81105837106181,9.6750982563609,-4.86403988529909
1.39100568852635,8.5819474099738,-0.050276855894271,-8.63222426586808,-4.26583527703977,8.60708583792094,-4.34125056088117
1.39315230224321,7.48665875257972,-0.0668573757449832,-7.5535161283247,-3.70990068841737,7.52008744045221,-3.81018675203484
1.39529891596007,6.44100073611903,-0.0762937305421996,-6.51729446666122,-3.18235350278841,6.47914760139012,-3.29679409860171
1.39744552967693,5.46404050139267,-0.0716449131270188,-5.53568541451969,-2.69619779413283,5.49986295795618,-2.80366516382335
1.3995921433938,4.52856497130785,-0.0502322985767862,-4.57879726988464,-2.23916633636553,4.55368112059624,-2.31451478423071
1.40173875711066,3.58070779622098,-0.0142559431820473,-3.59496373940302,-1.78322592651946,3.587835767812,-1.80460984129254
1.40388537082752,2.56632052035956,0.0302136443261944,-2.53610687603337,-1.29826708234288,2.55121369819646,-1.25294661585359
1.40603198454438,1.4533681978074,0.0750038973402459,-1.37836430046715,-0.764186047573823,1.41586624913728,-0.651680201563454
1.40817859826124,0.242149231596141,0.111565146896805,-0.130584084699336,-0.176857189246473,0.186366658147739,-0.00950946890126556
1.4103252119781,-1.03869488418659,0.132306356887151,1.17100124107374,0.45319426364972,-1.10484806263017,0.651653798980446
1.41247182569497,-2.34553189627415,0.131587262428784,2.47711915870293,1.10697231692268,-2.41132552748854,1.30435321056586
1.41461843941183,-3.63391664592087,0.106543028286084,3.74045967420696,1.76368680881739,-3.68718816006392,1.92350135124652
1.41676505312869,-4.8667658438931,0.0578107822997684,4.92457662619286,2.40447753079666,-4.89567123504298,2.49119370424632
1.41891166684555,-6.01530593039301,-0.0100037430212278,6.00530218737178,3.01265483670712,-6.0103040588824,2.99764922217528
1.42105828056241,-7.05663551883476,-0.0884823964237638,6.968153122411,3.57255895762926,-7.01239432062288,3.43983536299362
1.42320489427927,-7.97256953981709,-0.166537007799623,7.80603253201747,4.06955327380836,-7.88930103591728,3.81974776210892
1.42535150799614,-8.75149746712658,-0.232574639752887,8.51892282737369,4.49203605343973,-8.63521014725014,4.1431740938104
1.427498121713,-9.39197403913161,-0.277139251092605,9.11483478803901,4.83455664511211,-9.25340441358531,4.4188477684732
1.42964473542986,-9.90602891503662,-0.295025512967157,9.61100340206946,5.10052721400189,-9.75851615855304,4.65798894455115
1.43179134914672,-10.3206840608862,-0.285977761889966,10.0347062989962,5.30333091138806,-10.1776951799412,4.87436426855311
1.43393796286358,-10.6761515679615,-0.253824579678597,10.4223269882829,5.46498807382007,-10.5492392781222,5.08425120430217
1.43608457658044,-11.0190544486774,-0.204760514902965,10.8142939337745,5.61190748179019,-10.9166741912259,5.30476670943575
1.43823119029731,-11.3904579308092,-0.145791357628126,11.244666573181,5.76812464421864,-11.3175622519951,5.54943760777645
1.44037780401417,-11.8117997603355,-0.0838512854034254,11.7279484749321,5.94782552286946,-11.7698741176338,5.82204859476432
1.44252441773103,-12.2748070339003,-0.0253258657396845,12.2494811681606,6.15006644981998,-12.2621441010304,6.11207765121045
1.44467103144789,-12.7411992335639,0.0245017483723051,12.7657009819362,6.35834874259581,-12.7534501077501,6.39510136515427
1.44681764516475,-13.1535892081931,0.0621393642654631,13.2157285724585,6.5457249219638,-13.1846588903258,6.63893396836199
1.44896425888161,-13.4533650197415,0.0863618425478273,13.5397268622893,6.68350158859684,-13.4965459410154,6.81304435241858
1.45111087259848,-13.5985623310946,0.0981715138339412,13.6967338449285,6.75019540863033,-13.6476480880116,6.89745267938124
1.45325748631534,-13.5760472378166,0.100240635019843,13.6762878728365,6.73790330139839,-13.6261675553265,6.88826425392815
1.4554041000322,-13.4055045262117,0.0960626812206019,13.5015672074323,6.65472092249554,-13.453535866822,6.79881494432644
1.45755071374906,-13.1353081579118,0.0890949068169425,13.2244030647287,6.52310662554742,-13.1798556113203,6.65674898577284
1.45969732746592,-12.8318319453074,0.0821098682124054,12.9139418135198,6.37486103854751,-12.8728868794136,6.49802584086612
1.46184394118278,-12.5647198776568,0.0768606375176954,12.6415805151745,6.24392962006955,-12.6031501964156,6.35922057634609
1.46399055489965,-12.3912699824334,0.0740554054571962,12.4653253878906,6.15860728848811,-12.428297685162,6.26969039667391
1.46613716861651,-12.343167705356,0.0735616652131578,12.4167293705692,6.13480302007143,-12.3799485379626,6.24514551789116
1.46828378233337,-12.4183853334306,0.0747276006824764,12.4931129341131,6.17182886637407,-12.4557491337719,6.28392026739779
1.47043039605023,-12.5803877374596,0.0767134610319007,12.6571011984915,6.25183713821383,-12.6187444679755,6.36690732976168
1.47257700976709,-12.7657484668544,0.0787554309402956,12.8445038977947,6.34349651795707,-12.8051261823246,6.46162966436752
1.47472362348395,-12.8995682967295,0.0803237717552504,12.9798920684847,6.40962226248711,-12.9397301826071,6.53010792011999
1.47687023720082,-12.9157312945974,0.0811732718775206,12.9969045664749,6.41727901135993,-12.9563179305361,6.53903891917621
1.47901685091768,-12.7766797397831,0.081309512147805,12.857989251931,6.34768511381767,-12.8173344958571,6.46964938203938
1.48116346463454,-12.4862282632261,0.0809064289002275,12.5671346921264,6.20266091716295,-12.5266814776762,6.32402056051329
1.4833100783514,-12.0901707907316,0.0802105493175925,12.1703813400492,6.004980120707,-12.1302760653904,6.12529594468339
1.48545669206826,-11.6632856256483,0.0794589286340139,11.7427445542824,5.79191334850716,-11.7030150899653,5.91110174145819
1.48760330578512,-11.2863583938845,0.0788258207596237,11.3651842146442,5.60376628656246,-11.3257713042644,5.7220050177019
1.48974991950199,-11.020576442293,0.0784014529841891,11.0989778952771,5.47108749465438,-11.059777168785,5.58868967413066
1.49189653321885,-10.8875949313291,0.0781975875274934,10.9657925188566,5.4046986719008,-10.9266937250928,5.52199505319204
1.49404314693571,-10.8620003951381,0.0781699273231912,10.9401703224613,5.39191523390744,-10.9010853587997,5.50917012489222
1.49618976065257,-10.8794816806762,0.0782466409282496,10.9577283216045,5.40061751987398,-10.9186050011403,5.51798748126636
1.49833637436943,-10.8590265803251,0.0783542854361645,10.9373808657613,5.39033614744449,-10.8982037230432,5.50786757559873
1.50048298808629,-10.7320083306494,0.0784358228793599,10.8104441535287,5.326786253885,-10.771226242089,5.44443998820404
1.50262960180316,-10.4675763638787,0.0784589913074692,10.5460353551862,5.19455868628563,-10.5068058595325,5.31224717324684
1.50477621552002,-10.0844669145777,0.0784161172880019,10.1628830318657,5.00302539864483,-10.1236749732217,5.12064957457684
1.50692282923688,-9.64445338903835,0.078318116985172,9.72277150602352,4.78306763602659,-9.68361244753093,4.90054481150434
1.50906944295374,-9.2301664308957,0.0781859177423587,9.30835234863806,4.57599025657667,-9.26925938976688,4.69326913319021
1.5112160566706,-8.91627321900277,0.0780421124733607,8.99431533147613,4.41911555326471,-8.95529427523945,4.53617872197475
1.51336267038746,-8.74478316150463,0.0779047306092745,8.8226878921139,4.33343921544768,-8.78373552680926,4.45029631136159
1.51550928410433,-8.7121785942821,0.077783954984371,8.78996254926647,4.31719731964886,-8.75107057177429,4.43387325212542
1.51765589782119,-8.77067368463488,0.0776817155935766,8.84835540022845,4.34649598452065,-8.80951454243166,4.46301855791101
1.51980251153805,-8.84127544157293,0.0775934941443575,8.91886893571728,4.38184097371428,-8.8800721886451,4.49823121493082
1.52194912525491,-8.8340919340777,0.077511398402724,8.91160333248043,4.37829026783749,-8.87284763327906,4.49455736544158
1.52409573897177,-8.67112500583341,0.0774275487154374,8.74855255454885,4.29684872855899,-8.70983878019113,4.41299005163214
1.52624235268863,-8.30709343965866,0.0773369629455495,8.38443040260421,4.11487823835655,-8.34576192113143,4.23088368277488
1.5283889664055,-7.74389158378136,0.0772393422560516,7.82113092603741,3.83332612076265,-7.78251125490938,3.94918513414673
1.53053558012236,-7.03486540061712,0.0771393965644181,7.11200479718153,3.47886300202635,-7.07343509889933,3.59457209687298
1.53268219383922,-6.27699945356689,0.0770455936013075,6.3540450471682,3.09997692998279,-6.31552225036754,3.21554532038475
1.53482880755608,-5.59191094157628,0.0769674839699476,5.66887842554622,2.75747172880316,-5.63039468356125,2.87292295475809
1.53697542127294,-5.09938974470248,0.0769120605351574,5.17630180523764,2.51123884208366,-5.13784577497006,2.6266069328864
1.5391220349898,-4.8896616310059,0.0768799391536836,4.96654157015959,2.40639084592611,-4.92810160058274,2.52171075465663
1.54126864870667,-5.00174186359195,0.0768624367051363,5.07860430029708,2.46243971344341,-5.04017308194452,2.57773336850111
1.54341526242353,-5.41389025013033,0.0768407612198163,5.49073101135014,2.66852474445526,-5.45231063074024,2.78378588628498
1.54556187614039,-6.04827317510104,0.0767883832670275,6.12506155836807,2.98574239591701,-6.08666736673455,3.10092497081755
1.54770848985725,-6.78748716533526,0.0766771160347917,6.86416428137005,3.35540502465024,-6.82582572335266,3.47042069870242
1.54985510357411,-7.49784451206242,0.0764864651978849,7.5743309772603,3.71067902343227,-7.53608774466136,3.82540872122909
1.55200171729097,-8.05393820361719,0.0762145305245891,8.13015273414178,3.9888618365463,-8.09204546887948,4.10318363233318
1.55414833100784,-8.36018692819637,0.0758874328148267,8.4360743610112,4.14214974769077,-8.39813064460379,4.25598089691301
1.5562949447247,-8.36655064891409,0.07556334059178,8.44211398950587,4.14549365416115,-8.40433231920998,4.25883866504882
1.55844155844156,-8.07648374677485,0.0753271925399364,8.15181093931479,4.00057827711746,-8.11414734304482,4.11356906592736
1.56058817215842,-7.54547363622581,0.0752735915368882,7.6207472277627,3.73510002234446,-7.58311043199425,3.84801040964979
1.56273478587528,-6.86920651890878,0.0754782565274847,6.94468477543626,3.39686413119065,-6.90694564717252,3.51008151598187
1.56488139959214,-6.16250303785236,0.0759625777030574,6.23846561555542,3.04327023007465,-6.20048432670389,3.15721409662924
1.567028013309,-5.53341593516046,0.0766603740521572,5.61007630921262,2.72837778055415,-5.57174612218654,2.84336834163239
1.56917462702587,-5.05959351413676,0.0773994992495555,5.13699301338631,2.4910970074436,-5.09829326376153,2.60719625631793
1.57132124074273,-4.7741613595801,0.0779117643615346,4.85207312394163,2.34812479760928,-4.81311724176086,2.46499244415158
1.57346785445959,-4.66519472527668,0.0778811599509613,4.74307588522764,2.29365678266286,-4.70413530525216,2.4104785225893
1.57561446817645,-4.68769643890737,0.0770317328180682,4.76472817172544,2.30533235304465,-4.72621230531641,2.42087995227175
1.57776108189331,-4.7825094589033,0.075243269378368,4.85775272828167,2.35363309476246,-4.82013109359248,2.46649799883002
1.57990769561017,-4.89490969054507,0.072667588552955,4.96757727909803,2.41112105099606,-4.93124348482155,2.52012243382549
1.58205430932704,-4.98711678569837,0.0698050810396374,5.056921866738,2.45865585232936,-5.02201932621819,2.56336347388882
1.5842009230439,-5.04232196745781,0.0674957631180146,5.10981773057582,2.4874131021699,-5.07606984901682,2.58865674684692
1.58634753676076,-5.0611464956386,0.066787084942403,5.12793358058101,2.4971797053481,-5.09454003810981,2.5973603327617
1.58849415047762,-5.0534757888375,0.0686655406673341,5.12214132950483,2.49240512408508,-5.08780855917116,2.59540343508608
1.59064076419448,-5.02931851500439,0.0736800157374509,5.10299853074184,2.47781924963347,-5.06615852287311,2.58833927323964
1.59278737791134,-4.99210954189369,0.0815350083714351,5.07364455026513,2.45528726676113,-5.03287704607941,2.57758977931828
1.59493399162821,-4.93668672184471,0.0907781073929735,5.02746482923768,2.42295430722587,-4.9820757755412,2.55912146831533
1.59708060534507,-4.85204281622355,0.09873018939095,4.9507730056145,2.3766563134163,-4.90140791091903,2.52475159750273
1.59922721906193,-4.7267903454906,0.101789646484703,4.8285799919753,2.31250034950295,-4.77768516873295,2.46518481923
1.60137383277879,-4.55449570821011,0.096170041159261,4.65066574936937,2.22916283352542,-4.60258072878974,2.37341789526432
1.60352044649565,-4.33724146447367,0.0790035721082969,4.41624503658196,2.12911894618269,-4.37674325052782,2.24762430434513
1.60566706021251,-4.08774405720698,0.049580443200661,4.13732450040764,2.01908180700316,-4.11253427880731,2.09345247180415
1.60781367392938,-3.83082461952816,0.0103402977418446,3.84116491727001,1.91024216089316,-3.83599476839908,1.92575260750593
1.60996028764624,-3.60334241881831,-0.0328484290804546,3.57049398973785,1.81809542394938,-3.58691820427808,1.7688227803287
1.6121069013631,-3.45008100396454,-0.0715149583763551,3.37856604558818,1.76079798117045,-3.41432352477636,1.65352554360591
1.61425351507996,-3.41410356543129,-0.0966190879868169,3.31748447744448,1.75536132670906,-3.36579402143789,1.61043269472883
1.61640012879682,-3.52343441687484,-0.101361260020795,3.42207315685405,1.81239783844782,-3.47275378686445,1.66035594841663
1.61854674251368,-3.77871060169835,-0.0837593270672746,3.69495127463108,1.93123496438281,-3.73683093816472,1.8055959737819
1.62069335623055,-4.14656240115591,-0.0478038727042281,4.09875852845168,2.09718313693007,-4.12266046480379,2.02547732787373
1.62283996994741,-4.56143286702116,-0.00257073263415993,4.558862134387,2.28200179982766,-4.56014750070408,2.27814570087642
1.62498658366427,-4.93602961053653,0.0403397321767744,4.9763693427133,2.44784493917988,-4.95619947662492,2.50835453744504
1.62713319738113,-5.17841173584495,0.070006902700735,5.24841863854568,2.55420241657211,-5.21341518719531,2.65921277062321
1.62927981109799,-5.2118693696761,0.0790188624216867,5.29088823209779,2.56642525362721,-5.25137880088695,2.68495354725974
1.63142642481485,-4.99260857215274,0.0652876487908602,5.0578962209436,2.46366046168094,-5.02525239654817,2.56159193486723
1.63357303853172,-4.52040292570447,0.0325655852021349,4.5529685109066,2.24391867025117,-4.53668571830554,2.29276704805437
1.63571965224858,-3.83899888677336,-0.0104116998386647,3.82858718693469,1.92470529330601,-3.83379303685403,1.90908774354801
1.63786626596544,-3.02583220954104,-0.0520737028596487,2.97375850668139,1.53895295620034,-2.99979535811121,1.46084240191087
1.6400128796823,-2.17375526824672,-0.0811385564555054,2.09261671179122,1.12744691235112,-2.13318599001897,1.00573907766786
1.64215949339916,-1.36996072325775,-0.0900058398804171,1.27995488337733,0.729983281569083,-1.32495780331754,0.594974521748458
1.64430610711602,-0.678141473635393,-0.077303139904627,0.600838333730766,0.37772230677001,-0.63948990368308,0.26176759691307
1.64645272083289,-0.128572429686388,-0.0484597663710353,0.0801126633153527,0.0885160980287116,-0.10434254650087,0.0158264484721587
1.64859933454975,0.282292075220987,-0.0138878268578918,-0.296179902078879,-0.134202124181548,0.289235988649933,-0.155033864468385
1.65074594826661,0.584317964970028,0.0145596564566527,-0.569758308513375,-0.29943881071334,0.577038136741701,-0.277599326028361
1.65289256198347,0.821778854048759,0.0274810427305742,-0.794297811318185,-0.424629948389667,0.808038332683472,-0.383408384293805
1.65503917570033,1.0407580468803,0.0208379891281824,-1.01992005775212,-0.530798018004244,1.03033905231621,-0.49954103431197
1.65718578941719,1.27846475786558,-0.00293943371379021,-1.28140419157937,-0.637762662075897,1.27993447472248,-0.642171812646582
1.65933240313406,1.55535445945866,-0.0358964666991887,-1.59125092615785,-0.759728996379735,1.57330269280825,-0.813573696428518
1.66147901685092,1.87023628219757,-0.0672399875158861,-1.93747626971345,-0.90149814734084,1.90385627595551,-1.00235812861467
1.66362563056778,2.19962804300347,-0.0869172419603494,-2.28654528496382,-1.05635540052156,2.24308666398364,-1.18673126346208
1.66577224428464,2.50370424351705,-0.0888008821378973,-2.59250512565495,-1.20745168068958,2.548104684586,-1.34065300389642
1.6679188580015,2.73972456787279,-0.0722261912230626,-2.81195075909586,-1.33374918832487,2.77583766348433,-1.44208847515946
1.67006547171836,2.8799452755103,-0.0413792861736133,-2.92132456168391,-1.41928299466834,2.90063491859711,-1.48135192392876
1.67221208543523,2.92763921558506,-0.0031222908827221,-2.93076150646778,-1.46225846235117,2.92920036102642,-1.46694189867525
1.67435869915209,2.92453612936228,0.0355262470811303,-2.88900988228115,-1.4800311882217,2.90677300582171,-1.42674181760001
1.67650531286895,2.94571714419466,0.0691971853282739,-2.87651995886639,-1.50745716476147,2.91111855153053,-1.40366138676906
1.67865192658581,3.08212342806555,0.0948131099768869,-2.98731031808866,-1.58846826902122,3.0347168730771,-1.44624860405589
1.68079854030267,3.41499156431529,0.111202550569586,-3.30378901374571,-1.76309705744244,3.3593902890305,-1.59629323158806
1.68294515401953,3.98977809262069,0.118168739645359,-3.87160935297533,-2.05397341613303,3.93069372279801,-1.87672030666499
1.6850917677364,4.79823648359509,0.115588240505132,-4.68264824308996,-2.45691236205011,4.74044236334253,-2.28353000129241
1.68723838145326,5.77515543093091,0.103000235484268,-5.67215519544664,-2.93907783320759,5.72365531318877,-2.78457747998119
1.68938499517012,6.81135415148869,0.0798938189637419,-6.73146033252495,-3.44562398522622,6.77140724200682,-3.3257832567806
1.69153160888698,7.77898240261644,0.0465878710026147,-7.73239453161383,-3.91278513680953,7.75568846711513,-3.84290333030561
1.69367822260384,8.56112643558176,0.00531090363937787,-8.55581553194238,-4.28321866961057,8.55847098376207,-4.2752523141515
1.6958248363207,9.07649336146646,-0.0390874814983006,-9.11558084296476,-4.51870293998408,9.09603710221561,-4.57733416223153
1.69797145003757,9.29213142616713,-0.079345332996735,-9.37147675916386,-4.6063930465852,9.3318040926655,-4.7254110460803
1.70011806375443,9.22197976005022,-0.107194296567007,-9.32917405661722,-4.55739273174161,9.27557690833372,-4.71818417659212
1.70226467747129,8.91412951177262,-0.115700634778629,-9.02983014655125,-4.399214438497,8.97197982916194,-4.57276539066494
1.70441129118815,8.43269830894666,-0.101666839073609,-8.53436514802027,-4.16551573493653,8.48353172848347,-4.31801599354694
1.70655790490501,7.84061910373854,-0.0669892134766075,-7.90760831721515,-3.88681494513097,7.87411371047685,-3.98729876534588
1.70870451862187,7.18811880670182,-0.0183585978174816,-7.2064774045193,-3.58488010444217,7.19729810561056,-3.61241800116839
1.71085113233874,6.50898599467805,0.0344137557266475,-6.4745722389514,-3.27169987520235,6.49177911681473,-3.22007924161238
1.7129977460556,5.82369341640405,0.0806100182256126,-5.74308339817844,-2.95215171731483,5.78338840729124,-2.83123668997641
1.71514435977246,5.1459648415992,0.110630518432628,-5.03533432316657,-2.62829768001591,5.09064958238288,-2.46235190236697
1.71729097348932,4.48826887801518,0.117530257364574,-4.37073862065061,-2.30289956768988,4.42950374933289,-2.12660418164302
1.71943758720618,3.86278340415832,0.0980838321109597,-3.76469957204736,-1.98043361813464,3.81374148810284,-1.8333078699682
1.72158420092304,3.27776982670787,0.0534478196665277,-3.22432200704134,-1.6656088231872,3.25104591687461,-1.58543709368741
1.72373081463991,2.73307742787165,-0.0106456134827337,-2.74372304135438,-1.36121590719446,2.73840023461301,-1.37718432741856
1.72587742835677,2.21936922649094,-0.0843950421259245,-2.30376426861686,-1.06748709218251,2.2615667475539,-1.19407965537139
1.72802404207363,1.72254765967722,-0.155382457849914,-1.87793011752713,-0.783582600913653,1.80023888860218,-1.01665628768852
1.73017065579049,1.2305728832811,-0.210950013640264,-1.44152289692137,-0.509811434820419,1.33604789010123,-0.826236455280815
1.73231726950735,0.738272416382788,-0.240994276048457,-0.979266692431245,-0.248639070167165,0.858769554407016,-0.610130484239851
1.73446388322421,0.247872083921366,-0.24032723369581,-0.488199317617176,-0.00377242511277821,0.368035700769271,-0.364263275656493
1.73661049694108,-0.233614055860067,-0.209858432953079,0.0237556229069884,0.221736244406573,-0.128684839383528,-0.0930514050230452
1.73875711065794,-0.697411962840579,-0.156260669566963,0.541151293273616,0.426836316203771,-0.619281628057098,0.192445311853326
1.7409037243748,-1.13468579369952,-0.0901853873959723,1.04450040630355,0.612435590547746,-1.08959310000153,0.477157509453788
1.74305033809166,-1.53699154371868,-0.0234953877041372,1.51349615601455,0.780243465711411,-1.52524384986662,0.745000384155205
1.74519695180852,-1.89645238300577,0.0336209763576528,1.93007335936342,0.93141570332406,-1.9132628711846,0.981847167860539
1.74734356552538,-2.20626578036758,0.0747172974673358,2.28098307783492,1.06577424145012,-2.24362442910125,1.17785018765113
1.74949017924225,-2.46139006762636,0.0978117769921316,2.55920184461849,1.18178914531711,-2.51029595612243,1.32850681080531
1.75163679295911,-2.65890301954027,0.104827487269694,2.76373050680996,1.27703776613529,-2.71131676317512,1.43427899703983
1.75378340667597,-2.79776106395144,0.100213322183519,2.89797438613496,1.34877387088396,-2.8478677250432,1.49909385415924
1.75593002039283,-2.87805449169083,0.089319731241582,2.96737422293241,1.39436738022462,-2.92271435731162,1.52834697708699
1.75807663410969,-2.89986343391244,0.0770042226528895,2.97686765656533,1.41142960562978,-2.93836554523889,1.52693593960911
1.76022324782655,-2.86169479450439,0.0667428304435695,2.92843762494796,1.39747598203041,-2.89506620972618,1.49759022769577
1.76236986154342,-2.75886241650122,0.0603149226975021,2.81917733919873,1.34927374690186,-2.78901987784997,1.43974613094811
1.76451647526028,-2.58308058918132,0.057967800609228,2.64104838979055,1.26255639428605,-2.61206448948594,1.34950809519989
1.76666308897714,-2.32506627403519,0.058879522648773,2.38394579668397,1.13309337569321,-2.35450603535958,1.22141265966637
1.768809702694,-1.98099658819154,0.0617215446266963,2.04271813281823,0.959637521782421,-2.01185736050489,1.05221983872247
1.77095631641086,-1.56112347657834,0.0651585112604164,1.62628198783876,0.747982482658963,-1.59370273220855,0.845720249549587
1.77310293012772,-1.09630437909493,0.0681857658410597,1.16449014493599,0.514059306626937,-1.13039726201546,0.616337955388527
1.77524954384458,-0.638059389032112,0.0702725082674971,0.708331897299609,0.283893440382307,-0.67319564316586,0.389302202783553
1.77739615756145,-0.250772634117662,0.0713333995423491,0.322106033660011,0.0897196172876567,-0.286439333888837,0.19671971660118
1.77954277127831,0.00115371035397876,0.0715854888870495,0.0704317785330707,-0.0363695996205141,-0.034639034089546,0.0710086337100601
1.78168938499517,0.0659021101662327,0.0713596646144534,0.00545755444822069,-0.0686308873903431,0.030222277859006,0.038408609531337
1.78383599871203,-0.0880850919259,0.0709303068257703,0.15901539875167,0.00857739255006485,-0.123550245338785,0.11497285278872
1.78598261242889,-0.471064588632249,0.0704094608925946,0.541474049524843,0.200327563869827,-0.506269319078546,0.305941755208719
1.78812922614576,-1.07578504388494,0.0697285898953302,1.14551363378027,0.503028226994805,-1.11064933883261,0.6076211118378
1.79027583986262,-1.88205900354456,0.0687064977681404,1.9507655013127,0.906676252888211,-1.91641225242863,1.00973599954042
1.79242245357948,-2.85807330807877,0.0671796727676633,2.92525298084644,1.39544681765556,-2.89166314446261,1.49621632680705
1.79456906729634,-3.95661156297306,0.0651536154670174,4.02176517844008,1.94572897375302,-3.98918837070657,2.04345939695355
1.7967156810132,-5.10753657980314,0.0629231620588658,5.170459741862,2.52230670887214,-5.13899816083257,2.61669145196043
1.79886229473006,-6.21025644176753,0.0611091895591531,6.27136563132668,3.07457362610419,-6.2408110365471,3.16623741044292
1.80100890844692,-7.1304459407494,0.0605711599373061,7.19101710068671,3.53493739040605,-7.16073152071805,3.62579413031201
1.80315552216379,-7.70425907053025,0.0621812915396424,7.76644036206989,3.8210388894953,-7.73534971630007,3.91431082680477
1.80530213588065,-7.75150558922748,0.0664853997213819,7.81799098894886,3.84251009475305,-7.78474828908817,3.94223819433512
1.80744874959751,-7.09723209470423,0.0733217455267639,7.17055384023099,3.51195517458873,-7.13389296746761,3.62193779287888
1.80959536331437,-5.59863898884791,0.0815114116876383,5.68015040053555,2.75856378858014,-5.63939469469173,2.88083090611159
1.81174197703123,-3.17147512800864,0.0887563233064638,3.2602314513151,1.54135940235109,-3.21585328966187,1.67449388731078
1.81388859074809,0.191463516106674,0.0918675004943343,-0.09959601561234,-0.141665508300504,0.145529765859507,-0.00386425755900283
1.81603520446496,4.41553731226794,0.0873842752320285,-4.32815303703591,-2.25146079374998,4.37184517465192,-2.12038438090194
1.81818181818182,9.35415741652013,0.0725339598026165,-9.28162345671751,-4.71334568816137,9.31789043661882,-4.60454474845745
1.82032843189868,14.8081774126198,0.0463373301907831,-14.761840082429,-7.4272573714053,14.7850087475244,-7.35775137611912
1.82247504561554,20.54523433239,0.0105261746532648,-20.5347081577368,-10.2778802535217,20.5399712450634,-10.2620909915418
1.8246216593324,26.3100780643054,-0.0301368847275045,-26.3402149490329,-13.139970589789,26.3251465066692,-13.1851759168802
1.82676827304926,31.823162680262,-0.0684886853307787,-31.8916513655928,-15.8773369974656,31.8574070229274,-15.9800700254618
1.82891488676613,36.7735651279302,-0.0966392851204173,-36.8702044130506,-18.3384629214049,36.8218847704904,-18.4834218490855
1.83106150048299,40.818423541158,-0.108305498196462,-40.9267290393545,-20.3550590214808,40.8725762902562,-20.5175172687755
1.83320811419985,43.6004842981787,-0.100901521205224,-43.7013858193839,-21.7497913884867,43.6509350587813,-21.9011436702946
1.83535472791671,44.7874734191714,-0.0763599407919336,-44.8638333599633,-22.3555567391897,44.8256533895673,-22.4700966503776
1.83750134163357,44.1257684864161,-0.0402453610038608,-44.16601384742,-22.0427615627061,44.145891166918,-22.1031296042119
1.83964795535043,41.4931947392428,0.00031842805468115,-41.4928763111881,-20.7467565836488,41.4930355252155,-20.7462789415667
1.8417945690673,36.936740248351,0.0388277206314893,-36.8979125277195,-18.4877839844912,36.9173263880353,-18.429542403544
1.84394118278416,30.6886863302922,0.0707820321788947,-30.6179042981133,-15.3797341812355,30.6532953142027,-15.2735611329672
1.84608779650102,23.161572961049,0.0939521825814986,-23.0676207784675,-11.6277625718153,23.1145968697583,-11.486834297943
1.84823441021788,14.9229038205122,0.107749873035191,-14.815153947477,-7.51532684677368,14.8690288839946,-7.35370203722089
1.85038102393474,6.6465060454383,0.112206107291592,-6.5342999381467,-3.37935607636494,6.5904029917925,-3.21104691542756
1.8525276376516,-0.963412115732536,0.107109102203902,1.07052121793644,0.428151506764317,-1.01696666683449,0.58881516007017
1.85467425136847,-7.27177179883634,0.0917043046630227,7.36347610349936,3.59003374708666,-7.31762395116785,3.72759020408119
1.85682086508533,-11.8183775189096,0.0650925948019679,11.8834701137116,5.87664246205384,-11.8509238163106,5.97428135425679
1.85896747880219,-14.4021930020891,0.0271593081896562,14.4293523102788,7.18751684694973,-14.4157726561839,7.22825580923421
1.86111409251905,-15.1171867228059,-0.0203873571844463,15.0967993656215,7.56878703999518,-15.1069930442137,7.53820600421851
1.86326070623591,-14.3255592642339,-0.0734065148872623,14.2521527493466,7.19948288956057,-14.2888560067902,7.08937311722968
1.86540731995277,-12.5730013669998,-0.125575149503716,12.4474262174961,6.34928825825175,-12.5102137922479,6.16092553399618
1.86755393366964,-10.4677083977745,-0.169559805121321,10.2981485926531,5.31863410144789,-10.3829284952138,5.06429439376591
1.8697005473865,-8.55463652023886,-0.198670448859362,8.3559660713795,4.37665348454911,-8.45530129580918,4.07864781126007
1.87184716110336,-7.2166228564251,-0.208314891586962,7.00830796483814,3.71246887400603,-7.11246541063162,3.39999653662559
1.87399377482022,-6.62479330460512,-0.196852738484972,6.42794056612015,3.41082302154505,-6.52636693536263,3.11554391381759
1.87614038853708,-6.74505475571815,-0.165903680441012,6.57915107527714,3.45547921807958,-6.66210291549764,3.20662369741806
1.87828700225394,-7.39092382761699,-0.120208661663269,7.27071516595373,3.75556624464013,-7.33081949678536,3.57525325214523
1.88043361597081,-8.30147990240085,-0.066873741830458,8.23460616057039,4.18417682211565,-8.26804303148562,4.08386620936997
1.88258022968767,-9.22006559463916,-0.0138870072153459,9.20617858742382,4.61697630092725,-9.21312209103149,4.59614579010424
1.88472684340453,-9.95372717091215,0.0317130938575119,9.98544026476966,4.96100703852732,-9.9695837178409,5.00857667931358
1.88687345712139,-10.402312629196,0.0653151353584199,10.4676277645544,5.1684987469188,-10.4349701968752,5.26647144995643
1.88902007083825,-10.5565348951159,0.0853490180714076,10.6418839131873,5.23559293852224,-10.5992094041516,5.36361646562935
1.89116668455511,-10.4732932227187,0.0929857210789741,10.5662789437977,5.19015375081987,-10.5197860832582,5.32963233243833
1.89331329827198,-10.241455519544,0.0912201743838975,10.3326756939279,5.07511767258005,-10.2870656067359,5.2119479341559
1.89545991198884,-9.95079521415355,0.0837544468334077,10.034549660987,4.93352038366007,-9.99267243757026,5.05915205391018
1.8976065257057,-9.67189051914203,0.0740412144885431,9.74593173363057,4.79892465232674,-9.7089111263863,4.90998647405956
1.89975313942256,-9.44845218089488,0.0646990723448561,9.51315125323973,4.69187655427501,-9.4808017170673,4.7889251627923
1.90189975313942,-9.29875451996182,0.0573440414374022,9.35609856139923,4.62070523926221,-9.32742654068053,4.70672130141831
1.90404636685628,-9.22099623059387,0.0527462359666491,9.27374246656052,4.58412499731361,-9.24736934857719,4.66324435126358
1.90619298057315,-9.19816386665864,0.0511440507312042,9.24930791738985,4.57350990796372,-9.22373589202424,4.65022598406053
1.90833959429001,-9.20042465414065,0.0525366163513324,9.25296127049198,4.57394401889466,-9.22669296231631,4.65274894342166
1.91048620800687,-9.18631019005806,0.0568195017882142,9.24312969184627,4.56474534413492,-9.21471994095217,4.64997459681724
1.91263282172373,-9.10638689259835,0.0637099494140829,9.17009684201243,4.52133847159213,-9.13824186730539,4.61690339571326
1.91477943544059,-8.91268140106663,0.0725026869077677,8.98518408797439,4.42008935707943,-8.94893274452051,4.52884338744108
1.91692604915745,-8.57312269225926,0.0817806627289663,8.65490335498823,4.24567101476515,-8.61401302362375,4.3683420088586
1.91907266287432,-8.08502903908637,0.0892536080359983,8.17428264712236,3.99788771552518,-8.12965584310437,4.13176812757918
1.92121927659118,-7.47960314560843,0.0918926314716752,7.5714957770801,3.69385525706838,-7.52554946134427,3.83169420427589
1.92336589030804,-6.81305842320976,0.0864614588636165,6.89951988207337,3.36329848217307,-6.85628915264157,3.4929906704685
1.9255125040249,-6.14735982406651,0.0704185543785739,6.21777837844509,3.03847063484397,-6.1825691012558,3.14409846641183
1.92765911774176,-5.52966139548534,0.0430017227609343,5.57266311824628,2.7433298363622,-5.55116225686581,2.80783242050361
1.92980573145862,-4.98038687737758,0.00615124541817915,4.98653812279576,2.4871178159797,-4.98346250008667,2.49634468410697
1.93195234517549,-4.49505081273144,-0.0351587282345409,4.4598920844969,2.26510477048299,-4.47747144861417,2.21236667813118
1.93409895889235,-4.05731770701854,-0.0735552934233036,3.98376241359524,2.06543650022092,-4.02054006030689,1.95510356008597
1.93624557260921,-3.65485628030002,-0.100977290486081,3.55387898981394,1.87791678539305,-3.60436763505698,1.72645084966393
1.93839218632607,-3.28859797769724,-0.111079063583287,3.17751891411395,1.69983852064026,-3.23305844590559,1.53321992526533
1.94053880004293,-2.97055349881949,-0.101408653869944,2.86914484494955,1.53598107634472,-2.91984917188452,1.3838680955398
1.94268541375979,-2.71258156008988,-0.0743009943190168,2.63828056577087,1.39344127720445,-2.67543106293038,1.28198978572593
1.94483202747666,-2.51388158927579,-0.0360058330665635,2.47787575620923,1.27494371117118,-2.49587867274251,1.22093496157133
1.94697864119352,-2.35525597435469,0.0054688225157514,2.36072479687044,1.17489357591947,-2.35799038561256,1.18309680969309
1.94912525491038,-2.20349719351383,0.0427397651260649,2.24623695863989,1.08037871419388,-2.22486707607686,1.14448836188298
1.95127186862724,-2.02284945641405,0.0707439227768813,2.09359337919093,0.976052766818583,-2.05822141780249,1.0821686509839
1.9534184823441,-1.78672851621981,0.0873713027105926,1.8740998189304,0.849678606754607,-1.8304141675751,0.980735560820496
1.95556509606096,-1.48410001266104,0.0931527834704002,1.57725279613144,0.695473614595317,-1.53067640439624,0.835202789800918
1.95771170977783,-1.11938407451541,0.0903833268106022,1.20976740132601,0.514500373852404,-1.16457573792071,0.650075364068308
1.95985832349469,-0.708452287780975,0.0821100495669322,0.790562337347907,0.313171119107021,-0.749507312564441,0.43633619345742
1.96200493721155,-0.273915378810352,0.0713181237476545,0.345233502558006,0.101298627531349,-0.309574440684179,0.20827581315283
1.96415155092841,0.158647665359884,0.0604804776931721,-0.0981671876667123,-0.109564071526528,0.128407426513298,-0.0188433549867701
1.96629816464527,0.563551175643643,0.0514655033571776,-0.512085672286465,-0.30750833950041,0.537818423965054,-0.230310084464644
1.96844477836213,0.917679553016912,0.0456682117596982,-0.872011341257214,-0.481673882388305,0.894845447137063,-0.413171564748758
1.970591392079,1.20341045446913,0.044171073923421,-1.15923938054571,-0.623790764196274,1.18132491750742,-0.557534153311143
1.97273800579586,1.41151677139453,0.047757305653822,-1.36375946574071,-0.729637038524175,1.38763811856762,-0.658001080043442
1.97488461951272,1.5433239598112,0.0566803910683696,-1.48664356874283,-0.800002175439786,1.51498376427702,-0.714981588837232
1.97703123322958,1.61140387306167,0.0702143785824754,-1.5411894944792,-0.840809125822074,1.57629668377044,-0.735487557948361
1.97917784694644,1.63831963588786,0.0861356090641211,-1.55218402682374,-0.862227622475991,1.5952518313558,-0.733024208879809
1.9813244606633,1.65327922247788,0.100379141245506,-1.55290008123238,-0.876829181861694,1.60308965185513,-0.726260469993435
1.98347107438017,1.68711743944149,0.107135373876719,-1.57998206556477,-0.897126406659102,1.63354975250313,-0.736423345844024
1.98561768809703,1.76660585123466,0.0995784865828498,-1.66702736465181,-0.933092168908755,1.71681660794324,-0.783724439034481
1.98776430181389,1.90924140224034,0.0712448134523568,-1.83799658878799,-0.99024310784635,1.87361899551417,-0.883375887667815
1.98991091553075,2.11946681176519,0.0178362031072326,-2.10163060865796,-1.06865150743621,2.11054871021157,-1.04189720277536
1.99205752924761,2.38726322516712,-0.0610170982341654,-2.44828032340128,-1.16312306346648,2.4177717742842,-1.25464871081772
1.99420414296447,2.6901841965097,-0.160621858785193,-2.85080605529489,-1.26478116886225,2.77049512590229,-1.50571395704004
1.99635075668133,2.99933457476601,-0.271188057712635,-3.27052263247864,-1.36407325852669,3.13492860362232,-1.77085534509564
1.9984973703982,3.28812678111292,-0.379034770947968,-3.66716155206089,-1.45454600508248,3.4776441665869,-2.02309816150443
2.00064398411506,3.54084408274155,-0.468868401538035,-4.00971248427959,-1.53598784060176,3.77527828351057,-2.23929044290881
2.00279059783192,3.75761647455342,-0.52684556208282,-4.28446203663624,-1.6153854562353,4.02103925559483,-2.40565379935953
2.00493721154878,3.95377770665982,-0.543927813938128,-4.49770552059795,-1.70492494636084,4.22574161362888,-2.52081666726804
2.00708382526564,4.1538152624745,-0.518537447959762,-4.67235271043427,-1.81763890725737,4.41308398645438,-2.59544507919701
2.00923043898251,4.38216086727482,-0.45727644666418,-4.839437313939,-1.96244221030532,4.61079909060691,-2.64835688030159
2.01137705269937,4.6542186554234,-0.373158256674287,-5.02737691209769,-2.14053019937456,4.84079778376055,-2.70026758438599
2.01352366641623,4.9708663315985,-0.282058062307754,-5.25292439390625,-2.34440413464537,5.11189536275237,-2.767491228107
2.01567028013309,5.31816630704958,-0.198799775186907,-5.51696608223648,-2.55968326593133,5.41756619464303,-2.8578829287117
2.01781689384995,5.67177853103173,-0.134068435117852,-5.80584696614958,-2.76885504795694,5.73881274859066,-2.96995770063372
2.01996350756681,6.00362554675245,-0.0927915580190607,-6.09641710477151,-2.95541699436669,6.05002132576198,-3.09460433139529
2.02211012128367,6.28791565226583,-0.0742486123990773,-6.3621642646649,-3.10683351993337,6.32503995846537,-3.21820643853199
2.02425673500054,6.50508245496583,-0.0737067664334469,-6.57878922139928,-3.21568784426619,6.54193583818255,-3.32624799391636
2.0264033487174,6.64422723883806,-0.0847203503290496,-6.72894758916711,-3.27975344425451,6.68658741400258,-3.40683396974808
2.02854996243426,6.70535641062797,-0.100922033530412,-6.80627844415839,-3.30221718854878,6.75581742739318,-3.4536002388444
2.03069657615112,6.7017846818263,-0.116680737271169,-6.81846541909747,-3.29255197227757,6.76012505046189,-3.46757307818432
2.03284318986798,6.66172147651658,-0.127015940792951,-6.78873741730953,-3.26735276786182,6.72522944691306,-3.45787667905124
2.03498980358484,6.62721116198514,-0.12769210916722,-6.75490327115236,-3.24975952640896,6.69105721656875,-3.44129769015979
2.03713641730171,6.64851855702056,-0.116010676080958,-6.76452923310152,-3.2662539404698,6.70652389506104,-3.44026995459124
2.03928303101857,6.77314343889402,-0.0919106439069038,-6.86505408280092,-3.34061639749356,6.81909876084747,-3.47848236335391
2.04142964473543,7.03128750588075,-0.0584433221616084,-7.08973082804236,-3.48642209185957,7.06050916696156,-3.57408707510199
2.04357625845229,7.42281569920773,-0.0210116169288287,-7.44382731613656,-3.70090204113945,7.43332150767215,-3.73241946653269
2.04572287216915,7.91211258421746,0.0143711772825637,-7.8977414069349,-3.96324188075001,7.90492699557618,-3.94168511482617
2.04786948588601,8.43496663547254,0.0429532482578261,-8.39201338721471,-4.23895994186518,8.41349001134362,-4.17453006947844
2.05001609960288,8.91651931464543,0.0624615209138979,-8.85405779373153,-4.48949041777967,8.88528855418848,-4.39579813640882
2.05216271331974,9.29411679950379,0.0733284028941604,-9.22078839660963,-4.68372260119898,9.25745259805671,-4.57372999685773
2.0543093270366,9.53631163952927,0.0780216180881473,-9.45829002144112,-4.80716662880871,9.49730083048519,-4.69013420167649
2.05645594075346,9.65060628882165,0.0798202331971933,-9.57078605562445,-4.86521326100942,9.61069617222305,-4.74548291121363
2.05860255447032,9.67721298853671,0.0814643067264056,-9.59574868181031,-4.87933864763156,9.63648083517351,-4.75714218754195
2.06074916818718,9.67185840075081,0.0840759903469673,-9.58778241040384,-4.87796719554889,9.62982040557733,-4.75185321002844
2.06289578190405,9.68470732428575,0.0866498930065738,-9.59805743127917,-4.88567860864616,9.64138237778246,-4.7557037691363
2.06504239562091,9.74314560042061,0.0862692182686,-9.65687638215201,-4.91470740934461,9.70001099128631,-4.78530358194171
2.06718900933777,9.84376317893359,0.0790379363027592,-9.76472524263083,-4.96140055761817,9.80424421078221,-4.84284365316404
2.06933562305463,9.95502973803242,0.0615398011336032,-9.89348993689882,-5.00828476958301,9.92425983746562,-4.91597506788261
2.07148223677149,10.0284547483777,0.032460759374178,-9.99599398900351,-5.03045775387594,10.0122243686906,-4.98176661481467
2.07362885048835,10.0134769119283,-0.00612330851252367,-10.0196002204408,-5.00367680170788,10.0165385661845,-5.01286176447666
2.07577546420522,9.87051865992045,-0.048332867292616,-9.91885152721307,-4.91109289631392,9.89468509356676,-4.98359219725284
