t,leadI,leadII,leadIII,aVR,aVL,aVF
0,656.154500051751,404.316562442906,-251.837937608844,-530.235531247329,453.996218830298,76.239312417031
0.00214661371686165,654.545085726895,404.324278568084,-250.22080715881,-529.43468214749,452.382946442852,77.0517357046372
0.0042932274337233,653.718434044383,404.324413321169,-249.394020723215,-529.021423682776,451.556227383799,77.465196298977
0.00643984115058495,654.487022758005,404.316813303083,-250.170209454922,-529.401918030544,452.328616106464,77.0733019240802
0.0085864548674466,656.06958662407,404.306549770415,-251.763036853655,-530.188068197243,453.916311738863,76.2717564583799
0.0107330685843083,655.292712284681,404.300569476041,-250.99214280864,-529.796640880361,453.14242754666,76.6542133337006
0.0128796823011699,656.915574259907,404.303036207387,-252.61253805252,-530.609305233647,454.764056156213,75.8452490774336
0.0150262960180316,656.154994560197,404.312462148941,-251.842532411255,-530.233728354569,453.998763485726,76.234964868843
0.0171729097348932,656.169598192234,404.322588490246,-251.847009701988,-530.24609334124,454.008303947111,76.2377893941286
0.0193195234517549,655.360954270814,404.326506144188,-251.034448126626,-529.843730207501,453.19770119872,76.6460290087814
0.0214661371686165,656.116731730612,404.321324353595,-251.795407377017,-530.219028042103,453.956069553814,76.2629584882893
0.0236127508854782,656.072751983847,404.31025832988,-251.762493653967,-530.191505156864,453.917622818907,76.2738823379568
0.0257593646023398,656.842725326552,404.300652515668,-252.542072810884,-530.57168892111,454.692399068718,75.8792898523916
0.0279059783192015,656.061532409745,404.299142338356,-251.762390071389,-530.18033737405,453.911961240567,76.2683761334832
0.0300525920360631,656.110065765176,404.307120229481,-251.802945535695,-530.208592997328,453.956505650435,76.2520873468929
0.0321992057529248,654.580439344682,404.319576035957,-250.260863308724,-529.45000769032,452.420651326703,77.0293563636165
0.0343458194697864,652.232343951383,404.328223333435,-247.904120617948,-528.280283642409,450.068232284665,78.2120513577436
0.0364924331866481,650.630095603427,404.326974190996,-246.303121412431,-527.478534897211,448.466608507929,79.0119263892822
0.0386390469035097,648.980624618911,404.316167701291,-244.664456917621,-526.648396160101,446.822540768266,79.825855391835
0.0407856606203714,647.314798031729,404.302647187419,-243.01215084431,-525.808722609574,445.16347443802,80.6452481715543
0.042932274337233,647.266424559506,404.295448462412,-242.970976097094,-525.780936510959,445.1187003283,80.6622361826585
0.0450788880540947,647.278745965426,403.50594902811,-243.772796937316,-525.392347496768,445.525771451371,79.8665760453967
0.0472255017709563,644.968436828475,404.314717488115,-240.65371934036,-524.641577158295,442.811078084418,81.8304990738775
0.049372115487818,643.477529333273,404.3283985065,-239.149130826773,-523.902963919886,441.313330080023,82.5896338398635
0.0515187292046796,642.749232875091,404.331233983366,-238.417998891725,-523.540233429228,440.583615883408,82.9566175458203
0.0536653429215413,642.736456740953,403.527287904679,-239.209168836274,-523.131872322816,440.972812788614,82.1590595342024
0.0558119566384029,641.84747242114,404.306384704318,-237.541087716822,-523.076928562729,439.694280068981,83.382648493748
0.0579585703552646,640.134079056349,403.501265137182,-236.632813919168,-521.817672096766,438.383446487759,83.4342256090071
0.0601051840721262,640.851437495763,403.502538631693,-237.34889886407,-522.176988063728,439.100168179917,83.0768198838115
0.0622517977889879,640.875395149681,404.309140313573,-236.566254836108,-522.592267731627,438.720824992895,83.8714427387324
0.0643984115058495,640.993534301733,404.32299153808,-236.670542763653,-522.658262919907,438.832038532693,83.8262243872132
0.0665450252227112,639.551421886707,404.329005393522,-235.222416493186,-521.940213640114,437.386919189946,84.5532944501679
0.0686916389395728,638.843437856995,404.324112085505,-234.51932577149,-521.58377497125,436.681381814243,84.9023931570076
0.0708382526564345,638.016171150758,404.312619413894,-233.703551736864,-521.164395282326,435.859861443811,85.3045338385152
0.0729848663732961,637.873775136915,404.30278105436,-233.570994082555,-521.088278095637,435.722384609735,85.3658934859021
0.0751314800901578,637.701262109423,404.301004714392,-233.400257395031,-521.001133411907,435.550759752227,85.4503736596802
0.0772780938070194,637.604245597118,404.307691902197,-233.296553694921,-520.955968749658,435.45039964602,85.5055691036378
0.0794247075238811,637.65022931945,404.317401932179,-233.332827387271,-520.983815625814,435.49152835336,85.4922872724539
0.0815713212407427,639.409691193085,404.322996348915,-235.08669484417,-521.866343771,437.248193018628,84.618150752372
0.0837179349576044,639.606239396214,404.320737621198,-235.285501775016,-521.963488508706,437.445870585615,84.5176179230907
0.085864548674466,640.501586500152,404.31277829453,-236.188808205623,-522.407182397341,438.345197352887,84.0619850444535
0.0880111623913277,641.232466736529,404.305388111445,-236.927078625085,-522.768927423987,439.079772680807,83.6891547431801
0.0901577761081893,639.447053677147,404.304271502304,-235.142782174843,-521.875662589726,437.294917925995,84.5807446637305
0.092304389825051,637.647287948031,404.310349483941,-233.33693846409,-520.978818715986,435.492113206061,85.4867055099256
0.0944510035419126,637.55424934974,404.319032874257,-233.235216475484,-520.936641111998,435.394732912612,85.5419081993865
0.0965976172587743,638.433446126061,404.323542417169,-234.109903708892,-521.378494271615,436.271674917477,85.1068193541383
0.0987442309756359,637.852018673929,404.319945454761,-233.532073219168,-521.085982064345,435.692045946549,85.3939361177963
0.100890844692498,639.652176138842,404.310291379801,-235.341884759041,-521.981233759321,437.497030448942,84.4842033103795
0.103037458409359,640.524929736437,403.507623287699,-237.017306448738,-522.016276512068,438.771118092587,83.2451584194808
0.105184072126221,640.419883976574,404.301753506245,-236.118130470329,-522.36081874141,438.269007223452,84.091811517958
0.107330685843083,640.989952410339,404.309798697166,-236.680153713173,-522.649875553753,438.835053061756,83.8148224919963
0.109477299559944,639.991275034743,404.320361635689,-235.670913399055,-522.155818335216,437.831094216899,84.3247241183168
0.111623913276806,640.728765291865,404.32634084195,-236.402424449915,-522.527553066907,438.56559487089,83.9619581960171
0.113770526993667,642.442501918319,404.32348842743,-238.119013490889,-523.382995172875,440.280757704604,83.1022374682706
0.115917140710529,642.670330054249,404.313356388453,-238.356973665795,-523.491843221351,440.513651860022,82.978191361329
0.118063754427391,643.65451402973,403.50862614384,-240.14588788589,-523.581570086785,441.90020095781,81.681369128975
0.120210368144252,641.309094881127,404.299514285159,-237.009580595968,-522.804304583143,439.159337738548,83.6449668445951
0.122356981861114,640.381450631899,403.510757295334,-236.870693336565,-521.946103963617,438.626071984232,83.3200319793843
0.124503595577976,636.98474686491,404.31580752553,-232.66893933938,-520.65027719522,434.826843102145,85.8234340930746
0.126650209294837,636.812081730221,404.324061051023,-232.488020679198,-520.568071390622,434.65005120471,85.9180201859122
0.128796823011699,638.371831202001,404.324228892742,-234.047602309258,-521.348030047372,436.20971675563,85.138313291742
0.130943436728561,639.28826997331,404.31692755641,-234.9713424169,-521.80259876486,437.129806195105,84.6727925697549
0.133090050445422,640.278679066877,404.307695093328,-235.970983973549,-522.293187080103,438.124831520213,84.1683555598897
0.135236664162284,640.437030059133,404.302956282733,-236.1340737764,-522.369993170933,438.285551917767,84.0844412531665
0.137383277879146,641.268395398428,404.305646889405,-236.962748509023,-522.787021143916,439.115571953725,83.6714491901911
0.139529891596007,641.17098183246,404.313425942669,-236.85755588979,-522.742203887565,439.014268861125,83.7279350264394
0.141676505312869,640.205023590154,404.320544357023,-235.884479233131,-522.262783973589,438.044751411642,84.218032561946
0.143823119029731,640.055391027472,404.321952897878,-235.733438129594,-522.188671962675,437.894414578533,84.294257384142
0.145969732746592,636.829667144678,404.316785636181,-232.512881508497,-520.573226390429,434.671274326587,85.9019520638417
0.148116346463454,636.110145173631,404.308867106975,-231.801278066656,-520.209506140303,433.955711620143,86.2537945201598
0.150262960180316,637.054927420782,403.510110749645,-233.544816671137,-520.282519085214,435.299872045959,84.9826470392545
0.152409573897177,637.987205637972,404.307023614379,-233.680182023592,-521.147114626176,435.833693830782,85.3134207953935
0.154556187614039,639.626054889111,404.313846243203,-235.312208645908,-521.969950566157,437.46913176751,84.5008187986474
0.156702801330901,641.949362624465,404.319250270703,-237.630112353762,-523.134306447584,439.789737489114,83.3445689584706
0.158849415047762,642.614073919195,404.319549975138,-238.294523944057,-523.466811947167,440.454298931626,83.0125130155406
0.160996028764624,642.492094808472,404.315012852216,-238.177081956256,-523.403553830344,440.334588382364,83.0689654479802
0.163142642481485,640.064957520114,404.309379349822,-235.755578170292,-522.187168434968,437.910267845203,84.2769005897649
0.165289256198347,639.326088563268,404.306957947822,-235.019130615446,-521.816523255545,437.172609589357,84.6439136661876
0.167435869915209,639.441381184194,404.309466064889,-235.131915119305,-521.875423624542,437.28664815175,84.588775472792
0.16958248363207,637.954720535437,404.314865817348,-233.63985471809,-521.134793176392,435.797287626763,85.337505549629
0.171729097348932,637.984797476841,404.318955872492,-233.665841604349,-521.151876674667,435.825319540595,85.3265571340717
0.173875711065794,637.136934052629,404.318510761939,-232.81842329069,-520.727722407284,434.97767867166,85.7500437356243
0.176022324782655,637.831582940276,404.313687243826,-233.51789569645,-521.072635092051,435.674739318363,85.3978957736884
0.178168938499517,637.746299898568,404.307967715573,-233.438332182994,-521.027133807071,435.592316040781,85.4348177662894
0.180315552216379,636.929318085665,404.305671948702,-232.623646136962,-520.617495017184,434.776482111313,85.8410129058701
0.18246216593324,636.184957238515,404.308798961826,-231.876158276688,-520.246878100171,434.030557757601,86.2163203425691
0.184608779650102,637.068291705816,404.315453951707,-232.75283775411,-520.691872828762,434.910564729963,85.7813080987986
0.186755393366964,639.522426303537,404.321027071441,-235.201399232095,-521.921726687489,437.361912767816,84.559813919673
0.188902007083825,641.9148566337,404.321370765045,-237.593485868655,-523.118113699373,439.754171251177,83.3639424481952
0.191048620800687,641.86197543429,404.315796005867,-237.546179428423,-523.088885720078,439.704077431356,83.3848082887223
0.193195234517549,641.788630592908,404.307770011036,-237.480860581872,-523.048200301972,439.63474558739,83.4134547145821
0.19534184823441,641.745979191479,404.302731319969,-237.44324787151,-523.024355255724,439.594613531494,83.4297417242296
0.197488461951272,640.170103319923,404.304416885205,-235.865686434718,-522.237260102564,438.01789487732,84.2193652252436
0.199635075668134,640.222540899548,404.312173560364,-235.910367339184,-522.267357229956,438.066454119366,84.2009031105899
0.201781689384995,640.271344255878,404.32114512383,-235.950199132048,-522.296244689854,438.110771693963,84.1854729958911
0.203928303101857,639.485539852817,404.325337561576,-235.16020229124,-521.905438707196,437.322871072028,84.5825676351679
0.206074916818718,639.451393019641,404.321612412465,-235.129780607176,-521.886502716053,437.290586813409,84.5959159026443
0.20822153053558,640.198837878574,404.311955119483,-235.886882759091,-522.255396499028,438.042860318832,84.2125361801959
0.210368144252442,641.764948494142,404.302420281448,-237.462528212695,-523.033684387795,439.613738353419,83.4199460343764
0.212514757969303,641.784283788825,404.299314652797,-237.484969136027,-523.041799220811,439.634626462426,83.4071727583848
0.214661371686165,641.83236526428,404.30503714626,-237.52732811802,-523.06870120527,439.67984669115,83.3888545141203
0.216807985403027,642.667809315104,404.316312356559,-238.351496958546,-523.492060835831,440.509653136825,82.9824076990065
0.218954599119888,643.462607182747,404.326076052443,-239.136531130304,-523.894341617595,441.299569156526,82.5947724610697
0.22110121283675,643.417817899656,404.327918268473,-239.089899631183,-523.872868084065,441.253858765419,82.6190093186455
0.223247826553612,644.946364573887,404.320279060667,-240.62608551322,-524.633321817277,442.786225043553,81.8470967737239
0.225394440270473,644.120988944285,404.307658459214,-239.813330485071,-524.214323701749,441.967159714678,82.2471639870711
0.227541053987335,644.940962753823,404.297950887395,-240.643011866428,-524.619456820609,442.791987310125,81.8274695104835
0.229687667704197,645.01079612041,404.297493834591,-240.713302285819,-524.6541449775,442.862049203114,81.7920957743861
0.231834281421058,645.077893852889,404.30694417361,-240.770949679279,-524.69241901325,442.924421766084,81.7679972471659
0.23398089513792,645.092928100574,404.320656677356,-240.772271423218,-524.706792388965,442.932599761896,81.7741926270693
0.236127508854782,644.245416094574,404.330071260786,-239.915344833788,-524.28774367768,442.080380464181,82.2073632134991
0.238274122571643,642.567667817497,404.329065995061,-238.238601822436,-523.448366906279,440.403134819967,83.0452320863122
0.240420736288505,643.296645402627,404.317922896034,-238.978722506592,-523.807284149331,441.13768395461,82.669600194721
0.242567350005367,642.506356509024,404.303346894047,-238.203009614978,-523.404851701536,440.354683062001,83.0501686395347
0.244713963722228,643.375037209046,404.294417847377,-239.080619361669,-523.834727528211,441.227828285357,82.606899242854
0.24686057743909,643.473130124351,404.296928786905,-239.176201337446,-523.885029455628,441.324665730898,82.5603637247294
0.249007191155951,642.736777446119,404.309643934539,-238.427133511581,-523.523210690329,440.58195547885,82.941255211479
0.251153804872813,642.715641971073,403.531030847418,-239.184611123655,-523.123336409245,440.950126547364,82.1732098618818
0.253300418589675,643.419939165907,404.334486396299,-239.085452769608,-523.877212781103,441.252695967758,82.6245168133452
0.255447032306536,643.315946416688,404.3299530822,-238.985993334487,-523.822949749444,441.150969875588,82.6719798738565
0.257593646023398,645.647011562958,404.313401497934,-241.333610065024,-524.980206530446,443.490310813991,81.4898957164547
0.25974025974026,646.476048107667,404.295353552173,-242.180694555494,-525.38570082992,444.328371331581,81.0573294983398
0.261886873457121,646.579783720387,404.288041015893,-242.291742704494,-525.43391236814,444.435763212441,80.9981491556994
0.264033487173983,645.898346422749,404.297179571406,-241.601166851343,-525.097762997077,443.749756637046,81.3480063600315
0.266180100890845,646.745165701847,404.317705657963,-242.427460043884,-525.531435679905,444.586312872866,80.9451228070394
0.268326714607706,646.699636082774,404.33655574548,-242.363080337294,-525.518095914127,444.531358210034,80.9867377040928
0.270473328324568,646.577956991183,404.340979299346,-242.236977691837,-525.459468145264,444.40746734151,81.0520008037543
0.27261994204143,645.658492733484,404.327096688715,-241.331396044769,-524.992794711099,443.494944389127,81.4978503219729
0.274766555758291,646.403293456905,404.302996936251,-242.100296520654,-525.353145196578,444.251794988779,81.1013502077989
0.276913169475153,646.463747757153,403.49018187353,-242.973565883623,-524.976964815342,444.718656820388,80.2583079949536
0.279059783192015,646.601123123338,404.284366829843,-242.316756293495,-525.442744976591,444.458939708417,80.9838052681742
0.281206396908876,647.527033862801,404.302575887282,-243.224457975519,-525.914804875041,445.37574591916,80.5390589558816
0.283353010625738,647.56987640853,404.3274287393,-243.24244766923,-525.948652573915,445.40616203888,80.5424905350348
0.2854996243426,647.49418442342,404.34349884086,-243.15068558256,-525.91884163214,445.32243500299,80.5964066291498
0.287646238059461,648.137727724483,404.340739821944,-243.796987902539,-526.239233773214,445.967357813511,80.2718759597028
0.289792851776323,649.590940211992,404.3207587097,-245.270181502292,-526.955849460846,447.430560857142,79.5252886037036
0.291939465493185,650.348748467954,404.295876266544,-246.05287220141,-527.322312367249,448.200810334682,79.1215020325671
0.294086079210046,652.025768672412,404.281526721738,-247.744241950674,-528.153647697075,449.885005311543,78.2686423855317
0.296232692926908,651.395769869864,404.28668692817,-247.109082941694,-527.841228399017,449.252426405779,78.588801993238
0.298379306643769,652.333835103394,404.308267684215,-248.025567419179,-528.321051393805,450.179701261287,78.1413501325179
0.300525920360631,651.574211697349,404.332966786553,-247.241244910796,-527.953589241951,449.407728304072,78.5458609378786
0.302672534077493,649.092541069031,404.34546976391,-244.747071305121,-526.719005416471,446.919806187076,79.7991992293941
0.304819147794354,648.916597303986,404.337942072033,-244.578655231953,-526.62726968801,446.74762626797,79.87964342004
0.306965761511216,648.764928417161,404.314931886826,-244.449996530335,-526.539930151994,446.607462473748,79.9324676782455
0.309112375228078,647.932675131329,404.290619535098,-243.642055596231,-526.111647333214,445.78736536378,80.3242819694337
0.311258988944939,649.622289531275,404.28007858035,-245.342210950925,-526.951184055813,447.4822502411,79.4689338147127
0.313405602661801,650.599259796758,404.2899337198,-246.309326076958,-527.444596758279,448.454292936858,78.9903038214206
0.315552216378663,651.552040134242,404.314202852939,-247.237837281303,-527.93312149359,449.394938707772,78.5381827858179
0.317698830095524,653.975958947684,404.337929567265,-249.63802938042,-529.156944257475,451.806994164052,77.3499500934225
0.319845443812386,654.667337693365,404.346399723974,-250.320937969391,-529.506868708669,452.494137831378,77.0127308772916
0.321992057529248,653.686537156015,404.334263535726,-249.352273620289,-529.01040034587,451.519405388152,77.4909949577184
0.324138671246109,653.528693717794,404.308910054076,-249.219783663718,-528.918801885935,451.374238690756,77.5445631951792
0.326285284962971,651.905813651645,404.285968178029,-247.619845473615,-528.095890914837,449.76282956263,78.3330613522072
0.328431898679833,651.221551327891,404.279673191743,-246.941878136148,-527.750612259817,449.081714732019,78.6688975277979
0.330578512396694,651.408429156231,403.500183179163,-247.908245977068,-527.454306167697,449.65833756665,77.7959686010473
0.332725126113556,650.763203650634,404.321603565571,-246.441600085063,-527.542403608103,448.602401867848,78.9400017402542
0.334871739830418,650.784167258747,404.343060508572,-246.441106750175,-527.56361388366,448.612637004461,78.9509768791983
0.337018353547279,649.871283439908,404.344700882806,-245.526582557102,-527.107992161357,447.698932998505,79.4090591628524
0.339164967264141,648.892914311853,404.325862643662,-244.567051668191,-526.609388477757,446.729982990022,79.8794054877355
0.341311580981002,647.168264317438,404.299119764472,-242.869144552966,-525.733692040955,445.018704435202,80.7149876057529
0.343458194697864,647.162240392594,404.281934472798,-242.880305919796,-525.722087432696,445.021273156195,80.7008142765008
0.345604808414726,645.698052309837,404.285284115334,-241.412768194503,-524.991668212585,443.55541025217,81.4362579604152
0.347751422131587,645.080544786283,404.306651613195,-240.773893173089,-524.693598199739,442.927218979686,81.7663792200528
0.349898035848449,645.201183991774,404.331853704563,-240.869330287211,-524.766518848168,443.035257139492,81.7312617086762
0.352044649565311,643.604787610499,404.34441176302,-239.260375847479,-523.974599686759,441.432581728989,82.5420179577702
0.354191263282172,644.270749774558,403.542448123177,-240.728301651381,-523.906598948867,442.499525712969,81.4070732358981
0.356337876999034,642.513551655444,404.314394157065,-238.199157498378,-523.413972906254,440.356354576911,83.0576183293434
0.358484490715896,641.614484681971,404.290945638473,-237.323539043499,-522.952715160222,439.469011862735,83.4837032974871
0.360631104432757,640.841995249143,403.48708381119,-237.354911437953,-522.164539530167,439.098453343548,83.0660861866187
0.362777718149619,640.179155766517,404.292505128966,-235.886650637551,-522.235830447742,438.032903202034,84.2029272457079
0.364924331866481,640.336416707973,404.316571704563,-236.01984500341,-522.326494206268,438.178130855692,84.1483633505767
0.367070945583342,638.040239988144,404.337761638501,-233.702478349642,-521.189000813322,435.871359168893,85.3176416444293
0.369217559300204,638.801322333557,404.342906881299,-234.458415452258,-521.572114607427,436.629868892907,84.9422457145203
0.371364173017066,640.258461299272,404.329240522395,-235.929220776877,-522.293850910833,438.093841038074,84.2000098727588
0.373510786733927,638.520676111789,404.305865562513,-234.214810549276,-521.413270837151,436.367743330532,85.0455275066183
0.375657400450789,639.240996462888,404.287729489866,-234.953266973022,-521.764362976377,437.097131717955,84.6672312584218
0.377804014167651,639.286782126418,404.286070011343,-235.000712115075,-521.78642606888,437.143747120746,84.6426789481341
0.379950627884512,638.628248691251,404.301435215049,-234.326813476202,-521.46484195315,436.477531083727,84.9873108694232
0.382097241601374,638.770287645919,404.323623582833,-234.446664063086,-521.546955614376,436.608475854502,84.9384797598738
0.384243855318235,638.037411288821,404.338419900529,-233.698991388293,-521.187915594675,435.868201338557,85.3197142561179
0.386390469035097,637.187674145955,404.33670220639,-232.850971939566,-520.762188176173,435.019323042761,85.7428651334121
0.388537082751959,636.256625254146,404.320086748444,-231.936538505702,-520.288356001295,434.096581879924,86.1917741213709
0.39068369646882,636.91587687096,404.299604274679,-232.61627259628,-520.60774057282,434.76607473362,85.8416658391996
0.392830310185682,636.861823744572,404.288414068165,-232.573409676407,-520.575118906368,434.717616710489,85.8575021958789
0.394976923902544,636.919452565194,404.293345364063,-232.626107201132,-520.606398964628,434.772779883163,85.8336190814655
0.397123537619405,637.847904812448,404.310704499068,-233.537200313379,-521.079304655758,435.692552562913,85.3867520928446
0.399270151336267,637.978721437955,404.328938305704,-233.649783132251,-521.15382987183,435.814252285103,85.3395775867268
0.401416765053129,639.618064683974,404.336285462152,-235.281779221821,-521.977175073063,437.449921952897,84.5272531201655
0.40356337876999,639.559798360408,404.328371743413,-235.231426616995,-521.944085051911,437.395612488701,84.5484725632094
0.405709992486852,640.22315185245,404.310840237556,-235.912311614894,-522.266996045003,438.067731733672,84.1992643113314
0.407856606203714,642.479553119445,403.501564568503,-238.977988550942,-522.990558843974,440.728770835193,82.2617880087805
0.410003219920575,640.048306393989,404.293421023737,-235.754885370253,-522.170863708863,437.901595882121,84.2692678267418
0.412149833637437,639.315088416802,404.303508560216,-235.011579856586,-521.809298488509,437.163334136694,84.6459643518147
0.414296447354299,639.450629626339,404.318192829535,-235.132436796803,-521.884411227937,437.291533211571,84.5928780163659
0.41644306107116,640.371232479678,404.327915943322,-236.043316536356,-522.3495742115,438.207274508017,84.1422997034833
0.418589674788022,640.409075048795,404.327266402855,-236.08180864594,-522.368170725825,438.245441847367,84.1227288784576
0.420736288504884,640.334899242811,404.317987116098,-236.016912126713,-522.326443179454,438.175905684762,84.1505374946927
0.422882902221745,640.989067189797,404.307101959252,-236.681965230545,-522.648084574524,438.835516210171,83.8125683643535
0.425029515938607,638.487724267574,404.301788793333,-234.185935474241,-521.394756530453,436.336829870907,85.0579266595461
0.427176129655468,638.466518448477,404.304644963779,-234.161873484698,-521.385581706128,436.314195966587,85.0713857395406
0.42932274337233,636.966907191495,404.312467370388,-232.654439821106,-520.639687280941,434.810673506301,85.8290137746409
0.431469357089192,635.520972248449,404.319087821356,-231.201884427093,-519.920030034903,433.361428337771,86.5586016971316
0.433615970806053,636.42066693278,403.526152165208,-232.894514767572,-519.973409548994,434.657590850176,85.3158186988182
0.435762584522915,637.213302857513,404.316760027505,-232.896542830008,-520.765031442509,435.054922843761,85.7101085987481
0.437909198239777,637.103966271919,404.310600186378,-232.79336608554,-520.707283229149,434.948666178729,85.758617050419
0.440055811956638,636.958598425265,404.306334975203,-232.652263450062,-520.632466700234,434.805430937663,85.8270357625704
0.4422024256735,637.66738527393,404.307430854977,-233.359954418952,-520.987408064454,435.513669846441,85.4737382180126
0.444349039390362,640.079743625451,404.313319514518,-235.766424110933,-522.196531569985,437.923083868192,84.2734477017927
0.446495653107223,643.379333369125,404.319632673213,-239.059700695913,-523.849483021169,441.219517032519,82.6299659886499
0.448642266824085,651.452974356211,404.321320888589,-247.131653467623,-527.8871476224,449.292313911917,78.5948337104829
0.450788880540947,658.65017940306,404.31649052984,-254.33368887322,-531.48333496645,456.49193413814,74.99140082831
0.452935494257808,668.116925285921,403.51428917859,-264.602636107331,-535.815607232255,466.359780696626,69.4558265356298
0.45508210797467,673.549699195893,404.303669995682,-269.24602920021,-538.926684595788,471.397864198052,67.528820397736
0.457228721691532,677.430836703283,404.30481529479,-273.126021408493,-540.867825999037,475.278429055888,65.5893969431488
0.459375335408393,679.040650813761,404.31133440088,-274.729316412881,-541.67599260732,476.884983613321,64.7910089939995
0.461521949125255,683.133829276027,404.319503907127,-278.8143253689,-543.726666591577,480.974077322464,62.7525892691137
0.463668562842117,687.232252097871,404.324179972434,-282.908072125438,-545.778216035152,485.070162111654,60.708053923498
0.465815176558978,687.259054957283,404.322010654435,-282.937044302848,-545.790532805859,485.098049630066,60.6924831757936
0.46796179027584,684.774749228208,403.519958538695,-281.254790689513,-544.147353883451,483.01476995886,61.1325839245907
0.470108403992701,683.028903362439,403.511895809927,-279.517007552512,-543.270399586183,481.272955457476,61.9974441287075
0.472255017709563,680.551089150625,404.302088354552,-276.249000796073,-542.426588752588,478.400044973349,64.0265437792396
0.474401631426425,677.41920036521,404.303024221437,-273.116176143774,-540.861112293323,475.267688254492,65.5934240388314
0.476548245143286,672.023687226704,404.308628056323,-267.715059170381,-538.166157641513,469.869373198542,68.296784442971
0.478694858860148,663.46117847522,404.317039318422,-259.144139156797,-533.889108896821,461.302658816008,72.5864500808125
0.48084147257701,652.402064907386,404.32457419694,-248.077490710446,-528.363319552163,450.239777808916,78.1235417432467
0.482988086293871,640.381254668059,404.327048324997,-236.054206343062,-522.354151496528,438.21773050556,84.1364209909673
0.485134700010733,631.425328755561,404.322094954506,-227.103233801055,-517.873711855034,429.264281278308,88.6094305767256
0.487281313727595,626.458838367172,404.311195608914,-222.147642758258,-515.385016988043,424.303240562715,91.081776425328
0.489427927444456,626.400291842489,404.299785894993,-222.100505947496,-515.350038868741,424.250398894992,91.0996399737485
0.491574541161318,628.113931316937,404.294712555687,-223.81921876125,-516.204321936312,425.966575039094,90.2377468972181
0.49372115487818,632.326596802103,403.506249597243,-228.82034720486,-517.916423199673,430.573472003482,87.3429511961915
0.495867768595041,636.516603199725,404.315463400853,-232.201139798871,-520.416033300289,434.358871499298,86.0571618009911
0.498014382311903,638.174183007461,404.330068955993,-233.844114051469,-521.252125981727,436.009148529465,85.242977452262
0.500160996028765,640.437600860842,404.334468474969,-236.103132385874,-522.386034667906,438.270366623358,84.1156680445473
0.502307609745626,641.787627446622,404.325307030851,-237.462320415771,-523.056467238737,439.624973931197,83.43149330754
0.504454223462488,641.568346475243,404.307837462088,-237.260509013155,-522.938091968666,439.414427744199,83.5236642244666
0.50660083717935,641.496844744049,403.499107986764,-237.997736757285,-522.497976365406,439.747290750667,82.7506856147392
0.508747450896211,641.615005236629,404.291737757119,-237.323267479511,-522.953371496874,439.46913635807,83.484235138804
0.510894064613073,641.058687637392,404.303242127369,-236.755445510023,-522.680964882381,438.907066573708,83.7738983086727
0.513040678329934,642.069912863647,404.320255432621,-237.749657431025,-523.195084148134,439.909785147336,83.2852990007979
0.515187292046796,642.929830977479,404.332455448268,-238.597375529211,-523.631143212874,440.763603253345,82.8675399595285
0.517333905763658,642.803889114418,404.332681213174,-238.471207901245,-523.568285163796,440.637548507832,82.9307366559643
0.519480519480519,642.56245434623,404.321157373189,-238.24129697304,-523.441805859709,440.401875659635,83.0399302000743
0.521627133197381,641.557718885955,404.305169366387,-237.252549519568,-522.931444126171,439.405134202761,83.5263099234095
0.523773746914243,643.09362127728,404.294479921025,-238.799141356255,-523.694050599153,440.946381316768,82.7476692823851
0.525920360631104,644.021826304565,404.295357296535,-239.72646900803,-524.15859180055,441.874147656298,82.2844441442522
0.528066974347966,643.465873697018,404.306875917179,-239.15899777984,-523.886374807099,441.312435738429,82.5739390686697
0.530213588064828,643.667257337896,404.321690655667,-239.345566682229,-523.994473996781,441.506412010062,82.4880619867192
0.532360201781689,642.918970498619,404.330703627751,-238.588266870868,-523.624837063185,440.753618684743,82.8712183784413
0.534506815498551,641.989674154352,403.534815555547,-238.454858598804,-522.762244854949,440.222266376578,82.5399784783714
0.536653429215413,641.754522652945,404.318579284181,-237.435943368763,-523.036550968563,439.595233010854,83.4413179577091
0.538800042932274,640.763370375236,404.304651908385,-236.45871846685,-522.534011141811,438.611044421043,83.9229667207676
0.540946656649136,641.513893334524,404.295097689223,-237.218795645301,-522.904495511873,439.366344489913,83.5381510219607
0.543093270365998,643.234451197627,404.295960791925,-238.938490405701,-523.765205994776,441.086470801664,82.6787351931118
0.545239884082859,643.462278978827,404.30726281928,-239.155016159547,-523.884770899054,441.308647569187,82.5761233298662
0.547386497799721,645.242132169919,404.322622257009,-240.919509912909,-524.782377213464,443.080821041414,81.70155617205
0.549533111516583,646.875563616745,404.33282544619,-242.542738170555,-525.604194531468,444.70915089365,80.8950436378177
0.551679725233444,648.338386607734,404.331371327835,-244.007015279898,-526.334878967784,446.172700943816,80.1621780239685
0.553826338950306,648.118121542038,404.318639623656,-243.799481918382,-526.218380582847,445.95880173021,80.259578852637
0.555972952667168,647.140883697357,403.508141372674,-243.632742324683,-525.324512535016,445.38681301102,79.9376995239957
0.558119566384029,644.721271827578,404.292850258027,-240.42842156955,-524.507061042802,442.574846698564,81.9322143442385
0.560266180100891,645.644009447421,404.294773470847,-241.349235976574,-524.969391459134,443.496622711997,81.4727687471366
0.562412793817752,645.85397187974,404.306666949688,-241.547304930053,-525.080319414714,443.700638404896,81.3796810098175
0.564559407534614,645.221630682174,404.32207175434,-240.899558927834,-524.771851218257,443.060594805004,81.711256413253
0.566706021251476,645.24162125619,404.332619075492,-240.909002180699,-524.787120165841,443.075311718444,81.7118084473965
0.568852634968337,646.701865346615,404.332513103372,-242.369352243243,-525.517189224994,444.535608794929,80.9815804300647
0.570999248685199,645.712662326803,404.321683239404,-241.390979087399,-525.017172783104,443.551820707101,81.4653520760028
0.573145862402061,646.365420070445,404.305911053757,-242.059509016689,-525.335665562101,444.212464543567,81.1232010185339
0.575292476118922,647.947657474345,404.293802876556,-243.653854597789,-526.120730175451,445.800756036067,80.3199741393839
0.577439089835784,648.073096619928,404.29215474564,-243.780941874288,-526.182625682784,445.927019247108,80.2556064356759
0.579585703552646,648.2509363862,403.508314917959,-244.742621468241,-525.87962565208,446.49677892722,79.3828467248592
0.581732317269507,647.581760698684,404.319915034876,-243.261845663808,-525.95083786678,445.421803181246,80.5290346855343
0.583878930986369,647.584767640114,404.333268385856,-243.251499254257,-525.959018012985,445.418133447185,80.5408845657994
0.586025544703231,648.262847993424,404.334256303031,-243.928591690393,-526.298552148227,446.095719841909,80.2028323063188
0.588172158420092,648.097742035557,404.322507060142,-243.775234975415,-526.210124547849,445.936488505486,80.2736360423635
0.590318772136954,648.774078960636,404.305312615314,-244.468766345322,-526.539695787975,446.621422652979,79.9182731349961
0.592465385853816,650.35664486912,404.293076215015,-246.063568654105,-527.324860542067,448.210106761612,79.1147537804549
0.594611999570677,648.873756495372,403.499150903385,-245.374605591987,-526.186453699378,447.12418104368,79.0622726556987
0.596758613287539,649.030970984812,404.306187349025,-244.724783635786,-526.668579166918,446.877877310299,79.7907018566194
0.598905227004401,649.944897452239,404.322182535692,-245.622714916547,-527.133539993965,447.783806184393,79.3497338095723
0.601051840721262,651.546193993638,404.331037802899,-247.215156190739,-527.938615898268,449.380675092189,78.5579408060798
0.603198454438124,652.238057619077,404.328188156811,-247.909869462266,-528.283122887944,450.073963540672,78.2091593472725
0.605345068154985,652.080457277217,403.522851171389,-248.557606105828,-527.801654224303,450.319031691523,77.4826225327801
0.607491681871847,652.754812590606,404.305865460704,-248.448947129902,-528.530339025655,450.601879860254,77.928459165401
0.609638295588709,652.742380991157,404.299921319894,-248.442459671263,-528.521151155525,450.59242033121,77.9287308243156
0.61178490930557,652.844469788763,404.301092500485,-248.543377288277,-528.572781144624,450.69392353852,77.878857606104
0.613931523022432,652.207670891708,403.513951075152,-248.693719816556,-527.86081098343,450.450695354132,77.4101156292981
0.616078136739294,652.329409807635,403.523680081234,-248.805729726401,-527.926544944434,450.567569767018,77.3589751774165
0.618224750456155,652.343821209969,404.324582553996,-248.019238655972,-528.334201881982,450.181529932971,78.1526719490119
0.620371364173017,653.034754951268,404.323413642887,-248.711341308381,-528.679084297077,450.873048129824,77.806036167253
0.622517977889879,652.871737532489,404.315587841406,-248.556149691083,-528.593662686947,450.713943611786,77.8797190751612
0.62466459160674,651.950258546473,404.306930377254,-247.64332816922,-528.128594461864,449.796793357846,78.3318011040172
0.626811205323602,651.141986666986,404.303286595545,-246.838700071441,-527.722636631266,448.990343369214,78.7322932620519
0.628957819040464,652.045970284669,404.306601127368,-247.739369157301,-528.176285706018,449.892669720985,78.2836159850331
0.631104432757325,654.59611565434,404.313935121552,-250.282180532787,-529.455025387946,452.439148093564,77.0158772943825
0.633251046474187,654.719807546238,404.319875332512,-250.399932213725,-529.519841439375,452.559869879982,76.9599715593935
0.635397660191049,655.522455447192,404.320452724409,-251.202002722784,-529.921454085801,453.362229084988,76.5592250008123
0.63754427390791,655.413532890371,404.315775881649,-251.097757008722,-529.86465438601,453.255644949546,76.6090094364635
0.639690887624772,655.253784918223,404.309641973208,-250.944142945015,-529.781713445715,453.098963931619,76.6827495140965
0.641837501341634,655.13706025078,404.306586143946,-250.830474106834,-529.721823197363,452.983767178807,76.7380560185558
0.643984115058495,655.129085593372,404.308593801598,-250.820491791774,-529.718839697485,452.974788692573,76.7440510049119
0.646130728775357,655.231050575938,404.313823641394,-250.917226934544,-529.772437108666,453.074138755241,76.6982983534246
0.648277342492218,656.969320720189,404.318155714483,-252.651165005706,-530.643738217336,454.810242862947,75.8334953543887
0.65042395620908,659.460774212215,404.318329874102,-255.142444338113,-531.889552043158,457.301609275164,74.5879427679944
0.652570569925942,661.055077228091,404.314341149291,-256.7407360788,-532.684709188691,458.897906653446,73.7868025352453
0.654717183642803,661.754573110072,404.309363077114,-257.445210032958,-533.031968093593,459.599891571515,73.432076522078
0.656863797359665,661.621068702514,404.307305478162,-257.313763224352,-532.964187090338,459.467415963433,73.4967711269051
0.659010411076527,659.941454899231,404.309840366035,-255.631614533196,-532.125647632633,457.786534716213,74.3391129164196
0.661157024793388,658.355589049848,404.315106097596,-254.040482952252,-531.335347573722,456.19803600105,75.1373115726723
0.66330363851025,657.648842324754,404.319062957838,-253.329779366916,-530.983952641296,455.489310845835,75.4946417954607
0.665450252227112,657.760666801128,404.318521766995,-253.442145034132,-531.039594284061,455.60140591763,75.4381883664316
0.667596865943973,658.620176437578,404.313615589914,-254.306560847664,-531.466896013746,456.463368642621,75.0035273711252
0.669743479660835,659.397211606296,404.30785116816,-255.089360438136,-531.852531387228,457.243286022216,74.6092453650118
0.671890093377697,660.111015261946,404.305619277823,-255.805395984123,-532.208317269884,457.958205623035,74.2501116468497
0.674036707094558,661.61259142481,404.30891987916,-257.30367154565,-532.960755651985,459.45813148523,73.5026241667551
0.67618332081142,663.161631279349,404.315704093176,-258.845927186173,-533.738667686262,461.003779232761,72.7348884535016
0.678329934528282,662.394927144832,404.321143267557,-258.073783877275,-533.358035206195,460.234355511053,73.1236796951413
0.680476548245143,661.673924651283,404.321041431189,-257.352883220094,-532.997483041236,459.513403935688,73.4840791055477
0.682623161962005,660.950852770907,404.314995575583,-256.635857195324,-532.632924173245,458.793354983115,73.8395691901297
0.684769775678867,662.563153991866,403.513115075927,-259.050038915939,-533.038134533896,460.806596453902,72.2315380799942
0.686916389395728,661.730572938265,404.304005861372,-257.426567076893,-533.017289399819,459.578570007579,73.4387193922394
0.68906300311259,663.2457670144,404.306431178701,-258.939335835699,-533.77609909655,461.092551425049,72.6835476715011
0.691209616829451,663.185487775031,404.312647931794,-258.872839843238,-533.749067853413,461.029163809135,72.7199040442781
0.693356230546313,661.589739718295,404.318847366469,-257.270892351826,-532.954293542382,459.43031603506,73.5239775073216
0.695502844263175,661.64157981272,404.321352614363,-257.320227198357,-532.981466213542,459.480903505538,73.5005627080033
0.697649457980036,662.510777535668,404.318840935162,-258.191936600506,-533.414809235415,460.351357068087,73.0634521673283
0.699796071696898,663.349948713553,404.313071607317,-259.036877106236,-533.831510160435,461.193412909895,72.6380972505407
0.70194268541376,662.539799170293,404.307692557512,-258.232106612781,-533.423745863903,460.385952891537,73.0377929723657
0.704089299130621,661.682836157671,404.305914220531,-257.37692193714,-532.994375189101,459.529879047405,73.4644961416954
0.706235912847483,661.618880542654,404.308545464876,-257.310335077778,-532.963713003765,459.464607810216,73.4991051935488
0.708382526564345,662.390487066762,404.313625474053,-258.07686159271,-533.352056270408,460.233674329736,73.1183819406713
0.710529140281206,660.039193758968,404.317828697203,-255.721365061764,-532.178511228086,457.880279410366,74.2982318177195
0.712675753998068,660.103040480978,404.318664645609,-255.784375835369,-532.210852563294,457.943708158174,74.26714440512
0.71482236771493,660.154229033409,403.522152525345,-256.632076508064,-531.838190779377,458.393152770737,73.4450380086404
0.716968981431791,660.950109336047,404.313280556177,-256.63682877987,-532.631694946112,458.793469057958,73.8382258881534
0.719115595148653,660.106757782474,404.310133892917,-255.796623889557,-532.208445837695,457.951690836016,74.2567550016797
0.721262208865515,660.043648854623,404.307992942902,-255.735655911721,-532.175820898763,457.889652383172,74.2861685155907
0.723408822582376,660.012722070198,404.308138735802,-255.704583334395,-532.160430403,457.858652702296,74.3017777007034
0.725555436299238,659.242298344147,404.310901219762,-254.931397124386,-531.776599781954,457.086847734266,74.689752047688
0.7277020500161,657.716533604177,404.315199111378,-253.401334492799,-531.015866357778,455.558934048488,75.4569323092899
0.729848663732961,656.979858441313,403.525011830704,-253.454846610609,-530.252435136008,455.217352525961,75.0350826100477
0.731995277449823,653.813293739491,403.52719612438,-250.286097615112,-528.670244931936,452.049695677302,76.6205492546341
0.734141891166684,652.973462567031,404.31908931533,-248.654373251701,-528.64627594118,450.813917909366,77.8323580318142
0.736288504883546,652.899371896841,404.310954749228,-248.588417147612,-528.605163323034,450.743894522226,77.8612688008079
0.738435118600408,652.843950561316,403.507419352023,-249.336531209294,-528.175684956669,451.090240885305,77.0854440713644
0.740581732317269,652.05172319921,404.298663173433,-247.753060025777,-528.175193186322,449.902391612494,78.272801573828
0.742728346034131,652.115171925809,404.304637134614,-247.810534791195,-528.209904530212,449.962853358502,78.2470511717096
0.744874959750993,650.614496938779,403.523015254007,-247.091481684771,-527.068756096393,448.852989311775,78.2157667846181
0.747021573467854,649.083237457039,404.329836461123,-244.753400995916,-526.706536959081,446.918319226477,79.7882177326035
0.749168187184716,649.069957855553,404.33289892971,-244.737058925843,-526.701428392631,446.903508390698,79.7979200019334
0.751314800901578,647.399167179643,404.322628517347,-243.076538662296,-525.860897848495,445.237852920969,80.6230449275254
0.753461414618439,648.089605948432,404.304540351448,-243.785065596984,-526.19707314994,445.937335772708,80.2597373772317
0.755608028335301,648.822291849533,403.496294792518,-245.325997057014,-526.159293321026,447.074144453274,79.085148867752
0.757754642052163,648.051277394114,404.290912868692,-243.760364525422,-526.171095131403,445.905820959768,80.265274171635
0.759901255769024,647.359596042929,404.305448781592,-243.054147261337,-525.83252241226,445.206871652133,80.6256507601272
0.762047869485886,645.896475149043,404.325101408478,-241.571373740565,-525.110788278761,443.733924444804,81.3768638339569
0.764194483202748,646.760695502022,404.337832211161,-242.422863290861,-525.549263856592,444.591779396442,80.95748446015
0.766341096919609,645.928322210457,404.33562326186,-241.592698948597,-525.131972736159,443.760510579527,81.3714621566315
0.768487710636471,644.208095248154,404.319518274565,-239.888576973588,-524.26380676136,442.048336110871,82.2154706504887
0.770634324353333,645.648592707003,404.299135091507,-241.349457615496,-524.973863899255,443.499025161249,81.4748387380057
0.772780938070194,644.782178026918,404.286880072991,-240.495297953927,-524.534529049954,442.638737990423,81.8957910595317
0.774927551787056,644.045017015038,404.290373648333,-239.754643366705,-524.167695331686,441.899830190872,82.2678651408141
0.777074165503918,645.794528208887,404.307726997434,-241.486801211453,-525.05112760316,443.64066471017,81.4104628929907
0.779220779220779,645.96256381998,404.328587908091,-241.633975911889,-525.145575864036,443.798269865935,81.3473059981008
0.781367392937641,646.824438975225,404.340355261093,-242.484083714132,-525.582397118159,444.654261344679,80.9281357734806
0.783514006654502,647.535977560045,404.335804620326,-243.200172939719,-525.935891090186,445.368075249882,80.5678158403032
0.785660620371364,646.552879006413,404.317500688079,-242.235378318334,-525.435189847246,444.394128662373,81.0410611848726
0.787807234088226,644.786787767413,404.296316416331,-240.490471351082,-524.541552091872,442.638629559247,81.9029225326248
0.789953847805087,644.736627197039,404.284940957685,-240.451686239355,-524.510784077362,442.594156718197,81.916627359165
0.792100461521949,646.438038172933,403.496423665958,-242.941614506975,-524.967230919445,444.689826339954,80.2774045794911
0.794247075238811,646.644558762738,404.310593899131,-242.333964863607,-525.477576330935,444.489261813172,80.9883145177621
0.796393688955672,648.403813111329,403.53770576689,-244.866107344439,-525.970759439109,446.634960227884,79.3357992112253
0.798540302672534,648.429660639332,404.341667620258,-244.087993019074,-526.385664129795,446.258826829203,80.1268373005917
0.800686916389396,648.293127993605,404.333027191817,-243.960100801788,-526.313077592711,446.126614397697,80.1864631950145
0.802833530106257,647.285913256427,404.311339286274,-242.974573970153,-525.79862627135,445.13024361329,80.6683826580605
0.804980143823119,647.131286685414,404.290789248418,-242.840497436996,-525.711037966916,444.985892061205,80.7251459057107
0.807126757539981,647.132129404482,404.284757794157,-242.847371610325,-525.708443599319,444.989750507404,80.718693091916
0.809273371256842,648.874841614411,403.503278584739,-245.371563029671,-526.189060099575,447.123202322041,79.065857777534
0.811419984973704,650.670977758181,404.321151851749,-246.349825906432,-527.496064804965,448.510401832306,78.9856629726589
0.813566598690566,650.800893466328,404.33896901668,-246.461924449648,-527.569931241504,448.631408957988,78.9385222835161
0.815713212407427,649.981721361531,403.544836387077,-246.436884974455,-526.763278874304,448.209303167993,78.5539757063111
0.817859826124289,649.029706174587,404.322266587302,-244.707439587285,-526.675986380944,446.868572880936,79.8074135000083
0.820006439841151,649.63460372093,404.299030035215,-245.335573685716,-526.966816878073,447.485088703323,79.4817281747494
0.822153053558012,649.528103000718,404.284502340734,-245.243600659984,-526.906302670726,447.385851830351,79.5204508403748
0.824299667274874,650.358733695413,404.288747925619,-246.069985769794,-527.323740810516,448.214359732604,79.1093810779121
0.826446280991735,650.510068289089,404.309489212613,-246.200579076476,-527.409778750851,448.355323682783,79.0544550680682
0.828592894708597,650.681904514454,404.333338132641,-246.348566381814,-527.507621323547,448.515235448134,78.9923858754134
0.830739508425459,652.359616263297,404.344465918223,-248.015150345074,-528.35204109076,450.187383304185,78.1646577865747
0.83288612214232,653.109197640688,404.335081544531,-248.774116096157,-528.72213959261,450.941656868423,77.7804827241869
0.835032735859182,652.168983135141,404.310799769873,-247.858183365269,-528.239891452507,450.013583250205,78.2263082023022
0.837179349576044,652.01602398678,404.287247804268,-247.728776182512,-528.151635895524,449.872400084646,78.2792358108777
0.839325963292905,652.742936708798,404.279984241652,-248.462952467146,-528.511460475225,450.602944587972,77.9085158872529
0.841472577009767,652.001907536913,404.294246307589,-247.707661229323,-528.148076922251,449.854784383118,78.293292539133
0.843619190726629,652.137360919176,404.321265429748,-247.816095489429,-528.229313174462,449.976728204303,78.2525849701595
0.84576580444349,652.268983087357,404.343694781801,-247.925288305557,-528.306338934579,450.097135696457,78.2092032381219
0.847912418160352,652.317358962587,404.346766211003,-247.970592751583,-528.332062586795,450.143975857085,78.1880867297099
0.850059031877214,652.257951339448,404.32799022492,-247.929961114528,-528.292970782184,450.093956226988,78.1990145551964
0.852205645594075,652.926799056634,404.299043197838,-248.627755858796,-528.612921127236,450.777277457715,77.8356436695208
0.854352259310937,652.814385850587,404.278471261614,-248.535914588973,-528.546428556101,450.67515021978,77.8712783363208
0.856498873027799,652.782739766795,404.279791325968,-248.502948440827,-528.531265546382,450.642844103811,77.8884214425705
0.85864548674466,653.641280974219,404.302632082805,-249.338648891414,-528.971956528512,451.489964932817,77.4819915956952
0.860792100461522,654.550649696942,404.332706878785,-250.217942818157,-529.441678287864,452.38429625755,77.057382030314
0.862938714178384,653.849551946102,404.350781862954,-249.498770083147,-529.100166904528,451.674161014625,77.4260058899034
0.865085327895245,653.867455562282,404.344990582134,-249.522464980147,-529.106223072208,451.694960271215,77.4112628009935
0.867231941612107,653.804694375501,404.318603511217,-249.486090864284,-529.061648943359,451.645392619892,77.4162563234668
0.869378555328968,654.497239318927,404.288178761798,-250.209060557129,-529.392709040362,452.353149938028,77.0395591023344
0.87152516904583,656.005783500136,404.273142823544,-251.732640676592,-530.13946316184,453.869212088364,76.2702510734757
0.873671782762692,655.19811430559,404.28337480315,-250.91473950244,-529.74074455437,453.056426904015,76.6843176503547
0.875818396479554,654.464010554224,404.312735041659,-250.151275512565,-529.388372797941,452.307643033394,77.080729764547
0.877965010196415,654.561559422897,404.342764927639,-250.218794495258,-529.452162175268,452.390176959077,77.0619852161906
0.880111623913277,655.43084747085,404.354317664405,-251.076529806446,-529.892582567628,453.253688638648,76.6388939289795
0.882258237630138,655.436836140309,404.339776336266,-251.097059804043,-529.888306238287,453.266947972176,76.6213582661117
0.884404851347,655.371081618957,404.308057687582,-251.063023931376,-529.839569653269,453.217052775166,76.6225168781031
0.886551465063862,654.481706634704,404.279125801061,-250.202580833643,-529.380416217882,452.342143734173,77.0382724837089
0.888698078780723,654.417254794855,404.271403142396,-250.145851652459,-529.344328968625,452.281553223657,77.062775744968
0.890844692497585,654.422116893793,404.290030698821,-250.132086194972,-529.356073796307,452.277101544382,77.0789722519245
0.892991306214447,655.284507182346,403.529610452701,-251.754896729645,-529.407058817524,453.519701955995,75.8873568615282
0.895137919931308,655.371005052597,404.351956062731,-251.019048989866,-529.861480557664,453.195027021232,76.6664535364326
0.89728453364817,656.216619694861,404.35510129386,-251.861518401002,-530.285860494361,454.039069047932,76.246791446429
0.899431147365032,655.409515796618,404.330314863375,-251.079200933243,-529.869915329996,453.24435836493,76.6255569650658
0.901577761081893,656.138969008858,403.499664794284,-252.639304214574,-529.819316901571,454.389136611716,75.4301802898552
0.903724374798755,656.063902295992,404.270217879552,-251.793684416439,-530.167060087772,453.928793356216,76.2382667315565
0.905870988515617,656.817846444012,404.273885814365,-252.543960629647,-530.545866129188,454.680903536829,75.8649625923589
0.908017602232478,656.039884292928,404.302310759414,-251.737573533514,-530.171097526171,453.888728913221,76.2823686129499
0.91016421594934,656.100940200832,404.337619814972,-251.76332038586,-530.219280007902,453.932130293346,76.2871497145558
0.912310829666201,656.168209311944,404.357528816865,-251.81068049508,-530.262869064405,453.989444903512,76.2734241608925
0.914457443383063,655.406666190513,404.349423913806,-251.057242276708,-529.87804505216,453.231954233611,76.6460908185491
0.916604057099925,655.387067394448,404.318365445566,-251.068701948882,-529.852716420007,453.227884671665,76.6248317483416
0.918750670816787,654.534726045245,404.283928892346,-250.250797152899,-529.409327468796,452.392761599072,77.0165658697236
0.920897284533648,654.474347876706,404.267854753189,-250.206493123517,-529.371101314948,452.340420500112,77.0306808148359
0.92304389825051,654.446900615685,404.280305661647,-250.166594954037,-529.363603138666,452.306747784861,77.056855353805
0.925190511967371,654.466432440262,404.313427811046,-250.153004629217,-529.389930125654,452.309718534739,77.0802115909145
0.927337125684233,656.107102464169,404.346303392279,-251.76079907189,-530.226702928224,453.933950768029,76.2927521601944
0.929483739401095,656.159027145758,404.358172305023,-251.800854840735,-530.25859972539,453.979940993247,76.2786587321436
0.931630353117956,656.182473894471,404.341559894928,-251.840913999543,-530.262016894699,454.011693947007,76.2503229476927
0.933776966834818,656.962269729746,403.513146665683,-253.449123064063,-530.237708197714,455.205696396904,75.0320118008098
0.93592358055168,656.127062566838,404.277669149162,-251.849393417676,-530.202365858,453.988227992257,76.2141378657431
0.938070194268541,656.878560873007,404.269799420158,-252.608761452849,-530.574180146582,454.743661162928,75.8305189836547
0.940216807985403,656.855485561289,404.287916297323,-252.567569263966,-530.571700929306,454.711527412628,75.8601735166783
0.942363421702265,656.861263548318,404.320925176554,-252.540338371764,-530.591094362436,454.700800960041,75.8902934023951
0.944510035419126,657.684353301413,404.348906687488,-253.335446613925,-531.01662999445,455.509899957669,75.5067300367816
0.946656649135988,657.719857116959,404.355148838203,-253.364708278756,-531.037502977581,455.542282697858,75.4952202797232
0.94880326285285,657.745495325713,404.336139478931,-253.409355846782,-531.040817402322,455.577425586247,75.4633918160745
0.950949876569711,657.751181545381,404.303536458416,-253.447645086965,-531.027359001898,455.599413316173,75.4279456857253
0.953096490286573,657.735472125554,404.277013284125,-253.458458841429,-531.006242704839,455.596965483492,75.4092772213476
0.955243104003434,658.499000798245,404.272373808971,-254.226626989273,-531.385687303608,456.362813893759,75.0228734098489
0.957389717720296,656.877703854909,404.292125349038,-252.585578505871,-530.584914601973,454.73164118039,75.8532734215834
0.959536331437158,656.85983626417,404.324140646269,-252.535695617902,-530.59198845522,454.697765941036,75.8942225141835
0.96168294515402,658.454532033863,403.555259483549,-254.899272550314,-531.004895758706,456.676902292088,74.3279934666174
0.963829558870881,657.687374224504,404.353524478663,-253.333849745841,-531.020449351584,455.510611985172,75.5098373664113
0.965976172587743,658.518792288402,404.332718870413,-254.186073417989,-531.425755579408,456.352432853196,75.073322726212
0.968122786304604,658.548599443738,404.299102651764,-254.249496791974,-531.423851047751,456.399048117856,75.0248029298951
0.970269400021466,658.554940380517,404.273436682549,-254.281503697968,-531.414188531533,456.418222039243,74.9959664922902
0.972416013738328,657.737852054784,404.271989294324,-253.46586276046,-531.004920674554,455.601857407622,75.4030632669319
0.974562627455189,658.488853403445,404.296207585154,-254.192645818291,-531.392530494299,456.340749610868,75.0517808834315
0.976709241172051,656.857234680697,404.331473229017,-252.52576145168,-530.594353954857,454.691498066189,75.9028558886682
0.978855854888913,656.839683344501,404.355932937828,-252.483750406673,-530.597808141165,454.661716875587,75.9360912655772
0.981002468605774,656.860768524177,404.354064942888,-252.506703581289,-530.607416733533,454.683736052733,75.9236806807997
0.983149082322636,656.911746215765,404.326544558376,-252.585201657389,-530.61914538707,454.748473936577,75.8706714504933
0.985295696039498,658.553232676909,403.496276945805,-255.056955731105,-531.024754811357,456.805094204007,74.2196606073502
0.987442309756359,660.163387545003,404.268758192224,-255.894629352779,-532.216072868613,458.029008448891,74.1870644197223
0.989588923473221,660.93178703047,404.273717782057,-256.658069248413,-532.602752406264,458.794928139442,73.8078242668217
0.991735537190083,661.666897309843,404.301962820704,-257.364934489139,-532.984430065274,459.515915899491,73.4685141657825
0.993882150906944,660.817415366965,404.336668475166,-256.480746891799,-532.577041921066,458.649081129382,73.9279607916833
0.996028764623806,661.597266349874,404.357253687452,-257.240012662423,-532.977260018663,459.418639506149,73.5586205125146
0.998175378340667,661.633740887428,404.35158854356,-257.282152343868,-532.992664715494,459.457946615648,73.5347180998457
1.00032199205753,663.286074091881,404.32314248452,-258.962931607362,-533.8046082882,461.124502849622,72.6801054385788
1.00246860577439,663.33500410223,404.288859427323,-259.046144674907,-533.811931764777,461.190574388568,72.6213573762084
1.00461521949125,664.131788854198,404.269061017709,-259.862727836489,-534.200424935954,461.997258345343,72.2031665906105
1.00676183320811,662.499081665982,404.27539782136,-258.223683844622,-533.387239743671,460.361382755302,73.0258569883689
1.00890844692498,661.645480225518,404.303995320365,-257.341484905153,-532.974737772941,459.493482565336,73.4812552076058
1.01105506064184,661.609906884142,404.337826715047,-257.272080169095,-532.973866799594,459.440993526618,73.5328732729762
1.0132016743587,660.030035434425,404.356857249384,-255.673178185042,-532.193446341904,457.851606809733,74.341839532171
1.01534828807556,660.074571787697,404.349911246357,-255.724660541339,-532.212241517027,457.899616164518,74.3126253525092
1.01749490179242,660.122791170511,404.321229873594,-255.801561296917,-532.222010522052,457.962176233714,74.2598342883388
1.01964151550928,660.141734873808,404.287873986781,-255.853860887027,-532.214804430295,457.997797880417,74.2170065498772
1.02178812922615,660.914658834751,404.269566986279,-256.645091848472,-532.592112910515,458.779875341611,73.8122375689036
1.02393474294301,660.076348178007,404.277031053523,-255.799317124484,-532.176689615765,457.937832651245,74.2388569645199
1.02608135665987,659.249765691208,403.511863879686,-255.737901811521,-531.380814785447,457.493833751364,73.8869810340824
1.02822797037673,658.459709982042,403.546046926017,-254.913663056025,-531.00287845403,456.686686519034,74.3161919349961
1.03037458409359,660.083733476378,404.358374514326,-255.725358962052,-532.221053995352,457.904546219215,74.3165077761367
1.03252119781045,660.119089712917,404.347635239277,-255.77145447364,-532.233362476097,457.945272093278,74.2880903828187
1.03466781152732,659.331073400704,404.314336131554,-255.01673726915,-531.822704766129,457.173905334927,74.648799431202
1.03681442524418,658.510369992289,404.279841663747,-254.230528328541,-531.395105828018,456.370449160415,75.024656667603
1.03896103896104,656.09171967294,404.266507696246,-251.825211976694,-530.179113684593,453.958465824817,76.2206478597763
1.0411076526779,655.283609653107,404.28319587737,-251.000413775737,-529.783402765239,453.142011714422,76.6413910508169
1.04325426639476,653.715710505123,404.319403564454,-249.396306940669,-529.017557034789,451.556008722896,77.4615483118927
1.04540088011162,653.75427917463,404.351885976777,-249.402393197854,-529.053082575704,451.578336186242,77.4747463894616
1.04754749382849,653.776763357047,404.359588340053,-249.417175016994,-529.06817584855,451.596969187021,77.4712066615294
1.04969410754535,652.171972652987,404.337291846054,-247.834680806933,-528.25463224952,450.00332672996,78.2513055195603
1.05184072126221,652.126243551631,404.299131667755,-247.827111883876,-528.212687609693,449.976677717754,78.2360098919398
1.05398733497907,652.878500405715,404.269626236188,-248.608874169528,-528.574063320952,450.743687287621,77.8303760333301
1.05613394869593,652.080165718649,404.267915777912,-247.812249940737,-528.174040748281,449.946207829693,78.2278329185877
1.05828056241279,652.919149961348,404.295345327631,-248.623804633716,-528.607247644489,450.771477297532,77.8357703469576
1.06042717612966,654.574435088529,404.334446541841,-250.239988546688,-529.454440815185,452.407211817608,77.0472289975763
1.06257378984652,653.027682975025,404.360068804802,-248.667614170223,-528.693875889913,450.847648572624,77.8462273172894
1.06472040356338,653.012699530327,404.355563923881,-248.657135606446,-528.684131727104,450.834917568386,77.8492141587178
1.06686701728024,652.150649325516,403.529754242807,-248.620895082709,-527.840201784161,450.385772204112,77.4544295800493
1.0690136309971,654.451880655568,404.285931792594,-250.165948862975,-529.368906224081,452.308914759271,77.0599914648095
1.07116024471396,654.407504462457,404.264529671632,-250.142974790826,-529.336017067045,452.275239626641,77.0607774404031
1.07330685843083,653.641437501987,404.272950814335,-249.368486687651,-528.957194158161,451.504962094819,77.4522320633421
1.07545347214769,652.94149246797,404.306388753128,-248.635103714843,-528.623940610549,450.788298091406,77.8356425191425
1.07760008586455,653.048512173962,404.344397022668,-248.704115151294,-528.696454598315,450.876313662628,77.8201409356866
1.07974669958141,653.890514920013,404.363408581215,-249.527106338799,-529.126961750614,451.708810629406,77.4181511212081
1.08189331329827,653.042943166269,404.351381723683,-248.691561442586,-528.697162444976,450.867252304427,77.8299101405487
1.08403992701513,652.912190737937,404.315450559435,-248.596740178502,-528.613820648686,450.754465458219,77.8593551904665
1.086186540732,651.989026506549,404.277705777246,-247.711320729303,-528.133366141898,449.850173617926,78.2831925239713
1.08833315444886,651.155175560384,404.261592491772,-246.893583068612,-527.708384026078,449.024379314498,78.6840047115797
1.09047976816572,649.653483985442,404.277313134276,-245.376170851167,-526.965398559859,447.514827418304,79.4505711415545
1.09262638188258,650.615940860164,404.315344391662,-246.300596468502,-527.465642625913,448.458268664333,79.0073739615797
1.09477299559944,653.140199693572,404.352201493968,-248.787998199604,-528.74620059377,450.964098946588,77.7821016471823
1.0969196093163,653.948279666105,404.364964258882,-249.583315407223,-529.156621962493,451.765797536664,77.3908244258292
1.09906622303317,654.609189518956,404.345565668465,-250.263623850491,-529.47737759371,452.436406684723,77.0409709089872
1.10121283675003,652.02795374512,404.305913989852,-247.722039755268,-528.166933867486,449.874996750194,78.2919371172924
1.10335945046689,651.104224483686,404.270582336265,-246.833642147421,-527.687403409976,448.968933315554,78.7184700944221
1.10550606418375,649.548357954718,404.261553234391,-245.286804720327,-526.904955594555,447.417581337523,79.4873742570322
1.10765267790061,648.935215903242,404.284505186672,-244.65071071657,-526.609860544957,446.792963309906,79.8168972350507
1.10979929161747,649.147849409207,404.325218286322,-244.822631122886,-526.736533847764,446.985240266047,79.751293581718
1.11194590533434,649.24649740641,404.35838812252,-244.888109283889,-526.802442764465,447.067303345149,79.7351394193156
1.1140925190512,650.744243201352,403.569530447936,-247.174712753416,-527.156886824644,448.959477977384,78.1974088472602
1.11623913276806,649.720355277992,404.338427916659,-245.381927361333,-527.029391597326,447.551141319663,79.4782502776632
1.11838574648492,649.503364382841,404.296786200334,-245.206578182507,-526.900075291588,447.354971282674,79.5451040089133
1.12053236020178,651.832072326934,404.264017991286,-247.568054335648,-528.04804515911,449.700063331291,78.347981827819
1.12267897391864,655.955372501382,404.260946171797,-251.694426329585,-530.108159336589,453.824899415483,76.2832599211058
1.1248255876355,663.364595934379,404.290395504342,-259.074200430037,-533.82749571936,461.219398182208,72.6080975371523
1.12697220135237,669.119541329913,404.334853096362,-264.784688233551,-536.727197213138,466.952114781732,69.7750824314055
1.12911881506923,673.883392706477,404.36687608402,-269.516516622457,-539.125134395249,471.699954664467,67.4251797307815
1.13126542878609,679.245292898836,404.366065570987,-274.879227327849,-541.805679234911,477.062260113343,64.7434191215685
1.13341204250295,681.36594315795,404.332087175076,-277.033855982874,-542.849015166513,479.199899570412,63.6491155961008
1.13555865621981,683.601138291662,404.285412260228,-279.315726031434,-543.943275275945,481.458432161548,62.4848431143968
1.13770526993667,682.084613659244,404.254980016781,-277.829633642463,-543.169796838012,479.957123650853,63.2126731871593
1.13985188365354,692.654839300237,404.260219189032,-288.394620111206,-548.457529244635,490.524729705722,57.9327995389129
1.1419984973704,696.866812692092,404.298620031604,-292.568192660488,-550.582716361848,494.71750267629,55.8652136855583
1.14414511108726,695.347456226938,404.346820106613,-291.000636120324,-549.847138166775,493.174046173631,56.6730919931446
1.14629172480412,688.856206527777,404.374829988336,-284.481376539441,-546.615518258057,486.668791533609,59.9467267244476
1.14843833852098,685.444369507394,404.364728879273,-281.079640628121,-544.904549193333,483.262005067757,61.6425441255763
1.15058495223784,680.50852106584,404.322152927344,-276.186368138495,-542.415336996592,478.347444602167,64.0678923944246
1.15273156595471,674.949374689381,404.273198765347,-270.676175924034,-539.611286727364,472.812775306707,66.7985114206568
1.15487817967157,668.752591712363,404.248409269841,-264.504182442522,-536.500500491102,466.628387077443,69.8721134136597
1.15702479338843,661.006077186242,403.46982759402,-257.536249592222,-532.237952390131,459.271163389232,72.9667890008988
1.15917140710529,653.162456880998,404.311359376475,-248.851097504522,-528.736908128737,451.00677719276,77.7301309359767
1.16131802082215,647.540406921767,404.359737548433,-243.180669373334,-525.9500722351,445.360538147551,80.5895340875495
1.16346463453901,644.184896335974,404.378183097324,-239.80671323865,-524.281539716649,441.995804787312,82.2857349293366
1.16561124825588,643.216818663355,404.355255058205,-238.86156360515,-523.78603686078,441.039191134252,82.7468457265277
1.16775786197274,644.751775360668,404.30583262209,-240.445942738578,-524.528803991379,442.598859049623,81.9299449417563
1.1699044756896,645.648258917164,404.261484207911,-241.386774709253,-524.954871562537,443.517516813208,81.4373547493291
1.17205108940646,648.223891141468,404.250294103191,-243.973597038277,-526.237092622329,446.098744089872,80.1383485324572
1.17419770312332,651.558980687274,404.279042162701,-247.279938524573,-527.919011424987,449.419459605924,78.4995518190636
1.17634431684018,652.373490127855,404.329064802233,-248.044425325622,-528.351277465044,450.208957726739,78.1423197383054
1.17849093055705,651.452095453564,404.368345008152,-247.083750445411,-527.910220230858,449.267922949488,78.6422972813705
1.18063754427391,651.26499416143,404.372016593604,-246.892977567826,-527.818505377517,449.078985864628,78.7395195128887
1.18278415799077,651.139954621253,403.544293425307,-247.595661195946,-527.34212402328,449.3678079086,77.9743161146803
1.18493077170763,650.360311331228,404.290064854549,-246.070246476678,-527.325188092889,448.215278903953,79.1099091889355
1.18707738542449,650.500223527254,404.256334564471,-246.243888962784,-527.378279045863,448.372056245019,79.0062228008435
1.18922399914135,650.669972232307,404.257894174876,-246.412078057431,-527.463933203591,448.541025144869,78.9229080587226
1.19137061285822,649.963740983919,404.29369795537,-245.67004302855,-527.128719469644,447.816892006234,79.31182746341
1.19351722657508,649.122098734024,404.341383188999,-244.780715545025,-526.731740961511,446.951407139524,79.7803338219867
1.19566384029194,649.769073217395,404.371247924905,-245.39782529249,-527.07016057115,447.583449254942,79.4867113162076
1.1978104540088,650.41356974219,404.364796346956,-246.048773395234,-527.389183044573,448.231171568712,79.1580114758608
1.19995706772566,651.152132113589,404.326244951465,-246.825887162124,-527.739188532527,448.989009637857,78.7501788946705
1.20210368144252,651.225330993273,404.279799110011,-246.945531883262,-527.752565051642,449.085431438268,78.6671336133743
1.20425029515939,653.76085169779,404.25443973726,-249.506411960531,-529.007645717525,451.633631829161,77.3740138883646
1.20639690887625,652.30360012932,404.265790450391,-248.037809678929,-528.284695289855,450.170704904124,78.1139903857311
1.20854352259311,650.743027856012,404.306440998786,-246.436586857226,-527.524734427399,448.589807356619,78.9349270707797
1.21069013630997,650.653374774346,404.350752962107,-246.302621812239,-527.502063868226,448.477998293292,79.0240655749338
1.21283675002683,649.709391041252,404.371050510543,-245.338340530709,-527.040220775898,447.52386578598,79.5163549899173
1.21498336374369,649.593646828407,403.561107543054,-246.032539285354,-526.57737718573,447.813093056881,78.7642841288499
1.21712997746056,651.170804550852,404.314315307819,-246.856489243034,-527.742559929336,449.013646896943,78.7289130323924
1.21927659117742,652.855234737028,404.272560336227,-248.582674400801,-528.563897536628,450.718954568914,77.8449429677133
1.22142320489428,652.996849911199,404.255389634088,-248.741460277111,-528.626119772643,450.869155094155,77.7569646784885
1.22356981861114,653.893328026778,404.273564267469,-249.61976375931,-529.083446147123,451.756545893044,77.3269002540795
1.225716432328,654.691004838473,404.316122008434,-250.374882830039,-529.503563423454,452.532943834256,76.9706195891978
1.22786304604486,653.008905794319,404.356980494261,-248.651925300058,-528.68294314429,450.830415547188,77.8525275971016
1.23000965976173,653.67327866647,403.577109612072,-250.096169054398,-528.625194139271,451.884723860434,76.740470278837
1.23215627347859,654.378192705863,404.350683198729,-250.027509507134,-529.364437952296,452.202851106498,77.1615868457976
1.23430288719545,655.171900548258,404.306255015928,-250.86564553233,-529.739077782093,453.018773040294,76.7203047417992
1.23644950091231,656.84349831613,404.264656257226,-252.578842058904,-530.554077286678,454.711170187517,75.8429070991609
1.23859611462917,656.958240688004,403.458142735717,-253.500097952287,-530.208191711861,455.229169320145,74.9790223917153
1.24074272834603,657.833922665994,404.278379869766,-253.555542796228,-531.05615126788,455.694732731111,75.3614185367688
1.2428893420629,657.839570218965,404.326095498047,-253.513474720918,-531.082832858506,455.676522469942,75.4063103885642
1.24503595577976,657.771489145469,404.365563080899,-253.40592606457,-531.068526113184,455.58870760502,75.4798185081642
1.24718256949662,656.877725015889,404.372414432692,-252.505310583197,-530.625069724291,454.691517799543,75.9335519247475
1.24932918321348,656.009110571478,404.342597574273,-251.666512997205,-530.175854072876,453.837811784342,76.3380422885342
1.25147579693034,655.997704056107,404.294796686772,-251.702907369335,-530.146250371439,453.850305712721,76.2959446587187
1.2536224106472,656.048688059604,404.258704367859,-251.789983691745,-530.153696213731,453.919335875674,76.2343603380572
1.25576902436407,656.128577814331,404.256518973376,-251.872058840954,-530.192548393853,454.000318327642,76.1922300662112
1.25791563808093,655.399383489902,404.289233313297,-251.110150176605,-529.844308401599,453.254766833253,76.5895415683457
1.26006225179779,656.213385731317,404.336221590192,-251.877164141124,-530.274803660754,454.04527493622,76.229528724534
1.26220886551465,657.769943843983,404.368269937149,-253.401673906834,-531.069106890566,455.585808875409,75.4832980151572
1.26435547923151,659.293295186693,404.365803029442,-254.927492157251,-531.829549108067,457.110393671972,74.7191554360954
1.26650209294837,658.436059960439,404.330895395061,-254.105164565377,-531.38347767775,456.270612262908,75.1128654148422
1.26864870666524,659.998040391003,404.2856613013,-255.712379089703,-532.141850846151,457.855209740353,74.2866411057985
1.2707953203821,660.019663182946,404.258212453737,-255.761450729209,-532.138937818341,457.890556956078,74.2483808622638
1.27294193409896,660.075937724769,404.265119227911,-255.810818496858,-532.17052847634,457.943378110813,74.2271503655263
1.27508854781582,659.342804828625,404.301360524517,-255.041444304108,-531.822082676571,457.192124566366,74.6299581102044
1.27723516153268,658.583832307142,404.34388984552,-254.239942461622,-531.463861076331,456.411887384382,75.0519736919491
1.27938177524954,660.163266318291,404.366330108611,-255.79693620968,-532.264798213451,457.980101263986,74.2846969494652
1.28152838896641,659.317741927477,404.355404879393,-254.962337048084,-531.836573403435,457.14003948778,74.6965339156548
1.28367500268327,660.838781017693,404.318825029924,-256.519955987769,-532.578803023809,458.679368502731,73.8994345210778
1.28582161640013,660.790417899991,404.279922315638,-256.510495584353,-532.535170107815,458.650456742172,73.8847133656425
1.28796823011699,659.995628772547,404.262721894129,-255.732906878418,-532.129175333338,457.864267825483,74.2649075078558
1.29011484383385,660.04813247332,404.277030748117,-255.771101725203,-532.162581610718,457.909617099262,74.2529645114565
1.29226145755071,660.921129860006,404.312844540589,-256.608285319417,-532.616987200298,458.764707589712,73.852279610586
1.29440807126758,660.980731769221,404.347267728874,-256.633464040347,-532.663999749047,458.807097904784,73.8569018442633
1.29655468498444,662.572895401114,404.359203390943,-258.213692010171,-533.466049396029,460.393293705643,73.0727556903862
1.2987012987013,662.514534949397,404.342357191595,-258.172177757802,-533.428446070496,460.343356353599,73.0850897168965
1.30084791241816,662.426767617176,403.514639180942,-258.912128436235,-532.970703399059,460.669448026706,72.3012553723534
1.30299452613502,661.568215631351,404.280603922707,-257.287611708644,-532.924409777029,459.427913669998,73.4964961070314
1.30514113985188,662.361665084988,404.273230607184,-258.088434477804,-533.317447846086,460.225049781396,73.0923980646896
1.30728775356875,662.425172322995,404.289186339198,-258.135985983797,-533.357179331096,460.280579153396,73.0766001777004
1.30943436728561,662.515649122383,404.317564894579,-258.198084227804,-533.416607008481,460.356866675094,73.0597403333875
1.31158098100247,661.786245996309,403.547316859036,-258.238929137273,-532.666781427672,460.012587566791,72.6541938608814
1.31372759471933,662.58198551715,404.348325929783,-258.233659587367,-533.465155723467,460.407822552258,73.057333171208
1.31587420843619,663.311440947465,404.334239643761,-258.977201303704,-533.822840295613,461.144321125585,72.6785191700283
1.31802082215305,664.010048576363,404.308326624611,-259.701721951752,-534.159187600487,461.855885264058,72.3033023364295
1.32016743586992,663.939114600162,404.286585732325,-259.652528867837,-534.112850166244,461.795821733999,72.3170284322444
1.32231404958678,662.349144205638,404.281631705326,-258.067512500311,-533.315387955482,460.208328352975,73.1070596025074
1.32446066330364,662.422797225595,404.29534160788,-258.127455617715,-533.359069416738,460.275126421655,73.0839429950823
1.3266072770205,664.116876917782,404.318427994931,-259.798448922851,-534.217652456357,461.957662920316,72.2599895360402
1.32875389073736,664.981860465745,403.542897283261,-261.438963182484,-534.262378874503,463.210411824114,71.0519670503885
1.33090050445422,665.766743786982,403.547526368786,-262.219217418196,-534.657135077884,463.992980602589,70.6641544752947
1.33304711817109,667.2706117548,404.329881422853,-262.940730331946,-535.800246588826,465.105671043373,70.6945755454535
1.33519373188795,667.162636967836,404.307545388317,-262.855091579519,-535.735091178076,465.008864273677,70.7262269043989
1.33734034560481,667.099967313246,403.494121746626,-263.60584556662,-535.297044529936,465.352906439933,69.9441380900027
1.33948695932167,667.123385069941,404.284712684305,-262.838672385636,-535.704048877123,464.981028727788,70.7230201493343
1.34163357303853,665.63104046954,404.297803885489,-261.333236584052,-534.964422177514,463.482138526796,71.4822836507184
1.34378018675539,666.534726380654,403.525282797194,-263.00944358346,-535.030004588924,464.772084982057,70.2579196068673
1.34592680047225,667.380156511844,404.337549091608,-263.042607420236,-535.858852801726,465.21138196604,70.6474708356857
1.34807341418912,668.131526212085,403.546593605008,-264.584932607076,-535.839059908547,466.358229409581,69.480830498966
1.35022002790598,668.020602851615,404.327803559242,-263.692799292372,-536.174203205428,465.856701071993,70.317502133435
1.35236664162284,667.120044924303,404.305617291713,-262.81442763259,-535.712831108008,464.967236278447,70.7455948295616
1.3545132553397,667.883291850885,404.287358927073,-263.595932923812,-536.085325388979,465.739612387348,70.3457130016307
1.35665986905656,668.741451445761,404.284402350963,-264.457049094799,-536.512926898362,466.59925027028,69.9136766280819
1.35880648277342,668.064084568576,404.298914377703,-263.765170190873,-536.18149947314,465.914627379725,70.2668720934151
1.36095309649029,666.572280070911,404.322354371782,-262.249925699129,-535.447317221347,464.41110288502,71.0362143363266
1.36309971020715,665.795237605809,404.340578213867,-261.454659391942,-535.067907909838,463.624948498875,71.4429594109625
1.36524632392401,666.515277416951,404.342442088373,-262.172835328578,-535.428859752662,464.344056372765,71.0848033798977
1.36739293764087,666.392321922042,404.326626665924,-262.065695256118,-535.359474293983,464.22900858908,71.1304657049034
1.36953955135773,664.707628598098,404.302496747038,-260.40513185106,-534.505062672568,462.556380224579,71.9486824479886
1.37168616507459,664.700484383562,404.284475975478,-260.416008408084,-534.49248017952,462.558246395823,71.9342337836971
1.37383277879146,665.582158925767,404.283370960858,-261.298787964909,-534.932764943312,463.440473445338,71.4922914979743
1.37597939250832,665.709347878499,404.299900225515,-261.409447652985,-535.004624052007,463.559397765742,71.4452262862649
1.37812600622518,665.798003726713,403.530443845445,-262.267559881268,-534.664223786079,464.032781803991,70.6314419820883
1.38027261994204,668.969997692388,404.343468332086,-264.626529360302,-536.656733012237,466.798263526345,69.8584694858924
1.3824192336589,668.078483362526,404.343790325175,-263.734693037351,-536.211136843851,465.906588199938,70.3045486439124
1.38456584737576,667.158131290545,404.324733185253,-262.833398105292,-535.741432237899,464.995764697919,70.7456675399804
1.38671246109263,665.497355328434,404.298007724303,-261.199347604131,-534.897681526368,463.348351466283,71.5493300600856
1.38885907480949,664.730498939574,404.280283170989,-260.450215768585,-534.505391055281,462.590357354079,71.9150337012018
1.39100568852635,664.042063803357,404.282748821698,-259.75931498166,-534.162406312527,461.900689392508,72.2617169200191
1.39315230224321,661.772344358183,404.304080402827,-257.468263955356,-533.038212380505,459.620304156769,73.4179082237358
1.39529891596007,662.613691667124,403.537360544204,-259.07633112292,-533.075526105664,460.845011395022,72.2305147106417
1.39744552967693,661.770003590099,404.348734691125,-257.421268898974,-533.059369140612,459.595636244536,73.4637328960753
1.3995921433938,660.864388924389,404.343475041686,-256.520913882703,-532.603931983037,458.692651403546,73.9112805794917
1.40173875711066,661.560461336682,404.318183716846,-257.242277619836,-532.939322526764,459.401369478259,73.5379530485052
1.40388537082752,660.744879942634,404.288748608901,-256.456131333734,-532.516814275768,458.600505638184,73.9163086375834
1.40603198454438,659.225593937101,404.274147560004,-254.951446377097,-531.749870748552,457.088520157099,74.6613505914534
1.40817859826124,657.752060695096,404.284215561848,-253.467845133248,-531.018138128472,455.609952914172,75.4081852142997
1.4103252119781,655.454940641193,404.313109069258,-251.141831571936,-529.884024855225,453.298386106564,76.585638748661
1.41247182569497,654.660228368922,404.342759770676,-250.317468598247,-529.501494069799,452.488848483585,77.0126455862145
1.41461843941183,654.570550850116,404.354231540555,-250.216319309562,-529.462391195336,452.393435079839,77.0689561154967
1.41676505312869,655.24013956913,404.33980691948,-250.90033264965,-529.789973244305,453.07023610939,76.719737134915
1.41891166684555,653.572471359087,404.308094395222,-249.264376963866,-528.940282877154,451.418424161476,77.5218587156779
1.42105828056241,651.213849080432,404.278824782018,-246.935024298414,-527.746336931225,449.074436689423,78.6719002418019
1.42320489427927,650.539088408913,404.270527217378,-246.268561191535,-527.404807813145,448.403824800224,79.0009830129212
1.42535150799614,651.471288229892,403.49495899517,-247.976329234722,-527.483123612531,449.723808732307,77.7593148802243
1.427498121713,650.737668736879,404.323971514162,-246.413697222717,-527.53082012552,448.575682979798,78.9551371457225
1.42964473542986,649.881378293484,403.558086379469,-246.323291914014,-526.719732336476,448.102335103749,78.6173972327277
1.43179134914672,648.940083764087,404.356082921957,-244.58400084213,-526.648083343022,446.762042303109,79.8860410399131
1.43393796286358,648.010679830672,404.33162963927,-243.679050191402,-526.171154734971,445.844865011037,80.3262897239342
1.43608457658044,648.773069520013,404.294052211483,-244.479017308531,-526.533560865748,446.626043414272,79.9075174514761
1.43823119029731,648.867894323246,403.47405857611,-245.393835747136,-526.170976449678,447.130865035191,79.0401114144868
1.44037780401417,650.617477807242,404.272134091753,-246.345343715489,-527.444805949498,448.481410761366,78.9633951881317
1.44252441773103,648.357340199218,404.302498069814,-244.054842129404,-526.329919134516,446.206091164311,80.123827970205
1.44467103144789,646.775707647911,404.339417829178,-242.436289818733,-525.557562738544,444.605998733322,80.9515640052225
1.44681764516475,646.662198929108,404.359295708583,-242.302903220525,-525.510747318846,444.482551074817,81.0281962440288
1.44896425888161,647.290743104006,404.349605658133,-242.941137445873,-525.82017438107,445.115940274939,80.7042341061304
1.45111087259848,646.380379125871,404.316757285075,-242.063621840796,-525.348568205473,444.222000483334,81.1265677221392
1.45325748631534,647.182602568603,404.28182222677,-242.900780341832,-525.732212397687,445.041691455218,80.690520942469
1.4554041000322,646.518328796264,404.266990591213,-242.251338205051,-525.392659693739,444.384833500657,81.0078261930812
1.45755071374906,647.486196063052,404.281476772437,-243.204719290615,-525.883836417745,445.345457676834,80.5383787409112
1.45969732746592,648.38867659972,404.315824480938,-244.072852118783,-526.352250540329,446.230764359251,80.1214861810774
1.46184394118278,647.567527532645,404.348110659703,-243.219416872941,-525.957819096174,445.393472202793,80.5643468933812
1.46399055489965,648.215667882967,404.357960885793,-243.857706997174,-526.28681438438,446.036687440071,80.2501269443092
1.46613716861651,648.040551251205,404.33940407846,-243.701147172745,-526.189977664833,445.870849211975,80.3191284528576
1.46828378233337,647.946214836102,404.304459572542,-243.64175526356,-526.125337204322,445.793985049831,80.3313521544907
1.47043039605023,647.993159254685,404.275324391072,-243.717834863613,-526.134241822878,445.855497059149,80.2787447637293
1.47257700976709,648.153206911211,404.270254656458,-243.882952254753,-526.211730783834,446.018079582982,80.1936512008524
1.47472362348395,647.532438359412,404.292131353735,-243.240307005677,-525.912284856573,445.386372682544,80.5259121740289
1.47687023720082,647.610561144765,404.326867194865,-243.283693949901,-525.968714169815,445.447127547333,80.5215866224818
1.47901685091768,646.748741630974,404.352502427937,-242.396239203037,-525.550622029456,444.572490417006,80.9781316124497
1.48116346463454,647.3705047674,404.353102936886,-243.017401830514,-525.861803852143,445.193953298957,80.667850553186
1.4833100783514,647.993277829148,404.328656783489,-243.664621045659,-526.160967306319,445.828949437404,80.3320178689152
1.48545669206826,649.517721540506,404.294828877019,-245.222892663487,-526.906275208763,447.370307101997,79.5359681067659
1.48760330578512,648.01502593498,404.272901785677,-243.742124149304,-526.143963860329,445.878575042142,80.2653888181865
1.48974991950199,649.790970096796,404.276374034876,-245.51459606192,-527.033672065836,447.652783079358,79.3808889864776
1.49189653321885,650.757963292238,404.302660880797,-246.455302411441,-527.530312086517,448.606632851839,78.9236792346782
1.49404314693571,650.011917225989,404.334991951094,-245.676925274895,-527.173454588542,447.844421250442,79.3290333380999
1.49618976065257,649.110239254835,404.353128537443,-244.757110717392,-526.731683896139,446.933674986113,79.7980089100257
1.49833637436943,648.913029484629,404.346041482185,-244.566988002445,-526.629535483407,446.740008743537,79.88952673987
1.50048298808629,647.953281815706,404.318603983153,-243.634677832553,-526.135942899429,445.793979824129,80.3419630752998
1.50262960180316,647.922535866326,404.288248429552,-243.634287436774,-526.105392147939,445.77841165155,80.3269804963887
1.50477621552002,649.633604821872,404.273875366044,-245.359729455829,-526.953740093958,447.49666713885,79.4570729551075
1.50692282923688,651.419641446402,404.284079401585,-247.135562044817,-527.851860423993,449.27760174561,78.5742586783838
1.50906944295374,651.569303589462,404.312029013025,-247.257274576438,-527.940666301244,449.41328908295,78.5273772182934
1.5112160566706,651.582316555038,404.340036822201,-247.242279732836,-527.96117668862,449.412298143937,78.5488785446825
1.51336267038746,651.45552395769,404.350765546848,-247.104758410842,-527.903144752269,449.280141184266,78.6230035680028
1.51550928410433,650.475877842556,404.337963234956,-246.1379146076,-527.406920538756,448.306896225078,79.1000243136779
1.51765589782119,650.345788774312,404.310079861738,-246.035708912574,-527.327934318025,448.190748843443,79.1371854745817
1.51980251153805,651.1401308538,404.284692206818,-246.855438646982,-527.712411530309,448.997784750391,78.714626779918
1.52194912525491,651.263166361515,404.277413428543,-246.985752932972,-527.770289895029,449.124459647244,78.6458302477854
1.52409573897177,650.636315788039,404.292290474202,-246.344025313837,-527.464303131121,448.490170550938,78.9741325801824
1.52624235268863,650.748236765064,404.319594390921,-246.428642374143,-527.533915577993,448.588439569603,78.9454760083891
1.5283889664055,652.329212764205,404.342180571687,-247.987032192518,-528.335696667946,450.158122478362,78.1775741895847
1.53053558012236,652.210476557884,404.34626286245,-247.864213695435,-528.278369710167,450.03734512666,78.2410245835073
1.53268219383922,652.056759693916,404.329826558023,-247.726933135893,-528.19329312597,449.891846414904,78.3014467110652
1.53482880755608,653.550724130819,404.303548544287,-249.247175586532,-528.927136337553,451.398949858675,77.5281864788777
1.53697542127294,654.362269624881,404.283864125,-250.078405499881,-529.32306687494,452.220337562381,77.1027293125595
1.5391220349898,655.26948995969,404.282680509478,-250.986809450212,-529.776085234584,453.128149704951,76.6479355296328
1.54126864870667,653.819268341906,404.300178414966,-249.51908992694,-529.059723378436,451.669179134423,77.3905442440131
1.54341526242353,653.902767028703,404.325049719099,-249.577717309604,-529.113908373901,451.740242169153,77.3736662047475
1.54556187614039,653.09102114648,404.341802462186,-248.749218684293,-528.716411804333,450.920119915386,77.7962918889465
1.54770848985725,652.192042011502,404.340416730105,-247.851625281396,-528.266229370804,450.021833646449,78.2443957243544
1.54985510357411,652.063402630848,404.32233035362,-247.741072277227,-528.192866492234,449.902237454038,78.2906290381965
1.55200171729097,651.190571805443,404.299184239725,-246.891387565718,-527.744878022584,449.04097968558,78.7038983370038
1.55414833100784,651.998891971648,404.285333310695,-247.713558660953,-528.142112641172,449.856225316301,78.2858873248709
1.5562949447247,650.505202152866,404.288938201611,-246.216263951255,-527.397070177238,448.36073305206,79.0363371251781
1.55844155844156,651.419310230631,404.307168358648,-247.112141871983,-527.863239294639,449.265726051307,78.5975132433328
1.56058817215842,651.494844187638,404.32832825248,-247.166515935158,-527.911586220059,449.330680061398,78.5809061586609
1.56273478587528,652.278284548816,404.339357062004,-247.938927486812,-528.30882080541,450.108606017814,78.2002147875959
1.56488139959214,653.777826225021,404.333895763556,-249.443930461465,-529.055860994289,451.610878343243,77.4449826510459
1.567028013309,654.457521678568,404.315936617383,-250.141585061185,-529.386729147976,452.299553369877,77.087175778099
1.56917462702587,654.385336030104,404.296972332973,-250.088363697131,-529.341154181539,452.236849863618,77.1043043179213
1.57132124074273,654.398889637114,404.288644917475,-250.11024471964,-529.343767277294,452.254567178377,77.0892000989174
1.57346785445959,653.695856158611,404.295593213407,-249.400262945204,-528.995724686009,451.548059551907,77.4476651341019
1.57561446817645,653.809739504567,404.31289589247,-249.496843612096,-529.061317698518,451.653291558331,77.4080261401868
1.57776108189331,653.876318870643,404.329500680433,-249.54681819021,-529.102909775538,451.711568530426,77.3913412451118
1.57990769561017,653.854041209021,404.335281184231,-249.51876002479,-529.094661196626,451.686400616906,77.4082605797205
1.58205430932704,654.550145697771,404.32721836463,-250.222927333141,-529.4386820312,452.386536515456,77.0521455157444
1.5842009230439,653.642130930663,404.31093036968,-249.331200560982,-528.976530650172,451.486665745823,77.4898649043491
1.58634753676076,653.584668117946,404.296809361863,-249.287858756083,-528.940738739904,451.436263437015,77.5044753028899
1.58849415047762,654.413845740818,404.293393008045,-250.120452732773,-529.353619374431,452.267149236795,77.086470137636
1.59064076419448,654.518181920681,404.302196299995,-250.215985620686,-529.410189110338,452.367083770683,77.0431053396543
1.59278737791134,653.832680036014,404.317135535346,-249.515544500667,-529.07490778568,451.674112268341,77.4007955173395
1.59493399162821,654.673255724998,404.328682929315,-250.344572795683,-529.500969327156,452.508914260341,76.9920550668159
1.59708060534507,653.040166985062,404.329942643472,-248.71022434159,-528.685054814267,450.875195663326,77.8098591509407
1.59922721906193,653.727962192143,404.320774830335,-249.407187361808,-529.024368511239,451.567574776976,77.4567937342636
1.60137383277879,655.212559286153,404.307497841817,-250.905061444335,-529.760028563985,453.058810365244,76.701218198741
1.60352044649565,655.172802030208,404.298583423966,-250.874218606242,-529.735692727087,453.023510318225,76.7121824088618
1.60566706021251,654.428582409302,404.299249644469,-250.129332764833,-529.363916026885,452.278957587067,77.0849584398183
1.60781367392938,653.746960945251,404.30840238093,-249.438558564321,-529.027681663091,451.592759754786,77.4349219083042
1.60996028764624,654.64863677531,404.319720755231,-250.328916020079,-529.48417876527,452.488776397695,76.9954023675755
1.6121069013631,655.475922126055,404.325970840416,-251.14995128564,-529.900946483235,453.312936705848,76.5880097773879
1.61425351507996,656.204161069684,404.323632921869,-251.880528147815,-530.263896995777,454.042344608749,76.2215523870274
1.61640012879682,655.284353919501,403.521028711633,-251.763325207867,-529.402691315567,453.523839563684,75.878851751883
1.61854674251368,654.386332852924,404.307117167537,-250.079215685387,-529.346725010231,452.232774269156,77.1139507410751
1.62069335623055,655.167031871235,404.303039072746,-250.863992798489,-529.73503547199,453.015512334862,76.7195231371281
1.62283996994741,654.458608796252,404.304389834975,-250.154218961277,-529.381499315614,452.306413878765,77.0750854368493
1.62498658366427,653.795656780351,404.310028701185,-249.485628079166,-529.052842740768,451.640642429758,77.4122003110096
1.62713319738113,653.888424973276,404.316810343125,-249.571614630151,-529.1026176582,451.730019801713,77.372597856487
1.62927981109799,653.880911045873,404.321316347704,-249.559594698169,-529.101113696789,451.720252872021,77.3808608247676
1.63142642481485,652.981431450066,404.321502139816,-248.65992931025,-528.651466794941,450.820680380158,77.8307864147832
1.63357303853172,654.433512743577,404.317522106541,-250.115990637036,-529.375517425059,452.274751690306,77.1007657347524
1.63571965224858,654.352679199621,404.311482051644,-250.041197147976,-529.332080625632,452.196938173799,77.1351424518339
1.63786626596544,655.175785161784,404.306356857502,-250.869428304282,-529.741071009643,453.022606733033,76.71846427661
1.6400128796823,656.887062237636,404.304606352187,-252.582455885448,-530.595834294912,454.734759061542,75.8610752333695
1.64215949339916,657.820353052958,403.513220071071,-254.307132981887,-530.666786562015,456.063743017422,74.6030435445924
1.64430610711602,657.093424511448,404.313908048926,-252.779516462523,-530.703666280187,454.936470486985,75.7671957932015
1.64645272083289,657.840953752828,404.319320092436,-253.521633660391,-531.080136922632,455.68129370661,75.3988432160224
1.64859933454975,658.501636189802,404.320265215892,-254.18137097391,-531.410950702847,456.341503581856,75.0694471209914
1.65074594826661,657.569279668481,404.31685203192,-253.252427636561,-530.943065850201,455.410853652521,75.5322121976799
1.65289256198347,657.514997004593,404.311858120126,-253.203138884468,-530.913427562359,455.359067944531,75.5543596178289
1.65503917570033,659.168223315432,404.308594719981,-254.859628595451,-531.738409017706,457.013925955441,74.7244830622647
1.65718578941719,660.104314032944,404.308700303837,-255.795613729106,-532.206507168391,457.949963881025,74.2565432873654
1.65933240313406,658.646259656915,404.311337908898,-254.334921748017,-531.478798782906,456.490590702466,74.9882080804402
1.66147901685092,658.68667089767,404.314177429799,-254.372493467871,-531.500424163734,456.52958218277,74.970841980964
1.66362563056778,658.612215459481,403.521424011745,-255.090791447736,-531.066819735613,456.851503453608,74.2153162820042
1.66577224428464,660.054985729269,404.315734708701,-255.739251020568,-532.185360218985,457.897118374918,74.2882418440666
1.6679188580015,660.718853451986,404.313813180433,-256.405040271552,-532.516333316209,458.561946861769,73.9543864544403
1.67006547171836,659.89050861335,404.311049178667,-255.579459434682,-532.100778896008,457.734984024016,74.3657948719926
1.67221208543523,660.772523068425,404.309766386807,-256.462756681618,-532.541144727616,458.617639875021,73.9235048525946
1.67435869915209,660.137312936916,404.311231180848,-255.826081756067,-532.224272058882,457.981697346492,74.2425747123905
1.67650531286895,661.064961872488,404.314548652878,-256.75041321961,-532.689755262683,458.907687546049,73.7820677166343
1.67865192658581,660.293381131262,404.317196640811,-255.976184490451,-532.305288886037,458.134782810856,74.1705060751802
1.68079854030267,659.393800198122,404.316887590711,-255.076912607412,-531.855343894416,457.235356402767,74.6199874916493
1.68294515401953,660.016796286901,404.313413905435,-255.703382381466,-532.165105096168,457.860089334183,74.3050157619843
1.6850917677364,661.470657095461,404.309052241824,-257.161604853636,-532.889854668643,459.316130974549,73.5737236940939
1.68723838145326,661.455737035794,404.307088239768,-257.148648796026,-532.881412637781,459.30219291591,73.5792197218707
1.68938499517012,663.163251554889,404.309407807102,-258.853843747788,-533.736329680995,461.008547651339,72.7277820296569
1.69153160888698,664.936013508512,404.314884825933,-260.621128682579,-534.625449167222,462.778571095545,71.8468780716769
1.69367822260384,665.868461543508,404.319856543524,-261.548604999983,-535.094159043516,463.708533271745,71.3856257717704
1.6958248363207,665.081882090962,404.320547924421,-260.761334166541,-534.701215007692,462.921608128752,71.7796068789399
1.69797145003757,664.953315431553,404.315854639034,-260.637460792519,-534.634585035294,462.795388112036,71.8391969232576
1.70011806375443,664.763470250691,404.308477676609,-260.454992574082,-534.53597396365,462.609231412386,71.9267425512638
1.70226467747129,664.624284618562,403.509556210459,-261.114728408103,-534.066920414511,462.869506513332,71.1974139011783
1.70441129118815,663.03152444568,404.305901070685,-258.725623374995,-533.668712758182,460.878573910338,72.790138847845
1.70655790490501,663.962046718803,404.312766709329,-259.649280009475,-534.137406714066,461.805663364139,72.3317433499271
1.70870451862187,663.363875551457,404.319457769046,-259.04441778241,-533.841666660251,461.204146666933,72.637519993318
1.71085113233874,662.708465301201,404.321721541386,-258.386743759815,-533.515093421293,460.547604530508,72.9674888907853
1.7129977460556,662.706016864345,404.318293905545,-258.3877229588,-533.512155384945,460.546869911572,72.9652854733724
1.71514435977246,663.354511323351,404.311617579969,-259.042893743382,-533.83306445166,461.198702533366,72.6343619182937
1.71729097348932,661.56160170931,404.306167690403,-257.255434018907,-532.933884699856,459.408517864108,73.5253668357482
1.71943758720618,659.04144210095,404.305499052509,-254.735943048441,-531.67347057673,456.888692574696,74.784778002034
1.72158420092304,659.058363697512,404.309937494985,-254.748426202528,-531.684150596249,456.90339495002,74.7807556462285
1.72373081463991,659.219420748279,404.316408593308,-254.903012154971,-531.767914670794,457.061216451625,74.7066982191686
1.72587742835677,660.21833141778,404.320505856739,-255.897825561041,-532.26941863726,458.05807848941,74.2113401478493
1.72802404207363,660.339461851509,404.319439209404,-256.020022642105,-532.329450530456,458.179742246807,74.1497082836494
1.73017065579049,658.715856049906,403.52006657352,-255.195789476386,-531.117961311713,456.955822763146,74.1621385485666
1.73231726950735,657.7561867658,404.309026536809,-253.44716022899,-531.032606651304,455.601673497395,75.4309331539093
1.73446388322421,656.76979234621,404.305951269426,-252.463841076784,-530.537871807818,454.616816711497,75.9210550963207
1.73661049694108,657.460535668802,403.512690065561,-253.947845603241,-530.486612867181,455.704190636021,74.7824222311597
1.73875711065794,656.709285462373,404.31219491359,-252.397090548784,-530.510740187981,454.553188005578,75.957552182403
1.7409037243748,656.869293077277,404.31774134172,-252.551551735557,-530.593517209498,454.710422406417,75.8830948030815
1.74305033809166,656.25460166134,404.319771757853,-251.934829903487,-530.287186709596,454.094715782413,76.1924709271831
1.74519695180852,656.347715407845,404.31739380136,-252.030321606484,-530.332554604603,454.189018507164,76.1435360974382
1.74734356552538,655.50757019053,404.31256631843,-251.1950038721,-529.91006825448,453.351287031315,76.5587812231649
1.74949017924225,655.353326107373,404.308616327612,-251.044709779761,-529.830971217492,453.199017943567,76.6319532739258
1.75163679295911,655.977170693993,404.308005425123,-251.66916526887,-530.142588059558,453.823167981432,76.3194200781268
1.75378340667597,654.301527509451,404.310813878311,-249.99071363114,-529.306170693881,452.146120570296,77.1600501235856
1.75593002039283,655.142443235103,404.314864923704,-250.827578311399,-529.728654079403,452.985010773251,76.7436433061522
1.75807663410969,654.498656859378,404.31731149811,-250.181345361268,-529.407984178744,452.340001110323,77.0679830684211
1.76022324782655,655.457075400244,404.316575282106,-251.140500118138,-529.886825341175,453.298787759191,76.5880375819838
1.76236986154342,655.537836383073,404.313349190793,-251.22448719228,-529.925592786933,453.381161787676,76.5444309992568
1.76451647526028,656.283312601322,404.310035416304,-251.973277185018,-530.296674008813,454.12829489317,76.1683791156432
1.76666308897714,656.135912630822,404.309040248885,-251.826872381937,-530.222476439853,453.981392506379,76.2410839334739
1.768809702694,654.391292970002,404.311095708004,-250.080197261999,-529.351194339003,452.235745116001,77.1154492230024
1.77095631641086,655.114513954859,404.314744631557,-250.799769323302,-529.714629293208,452.95714163908,76.7574876541273
1.77310293012772,655.960697226207,404.317340302538,-251.643356923668,-530.139018764373,453.802027074937,76.3369916894351
1.77524954384458,656.893278866746,404.316892241108,-252.576386625638,-530.605085553927,454.734832746192,75.8702528077352
1.77739615756145,657.827989587198,404.313507764704,-253.514481822494,-531.070748675951,455.671235704846,75.399512971105
1.77954277127831,657.890453628516,404.309424708511,-253.581028920005,-531.099939168514,455.73574127426,75.3641978942532
1.78168938499517,657.844951265437,404.30755710356,-253.537394161877,-531.076254184499,455.691172713657,75.3850814708416
1.78383599871203,656.930251694517,404.309484396026,-252.620767298491,-530.619868045271,454.775509496504,75.8443585487672
1.78598261242889,656.807071451545,404.314236732615,-252.49283471893,-530.56065409208,454.649953085237,75.9107010068425
1.78812922614576,655.160245491806,404.318759531815,-250.841485959991,-529.73950251181,453.000865725898,76.7386367859121
1.79027583986262,655.193917285464,404.31985274592,-250.874064539543,-529.756885015692,453.033990912504,76.7228941031885
1.79242245357948,655.2930607981,404.316368094763,-250.976692703337,-529.804714446431,453.134876750718,76.6698376957133
1.79456906729634,653.810340475819,404.310189916068,-249.500150559751,-529.060265195943,451.655245517785,77.4050196781583
1.7967156810132,653.867817536468,404.305238676733,-249.562578859736,-529.086528106601,451.715198198102,77.3713299084985
1.79886229473006,652.263191025085,404.305007660667,-247.958183364418,-528.284099342876,450.110687194752,78.1734121481243
1.80100890844692,651.393938064319,404.310165594739,-247.08377246958,-527.852051829529,449.23885526695,78.6131965625795
1.80315552216379,651.301034211012,404.317835846148,-246.983198364864,-527.80943502858,449.142116287938,78.6673187406419
1.80530213588065,652.02835211108,404.323177056675,-247.705175054405,-528.175764583878,449.866763582743,78.3090010011348
1.80744874959751,650.428572599584,404.322413730124,-246.106158869461,-527.375493164854,448.267365734522,79.1081274303314
1.80959536331437,652.067330997503,404.3154352075,-247.751895790003,-528.191383102502,449.909613393753,78.2817697087489
1.81174197703123,653.743047689353,404.306209848159,-249.436837841194,-529.024628768756,451.589942765274,77.4346860034821
1.81388859074809,656.207172256405,404.300553218612,-251.906619037793,-530.253862737508,454.056895647099,76.1969670904092
1.81603520446496,660.212688090809,404.302487869093,-255.910200221717,-532.257587979951,458.061444156263,74.1961438236879
1.81818181818182,665.73821779368,404.311457407178,-261.426760386502,-535.024837600429,463.582489090091,71.4423485103383
1.82032843189868,670.413529543569,404.32228613472,-266.091243408849,-537.367907839145,468.252386476209,69.1155213629359
1.82247504561554,674.285750174652,404.32814029405,-269.957609880602,-539.306945234351,472.121680027627,67.1852652067237
1.8246216593324,677.414281568215,404.324814385506,-273.08946718271,-540.86954797686,475.251874375463,65.6176736013979
1.82676827304926,681.423322105839,404.313670098797,-277.109652007042,-542.868496102318,479.26648705644,63.6020090458776
1.82891488676613,683.916067455316,404.301215810301,-279.614851645015,-544.108641632809,481.765459550166,62.343182082643
1.83106150048299,687.215702182152,403.501478136594,-283.714224045558,-545.358590159373,485.464963113855,59.8936270455177
1.83320811419985,692.040731466084,404.301620056384,-287.7391114097,-548.171175761234,489.889921437892,58.281254323342
1.83535472791671,695.168229590411,404.314628685094,-290.853600905317,-549.741429137752,493.010915247864,56.7305138898885
1.83750134163357,693.444267818335,404.32631501945,-289.117952798885,-548.885291418893,491.28111030861,57.6041811102828
1.83964795535043,689.338529837447,404.32969662899,-285.008833208457,-546.834113233219,487.173681522952,59.6604317102666
1.8417945690673,683.738587465448,404.322994406274,-279.415593059174,-544.030790935861,481.577090262311,62.4537006735501
1.84394118278416,679.853507001364,404.310520567318,-275.542986434046,-542.082013784341,477.698246717705,64.3837670666362
1.84608779650102,676.037710620837,404.299903375758,-271.737807245078,-540.168806998298,473.887758932958,66.28104806534
1.84823441021788,672.182968850119,404.297433869434,-267.885534980685,-538.240201359777,470.034251915402,68.2059494443746
1.85038102393474,664.235535570494,404.304365070138,-259.931170500356,-534.269950320316,462.083353035425,72.1865972848913
1.8525276376516,656.170010358689,404.316323159515,-251.853687199174,-530.243166759102,454.011848778932,76.2313179801704
1.85467425136847,648.069734292391,404.326070611465,-243.743663680926,-526.197902451928,445.906698986659,80.2912034652699
1.85682086508533,644.802805476203,404.327875041908,-240.474930434295,-524.565340259055,442.638867955249,81.9264723038061
1.85896747880219,642.449078263387,404.320854509415,-238.128223753972,-523.384966386401,440.28865100868,83.0963153777212
1.86111409251905,644.15759809615,404.309363873381,-239.848234222769,-524.233480984765,442.002916159459,82.2305648253061
1.86326070623591,645.079782303102,404.300289290631,-240.77949301247,-524.690035796866,442.929637657786,81.7603981390806
1.86540731995277,647.520392528641,404.298933092569,-243.221459436073,-525.909662810605,445.370925982357,80.5387368282482
1.86755393366964,650.659410613974,403.512087796535,-247.14732281744,-527.085749205254,448.903366715707,78.1823824895474
1.8697005473865,652.151110178143,404.318345970831,-247.832764207312,-528.234728074487,449.991937192728,78.2427908817592
1.87184716110336,652.067389723641,404.326441261074,-247.740948462567,-528.196915492358,449.904169093104,78.2927463992537
1.87399377482022,651.258194929496,404.325159420556,-246.93303550894,-527.791677175026,449.095615219218,78.6960619558075
1.87614038853708,649.725288359855,403.522069823763,-246.203218536093,-526.623679091809,447.964253447974,78.6594256438349
1.87828700225394,649.801393934785,404.306674414422,-245.494719520362,-527.054034174603,447.648056727573,79.4059774470301
1.88043361597081,649.040836932757,404.3014564791,-244.739380453656,-526.671146705928,446.890108693207,79.7810380127219
1.88258022968767,647.418393194359,404.303072176244,-243.115321018115,-525.860732685301,445.266857106237,80.5938755790646
1.88472684340453,648.141310735433,404.310309943541,-243.831000791892,-526.225810339487,445.986155763662,80.2396545758247
1.88687345712139,648.091177405757,404.31883393833,-243.772343467427,-526.205005672044,445.931760436592,80.2732452354516
1.88902007083825,648.899775966823,404.323786814144,-244.575989152679,-526.611781390483,446.737882559751,79.8738988307326
1.89116668455511,648.972545715749,404.322539239792,-244.650006475957,-526.647542477771,446.811276095853,79.8362663819177
1.89331329827198,649.05128046724,404.316041792907,-244.735238674333,-526.683661130073,446.893259570787,79.7904015592866
1.89545991198884,648.280255617604,404.308115173525,-243.972140444079,-526.294185395564,446.126198030841,80.1679873647228
1.8976065257057,648.223350365407,404.303198569358,-243.920151796049,-526.263274467383,446.071751080728,80.1915233866548
1.89975313942256,648.912764099968,404.303885917166,-244.608878182802,-526.608325008567,446.760821141385,79.847503867182
1.90189975313942,648.037056914276,404.309602893516,-243.72745402076,-526.173329903896,445.882255467518,80.2910744363777
1.90404636685628,648.0430537939,404.317067230461,-243.725986563439,-526.180060512181,445.88452017867,80.2955403335107
1.90619298057315,648.937504201651,404.322176123239,-244.615328078412,-526.629840162445,446.776416140032,79.8534240224138
1.90833959429001,649.070222732056,404.322233392798,-244.747989339259,-526.696228062427,446.909106035657,79.7871220267695
1.91048620800687,650.732686443885,404.317325704077,-246.415360739808,-527.525006073981,448.574023591846,78.9509824821349
1.91263282172373,649.894755077568,404.310178284875,-245.584576792693,-527.102466681222,447.739665935131,79.3628007460912
1.91477943544059,648.166219723904,404.304643517872,-243.861576206032,-526.235431620888,446.013897964968,80.22153365592
1.91692604915745,647.226652637068,404.303660033464,-242.922992603604,-525.765156335267,445.074822620336,80.6903337149302
1.91907266287432,648.76265897979,404.307739963502,-244.454919016288,-526.535199471646,446.608788998039,79.9264104736073
1.92121927659118,649.635283940695,404.31472979984,-245.320554140855,-526.975006870268,447.477919040775,79.4970878294928
1.92336589030804,651.386430319971,404.320934784149,-247.065495535822,-527.85368255206,449.225962927896,78.6277196241637
1.9255125040249,653.118158695584,404.323026879614,-248.79513181597,-528.720592787599,450.956645255777,77.7639475318222
1.92765911774176,652.354418305102,404.319781587641,-248.034636717461,-528.337099946371,450.194527511281,78.1425724350897
1.92980573145862,652.251880789568,404.312770707546,-247.939110082021,-528.282325748557,450.095495435795,78.1868303127626
1.93195234517549,652.080052589154,404.305634763129,-247.774417826025,-528.192843676141,449.927235207589,78.2656084685519
1.93409895889235,650.358966342434,404.302249017317,-246.056717325116,-527.330607679875,448.207841833775,79.1227658461004
1.93624557260921,651.938983624586,404.304667854979,-247.634315769606,-528.121825739782,449.786649697096,78.3351760426863
1.93839218632607,653.646236323949,403.51805169606,-250.128184627889,-528.582144010004,451.887210475919,76.6949335340856
1.94053880004293,653.815382707167,404.321566826119,-249.493815881047,-529.068474766643,451.654599294107,77.413875472536
1.94268541375979,655.518193480272,404.325937261729,-251.192256218543,-529.922065371001,453.355224849408,76.566840521593
1.94483202747666,654.713962144946,404.32193700718,-250.392025137766,-529.517949576063,452.552993641356,76.9649559347072
1.94697864119352,653.796345935414,404.311921472821,-249.484424462592,-529.054133704117,451.640385199003,77.4137485051146
1.94912525491038,652.052148919283,404.30226646455,-247.749882454733,-528.177207691916,449.901015687008,78.2761920049082
1.95127186862724,653.548670180657,404.299299536742,-249.249370643916,-528.923984858699,451.399020412286,77.5249644464131
1.9534184823441,654.363750851777,404.30517868757,-250.058572164207,-529.334464769674,452.211161507992,77.1233032616813
1.95556509606096,655.270889871909,404.316388954765,-250.954500917144,-529.793639413337,453.112695394527,76.6809440188102
1.95771170977783,654.610361809772,404.325872498172,-250.284489311601,-529.468117153972,452.447425560687,77.0206915932853
1.95985832349469,655.482342123641,404.327482755575,-251.154859368066,-529.904912439608,453.318600745854,76.5863116937541
1.96200493721155,655.46343031177,404.3199449203,-251.14348539147,-529.891687616035,453.30345785162,76.5882297644147
1.96415155092841,655.365111495605,404.307783458316,-251.057328037289,-529.836447476961,453.211219766447,76.6252277105135
1.96629816464527,656.042587031976,404.298577079766,-251.74400995221,-530.170582055871,453.893298492093,76.2772835637779
1.96844477836213,655.973718867766,404.298225558353,-251.675493309413,-530.13597221306,453.82460608859,76.3113661244698
1.970591392079,656.782219233127,404.307191193154,-252.475028039972,-530.544705213141,454.62862363655,75.916081576591
1.97273800579586,656.072060110074,404.320097140127,-251.751962969947,-530.1960786251,453.91201154001,76.28406708509
1.97488461951272,656.970001504936,404.328981101351,-252.641020403585,-530.649491303143,454.80551095426,75.843980348883
1.97703123322958,657.034304929166,404.328216520127,-252.70608840904,-530.681260724646,454.870196669103,75.8110640555435
1.97917784694644,657.025881243782,404.31805367257,-252.707827571212,-530.671967458176,454.866854407497,75.8051130506788
1.9813244606633,656.160109102844,404.30456463025,-251.855544472595,-530.232336866547,454.00782678772,76.2245100788274
1.98347107438017,656.863177829958,404.295987341974,-252.567190487984,-530.579582585966,454.715184158971,75.8643984269953
1.98561768809703,656.801792873989,404.29768845133,-252.50410442266,-530.54974066266,454.652948648325,75.896792014335
1.98776430181389,656.80081990269,404.308829314599,-252.491990588091,-530.554824608644,454.64640524539,75.9084193632543
1.98991091553075,656.857731023599,404.322792683535,-252.534938340063,-530.590261853567,454.696334681831,75.893927171736
1.99205752924761,656.146009602567,404.331138845717,-251.81487075685,-530.238574224142,453.980440179709,76.2581340444331
1.99420414296447,657.798181536616,404.32870877695,-253.469472759666,-531.063445156783,455.633827148141,75.429618008642
1.99635075668133,657.808117140799,403.522934215866,-254.285182924933,-530.665525678333,456.046650032866,74.6188756454669
1.9984973703982,658.554498178334,404.303712815428,-254.250785362906,-531.429105496881,456.40264177062,75.0264637262614
2.00064398411506,657.682773232566,404.294968938629,-253.387804293937,-530.988871085598,455.535288763251,75.4535823223464
2.00279059783192,658.414128272613,403.501670784142,-254.912457488471,-530.957899528378,456.663292880542,74.2946066478358
2.00493721154878,658.399215173397,403.513207488553,-254.886007684845,-530.956211330975,456.642611429121,74.313599901854
2.00708382526564,657.64477863165,403.529063531626,-254.115715100025,-530.586921081638,455.880246865837,74.7066742158006
2.00923043898251,658.510959722194,404.333255992715,-254.177703729479,-531.422107857454,456.344331725836,75.0777761316181
2.01137705269937,658.573920983141,404.329859125565,-254.244061857575,-531.451890054353,456.408991420358,75.042898633995
2.01352366641623,658.593198613546,403.521260092119,-255.071938521427,-531.057229352833,456.832568567486,74.2246607853463
2.01567028013309,659.353424338783,404.300311731589,-255.053112607194,-531.826868035186,457.203268472988,74.6235995621977
2.01781689384995,660.873230217233,404.293170811089,-256.580059406145,-532.583200514161,458.726644811689,73.856555702472
2.01996350756681,659.219811212638,404.298070237116,-254.921740975522,-531.758940724877,457.07077609408,74.6881646307971
2.02211012128367,659.198303028257,404.312090271599,-254.886212756658,-531.755196649928,457.042257892457,74.7129387574707
2.02425673500054,660.027268031534,403.532942171303,-256.494325860231,-531.780105101418,458.260796945882,73.5193081555362
2.0264033487174,660.095969476392,404.334646939093,-255.761322537299,-532.215308207742,457.928646006845,74.2866622008968
2.02854996243426,660.157693019936,404.328577766078,-255.829115253858,-532.243135393007,457.993404136897,74.2497312561097
2.03069657615112,660.177001907608,404.311816305751,-255.865185601857,-532.24440910668,458.021093754732,74.2233153519472
2.03284318986798,660.143877889959,404.294857806533,-255.849020083426,-532.219367848246,457.996448986693,74.2229188615531
2.03498980358484,660.872588659138,404.288864578361,-256.583724080777,-532.580726618749,458.728156369957,73.8525702487921
2.03713641730171,660.812329076856,403.504499290273,-257.307829786583,-532.158414183564,459.060079431719,73.0983347518447
2.03928303101857,659.20463798092,404.319245335785,-254.885392645134,-531.761941658353,457.045015313027,74.7169263453255
2.04142964473543,659.239339234686,404.336211171503,-254.903128063183,-531.787775203094,457.071233648934,74.71654155416
2.04357625845229,660.100212425747,404.33778344194,-255.762428983807,-532.218997933844,457.931320704777,74.2876772290666
2.04572287216915,660.156173497463,404.322736190189,-255.833437307274,-532.239454843826,457.994805402369,74.2446494414576
2.04786948588601,661.755304040375,404.300961454733,-257.454342585642,-533.028132747554,459.604823313008,73.4233094345453
2.05001609960288,662.508581691687,404.286944999366,-258.221636692321,-533.397763345527,460.365109192004,73.0326541535228
2.05216271331974,662.443710291505,404.29015194114,-258.153558350366,-533.366931116323,460.298634320935,73.0682967953872
2.0543093270366,663.192633158298,404.308688278361,-258.883944879937,-533.75066071833,461.038289019117,72.7123716992123
2.05645594075346,661.608095803701,404.330453069234,-257.277642734467,-532.969274436467,459.442869269084,73.5264051673833
2.05860255447032,661.659186812412,404.341059171656,-257.318127640756,-533.000122992034,459.488657226584,73.5114657654499
2.06074916818718,661.721781352118,404.333328724024,-257.388452628094,-533.027555038071,459.555116990106,73.4724380479654
2.06289578190405,661.751419315669,404.312107054018,-257.439312261651,-533.031763184844,459.59536578866,73.4363973961833
2.06504239562091,661.726734096929,404.29119084864,-257.435543248289,-533.008962472784,459.581138672609,73.4278238001757
2.06718900933777,662.458441945218,404.284337622508,-258.17410432271,-533.371389783863,460.316273133964,73.0551166498987
2.06933562305463,661.607330099749,404.296224513271,-257.311105586478,-532.95177730651,459.459217843114,73.4925594633963
2.07148223677149,663.185936208604,404.319291742927,-258.866644465677,-533.752613975766,461.026290337141,72.7263236386252
2.07362885048835,662.436890807697,404.33858186795,-258.098308939747,-533.387736337824,460.267599873722,73.1201364641012
2.07577546420522,662.508401927567,404.341460282765,-258.166941644802,-533.424931105166,460.337671786185,73.0872593189811
2.07792207792208,661.763699565468,404.325889952108,-257.437809613359,-533.044794758788,459.600754589413,73.4440401693744
2.08006869163894,661.755590452329,404.30184309602,-257.453747356308,-533.028716774174,459.604668904318,73.4240478698559
2.0822153053558,660.103415824573,403.491034100929,-256.612381723644,-531.797224962751,458.357898774109,73.4393261886427
2.08436191907266,660.025255503447,404.287395158364,-255.737860345083,-532.156325330906,457.881557924265,74.2747674066402
2.08650853278952,658.396382229949,404.305578425284,-254.090803804665,-531.350980327617,456.243593017307,75.1073873103093
2.08865514650639,659.217155722072,404.327343646583,-254.889812075489,-531.772249684328,457.05348389878,74.7187657855472
2.09080176022325,658.500101592629,404.339022013759,-254.16107957887,-531.419561803194,456.330590585749,75.0889712174449
2.09294837394011,657.784353657298,404.333996425702,-253.450357231595,-531.0591750415,455.617355444447,75.4418195970536
2.09509498765697,657.018892955281,404.316446278431,-252.70244667685,-530.667669616856,454.860669816066,75.8069998007902
2.09724160137383,653.80180377831,404.298091285381,-249.503712492929,-529.049947531846,451.65275813562,77.3971893962257
2.09938821509069,652.924647943006,404.290367184623,-248.634280758383,-528.607507563815,450.779464350695,77.8280432131199
2.10153482880756,652.849138141099,404.297251971952,-248.551886169147,-528.573195056526,450.700512155123,77.8726829014028
2.10368144252442,652.031121418673,404.31327155654,-247.717849862133,-528.172196487606,449.874485640403,78.2977108472036
2.10582805624128,651.279725812227,403.533795778629,-247.745930033599,-527.406760795428,449.512827922913,77.893932872515
2.10797466995814,650.570751143933,404.33286345673,-246.237887687203,-527.451807300331,448.404319415568,79.0474878847635
2.110121283675,651.441721362776,403.530533160198,-247.911188202578,-527.486127261487,449.676454782677,77.8096724788099
2.11226789739186,650.667885741605,404.30975076584,-246.358134975765,-527.488818253723,448.513010358685,78.9758078950373
2.11441451110873,651.413179555144,404.297030733546,-247.116148821597,-527.855105144345,449.26466418837,78.5904409559744
2.11656112482559,649.735869206965,404.294524322928,-245.441344884037,-527.015196764947,447.588607045501,79.4265897194458
2.11870773854245,648.075323329051,404.303987171289,-243.771336157762,-526.18965525017,445.923329743407,80.2663255067636
2.12085435225931,647.271906231065,404.319388459286,-242.952517771779,-525.795647345175,445.112212001422,80.6834353437538
2.12300096597617,647.329427726847,404.330765924886,-242.998661801961,-525.830096825866,445.164044764404,80.6660520614624
2.12514757969303,647.413878271277,404.33070960639,-243.083168664887,-525.872293938833,445.248523468082,80.6237704707514
2.1272941934099,646.676282384895,403.525381535862,-243.150900849033,-525.100831960379,444.913591616964,80.1872403434149
2.12944080712676,646.671503502958,404.305124818435,-242.366378684523,-525.488314160696,444.51894109374,80.9693730669562
