t,leadI,leadII,leadIII,aVR,aVL,aVF
0,826,509,-317,-667.5,571.5,96
0.00214661371686165,824,509,-315,-666.5,569.5,97
0.0042932274337233,823,509,-314,-666,568.5,97.5
0.00643984115058495,824,509,-315,-666.5,569.5,97
0.0085864548674466,826,509,-317,-667.5,571.5,96
0.0107330685843083,825,509,-316,-667,570.5,96.5
0.0128796823011699,827,509,-318,-668,572.5,95.5
0.0150262960180316,826,509,-317,-667.5,571.5,96
0.0171729097348932,826,509,-317,-667.5,571.5,96
0.0193195234517549,825,509,-316,-667,570.5,96.5
0.0214661371686165,826,509,-317,-667.5,571.5,96
0.0236127508854782,826,509,-317,-667.5,571.5,96
0.0257593646023398,827,509,-318,-668,572.5,95.5
0.0279059783192015,826,509,-317,-667.5,571.5,96
0.0300525920360631,826,509,-317,-667.5,571.5,96
0.0321992057529248,824,509,-315,-666.5,569.5,97
0.0343458194697864,821,509,-312,-665,566.5,98.5
0.0364924331866481,819,509,-310,-664,564.5,99.5
0.0386390469035097,817,509,-308,-663,562.5,100.5
0.0407856606203714,815,509,-306,-662,560.5,101.5
0.042932274337233,815,509,-306,-662,560.5,101.5
0.0450788880540947,815,508,-307,-661.5,561,100.5
0.0472255017709563,812,509,-303,-660.5,557.5,103
0.049372115487818,810,509,-301,-659.5,555.5,104
0.0515187292046796,809,509,-300,-659,554.5,104.5
0.0536653429215413,809,508,-301,-658.5,555,103.5
0.0558119566384029,808,509,-299,-658.5,553.5,105
0.0579585703552646,806,508,-298,-657,552,105
0.0601051840721262,807,508,-299,-657.5,553,104.5
0.0622517977889879,807,509,-298,-658,552.5,105.5
0.0643984115058495,807,509,-298,-658,552.5,105.5
0.0665450252227112,805,509,-296,-657,550.5,106.5
0.0686916389395728,804,509,-295,-656.5,549.5,107
0.0708382526564345,803,509,-294,-656,548.5,107.5
0.0729848663732961,803,509,-294,-656,548.5,107.5
0.0751314800901578,803,509,-294,-656,548.5,107.5
0.0772780938070194,803,509,-294,-656,548.5,107.5
0.0794247075238811,803,509,-294,-656,548.5,107.5
0.0815713212407427,805,509,-296,-657,550.5,106.5
0.0837179349576044,805,509,-296,-657,550.5,106.5
0.085864548674466,806,509,-297,-657.5,551.5,106
0.0880111623913277,807,509,-298,-658,552.5,105.5
0.0901577761081893,805,509,-296,-657,550.5,106.5
0.092304389825051,803,509,-294,-656,548.5,107.5
0.0944510035419126,803,509,-294,-656,548.5,107.5
0.0965976172587743,804,509,-295,-656.5,549.5,107
0.0987442309756359,803,509,-294,-656,548.5,107.5
0.100890844692498,805,509,-296,-657,550.5,106.5
0.103037458409359,806,508,-298,-657,552,105
0.105184072126221,806,509,-297,-657.5,551.5,106
0.107330685843083,807,509,-298,-658,552.5,105.5
0.109477299559944,806,509,-297,-657.5,551.5,106
0.111623913276806,807,509,-298,-658,552.5,105.5
0.113770526993667,809,509,-300,-659,554.5,104.5
0.115917140710529,809,509,-300,-659,554.5,104.5
0.118063754427391,810,508,-302,-659,556,103
0.120210368144252,807,509,-298,-658,552.5,105.5
0.122356981861114,806,508,-298,-657,552,105
0.124503595577976,802,509,-293,-655.5,547.5,108
0.126650209294837,802,509,-293,-655.5,547.5,108
0.128796823011699,804,509,-295,-656.5,549.5,107
0.130943436728561,805,509,-296,-657,550.5,106.5
0.133090050445422,806,509,-297,-657.5,551.5,106
0.135236664162284,806,509,-297,-657.5,551.5,106
0.137383277879146,807,509,-298,-658,552.5,105.5
0.139529891596007,807,509,-298,-658,552.5,105.5
0.141676505312869,806,509,-297,-657.5,551.5,106
0.143823119029731,806,509,-297,-657.5,551.5,106
0.145969732746592,802,509,-293,-655.5,547.5,108
0.148116346463454,801,509,-292,-655,546.5,108.5
0.150262960180316,802,508,-294,-655,548,107
0.152409573897177,803,509,-294,-656,548.5,107.5
0.154556187614039,805,509,-296,-657,550.5,106.5
0.156702801330901,808,509,-299,-658.5,553.5,105
0.158849415047762,809,509,-300,-659,554.5,104.5
0.160996028764624,809,509,-300,-659,554.5,104.5
0.163142642481485,806,509,-297,-657.5,551.5,106
0.165289256198347,805,509,-296,-657,550.5,106.5
0.167435869915209,805,509,-296,-657,550.5,106.5
0.16958248363207,803,509,-294,-656,548.5,107.5
0.171729097348932,803,509,-294,-656,548.5,107.5
0.173875711065794,802,509,-293,-655.5,547.5,108
0.176022324782655,803,509,-294,-656,548.5,107.5
0.178168938499517,803,509,-294,-656,548.5,107.5
0.180315552216379,802,509,-293,-655.5,547.5,108
0.18246216593324,801,509,-292,-655,546.5,108.5
0.184608779650102,802,509,-293,-655.5,547.5,108
0.186755393366964,805,509,-296,-657,550.5,106.5
0.188902007083825,808,509,-299,-658.5,553.5,105
0.191048620800687,808,509,-299,-658.5,553.5,105
0.193195234517549,808,509,-299,-658.5,553.5,105
0.19534184823441,808,509,-299,-658.5,553.5,105
0.197488461951272,806,509,-297,-657.5,551.5,106
0.199635075668134,806,509,-297,-657.5,551.5,106
0.201781689384995,806,509,-297,-657.5,551.5,106
0.203928303101857,805,509,-296,-657,550.5,106.5
0.206074916818718,805,509,-296,-657,550.5,106.5
0.20822153053558,806,509,-297,-657.5,551.5,106
0.210368144252442,808,509,-299,-658.5,553.5,105
0.212514757969303,808,509,-299,-658.5,553.5,105
0.214661371686165,808,509,-299,-658.5,553.5,105
0.216807985403027,809,509,-300,-659,554.5,104.5
0.218954599119888,810,509,-301,-659.5,555.5,104
0.22110121283675,810,509,-301,-659.5,555.5,104
0.223247826553612,812,509,-303,-660.5,557.5,103
0.225394440270473,811,509,-302,-660,556.5,103.5
0.227541053987335,812,509,-303,-660.5,557.5,103
0.229687667704197,812,509,-303,-660.5,557.5,103
0.231834281421058,812,509,-303,-660.5,557.5,103
0.23398089513792,812,509,-303,-660.5,557.5,103
0.236127508854782,811,509,-302,-660,556.5,103.5
0.238274122571643,809,509,-300,-659,554.5,104.5
0.240420736288505,810,509,-301,-659.5,555.5,104
0.242567350005367,809,509,-300,-659,554.5,104.5
0.244713963722228,810,509,-301,-659.5,555.5,104
0.24686057743909,810,509,-301,-659.5,555.5,104
0.249007191155951,809,509,-300,-659,554.5,104.5
0.251153804872813,809,508,-301,-658.5,555,103.5
0.253300418589675,810,509,-301,-659.5,555.5,104
0.255447032306536,810,509,-301,-659.5,555.5,104
0.257593646023398,813,509,-304,-661,558.5,102.5
0.25974025974026,814,509,-305,-661.5,559.5,102
0.261886873457121,814,509,-305,-661.5,559.5,102
0.264033487173983,813,509,-304,-661,558.5,102.5
0.266180100890845,814,509,-305,-661.5,559.5,102
0.268326714607706,814,509,-305,-661.5,559.5,102
0.270473328324568,814,509,-305,-661.5,559.5,102
0.27261994204143,813,509,-304,-661,558.5,102.5
0.274766555758291,814,509,-305,-661.5,559.5,102
0.276913169475153,814,508,-306,-661,560,101
0.279059783192015,814,509,-305,-661.5,559.5,102
0.281206396908876,815,509,-306,-662,560.5,101.5
0.283353010625738,815,509,-306,-662,560.5,101.5
0.2854996243426,815,509,-306,-662,560.5,101.5
0.287646238059461,816,509,-307,-662.5,561.5,101
0.289792851776323,818,509,-309,-663.5,563.5,100
0.291939465493185,819,509,-310,-664,564.5,99.5
0.294086079210046,821,509,-312,-665,566.5,98.5
0.296232692926908,820,509,-311,-664.5,565.5,99
0.298379306643769,821,509,-312,-665,566.5,98.5
0.300525920360631,820,509,-311,-664.5,565.5,99
0.302672534077493,817,509,-308,-663,562.5,100.5
0.304819147794354,817,509,-308,-663,562.5,100.5
0.306965761511216,817,509,-308,-663,562.5,100.5
0.309112375228078,816,509,-307,-662.5,561.5,101
0.311258988944939,818,509,-309,-663.5,563.5,100
0.313405602661801,819,509,-310,-664,564.5,99.5
0.315552216378663,820,509,-311,-664.5,565.5,99
0.317698830095524,823,509,-314,-666,568.5,97.5
0.319845443812386,824,509,-315,-666.5,569.5,97
0.321992057529248,823,509,-314,-666,568.5,97.5
0.324138671246109,823,509,-314,-666,568.5,97.5
0.326285284962971,821,509,-312,-665,566.5,98.5
0.328431898679833,820,509,-311,-664.5,565.5,99
0.330578512396694,820,508,-312,-664,566,98
0.332725126113556,819,509,-310,-664,564.5,99.5
0.334871739830418,819,509,-310,-664,564.5,99.5
0.337018353547279,818,509,-309,-663.5,563.5,100
0.339164967264141,817,509,-308,-663,562.5,100.5
0.341311580981002,815,509,-306,-662,560.5,101.5
0.343458194697864,815,509,-306,-662,560.5,101.5
0.345604808414726,813,509,-304,-661,558.5,102.5
0.347751422131587,812,509,-303,-660.5,557.5,103
0.349898035848449,812,509,-303,-660.5,557.5,103
0.352044649565311,810,509,-301,-659.5,555.5,104
0.354191263282172,811,508,-303,-659.5,557,102.5
0.356337876999034,809,509,-300,-659,554.5,104.5
0.358484490715896,808,509,-299,-658.5,553.5,105
0.360631104432757,807,508,-299,-657.5,553,104.5
0.362777718149619,806,509,-297,-657.5,551.5,106
0.364924331866481,806,509,-297,-657.5,551.5,106
0.367070945583342,803,509,-294,-656,548.5,107.5
0.369217559300204,804,509,-295,-656.5,549.5,107
0.371364173017066,806,509,-297,-657.5,551.5,106
0.373510786733927,804,509,-295,-656.5,549.5,107
0.375657400450789,805,509,-296,-657,550.5,106.5
0.377804014167651,805,509,-296,-657,550.5,106.5
0.379950627884512,804,509,-295,-656.5,549.5,107
0.382097241601374,804,509,-295,-656.5,549.5,107
0.384243855318235,803,509,-294,-656,548.5,107.5
0.386390469035097,802,509,-293,-655.5,547.5,108
0.388537082751959,801,509,-292,-655,546.5,108.5
0.39068369646882,802,509,-293,-655.5,547.5,108
0.392830310185682,802,509,-293,-655.5,547.5,108
0.394976923902544,802,509,-293,-655.5,547.5,108
0.397123537619405,803,509,-294,-656,548.5,107.5
0.399270151336267,803,509,-294,-656,548.5,107.5
0.401416765053129,805,509,-296,-657,550.5,106.5
0.40356337876999,805,509,-296,-657,550.5,106.5
0.405709992486852,806,509,-297,-657.5,551.5,106
0.407856606203714,809,508,-301,-658.5,555,103.5
0.410003219920575,806,509,-297,-657.5,551.5,106
0.412149833637437,805,509,-296,-657,550.5,106.5
0.414296447354299,805,509,-296,-657,550.5,106.5
0.41644306107116,806,509,-297,-657.5,551.5,106
0.418589674788022,806,509,-297,-657.5,551.5,106
0.420736288504884,806,509,-297,-657.5,551.5,106
0.422882902221745,807,509,-298,-658,552.5,105.5
0.425029515938607,804,509,-295,-656.5,549.5,107
0.427176129655468,804,509,-295,-656.5,549.5,107
0.42932274337233,802,509,-293,-655.5,547.5,108
0.431469357089192,800,509,-291,-654.5,545.5,109
0.433615970806053,801,508,-293,-654.5,547,107.5
0.435762584522915,802,509,-293,-655.5,547.5,108
0.437909198239777,802,509,-293,-655.5,547.5,108
0.440055811956638,802,509,-293,-655.5,547.5,108
0.4422024256735,803,509,-294,-656,548.5,107.5
0.444349039390362,806,509,-297,-657.5,551.5,106
0.446495653107223,810,509,-301,-659.5,555.5,104
0.448642266824085,820,509,-311,-664.5,565.5,99
0.450788880540947,829,509,-320,-669,574.5,94.5
0.452935494257808,841,508,-333,-674.5,587,87.5
0.45508210797467,848,509,-339,-678.5,593.5,85
0.457228721691532,853,509,-344,-681,598.5,82.5
0.459375335408393,855,509,-346,-682,600.5,81.5
0.461521949125255,860,509,-351,-684.5,605.5,79
0.463668562842117,865,509,-356,-687,610.5,76.5
0.465815176558978,865,509,-356,-687,610.5,76.5
0.46796179027584,862,508,-354,-685,608,77
0.470108403992701,860,508,-352,-684,606,78
0.472255017709563,857,509,-348,-683,602.5,80.5
0.474401631426425,853,509,-344,-681,598.5,82.5
0.476548245143286,846,509,-337,-677.5,591.5,86
0.478694858860148,835,509,-326,-672,580.5,91.5
0.48084147257701,821,509,-312,-665,566.5,98.5
0.482988086293871,806,509,-297,-657.5,551.5,106
0.485134700010733,795,509,-286,-652,540.5,111.5
0.487281313727595,789,509,-280,-649,534.5,114.5
0.489427927444456,789,509,-280,-649,534.5,114.5
0.491574541161318,791,509,-282,-650,536.5,113.5
0.49372115487818,796,508,-288,-652,542,110
0.495867768595041,801,509,-292,-655,546.5,108.5
0.498014382311903,803,509,-294,-656,548.5,107.5
0.500160996028765,806,509,-297,-657.5,551.5,106
0.502307609745626,808,509,-299,-658.5,553.5,105
0.504454223462488,808,509,-299,-658.5,553.5,105
0.50660083717935,808,508,-300,-658,554,104
0.508747450896211,808,509,-299,-658.5,553.5,105
0.510894064613073,807,509,-298,-658,552.5,105.5
0.513040678329934,808,509,-299,-658.5,553.5,105
0.515187292046796,809,509,-300,-659,554.5,104.5
0.517333905763658,809,509,-300,-659,554.5,104.5
0.519480519480519,809,509,-300,-659,554.5,104.5
0.521627133197381,808,509,-299,-658.5,553.5,105
0.523773746914243,810,509,-301,-659.5,555.5,104
0.525920360631104,811,509,-302,-660,556.5,103.5
0.528066974347966,810,509,-301,-659.5,555.5,104
0.530213588064828,810,509,-301,-659.5,555.5,104
0.532360201781689,809,509,-300,-659,554.5,104.5
0.534506815498551,808,508,-300,-658,554,104
0.536653429215413,808,509,-299,-658.5,553.5,105
0.538800042932274,807,509,-298,-658,552.5,105.5
0.540946656649136,808,509,-299,-658.5,553.5,105
0.543093270365998,810,509,-301,-659.5,555.5,104
0.545239884082859,810,509,-301,-659.5,555.5,104
0.547386497799721,812,509,-303,-660.5,557.5,103
0.549533111516583,814,509,-305,-661.5,559.5,102
0.551679725233444,816,509,-307,-662.5,561.5,101
0.553826338950306,816,509,-307,-662.5,561.5,101
0.555972952667168,815,508,-307,-661.5,561,100.5
0.558119566384029,812,509,-303,-660.5,557.5,103
0.560266180100891,813,509,-304,-661,558.5,102.5
0.562412793817752,813,509,-304,-661,558.5,102.5
0.564559407534614,812,509,-303,-660.5,557.5,103
0.566706021251476,812,509,-303,-660.5,557.5,103
0.568852634968337,814,509,-305,-661.5,559.5,102
0.570999248685199,813,509,-304,-661,558.5,102.5
0.573145862402061,814,509,-305,-661.5,559.5,102
0.575292476118922,816,509,-307,-662.5,561.5,101
0.577439089835784,816,509,-307,-662.5,561.5,101
0.579585703552646,816,508,-308,-662,562,100
0.581732317269507,815,509,-306,-662,560.5,101.5
0.583878930986369,815,509,-306,-662,560.5,101.5
0.586025544703231,816,509,-307,-662.5,561.5,101
0.588172158420092,816,509,-307,-662.5,561.5,101
0.590318772136954,817,509,-308,-663,562.5,100.5
0.592465385853816,819,509,-310,-664,564.5,99.5
0.594611999570677,817,508,-309,-662.5,563,99.5
0.596758613287539,817,509,-308,-663,562.5,100.5
0.598905227004401,818,509,-309,-663.5,563.5,100
0.601051840721262,820,509,-311,-664.5,565.5,99
0.603198454438124,821,509,-312,-665,566.5,98.5
0.605345068154985,821,508,-313,-664.5,567,97.5
0.607491681871847,822,509,-313,-665.5,567.5,98
0.609638295588709,822,509,-313,-665.5,567.5,98
0.61178490930557,822,509,-313,-665.5,567.5,98
0.613931523022432,821,508,-313,-664.5,567,97.5
0.616078136739294,821,508,-313,-664.5,567,97.5
0.618224750456155,821,509,-312,-665,566.5,98.5
0.620371364173017,822,509,-313,-665.5,567.5,98
0.622517977889879,822,509,-313,-665.5,567.5,98
0.62466459160674,821,509,-312,-665,566.5,98.5
0.626811205323602,820,509,-311,-664.5,565.5,99
0.628957819040464,821,509,-312,-665,566.5,98.5
0.631104432757325,824,509,-315,-666.5,569.5,97
0.633251046474187,824,509,-315,-666.5,569.5,97
0.635397660191049,825,509,-316,-667,570.5,96.5
0.63754427390791,825,509,-316,-667,570.5,96.5
0.639690887624772,825,509,-316,-667,570.5,96.5
0.641837501341634,825,509,-316,-667,570.5,96.5
0.643984115058495,825,509,-316,-667,570.5,96.5
0.646130728775357,825,509,-316,-667,570.5,96.5
0.648277342492218,827,509,-318,-668,572.5,95.5
0.65042395620908,830,509,-321,-669.5,575.5,94
0.652570569925942,832,509,-323,-670.5,577.5,93
0.654717183642803,833,509,-324,-671,578.5,92.5
0.656863797359665,833,509,-324,-671,578.5,92.5
0.659010411076527,831,509,-322,-670,576.5,93.5
0.661157024793388,829,509,-320,-669,574.5,94.5
0.66330363851025,828,509,-319,-668.5,573.5,95
0.665450252227112,828,509,-319,-668.5,573.5,95
0.667596865943973,829,509,-320,-669,574.5,94.5
0.669743479660835,830,509,-321,-669.5,575.5,94
0.671890093377697,831,509,-322,-670,576.5,93.5
0.674036707094558,833,509,-324,-671,578.5,92.5
0.67618332081142,835,509,-326,-672,580.5,91.5
0.678329934528282,834,509,-325,-671.5,579.5,92
0.680476548245143,833,509,-324,-671,578.5,92.5
0.682623161962005,832,509,-323,-670.5,577.5,93
0.684769775678867,834,508,-326,-671,580,91
0.686916389395728,833,509,-324,-671,578.5,92.5
0.68906300311259,835,509,-326,-672,580.5,91.5
0.691209616829451,835,509,-326,-672,580.5,91.5
0.693356230546313,833,509,-324,-671,578.5,92.5
0.695502844263175,833,509,-324,-671,578.5,92.5
0.697649457980036,834,509,-325,-671.5,579.5,92
0.699796071696898,835,509,-326,-672,580.5,91.5
0.70194268541376,834,509,-325,-671.5,579.5,92
0.704089299130621,833,509,-324,-671,578.5,92.5
0.706235912847483,833,509,-324,-671,578.5,92.5
0.708382526564345,834,509,-325,-671.5,579.5,92
0.710529140281206,831,509,-322,-670,576.5,93.5
0.712675753998068,831,509,-322,-670,576.5,93.5
0.71482236771493,831,508,-323,-669.5,577,92.5
0.716968981431791,832,509,-323,-670.5,577.5,93
0.719115595148653,831,509,-322,-670,576.5,93.5
0.721262208865515,831,509,-322,-670,576.5,93.5
0.723408822582376,831,509,-322,-670,576.5,93.5
0.725555436299238,830,509,-321,-669.5,575.5,94
0.7277020500161,828,509,-319,-668.5,573.5,95
0.729848663732961,827,508,-319,-667.5,573,94.5
0.731995277449823,823,508,-315,-665.5,569,96.5
0.734141891166684,822,509,-313,-665.5,567.5,98
0.736288504883546,822,509,-313,-665.5,567.5,98
0.738435118600408,822,508,-314,-665,568,97
0.740581732317269,821,509,-312,-665,566.5,98.5
0.742728346034131,821,509,-312,-665,566.5,98.5
0.744874959750993,819,508,-311,-663.5,565,98.5
0.747021573467854,817,509,-308,-663,562.5,100.5
0.749168187184716,817,509,-308,-663,562.5,100.5
0.751314800901578,815,509,-306,-662,560.5,101.5
0.753461414618439,816,509,-307,-662.5,561.5,101
0.755608028335301,817,508,-309,-662.5,563,99.5
0.757754642052163,816,509,-307,-662.5,561.5,101
0.759901255769024,815,509,-306,-662,560.5,101.5
0.762047869485886,813,509,-304,-661,558.5,102.5
0.764194483202748,814,509,-305,-661.5,559.5,102
0.766341096919609,813,509,-304,-661,558.5,102.5
0.768487710636471,811,509,-302,-660,556.5,103.5
0.770634324353333,813,509,-304,-661,558.5,102.5
0.772780938070194,812,509,-303,-660.5,557.5,103
0.774927551787056,811,509,-302,-660,556.5,103.5
0.777074165503918,813,509,-304,-661,558.5,102.5
0.779220779220779,813,509,-304,-661,558.5,102.5
0.781367392937641,814,509,-305,-661.5,559.5,102
0.783514006654502,815,509,-306,-662,560.5,101.5
0.785660620371364,814,509,-305,-661.5,559.5,102
0.787807234088226,812,509,-303,-660.5,557.5,103
0.789953847805087,812,509,-303,-660.5,557.5,103
0.792100461521949,814,508,-306,-661,560,101
0.794247075238811,814,509,-305,-661.5,559.5,102
0.796393688955672,816,508,-308,-662,562,100
0.798540302672534,816,509,-307,-662.5,561.5,101
0.800686916389396,816,509,-307,-662.5,561.5,101
0.802833530106257,815,509,-306,-662,560.5,101.5
0.804980143823119,815,509,-306,-662,560.5,101.5
0.807126757539981,815,509,-306,-662,560.5,101.5
0.809273371256842,817,508,-309,-662.5,563,99.5
0.811419984973704,819,509,-310,-664,564.5,99.5
0.813566598690566,819,509,-310,-664,564.5,99.5
0.815713212407427,818,508,-310,-663,564,99
0.817859826124289,817,509,-308,-663,562.5,100.5
0.820006439841151,818,509,-309,-663.5,563.5,100
0.822153053558012,818,509,-309,-663.5,563.5,100
0.824299667274874,819,509,-310,-664,564.5,99.5
0.826446280991735,819,509,-310,-664,564.5,99.5
0.828592894708597,819,509,-310,-664,564.5,99.5
0.830739508425459,821,509,-312,-665,566.5,98.5
0.83288612214232,822,509,-313,-665.5,567.5,98
0.835032735859182,821,509,-312,-665,566.5,98.5
0.837179349576044,821,509,-312,-665,566.5,98.5
0.839325963292905,822,509,-313,-665.5,567.5,98
0.841472577009767,821,509,-312,-665,566.5,98.5
0.843619190726629,821,509,-312,-665,566.5,98.5
0.84576580444349,821,509,-312,-665,566.5,98.5
0.847912418160352,821,509,-312,-665,566.5,98.5
0.850059031877214,821,509,-312,-665,566.5,98.5
0.852205645594075,822,509,-313,-665.5,567.5,98
0.854352259310937,822,509,-313,-665.5,567.5,98
0.856498873027799,822,509,-313,-665.5,567.5,98
0.85864548674466,823,509,-314,-666,568.5,97.5
0.860792100461522,824,509,-315,-666.5,569.5,97
0.862938714178384,823,509,-314,-666,568.5,97.5
0.865085327895245,823,509,-314,-666,568.5,97.5
0.867231941612107,823,509,-314,-666,568.5,97.5
0.869378555328968,824,509,-315,-666.5,569.5,97
0.87152516904583,826,509,-317,-667.5,571.5,96
0.873671782762692,825,509,-316,-667,570.5,96.5
0.875818396479554,824,509,-315,-666.5,569.5,97
0.877965010196415,824,509,-315,-666.5,569.5,97
0.880111623913277,825,509,-316,-667,570.5,96.5
0.882258237630138,825,509,-316,-667,570.5,96.5
0.884404851347,825,509,-316,-667,570.5,96.5
0.886551465063862,824,509,-315,-666.5,569.5,97
0.888698078780723,824,509,-315,-666.5,569.5,97
0.890844692497585,824,509,-315,-666.5,569.5,97
0.892991306214447,825,508,-317,-666.5,571,95.5
0.895137919931308,825,509,-316,-667,570.5,96.5
0.89728453364817,826,509,-317,-667.5,571.5,96
0.899431147365032,825,509,-316,-667,570.5,96.5
0.901577761081893,826,508,-318,-667,572,95
0.903724374798755,826,509,-317,-667.5,571.5,96
0.905870988515617,827,509,-318,-668,572.5,95.5
0.908017602232478,826,509,-317,-667.5,571.5,96
0.91016421594934,826,509,-317,-667.5,571.5,96
0.912310829666201,826,509,-317,-667.5,571.5,96
0.914457443383063,825,509,-316,-667,570.5,96.5
0.916604057099925,825,509,-316,-667,570.5,96.5
0.918750670816787,824,509,-315,-666.5,569.5,97
0.920897284533648,824,509,-315,-666.5,569.5,97
0.92304389825051,824,509,-315,-666.5,569.5,97
0.925190511967371,824,509,-315,-666.5,569.5,97
0.927337125684233,826,509,-317,-667.5,571.5,96
0.929483739401095,826,509,-317,-667.5,571.5,96
0.931630353117956,826,509,-317,-667.5,571.5,96
0.933776966834818,827,508,-319,-667.5,573,94.5
0.93592358055168,826,509,-317,-667.5,571.5,96
0.938070194268541,827,509,-318,-668,572.5,95.5
0.940216807985403,827,509,-318,-668,572.5,95.5
0.942363421702265,827,509,-318,-668,572.5,95.5
0.944510035419126,828,509,-319,-668.5,573.5,95
0.946656649135988,828,509,-319,-668.5,573.5,95
0.94880326285285,828,509,-319,-668.5,573.5,95
0.950949876569711,828,509,-319,-668.5,573.5,95
0.953096490286573,828,509,-319,-668.5,573.5,95
0.955243104003434,829,509,-320,-669,574.5,94.5
0.957389717720296,827,509,-318,-668,572.5,95.5
0.959536331437158,827,509,-318,-668,572.5,95.5
0.96168294515402,829,508,-321,-668.5,575,93.5
0.963829558870881,828,509,-319,-668.5,573.5,95
0.965976172587743,829,509,-320,-669,574.5,94.5
0.968122786304604,829,509,-320,-669,574.5,94.5
0.970269400021466,829,509,-320,-669,574.5,94.5
0.972416013738328,828,509,-319,-668.5,573.5,95
0.974562627455189,829,509,-320,-669,574.5,94.5
0.976709241172051,827,509,-318,-668,572.5,95.5
0.978855854888913,827,509,-318,-668,572.5,95.5
0.981002468605774,827,509,-318,-668,572.5,95.5
0.983149082322636,827,509,-318,-668,572.5,95.5
0.985295696039498,829,508,-321,-668.5,575,93.5
0.987442309756359,831,509,-322,-670,576.5,93.5
0.989588923473221,832,509,-323,-670.5,577.5,93
0.991735537190083,833,509,-324,-671,578.5,92.5
0.993882150906944,832,509,-323,-670.5,577.5,93
0.996028764623806,833,509,-324,-671,578.5,92.5
0.998175378340667,833,509,-324,-671,578.5,92.5
1.00032199205753,835,509,-326,-672,580.5,91.5
1.00246860577439,835,509,-326,-672,580.5,91.5
1.00461521949125,836,509,-327,-672.5,581.5,91
1.00676183320811,834,509,-325,-671.5,579.5,92
1.00890844692498,833,509,-324,-671,578.5,92.5
1.01105506064184,833,509,-324,-671,578.5,92.5
1.0132016743587,831,509,-322,-670,576.5,93.5
1.01534828807556,831,509,-322,-670,576.5,93.5
1.01749490179242,831,509,-322,-670,576.5,93.5
1.01964151550928,831,509,-322,-670,576.5,93.5
1.02178812922615,832,509,-323,-670.5,577.5,93
1.02393474294301,831,509,-322,-670,576.5,93.5
1.02608135665987,830,508,-322,-669,576,93
1.02822797037673,829,508,-321,-668.5,575,93.5
1.03037458409359,831,509,-322,-670,576.5,93.5
1.03252119781045,831,509,-322,-670,576.5,93.5
1.03466781152732,830,509,-321,-669.5,575.5,94
1.03681442524418,829,509,-320,-669,574.5,94.5
1.03896103896104,826,509,-317,-667.5,571.5,96
1.0411076526779,825,509,-316,-667,570.5,96.5
1.04325426639476,823,509,-314,-666,568.5,97.5
1.04540088011162,823,509,-314,-666,568.5,97.5
1.04754749382849,823,509,-314,-666,568.5,97.5
1.04969410754535,821,509,-312,-665,566.5,98.5
1.05184072126221,821,509,-312,-665,566.5,98.5
1.05398733497907,822,509,-313,-665.5,567.5,98
1.05613394869593,821,509,-312,-665,566.5,98.5
1.05828056241279,822,509,-313,-665.5,567.5,98
1.06042717612966,824,509,-315,-666.5,569.5,97
1.06257378984652,822,509,-313,-665.5,567.5,98
1.06472040356338,822,509,-313,-665.5,567.5,98
1.06686701728024,821,508,-313,-664.5,567,97.5
1.0690136309971,824,509,-315,-666.5,569.5,97
1.07116024471396,824,509,-315,-666.5,569.5,97
1.07330685843083,823,509,-314,-666,568.5,97.5
1.07545347214769,822,509,-313,-665.5,567.5,98
1.07760008586455,822,509,-313,-665.5,567.5,98
1.07974669958141,823,509,-314,-666,568.5,97.5
1.08189331329827,822,509,-313,-665.5,567.5,98
1.08403992701513,822,509,-313,-665.5,567.5,98
1.086186540732,821,509,-312,-665,566.5,98.5
1.08833315444886,820,509,-311,-664.5,565.5,99
1.09047976816572,818,509,-309,-663.5,563.5,100
1.09262638188258,819,509,-310,-664,564.5,99.5
1.09477299559944,822,509,-313,-665.5,567.5,98
1.0969196093163,823,509,-314,-666,568.5,97.5
1.09906622303317,824,509,-315,-666.5,569.5,97
1.10121283675003,821,509,-312,-665,566.5,98.5
1.10335945046689,820,509,-311,-664.5,565.5,99
1.10550606418375,818,509,-309,-663.5,563.5,100
1.10765267790061,817,509,-308,-663,562.5,100.5
1.10979929161747,817,509,-308,-663,562.5,100.5
1.11194590533434,817,509,-308,-663,562.5,100.5
1.1140925190512,819,508,-311,-663.5,565,98.5
1.11623913276806,818,509,-309,-663.5,563.5,100
1.11838574648492,818,509,-309,-663.5,563.5,100
1.12053236020178,821,509,-312,-665,566.5,98.5
1.12267897391864,826,509,-317,-667.5,571.5,96
1.1248255876355,835,509,-326,-672,580.5,91.5
1.12697220135237,842,509,-333,-675.5,587.5,88
1.12911881506923,848,509,-339,-678.5,593.5,85
1.13126542878609,855,509,-346,-682,600.5,81.5
1.13341204250295,858,509,-349,-683.5,603.5,80
1.13555865621981,861,509,-352,-685,606.5,78.5
1.13770526993667,859,509,-350,-684,604.5,79.5
1.13985188365354,872,509,-363,-690.5,617.5,73
1.1419984973704,877,509,-368,-693,622.5,70.5
1.14414511108726,875,509,-366,-692,620.5,71.5
1.14629172480412,867,509,-358,-688,612.5,75.5
1.14843833852098,863,509,-354,-686,608.5,77.5
1.15058495223784,857,509,-348,-683,602.5,80.5
1.15273156595471,850,509,-341,-679.5,595.5,84
1.15487817967157,842,509,-333,-675.5,587.5,88
1.15702479338843,832,508,-324,-670,578,92
1.15917140710529,822,509,-313,-665.5,567.5,98
1.16131802082215,815,509,-306,-662,560.5,101.5
1.16346463453901,811,509,-302,-660,556.5,103.5
1.16561124825588,810,509,-301,-659.5,555.5,104
1.16775786197274,812,509,-303,-660.5,557.5,103
1.1699044756896,813,509,-304,-661,558.5,102.5
1.17205108940646,816,509,-307,-662.5,561.5,101
1.17419770312332,820,509,-311,-664.5,565.5,99
1.17634431684018,821,509,-312,-665,566.5,98.5
1.17849093055705,820,509,-311,-664.5,565.5,99
1.18063754427391,820,509,-311,-664.5,565.5,99
1.18278415799077,820,508,-312,-664,566,98
1.18493077170763,819,509,-310,-664,564.5,99.5
1.18707738542449,819,509,-310,-664,564.5,99.5
1.18922399914135,819,509,-310,-664,564.5,99.5
1.19137061285822,818,509,-309,-663.5,563.5,100
1.19351722657508,817,509,-308,-663,562.5,100.5
1.19566384029194,818,509,-309,-663.5,563.5,100
1.1978104540088,819,509,-310,-664,564.5,99.5
1.19995706772566,820,509,-311,-664.5,565.5,99
1.20210368144252,820,509,-311,-664.5,565.5,99
1.20425029515939,823,509,-314,-666,568.5,97.5
1.20639690887625,821,509,-312,-665,566.5,98.5
1.20854352259311,819,509,-310,-664,564.5,99.5
1.21069013630997,819,509,-310,-664,564.5,99.5
1.21283675002683,818,509,-309,-663.5,563.5,100
1.21498336374369,818,508,-310,-663,564,99
1.21712997746056,820,509,-311,-664.5,565.5,99
1.21927659117742,822,509,-313,-665.5,567.5,98
1.22142320489428,822,509,-313,-665.5,567.5,98
1.22356981861114,823,509,-314,-666,568.5,97.5
1.225716432328,824,509,-315,-666.5,569.5,97
1.22786304604486,822,509,-313,-665.5,567.5,98
1.23000965976173,823,508,-315,-665.5,569,96.5
1.23215627347859,824,509,-315,-666.5,569.5,97
1.23430288719545,825,509,-316,-667,570.5,96.5
1.23644950091231,827,509,-318,-668,572.5,95.5
1.23859611462917,827,508,-319,-667.5,573,94.5
1.24074272834603,828,509,-319,-668.5,573.5,95
1.2428893420629,828,509,-319,-668.5,573.5,95
1.24503595577976,828,509,-319,-668.5,573.5,95
1.24718256949662,827,509,-318,-668,572.5,95.5
1.24932918321348,826,509,-317,-667.5,571.5,96
1.25147579693034,826,509,-317,-667.5,571.5,96
1.2536224106472,826,509,-317,-667.5,571.5,96
1.25576902436407,826,509,-317,-667.5,571.5,96
1.25791563808093,825,509,-316,-667,570.5,96.5
1.26006225179779,826,509,-317,-667.5,571.5,96
1.26220886551465,828,509,-319,-668.5,573.5,95
1.26435547923151,830,509,-321,-669.5,575.5,94
1.26650209294837,829,509,-320,-669,574.5,94.5
1.26864870666524,831,509,-322,-670,576.5,93.5
1.2707953203821,831,509,-322,-670,576.5,93.5
1.27294193409896,831,509,-322,-670,576.5,93.5
1.27508854781582,830,509,-321,-669.5,575.5,94
1.27723516153268,829,509,-320,-669,574.5,94.5
1.27938177524954,831,509,-322,-670,576.5,93.5
1.28152838896641,830,509,-321,-669.5,575.5,94
1.28367500268327,832,509,-323,-670.5,577.5,93
1.28582161640013,832,509,-323,-670.5,577.5,93
1.28796823011699,831,509,-322,-670,576.5,93.5
1.29011484383385,831,509,-322,-670,576.5,93.5
1.29226145755071,832,509,-323,-670.5,577.5,93
1.29440807126758,832,509,-323,-670.5,577.5,93
1.29655468498444,834,509,-325,-671.5,579.5,92
1.2987012987013,834,509,-325,-671.5,579.5,92
1.30084791241816,834,508,-326,-671,580,91
1.30299452613502,833,509,-324,-671,578.5,92.5
1.30514113985188,834,509,-325,-671.5,579.5,92
1.30728775356875,834,509,-325,-671.5,579.5,92
1.30943436728561,834,509,-325,-671.5,579.5,92
1.31158098100247,833,508,-325,-670.5,579,91.5
1.31372759471933,834,509,-325,-671.5,579.5,92
1.31587420843619,835,509,-326,-672,580.5,91.5
1.31802082215305,836,509,-327,-672.5,581.5,91
1.32016743586992,836,509,-327,-672.5,581.5,91
1.32231404958678,834,509,-325,-671.5,579.5,92
1.32446066330364,834,509,-325,-671.5,579.5,92
1.3266072770205,836,509,-327,-672.5,581.5,91
1.32875389073736,837,508,-329,-672.5,583,89.5
1.33090050445422,838,508,-330,-673,584,89
1.33304711817109,840,509,-331,-674.5,585.5,89
1.33519373188795,840,509,-331,-674.5,585.5,89
1.33734034560481,840,508,-332,-674,586,88
1.33948695932167,840,509,-331,-674.5,585.5,89
1.34163357303853,838,509,-329,-673.5,583.5,90
1.34378018675539,839,508,-331,-673.5,585,88.5
1.34592680047225,840,509,-331,-674.5,585.5,89
1.34807341418912,841,508,-333,-674.5,587,87.5
1.35022002790598,841,509,-332,-675,586.5,88.5
1.35236664162284,840,509,-331,-674.5,585.5,89
1.3545132553397,841,509,-332,-675,586.5,88.5
1.35665986905656,842,509,-333,-675.5,587.5,88
1.35880648277342,841,509,-332,-675,586.5,88.5
1.36095309649029,839,509,-330,-674,584.5,89.5
1.36309971020715,838,509,-329,-673.5,583.5,90
1.36524632392401,839,509,-330,-674,584.5,89.5
1.36739293764087,839,509,-330,-674,584.5,89.5
1.36953955135773,837,509,-328,-673,582.5,90.5
1.37168616507459,837,509,-328,-673,582.5,90.5
1.37383277879146,838,509,-329,-673.5,583.5,90
1.37597939250832,838,509,-329,-673.5,583.5,90
1.37812600622518,838,508,-330,-673,584,89
1.38027261994204,842,509,-333,-675.5,587.5,88
1.3824192336589,841,509,-332,-675,586.5,88.5
1.38456584737576,840,509,-331,-674.5,585.5,89
1.38671246109263,838,509,-329,-673.5,583.5,90
1.38885907480949,837,509,-328,-673,582.5,90.5
1.39100568852635,836,509,-327,-672.5,581.5,91
1.39315230224321,833,509,-324,-671,578.5,92.5
1.39529891596007,834,508,-326,-671,580,91
1.39744552967693,833,509,-324,-671,578.5,92.5
1.3995921433938,832,509,-323,-670.5,577.5,93
1.40173875711066,833,509,-324,-671,578.5,92.5
1.40388537082752,832,509,-323,-670.5,577.5,93
1.40603198454438,830,509,-321,-669.5,575.5,94
1.40817859826124,828,509,-319,-668.5,573.5,95
1.4103252119781,825,509,-316,-667,570.5,96.5
1.41247182569497,824,509,-315,-666.5,569.5,97
1.41461843941183,824,509,-315,-666.5,569.5,97
1.41676505312869,825,509,-316,-667,570.5,96.5
1.41891166684555,823,509,-314,-666,568.5,97.5
1.42105828056241,820,509,-311,-664.5,565.5,99
1.42320489427927,819,509,-310,-664,564.5,99.5
1.42535150799614,820,508,-312,-664,566,98
1.427498121713,819,509,-310,-664,564.5,99.5
1.42964473542986,818,508,-310,-663,564,99
1.43179134914672,817,509,-308,-663,562.5,100.5
1.43393796286358,816,509,-307,-662.5,561.5,101
1.43608457658044,817,509,-308,-663,562.5,100.5
1.43823119029731,817,508,-309,-662.5,563,99.5
1.44037780401417,819,509,-310,-664,564.5,99.5
1.44252441773103,816,509,-307,-662.5,561.5,101
1.44467103144789,814,509,-305,-661.5,559.5,102
1.44681764516475,814,509,-305,-661.5,559.5,102
1.44896425888161,815,509,-306,-662,560.5,101.5
1.45111087259848,814,509,-305,-661.5,559.5,102
1.45325748631534,815,509,-306,-662,560.5,101.5
1.4554041000322,814,509,-305,-661.5,559.5,102
1.45755071374906,815,509,-306,-662,560.5,101.5
1.45969732746592,816,509,-307,-662.5,561.5,101
1.46184394118278,815,509,-306,-662,560.5,101.5
1.46399055489965,816,509,-307,-662.5,561.5,101
1.46613716861651,816,509,-307,-662.5,561.5,101
1.46828378233337,816,509,-307,-662.5,561.5,101
1.47043039605023,816,509,-307,-662.5,561.5,101
1.47257700976709,816,509,-307,-662.5,561.5,101
1.47472362348395,815,509,-306,-662,560.5,101.5
1.47687023720082,815,509,-306,-662,560.5,101.5
1.47901685091768,814,509,-305,-661.5,559.5,102
1.48116346463454,815,509,-306,-662,560.5,101.5
1.4833100783514,816,509,-307,-662.5,561.5,101
1.48545669206826,818,509,-309,-663.5,563.5,100
1.48760330578512,816,509,-307,-662.5,561.5,101
1.48974991950199,818,509,-309,-663.5,563.5,100
1.49189653321885,819,509,-310,-664,564.5,99.5
1.49404314693571,818,509,-309,-663.5,563.5,100
1.49618976065257,817,509,-308,-663,562.5,100.5
1.49833637436943,817,509,-308,-663,562.5,100.5
1.50048298808629,816,509,-307,-662.5,561.5,101
1.50262960180316,816,509,-307,-662.5,561.5,101
1.50477621552002,818,509,-309,-663.5,563.5,100
1.50692282923688,820,509,-311,-664.5,565.5,99
1.50906944295374,820,509,-311,-664.5,565.5,99
1.5112160566706,820,509,-311,-664.5,565.5,99
1.51336267038746,820,509,-311,-664.5,565.5,99
1.51550928410433,819,509,-310,-664,564.5,99.5
1.51765589782119,819,509,-310,-664,564.5,99.5
1.51980251153805,820,509,-311,-664.5,565.5,99
1.52194912525491,820,509,-311,-664.5,565.5,99
1.52409573897177,819,509,-310,-664,564.5,99.5
1.52624235268863,819,509,-310,-664,564.5,99.5
1.5283889664055,821,509,-312,-665,566.5,98.5
1.53053558012236,821,509,-312,-665,566.5,98.5
1.53268219383922,821,509,-312,-665,566.5,98.5
1.53482880755608,823,509,-314,-666,568.5,97.5
1.53697542127294,824,509,-315,-666.5,569.5,97
1.5391220349898,825,509,-316,-667,570.5,96.5
1.54126864870667,823,509,-314,-666,568.5,97.5
1.54341526242353,823,509,-314,-666,568.5,97.5
1.54556187614039,822,509,-313,-665.5,567.5,98
1.54770848985725,821,509,-312,-665,566.5,98.5
1.54985510357411,821,509,-312,-665,566.5,98.5
1.55200171729097,820,509,-311,-664.5,565.5,99
1.55414833100784,821,509,-312,-665,566.5,98.5
1.5562949447247,819,509,-310,-664,564.5,99.5
1.55844155844156,820,509,-311,-664.5,565.5,99
1.56058817215842,820,509,-311,-664.5,565.5,99
1.56273478587528,821,509,-312,-665,566.5,98.5
1.56488139959214,823,509,-314,-666,568.5,97.5
1.567028013309,824,509,-315,-666.5,569.5,97
1.56917462702587,824,509,-315,-666.5,569.5,97
1.57132124074273,824,509,-315,-666.5,569.5,97
1.57346785445959,823,509,-314,-666,568.5,97.5
1.57561446817645,823,509,-314,-666,568.5,97.5
1.57776108189331,823,509,-314,-666,568.5,97.5
1.57990769561017,823,509,-314,-666,568.5,97.5
1.58205430932704,824,509,-315,-666.5,569.5,97
1.5842009230439,823,509,-314,-666,568.5,97.5
1.58634753676076,823,509,-314,-666,568.5,97.5
1.58849415047762,824,509,-315,-666.5,569.5,97
1.59064076419448,824,509,-315,-666.5,569.5,97
1.59278737791134,823,509,-314,-666,568.5,97.5
1.59493399162821,824,509,-315,-666.5,569.5,97
1.59708060534507,822,509,-313,-665.5,567.5,98
1.59922721906193,823,509,-314,-666,568.5,97.5
1.60137383277879,825,509,-316,-667,570.5,96.5
1.60352044649565,825,509,-316,-667,570.5,96.5
1.60566706021251,824,509,-315,-666.5,569.5,97
1.60781367392938,823,509,-314,-666,568.5,97.5
1.60996028764624,824,509,-315,-666.5,569.5,97
1.6121069013631,825,509,-316,-667,570.5,96.5
1.61425351507996,826,509,-317,-667.5,571.5,96
1.61640012879682,825,508,-317,-666.5,571,95.5
1.61854674251368,824,509,-315,-666.5,569.5,97
1.62069335623055,825,509,-316,-667,570.5,96.5
1.62283996994741,824,509,-315,-666.5,569.5,97
1.62498658366427,823,509,-314,-666,568.5,97.5
1.62713319738113,823,509,-314,-666,568.5,97.5
1.62927981109799,823,509,-314,-666,568.5,97.5
1.63142642481485,822,509,-313,-665.5,567.5,98
1.63357303853172,824,509,-315,-666.5,569.5,97
1.63571965224858,824,509,-315,-666.5,569.5,97
1.63786626596544,825,509,-316,-667,570.5,96.5
1.6400128796823,827,509,-318,-668,572.5,95.5
1.64215949339916,828,508,-320,-668,574,94
1.64430610711602,827,509,-318,-668,572.5,95.5
1.64645272083289,828,509,-319,-668.5,573.5,95
1.64859933454975,829,509,-320,-669,574.5,94.5
1.65074594826661,828,509,-319,-668.5,573.5,95
1.65289256198347,828,509,-319,-668.5,573.5,95
1.65503917570033,830,509,-321,-669.5,575.5,94
1.65718578941719,831,509,-322,-670,576.5,93.5
1.65933240313406,829,509,-320,-669,574.5,94.5
1.66147901685092,829,509,-320,-669,574.5,94.5
1.66362563056778,829,508,-321,-668.5,575,93.5
1.66577224428464,831,509,-322,-670,576.5,93.5
1.6679188580015,832,509,-323,-670.5,577.5,93
1.67006547171836,831,509,-322,-670,576.5,93.5
1.67221208543523,832,509,-323,-670.5,577.5,93
1.67435869915209,831,509,-322,-670,576.5,93.5
1.67650531286895,832,509,-323,-670.5,577.5,93
1.67865192658581,831,509,-322,-670,576.5,93.5
1.68079854030267,830,509,-321,-669.5,575.5,94
1.68294515401953,831,509,-322,-670,576.5,93.5
1.6850917677364,833,509,-324,-671,578.5,92.5
1.68723838145326,833,509,-324,-671,578.5,92.5
1.68938499517012,835,509,-326,-672,580.5,91.5
1.69153160888698,837,509,-328,-673,582.5,90.5
1.69367822260384,838,509,-329,-673.5,583.5,90
1.6958248363207,837,509,-328,-673,582.5,90.5
1.69797145003757,837,509,-328,-673,582.5,90.5
1.70011806375443,837,509,-328,-673,582.5,90.5
1.70226467747129,837,508,-329,-672.5,583,89.5
1.70441129118815,835,509,-326,-672,580.5,91.5
1.70655790490501,836,509,-327,-672.5,581.5,91
1.70870451862187,835,509,-326,-672,580.5,91.5
1.71085113233874,834,509,-325,-671.5,579.5,92
1.7129977460556,834,509,-325,-671.5,579.5,92
1.71514435977246,835,509,-326,-672,580.5,91.5
1.71729097348932,833,509,-324,-671,578.5,92.5
1.71943758720618,830,509,-321,-669.5,575.5,94
1.72158420092304,830,509,-321,-669.5,575.5,94
1.72373081463991,830,509,-321,-669.5,575.5,94
1.72587742835677,831,509,-322,-670,576.5,93.5
1.72802404207363,831,509,-322,-670,576.5,93.5
1.73017065579049,829,508,-321,-668.5,575,93.5
1.73231726950735,828,509,-319,-668.5,573.5,95
1.73446388322421,827,509,-318,-668,572.5,95.5
1.73661049694108,828,508,-320,-668,574,94
1.73875711065794,827,509,-318,-668,572.5,95.5
1.7409037243748,827,509,-318,-668,572.5,95.5
1.74305033809166,826,509,-317,-667.5,571.5,96
1.74519695180852,826,509,-317,-667.5,571.5,96
1.74734356552538,825,509,-316,-667,570.5,96.5
1.74949017924225,825,509,-316,-667,570.5,96.5
1.75163679295911,826,509,-317,-667.5,571.5,96
1.75378340667597,824,509,-315,-666.5,569.5,97
1.75593002039283,825,509,-316,-667,570.5,96.5
1.75807663410969,824,509,-315,-666.5,569.5,97
1.76022324782655,825,509,-316,-667,570.5,96.5
1.76236986154342,825,509,-316,-667,570.5,96.5
1.76451647526028,826,509,-317,-667.5,571.5,96
1.76666308897714,826,509,-317,-667.5,571.5,96
1.768809702694,824,509,-315,-666.5,569.5,97
1.77095631641086,825,509,-316,-667,570.5,96.5
1.77310293012772,826,509,-317,-667.5,571.5,96
1.77524954384458,827,509,-318,-668,572.5,95.5
1.77739615756145,828,509,-319,-668.5,573.5,95
1.77954277127831,828,509,-319,-668.5,573.5,95
1.78168938499517,828,509,-319,-668.5,573.5,95
1.78383599871203,827,509,-318,-668,572.5,95.5
1.78598261242889,827,509,-318,-668,572.5,95.5
1.78812922614576,825,509,-316,-667,570.5,96.5
1.79027583986262,825,509,-316,-667,570.5,96.5
1.79242245357948,825,509,-316,-667,570.5,96.5
1.79456906729634,823,509,-314,-666,568.5,97.5
1.7967156810132,823,509,-314,-666,568.5,97.5
1.79886229473006,821,509,-312,-665,566.5,98.5
1.80100890844692,820,509,-311,-664.5,565.5,99
1.80315552216379,820,509,-311,-664.5,565.5,99
1.80530213588065,821,509,-312,-665,566.5,98.5
1.80744874959751,819,509,-310,-664,564.5,99.5
1.80959536331437,821,509,-312,-665,566.5,98.5
1.81174197703123,823,509,-314,-666,568.5,97.5
1.81388859074809,826,509,-317,-667.5,571.5,96
1.81603520446496,831,509,-322,-670,576.5,93.5
1.81818181818182,838,509,-329,-673.5,583.5,90
1.82032843189868,844,509,-335,-676.5,589.5,87
1.82247504561554,849,509,-340,-679,594.5,84.5
1.8246216593324,853,509,-344,-681,598.5,82.5
1.82676827304926,858,509,-349,-683.5,603.5,80
1.82891488676613,861,509,-352,-685,606.5,78.5
1.83106150048299,865,508,-357,-686.5,611,75.5
1.83320811419985,871,509,-362,-690,616.5,73.5
1.83535472791671,875,509,-366,-692,620.5,71.5
1.83750134163357,873,509,-364,-691,618.5,72.5
1.83964795535043,868,509,-359,-688.5,613.5,75
1.8417945690673,861,509,-352,-685,606.5,78.5
1.84394118278416,856,509,-347,-682.5,601.5,81
1.84608779650102,851,509,-342,-680,596.5,83.5
1.84823441021788,846,509,-337,-677.5,591.5,86
1.85038102393474,836,509,-327,-672.5,581.5,91
1.8525276376516,826,509,-317,-667.5,571.5,96
1.85467425136847,816,509,-307,-662.5,561.5,101
1.85682086508533,812,509,-303,-660.5,557.5,103
1.85896747880219,809,509,-300,-659,554.5,104.5
1.86111409251905,811,509,-302,-660,556.5,103.5
1.86326070623591,812,509,-303,-660.5,557.5,103
1.86540731995277,815,509,-306,-662,560.5,101.5
1.86755393366964,819,508,-311,-663.5,565,98.5
1.8697005473865,821,509,-312,-665,566.5,98.5
1.87184716110336,821,509,-312,-665,566.5,98.5
1.87399377482022,820,509,-311,-664.5,565.5,99
1.87614038853708,818,508,-310,-663,564,99
1.87828700225394,818,509,-309,-663.5,563.5,100
1.88043361597081,817,509,-308,-663,562.5,100.5
1.88258022968767,815,509,-306,-662,560.5,101.5
1.88472684340453,816,509,-307,-662.5,561.5,101
1.88687345712139,816,509,-307,-662.5,561.5,101
1.88902007083825,817,509,-308,-663,562.5,100.5
1.89116668455511,817,509,-308,-663,562.5,100.5
1.89331329827198,817,509,-308,-663,562.5,100.5
1.89545991198884,816,509,-307,-662.5,561.5,101
1.8976065257057,816,509,-307,-662.5,561.5,101
1.89975313942256,817,509,-308,-663,562.5,100.5
1.90189975313942,816,509,-307,-662.5,561.5,101
1.90404636685628,816,509,-307,-662.5,561.5,101
1.90619298057315,817,509,-308,-663,562.5,100.5
1.90833959429001,817,509,-308,-663,562.5,100.5
1.91048620800687,819,509,-310,-664,564.5,99.5
1.91263282172373,818,509,-309,-663.5,563.5,100
1.91477943544059,816,509,-307,-662.5,561.5,101
1.91692604915745,815,509,-306,-662,560.5,101.5
1.91907266287432,817,509,-308,-663,562.5,100.5
1.92121927659118,818,509,-309,-663.5,563.5,100
1.92336589030804,820,509,-311,-664.5,565.5,99
1.9255125040249,822,509,-313,-665.5,567.5,98
1.92765911774176,821,509,-312,-665,566.5,98.5
1.92980573145862,821,509,-312,-665,566.5,98.5
1.93195234517549,821,509,-312,-665,566.5,98.5
1.93409895889235,819,509,-310,-664,564.5,99.5
1.93624557260921,821,509,-312,-665,566.5,98.5
1.93839218632607,823,508,-315,-665.5,569,96.5
1.94053880004293,823,509,-314,-666,568.5,97.5
1.94268541375979,825,509,-316,-667,570.5,96.5
1.94483202747666,824,509,-315,-666.5,569.5,97
1.94697864119352,823,509,-314,-666,568.5,97.5
1.94912525491038,821,509,-312,-665,566.5,98.5
1.95127186862724,823,509,-314,-666,568.5,97.5
1.9534184823441,824,509,-315,-666.5,569.5,97
1.95556509606096,825,509,-316,-667,570.5,96.5
1.95771170977783,824,509,-315,-666.5,569.5,97
1.95985832349469,825,509,-316,-667,570.5,96.5
1.96200493721155,825,509,-316,-667,570.5,96.5
1.96415155092841,825,509,-316,-667,570.5,96.5
1.96629816464527,826,509,-317,-667.5,571.5,96
1.96844477836213,826,509,-317,-667.5,571.5,96
1.970591392079,827,509,-318,-668,572.5,95.5
1.97273800579586,826,509,-317,-667.5,571.5,96
1.97488461951272,827,509,-318,-668,572.5,95.5
1.97703123322958,827,509,-318,-668,572.5,95.5
1.97917784694644,827,509,-318,-668,572.5,95.5
1.9813244606633,826,509,-317,-667.5,571.5,96
1.98347107438017,827,509,-318,-668,572.5,95.5
1.98561768809703,827,509,-318,-668,572.5,95.5
1.98776430181389,827,509,-318,-668,572.5,95.5
1.98991091553075,827,509,-318,-668,572.5,95.5
1.99205752924761,826,509,-317,-667.5,571.5,96
1.99420414296447,828,509,-319,-668.5,573.5,95
1.99635075668133,828,508,-320,-668,574,94
1.9984973703982,829,509,-320,-669,574.5,94.5
2.00064398411506,828,509,-319,-668.5,573.5,95
2.00279059783192,829,508,-321,-668.5,575,93.5
2.00493721154878,829,508,-321,-668.5,575,93.5
2.00708382526564,828,508,-320,-668,574,94
2.00923043898251,829,509,-320,-669,574.5,94.5
2.01137705269937,829,509,-320,-669,574.5,94.5
2.01352366641623,829,508,-321,-668.5,575,93.5
2.01567028013309,830,509,-321,-669.5,575.5,94
2.01781689384995,832,509,-323,-670.5,577.5,93
2.01996350756681,830,509,-321,-669.5,575.5,94
2.02211012128367,830,509,-321,-669.5,575.5,94
2.02425673500054,831,508,-323,-669.5,577,92.5
2.0264033487174,831,509,-322,-670,576.5,93.5
2.02854996243426,831,509,-322,-670,576.5,93.5
2.03069657615112,831,509,-322,-670,576.5,93.5
2.03284318986798,831,509,-322,-670,576.5,93.5
2.03498980358484,832,509,-323,-670.5,577.5,93
2.03713641730171,832,508,-324,-670,578,92
2.03928303101857,830,509,-321,-669.5,575.5,94
2.04142964473543,830,509,-321,-669.5,575.5,94
2.04357625845229,831,509,-322,-670,576.5,93.5
2.04572287216915,831,509,-322,-670,576.5,93.5
2.04786948588601,833,509,-324,-671,578.5,92.5
2.05001609960288,834,509,-325,-671.5,579.5,92
2.05216271331974,834,509,-325,-671.5,579.5,92
2.0543093270366,835,509,-326,-672,580.5,91.5
2.05645594075346,833,509,-324,-671,578.5,92.5
2.05860255447032,833,509,-324,-671,578.5,92.5
2.06074916818718,833,509,-324,-671,578.5,92.5
2.06289578190405,833,509,-324,-671,578.5,92.5
2.06504239562091,833,509,-324,-671,578.5,92.5
2.06718900933777,834,509,-325,-671.5,579.5,92
2.06933562305463,833,509,-324,-671,578.5,92.5
2.07148223677149,835,509,-326,-672,580.5,91.5
2.07362885048835,834,509,-325,-671.5,579.5,92
2.07577546420522,834,509,-325,-671.5,579.5,92
2.07792207792208,833,509,-324,-671,578.5,92.5
2.08006869163894,833,509,-324,-671,578.5,92.5
2.0822153053558,831,508,-323,-669.5,577,92.5
2.08436191907266,831,509,-322,-670,576.5,93.5
2.08650853278952,829,509,-320,-669,574.5,94.5
2.08865514650639,830,509,-321,-669.5,575.5,94
2.09080176022325,829,509,-320,-669,574.5,94.5
2.09294837394011,828,509,-319,-668.5,573.5,95
2.09509498765697,827,509,-318,-668,572.5,95.5
2.09724160137383,823,509,-314,-666,568.5,97.5
2.09938821509069,822,509,-313,-665.5,567.5,98
2.10153482880756,822,509,-313,-665.5,567.5,98
2.10368144252442,821,509,-312,-665,566.5,98.5
2.10582805624128,820,508,-312,-664,566,98
2.10797466995814,819,509,-310,-664,564.5,99.5
2.110121283675,820,508,-312,-664,566,98
2.11226789739186,819,509,-310,-664,564.5,99.5
2.11441451110873,820,509,-311,-664.5,565.5,99
2.11656112482559,818,509,-309,-663.5,563.5,100
2.11870773854245,816,509,-307,-662.5,561.5,101
2.12085435225931,815,509,-306,-662,560.5,101.5
2.12300096597617,815,509,-306,-662,560.5,101.5
2.12514757969303,815,509,-306,-662,560.5,101.5
2.1272941934099,814,508,-306,-661,560,101
2.12944080712676,814,509,-305,-661.5,559.5,102
2.13158742084362,815,509,-306,-662,560.5,101.5
2.13373403456048,814,509,-305,-661.5,559.5,102
2.13588064827734,813,509,-304,-661,558.5,102.5
2.1380272619942,814,509,-305,-661.5,559.5,102
2.14017387571107,812,509,-303,-660.5,557.5,103
2.14232048942793,813,509,-304,-661,558.5,102.5
2.14446710314479,811,509,-302,-660,556.5,103.5
2.14661371686165,813,509,-304,-661,558.5,102.5
2.14876033057851,812,509,-303,-660.5,557.5,103
2.15090694429537,812,509,-303,-660.5,557.5,103
2.15305355801224,815,509,-306,-662,560.5,101.5
2.1552001717291,814,509,-305,-661.5,559.5,102
2.15734678544596,815,509,-306,-662,560.5,101.5
2.15949339916282,815,509,-306,-662,560.5,101.5
2.16164001287968,815,509,-306,-662,560.5,101.5
2.16378662659654,813,509,-304,-661,558.5,102.5
2.16593324031341,811,509,-302,-660,556.5,103.5
2.16807985403027,813,509,-304,-661,558.5,102.5
2.17022646774713,813,509,-304,-661,558.5,102.5
2.17237308146399,817,509,-308,-663,562.5,100.5
2.17451969518085,816,509,-307,-662.5,561.5,101
2.17666630889771,816,509,-307,-662.5,561.5,101
2.17881292261458,816,509,-307,-662.5,561.5,101
2.18095953633144,817,509,-308,-663,562.5,100.5
2.1831061500483,817,509,-308,-663,562.5,100.5
2.18525276376516,817,509,-308,-663,562.5,100.5
2.18739937748202,818,509,-309,-663.5,563.5,100
2.18954599119888,816,509,-307,-662.5,561.5,101
2.19169260491575,814,509,-305,-661.5,559.5,102
2.19383921863261,815,509,-306,-662,560.5,101.5
2.19598583234947,816,509,-307,-662.5,561.5,101
2.19813244606633,816,509,-307,-662.5,561.5,101
2.20027905978319,816,509,-307,-662.5,561.5,101
2.20242567350005,814,509,-305,-661.5,559.5,102
2.20457228721692,814,509,-305,-661.5,559.5,102
2.20671890093378,814,508,-306,-661,560,101
2.20886551465064,815,509,-306,-662,560.5,101.5
2.2110121283675,815,508,-307,-661.5,561,100.5
2.21315874208436,817,509,-308,-663,562.5,100.5
2.21530535580122,820,509,-311,-664.5,565.5,99
2.21745196951808,820,509,-311,-664.5,565.5,99
2.21959858323495,819,509,-310,-664,564.5,99.5
2.22174519695181,816,509,-307,-662.5,561.5,101
2.22389181066867,815,509,-306,-662,560.5,101.5
2.22603842438553,815,509,-306,-662,560.5,101.5
2.22818503810239,813,509,-304,-661,558.5,102.5
2.23033165181926,813,509,-304,-661,558.5,102.5
2.23247826553612,813,509,-304,-661,558.5,102.5
2.23462487925298,815,509,-306,-662,560.5,101.5
2.23677149296984,816,509,-307,-662.5,561.5,101
2.2389181066867,817,509,-308,-663,562.5,100.5
2.24106472040356,818,509,-309,-663.5,563.5,100
2.24321133412042,818,508,-310,-663,564,99
2.24535794783729,819,509,-310,-664,564.5,99.5
2.24750456155415,820,509,-311,-664.5,565.5,99
2.24965117527101,822,509,-313,-665.5,567.5,98
2.25179778898787,819,509,-310,-664,564.5,99.5
2.25394440270473,818,509,-309,-663.5,563.5,100
2.25609101642159,818,508,-310,-663,564,99
2.25823763013846,817,509,-308,-663,562.5,100.5
2.26038424385532,818,509,-309,-663.5,563.5,100
2.26253085757218,819,509,-310,-664,564.5,99.5
2.26467747128904,817,509,-308,-663,562.5,100.5
2.2668240850059,817,509,-308,-663,562.5,100.5
2.26897069872276,817,509,-308,-663,562.5,100.5
2.27111731243963,818,509,-309,-663.5,563.5,100
2.27326392615649,818,509,-309,-663.5,563.5,100
2.27541053987335,820,508,-312,-664,566,98
2.27755715359021,821,509,-312,-665,566.5,98.5
2.27970376730707,820,508,-312,-664,566,98
2.28185038102393,823,509,-314,-666,568.5,97.5
2.2839969947408,822,509,-313,-665.5,567.5,98
2.28614360845766,822,509,-313,-665.5,567.5,98
2.28829022217452,824,509,-315,-666.5,569.5,97
2.29043683589138,822,509,-313,-665.5,567.5,98
2.29258344960824,822,509,-313,-665.5,567.5,98
2.2947300633251,820,509,-311,-664.5,565.5,99
2.29687667704197,819,509,-310,-664,564.5,99.5
2.29902329075883,819,509,-310,-664,564.5,99.5
2.30116990447569,822,509,-313,-665.5,567.5,98
2.30331651819255,822,509,-313,-665.5,567.5,98
2.30546313190941,821,509,-312,-665,566.5,98.5
2.30760974562627,821,509,-312,-665,566.5,98.5
2.30975635934314,820,509,-311,-664.5,565.5,99
2.31190297306,819,509,-310,-664,564.5,99.5
2.31404958677686,820,509,-311,-664.5,565.5,99
2.31619620049372,821,509,-312,-665,566.5,98.5
2.31834281421058,823,509,-314,-666,568.5,97.5
2.32048942792744,823,509,-314,-666,568.5,97.5
2.32263604164431,823,509,-314,-666,568.5,97.5
2.32478265536117,825,509,-316,-667,570.5,96.5
2.32692926907803,824,509,-315,-666.5,569.5,97
2.32907588279489,824,509,-315,-666.5,569.5,97
2.33122249651175,824,509,-315,-666.5,569.5,97
2.33336911022861,823,509,-314,-666,568.5,97.5
2.33551572394548,824,509,-315,-666.5,569.5,97
2.33766233766234,823,509,-314,-666,568.5,97.5
2.3398089513792,824,509,-315,-666.5,569.5,97
2.34195556509606,823,509,-314,-666,568.5,97.5
2.34410217881292,824,509,-315,-666.5,569.5,97
2.34624879252978,823,509,-314,-666,568.5,97.5
2.34839540624665,825,509,-316,-667,570.5,96.5
2.35054201996351,824,509,-315,-666.5,569.5,97
2.35268863368037,825,509,-316,-667,570.5,96.5
2.35483524739723,826,509,-317,-667.5,571.5,96
2.35698186111409,825,509,-316,-667,570.5,96.5
2.35912847483095,825,509,-316,-667,570.5,96.5
2.36127508854782,826,509,-317,-667.5,571.5,96
2.36342170226468,827,509,-318,-668,572.5,95.5
2.36556831598154,826,509,-317,-667.5,571.5,96
2.3677149296984,826,509,-317,-667.5,571.5,96
2.36986154341526,826,509,-317,-667.5,571.5,96
2.37200815713212,827,509,-318,-668,572.5,95.5
2.37415477084899,828,509,-319,-668.5,573.5,95
2.37630138456585,828,509,-319,-668.5,573.5,95
2.37844799828271,828,509,-319,-668.5,573.5,95
2.38059461199957,827,509,-318,-668,572.5,95.5
2.38274122571643,828,508,-320,-668,574,94
2.38488783943329,828,509,-319,-668.5,573.5,95
2.38703445315016,828,509,-319,-668.5,573.5,95
2.38918106686702,828,509,-319,-668.5,573.5,95
2.39132768058388,830,509,-321,-669.5,575.5,94
2.39347429430074,829,509,-320,-669,574.5,94.5
2.3956209080176,830,509,-321,-669.5,575.5,94
2.39776752173446,831,509,-322,-670,576.5,93.5
2.39991413545133,833,508,-325,-670.5,579,91.5
2.40206074916819,831,509,-322,-670,576.5,93.5
2.40420736288505,831,509,-322,-670,576.5,93.5
2.40635397660191,831,509,-322,-670,576.5,93.5
2.40850059031877,832,509,-323,-670.5,577.5,93
2.41064720403563,832,509,-323,-670.5,577.5,93
2.4127938177525,831,509,-322,-670,576.5,93.5
2.41494043146936,828,509,-319,-668.5,573.5,95
2.41708704518622,827,509,-318,-668,572.5,95.5
2.41923365890308,825,509,-316,-667,570.5,96.5
2.42138027261994,823,509,-314,-666,568.5,97.5
2.4235268863368,823,509,-314,-666,568.5,97.5
2.42567350005367,823,509,-314,-666,568.5,97.5
2.42782011377053,823,509,-314,-666,568.5,97.5
2.42996672748739,821,509,-312,-665,566.5,98.5
2.43211334120425,821,509,-312,-665,566.5,98.5
2.43425995492111,821,509,-312,-665,566.5,98.5
2.43640656863797,818,509,-309,-663.5,563.5,100
2.43855318235483,817,509,-308,-663,562.5,100.5
2.4406997960717,817,509,-308,-663,562.5,100.5
2.44284640978856,816,509,-307,-662.5,561.5,101
2.44499302350542,816,509,-307,-662.5,561.5,101
2.44713963722228,815,509,-306,-662,560.5,101.5
2.44928625093914,815,509,-306,-662,560.5,101.5
2.45143286465601,814,509,-305,-661.5,559.5,102
2.45357947837287,814,509,-305,-661.5,559.5,102
2.45572609208973,814,509,-305,-661.5,559.5,102
2.45787270580659,814,509,-305,-661.5,559.5,102
2.46001931952345,815,509,-306,-662,560.5,101.5
2.46216593324031,813,509,-304,-661,558.5,102.5
2.46431254695717,813,509,-304,-661,558.5,102.5
2.46645916067404,814,509,-305,-661.5,559.5,102
2.4686057743909,811,509,-302,-660,556.5,103.5
2.47075238810776,811,509,-302,-660,556.5,103.5
2.47289900182462,813,509,-304,-661,558.5,102.5
2.47504561554148,814,509,-305,-661.5,559.5,102
2.47719222925834,813,509,-304,-661,558.5,102.5
2.47933884297521,814,509,-305,-661.5,559.5,102
2.48148545669207,813,509,-304,-661,558.5,102.5
2.48363207040893,813,509,-304,-661,558.5,102.5
2.48577868412579,813,509,-304,-661,558.5,102.5
2.48792529784265,813,509,-304,-661,558.5,102.5
2.49007191155951,811,509,-302,-660,556.5,103.5
2.49221852527638,812,509,-303,-660.5,557.5,103
2.49436513899324,811,508,-303,-659.5,557,102.5
2.4965117527101,811,509,-302,-660,556.5,103.5
2.49865836642696,813,509,-304,-661,558.5,102.5
2.50080498014382,811,509,-302,-660,556.5,103.5
2.50295159386068,810,509,-301,-659.5,555.5,104
2.50509820757755,809,509,-300,-659,554.5,104.5
2.50724482129441,809,509,-300,-659,554.5,104.5
2.50939143501127,809,509,-300,-659,554.5,104.5
2.51153804872813,811,509,-302,-660,556.5,103.5
2.51368466244499,813,509,-304,-661,558.5,102.5
2.51583127616185,814,509,-305,-661.5,559.5,102
2.51797788987872,815,509,-306,-662,560.5,101.5
2.52012450359558,815,509,-306,-662,560.5,101.5
2.52227111731244,816,509,-307,-662.5,561.5,101
2.5244177310293,822,509,-313,-665.5,567.5,98
2.52656434474616,830,509,-321,-669.5,575.5,94
2.52871095846302,839,509,-330,-674,584.5,89.5
2.53085757217989,848,509,-339,-678.5,593.5,85
2.53300418589675,853,509,-344,-681,598.5,82.5
2.53515079961361,856,509,-347,-682.5,601.5,81
2.53729741333047,861,509,-352,-685,606.5,78.5
2.53944402704733,862,509,-353,-685.5,607.5,78
2.54159064076419,867,509,-358,-688,612.5,75.5
2.54373725448106,867,509,-358,-688,612.5,75.5
2.54588386819792,862,509,-353,-685.5,607.5,78
2.54803048191478,859,509,-350,-684,604.5,79.5
2.55017709563164,855,509,-346,-682,600.5,81.5
2.5523237093485,852,509,-343,-680.5,597.5,83
2.55447032306536,839,509,-330,-674,584.5,89.5
2.55661693678223,827,509,-318,-668,572.5,95.5
2.55876355049909,814,509,-305,-661.5,559.5,102
2.56091016421595,804,509,-295,-656.5,549.5,107
2.56305677793281,799,509,-290,-654,544.5,109.5
2.56520339164967,798,509,-289,-653.5,543.5,110
2.56735000536653,799,509,-290,-654,544.5,109.5
2.5694966190834,802,509,-293,-655.5,547.5,108
2.57164323280026,806,509,-297,-657.5,551.5,106
2.57378984651712,810,509,-301,-659.5,555.5,104
2.57593646023398,814,509,-305,-661.5,559.5,102
2.57808307395084,813,509,-304,-661,558.5,102.5
2.5802296876677,813,509,-304,-661,558.5,102.5
2.58237630138457,812,509,-303,-660.5,557.5,103
2.58452291510143,811,509,-302,-660,556.5,103.5
2.58666952881829,813,509,-304,-661,558.5,102.5
2.58881614253515,813,509,-304,-661,558.5,102.5
2.59096275625201,811,508,-303,-659.5,557,102.5
2.59310936996887,810,509,-301,-659.5,555.5,104
2.59525598368574,811,509,-302,-660,556.5,103.5
2.5974025974026,812,509,-303,-660.5,557.5,103
2.59954921111946,812,509,-303,-660.5,557.5,103
2.60169582483632,812,509,-303,-660.5,557.5,103
2.60384243855318,809,509,-300,-659,554.5,104.5
2.60598905227004,809,509,-300,-659,554.5,104.5
2.60813566598691,807,509,-298,-658,552.5,105.5
2.61028227970377,807,509,-298,-658,552.5,105.5
2.61242889342063,807,509,-298,-658,552.5,105.5
2.61457550713749,808,509,-299,-658.5,553.5,105
2.61672212085435,810,509,-301,-659.5,555.5,104
2.61886873457121,811,508,-303,-659.5,557,102.5
2.62101534828808,812,509,-303,-660.5,557.5,103
2.62316196200494,812,509,-303,-660.5,557.5,103
2.6253085757218,813,509,-304,-661,558.5,102.5
2.62745518943866,814,509,-305,-661.5,559.5,102
2.62960180315552,814,509,-305,-661.5,559.5,102
2.63174841687238,814,509,-305,-661.5,559.5,102
2.63389503058925,813,509,-304,-661,558.5,102.5
2.63604164430611,811,509,-302,-660,556.5,103.5
2.63818825802297,810,509,-301,-659.5,555.5,104
2.64033487173983,811,509,-302,-660,556.5,103.5
2.64248148545669,810,509,-301,-659.5,555.5,104
2.64462809917355,811,509,-302,-660,556.5,103.5
2.64677471289042,810,509,-301,-659.5,555.5,104
2.64892132660728,812,509,-303,-660.5,557.5,103
2.65106794032414,813,509,-304,-661,558.5,102.5
2.653214554041,812,509,-303,-660.5,557.5,103
2.65536116775786,814,509,-305,-661.5,559.5,102
2.65750778147472,814,509,-305,-661.5,559.5,102
2.65965439519158,814,508,-306,-661,560,101
2.66180100890845,814,509,-305,-661.5,559.5,102
2.66394762262531,813,509,-304,-661,558.5,102.5
2.66609423634217,813,509,-304,-661,558.5,102.5
2.66824085005903,813,509,-304,-661,558.5,102.5
2.67038746377589,813,509,-304,-661,558.5,102.5
2.67253407749276,813,509,-304,-661,558.5,102.5
2.67468069120962,814,509,-305,-661.5,559.5,102
2.67682730492648,816,509,-307,-662.5,561.5,101
2.67897391864334,817,509,-308,-663,562.5,100.5
2.6811205323602,819,509,-310,-664,564.5,99.5
2.68326714607706,819,509,-310,-664,564.5,99.5
2.68541375979393,818,509,-309,-663.5,563.5,100
2.68756037351079,818,509,-309,-663.5,563.5,100
2.68970698722765,816,509,-307,-662.5,561.5,101
2.69185360094451,815,509,-306,-662,560.5,101.5
2.69400021466137,816,509,-307,-662.5,561.5,101
2.69614682837823,819,509,-310,-664,564.5,99.5
2.69829344209509,818,509,-309,-663.5,563.5,100
2.70044005581196,820,509,-311,-664.5,565.5,99
2.70258666952882,820,509,-311,-664.5,565.5,99
2.70473328324568,819,509,-310,-664,564.5,99.5
2.70687989696254,819,509,-310,-664,564.5,99.5
2.7090265106794,817,509,-308,-663,562.5,100.5
2.71117312439626,817,509,-308,-663,562.5,100.5
2.71331973811313,819,509,-310,-664,564.5,99.5
2.71546635182999,820,509,-311,-664.5,565.5,99
2.71761296554685,820,509,-311,-664.5,565.5,99
2.71975957926371,822,508,-314,-665,568,97
2.72190619298057,823,509,-314,-666,568.5,97.5
2.72405280669743,824,509,-315,-666.5,569.5,97
2.7261994204143,825,509,-316,-667,570.5,96.5
2.72834603413116,826,508,-318,-667,572,95
2.73049264784802,826,509,-317,-667.5,571.5,96
2.73263926156488,826,509,-317,-667.5,571.5,96
2.73478587528174,825,509,-316,-667,570.5,96.5
2.7369324889986,824,509,-315,-666.5,569.5,97
2.73907910271547,825,509,-316,-667,570.5,96.5
2.74122571643233,825,509,-316,-667,570.5,96.5
2.74337233014919,824,509,-315,-666.5,569.5,97
2.74551894386605,824,509,-315,-666.5,569.5,97
2.74766555758291,824,509,-315,-666.5,569.5,97
2.74981217129977,824,509,-315,-666.5,569.5,97
2.75195878501664,826,508,-318,-667,572,95
2.7541053987335,825,509,-316,-667,570.5,96.5
2.75625201245036,825,509,-316,-667,570.5,96.5
2.75839862616722,825,509,-316,-667,570.5,96.5
2.76054523988408,825,509,-316,-667,570.5,96.5
2.76269185360094,827,509,-318,-668,572.5,95.5
2.76483846731781,828,509,-319,-668.5,573.5,95
2.76698508103467,827,508,-319,-667.5,573,94.5
2.76913169475153,828,509,-319,-668.5,573.5,95
2.77127830846839,829,509,-320,-669,574.5,94.5
2.77342492218525,828,509,-319,-668.5,573.5,95
2.77557153590211,827,509,-318,-668,572.5,95.5
2.77771814961898,826,509,-317,-667.5,571.5,96
2.77986476333584,826,509,-317,-667.5,571.5,96
2.7820113770527,827,509,-318,-668,572.5,95.5
2.78415799076956,824,509,-315,-666.5,569.5,97
2.78630460448642,824,509,-315,-666.5,569.5,97
2.78845121820328,822,509,-313,-665.5,567.5,98
2.79059783192015,822,509,-313,-665.5,567.5,98
2.79274444563701,821,509,-312,-665,566.5,98.5
2.79489105935387,821,509,-312,-665,566.5,98.5
2.79703767307073,818,509,-309,-663.5,563.5,100
2.79918428678759,817,509,-308,-663,562.5,100.5
2.80133090050445,818,509,-309,-663.5,563.5,100
2.80347751422132,817,509,-308,-663,562.5,100.5
2.80562412793818,817,509,-308,-663,562.5,100.5
2.80777074165504,815,509,-306,-662,560.5,101.5
2.8099173553719,814,509,-305,-661.5,559.5,102
2.81206396908876,811,509,-302,-660,556.5,103.5
2.81421058280562,810,509,-301,-659.5,555.5,104
2.81635719652249,810,508,-302,-659,556,103
2.81850381023935,810,509,-301,-659.5,555.5,104
2.82065042395621,810,509,-301,-659.5,555.5,104
2.82279703767307,810,509,-301,-659.5,555.5,104
2.82494365138993,809,508,-301,-658.5,555,103.5
2.82709026510679,808,509,-299,-658.5,553.5,105
2.82923687882366,807,509,-298,-658,552.5,105.5
2.83138349254052,806,509,-297,-657.5,551.5,106
2.83353010625738,805,509,-296,-657,550.5,106.5
2.83567671997424,805,509,-296,-657,550.5,106.5
2.8378233336911,803,509,-294,-656,548.5,107.5
2.83996994740796,803,509,-294,-656,548.5,107.5
2.84211656112483,801,509,-292,-655,546.5,108.5
2.84426317484169,802,509,-293,-655.5,547.5,108
2.84640978855855,803,509,-294,-656,548.5,107.5
2.84855640227541,803,509,-294,-656,548.5,107.5
2.85070301599227,803,509,-294,-656,548.5,107.5
2.85284962970913,805,509,-296,-657,550.5,106.5
2.854996243426,804,509,-295,-656.5,549.5,107
2.85714285714286,803,509,-294,-656,548.5,107.5
2.85928947085972,802,509,-293,-655.5,547.5,108
2.86143608457658,802,509,-293,-655.5,547.5,108
2.86358269829344,801,509,-292,-655,546.5,108.5
2.8657293120103,802,509,-293,-655.5,547.5,108
2.86787592572717,803,509,-294,-656,548.5,107.5
2.87002253944403,805,509,-296,-657,550.5,106.5
2.87216915316089,806,509,-297,-657.5,551.5,106
2.87431576687775,803,509,-294,-656,548.5,107.5
2.87646238059461,804,509,-295,-656.5,549.5,107
2.87860899431147,804,509,-295,-656.5,549.5,107
2.88075560802833,804,509,-295,-656.5,549.5,107
2.8829022217452,803,509,-294,-656,548.5,107.5
2.88504883546206,804,509,-295,-656.5,549.5,107
2.88719544917892,803,509,-294,-656,548.5,107.5
2.88934206289578,803,509,-294,-656,548.5,107.5
2.89148867661264,804,508,-296,-656,550,106
2.89363529032951,803,509,-294,-656,548.5,107.5
2.89578190404637,805,509,-296,-657,550.5,106.5
2.89792851776323,803,509,-294,-656,548.5,107.5
2.90007513148009,805,509,-296,-657,550.5,106.5
2.90222174519695,805,509,-296,-657,550.5,106.5
2.90436835891381,806,509,-297,-657.5,551.5,106
2.90651497263068,804,509,-295,-656.5,549.5,107
2.90866158634754,805,509,-296,-657,550.5,106.5
2.9108082000644,804,509,-295,-656.5,549.5,107
2.91295481378126,804,509,-295,-656.5,549.5,107
2.91510142749812,803,509,-294,-656,548.5,107.5
2.91724804121498,804,509,-295,-656.5,549.5,107
2.91939465493184,805,509,-296,-657,550.5,106.5
2.92154126864871,806,509,-297,-657.5,551.5,106
2.92368788236557,808,509,-299,-658.5,553.5,105
2.92583449608243,807,509,-298,-658,552.5,105.5
2.92798110979929,807,509,-298,-658,552.5,105.5
2.93012772351615,807,509,-298,-658,552.5,105.5
2.93227433723301,806,509,-297,-657.5,551.5,106
2.93442095094988,808,509,-299,-658.5,553.5,105
2.93656756466674,807,509,-298,-658,552.5,105.5
2.9387141783836,805,509,-296,-657,550.5,106.5
2.94086079210046,806,509,-297,-657.5,551.5,106
2.94300740581732,806,509,-297,-657.5,551.5,106
2.94515401953418,806,509,-297,-657.5,551.5,106
2.94730063325105,807,509,-298,-658,552.5,105.5
2.94944724696791,807,509,-298,-658,552.5,105.5
2.95159386068477,806,509,-297,-657.5,551.5,106
2.95374047440163,807,508,-299,-657.5,553,104.5
2.95588708811849,807,509,-298,-658,552.5,105.5
2.95803370183535,806,509,-297,-657.5,551.5,106
2.96018031555222,806,508,-298,-657,552,105
2.96232692926908,806,508,-298,-657,552,105
2.96447354298594,807,509,-298,-658,552.5,105.5
2.9666201567028,808,509,-299,-658.5,553.5,105
2.96876677041966,809,509,-300,-659,554.5,104.5
2.97091338413652,809,509,-300,-659,554.5,104.5
2.97305999785339,809,509,-300,-659,554.5,104.5
2.97520661157025,808,509,-299,-658.5,553.5,105
2.97735322528711,810,509,-301,-659.5,555.5,104
2.97949983900397,809,509,-300,-659,554.5,104.5
2.98164645272083,809,509,-300,-659,554.5,104.5
2.98379306643769,809,509,-300,-659,554.5,104.5
2.98593968015456,811,509,-302,-660,556.5,103.5
2.98808629387142,811,509,-302,-660,556.5,103.5
2.99023290758828,809,509,-300,-659,554.5,104.5
2.99237952130514,809,509,-300,-659,554.5,104.5
2.994526135022,808,509,-299,-658.5,553.5,105
2.99667274873886,807,509,-298,-658,552.5,105.5
2.99881936245573,809,509,-300,-659,554.5,104.5
3.00096597617259,808,509,-299,-658.5,553.5,105
3.00311258988945,807,509,-298,-658,552.5,105.5
3.00525920360631,808,509,-299,-658.5,553.5,105
3.00740581732317,809,509,-300,-659,554.5,104.5
3.00955243104003,809,509,-300,-659,554.5,104.5
3.0116990447569,809,509,-300,-659,554.5,104.5
3.01384565847376,809,509,-300,-659,554.5,104.5
3.01599227219062,810,509,-301,-659.5,555.5,104
3.01813888590748,808,508,-300,-658,554,104
3.02028549962434,809,509,-300,-659,554.5,104.5
3.0224321133412,810,508,-302,-659,556,103
3.02457872705807,808,509,-299,-658.5,553.5,105
3.02672534077493,808,509,-299,-658.5,553.5,105
3.02887195449179,810,509,-301,-659.5,555.5,104
3.03101856820865,810,509,-301,-659.5,555.5,104
3.03316518192551,809,509,-300,-659,554.5,104.5
3.03531179564237,809,508,-301,-658.5,555,103.5
3.03745840935924,808,509,-299,-658.5,553.5,105
3.0396050230761,810,509,-301,-659.5,555.5,104
3.04175163679296,808,509,-299,-658.5,553.5,105
3.04389825050982,808,509,-299,-658.5,553.5,105
3.04604486422668,809,509,-300,-659,554.5,104.5
3.04819147794354,810,508,-302,-659,556,103
3.05033809166041,809,509,-300,-659,554.5,104.5
3.05248470537727,809,509,-300,-659,554.5,104.5
3.05463131909413,809,508,-301,-658.5,555,103.5
3.05677793281099,808,509,-299,-658.5,553.5,105
3.05892454652785,807,509,-298,-658,552.5,105.5
3.06107116024471,809,509,-300,-659,554.5,104.5
3.06321777396158,809,509,-300,-659,554.5,104.5
3.06536438767844,810,509,-301,-659.5,555.5,104
3.0675110013953,811,509,-302,-660,556.5,103.5
3.06965761511216,813,509,-304,-661,558.5,102.5
3.07180422882902,812,509,-303,-660.5,557.5,103
3.07395084254588,811,509,-302,-660,556.5,103.5
3.07609745626275,811,509,-302,-660,556.5,103.5
3.07824406997961,813,509,-304,-661,558.5,102.5
3.08039068369647,813,509,-304,-661,558.5,102.5
3.08253729741333,814,509,-305,-661.5,559.5,102
3.08468391113019,813,509,-304,-661,558.5,102.5
3.08683052484705,814,508,-306,-661,560,101
3.08897713856392,815,509,-306,-662,560.5,101.5
3.09112375228078,815,509,-306,-662,560.5,101.5
3.09327036599764,816,509,-307,-662.5,561.5,101
3.0954169797145,818,509,-309,-663.5,563.5,100
3.09756359343136,819,509,-310,-664,564.5,99.5
3.09971020714822,818,509,-309,-663.5,563.5,100
3.10185682086508,817,509,-308,-663,562.5,100.5
3.10400343458195,818,509,-309,-663.5,563.5,100
3.10615004829881,818,509,-309,-663.5,563.5,100
3.10829666201567,818,508,-310,-663,564,99
3.11044327573253,817,509,-308,-663,562.5,100.5
3.11258988944939,816,509,-307,-662.5,561.5,101
3.11473650316626,816,509,-307,-662.5,561.5,101
3.11688311688312,813,509,-304,-661,558.5,102.5
3.11902973059998,812,509,-303,-660.5,557.5,103
3.12117634431684,812,509,-303,-660.5,557.5,103
3.1233229580337,812,509,-303,-660.5,557.5,103
3.12546957175056,811,509,-302,-660,556.5,103.5
3.12761618546743,809,508,-301,-658.5,555,103.5
3.12976279918429,808,509,-299,-658.5,553.5,105
3.13190941290115,805,509,-296,-657,550.5,106.5
3.13405602661801,808,509,-299,-658.5,553.5,105
3.13620264033487,807,509,-298,-658,552.5,105.5
3.13834925405173,809,508,-301,-658.5,555,103.5
3.14049586776859,807,509,-298,-658,552.5,105.5
3.14264248148546,807,508,-299,-657.5,553,104.5
3.14478909520232,808,509,-299,-658.5,553.5,105
3.14693570891918,807,509,-298,-658,552.5,105.5
3.14908232263604,807,509,-298,-658,552.5,105.5
3.1512289363529,804,509,-295,-656.5,549.5,107
3.15337555006976,804,508,-296,-656,550,106
3.15552216378663,802,509,-293,-655.5,547.5,108
3.15766877750349,801,509,-292,-655,546.5,108.5
3.15981539122035,801,509,-292,-655,546.5,108.5
3.16196200493721,802,509,-293,-655.5,547.5,108
3.16410861865407,805,509,-296,-657,550.5,106.5
3.16625523237093,805,509,-296,-657,550.5,106.5
3.1684018460878,805,509,-296,-657,550.5,106.5
3.17054845980466,805,509,-296,-657,550.5,106.5
3.17269507352152,805,509,-296,-657,550.5,106.5
3.17484168723838,806,508,-298,-657,552,105
3.17698830095524,807,509,-298,-658,552.5,105.5
3.1791349146721,806,508,-298,-657,552,105
3.18128152838897,806,509,-297,-657.5,551.5,106
3.18342814210583,804,509,-295,-656.5,549.5,107
3.18557475582269,803,509,-294,-656,548.5,107.5
3.18772136953955,805,509,-296,-657,550.5,106.5
3.18986798325641,806,509,-297,-657.5,551.5,106
3.19201459697327,805,509,-296,-657,550.5,106.5
3.19416121069014,805,509,-296,-657,550.5,106.5
3.196307824407,805,509,-296,-657,550.5,106.5
3.19845443812386,805,509,-296,-657,550.5,106.5
3.20060105184072,805,509,-296,-657,550.5,106.5
3.20274766555758,804,509,-295,-656.5,549.5,107
3.20489427927444,802,509,-293,-655.5,547.5,108
3.20704089299131,804,509,-295,-656.5,549.5,107
3.20918750670817,802,509,-293,-655.5,547.5,108
3.21133412042503,803,509,-294,-656,548.5,107.5
3.21348073414189,803,509,-294,-656,548.5,107.5
3.21562734785875,803,509,-294,-656,548.5,107.5
3.21777396157561,805,509,-296,-657,550.5,106.5
3.21992057529248,810,509,-301,-659.5,555.5,104
3.22206718900934,819,509,-310,-664,564.5,99.5
3.2242138027262,830,509,-321,-669.5,575.5,94
3.22636041644306,841,509,-332,-675,586.5,88.5
3.22850703015992,849,509,-340,-679,594.5,84.5
3.23065364387678,853,509,-344,-681,598.5,82.5
3.23280025759365,857,509,-348,-683,602.5,80.5
3.23494687131051,861,508,-353,-684.5,607,77.5
3.23709348502737,862,509,-353,-685.5,607.5,78
3.23924009874423,865,509,-356,-687,610.5,76.5
3.24138671246109,864,509,-355,-686.5,609.5,77
3.24353332617795,862,509,-353,-685.5,607.5,78
3.24567993989482,857,509,-348,-683,602.5,80.5
3.24782655361168,851,509,-342,-680,596.5,83.5
3.24997316732854,844,509,-335,-676.5,589.5,87
3.2521197810454,832,509,-323,-670.5,577.5,93
3.25426639476226,818,509,-309,-663.5,563.5,100
3.25641300847912,806,509,-297,-657.5,551.5,106
3.25855962219599,798,509,-289,-653.5,543.5,110
3.26070623591285,793,509,-284,-651,538.5,112.5
3.26285284962971,791,509,-282,-650,536.5,113.5
3.26499946334657,791,509,-282,-650,536.5,113.5
3.26714607706343,794,509,-285,-651.5,539.5,112
3.26929269078029,799,509,-290,-654,544.5,109.5
3.27143930449716,801,509,-292,-655,546.5,108.5
3.27358591821402,803,509,-294,-656,548.5,107.5
3.27573253193088,804,509,-295,-656.5,549.5,107
3.27787914564774,807,509,-298,-658,552.5,105.5
3.2800257593646,806,509,-297,-657.5,551.5,106
3.28217237308146,806,509,-297,-657.5,551.5,106
3.28431898679833,807,509,-298,-658,552.5,105.5
3.28646560051519,806,509,-297,-657.5,551.5,106
3.28861221423205,808,509,-299,-658.5,553.5,105
3.29075882794891,807,509,-298,-658,552.5,105.5
3.29290544166577,807,509,-298,-658,552.5,105.5
3.29505205538263,805,509,-296,-657,550.5,106.5
3.2971986690995,807,509,-298,-658,552.5,105.5
3.29934528281636,808,509,-299,-658.5,553.5,105
3.30149189653322,809,509,-300,-659,554.5,104.5
3.30363851025008,808,509,-299,-658.5,553.5,105
3.30578512396694,807,509,-298,-658,552.5,105.5
3.3079317376838,806,509,-297,-657.5,551.5,106
3.31007835140067,806,508,-298,-657,552,105
3.31222496511753,806,509,-297,-657.5,551.5,106
3.31437157883439,808,508,-300,-658,554,104
3.31651819255125,808,509,-299,-658.5,553.5,105
3.31866480626811,810,509,-301,-659.5,555.5,104
3.32081141998497,812,508,-304,-660,558,102
3.32295803370184,813,509,-304,-661,558.5,102.5
3.3251046474187,811,509,-302,-660,556.5,103.5
3.32725126113556,813,509,-304,-661,558.5,102.5
3.32939787485242,811,509,-302,-660,556.5,103.5
3.33154448856928,812,509,-303,-660.5,557.5,103
3.33369110228614,812,509,-303,-660.5,557.5,103
3.33583771600301,811,509,-302,-660,556.5,103.5
3.33798432971987,810,509,-301,-659.5,555.5,104
3.34013094343673,811,509,-302,-660,556.5,103.5
3.34227755715359,811,508,-303,-659.5,557,102.5
3.34442417087045,814,509,-305,-661.5,559.5,102
3.34657078458731,813,509,-304,-661,558.5,102.5
3.34871739830418,814,509,-305,-661.5,559.5,102
3.35086401202104,812,509,-303,-660.5,557.5,103
3.3530106257379,812,509,-303,-660.5,557.5,103
3.35515723945476,816,509,-307,-662.5,561.5,101
3.35730385317162,817,509,-308,-663,562.5,100.5
3.35945046688848,817,509,-308,-663,562.5,100.5
3.36159708060534,818,508,-310,-663,564,99
3.36374369432221,817,509,-308,-663,562.5,100.5
3.36589030803907,817,509,-308,-663,562.5,100.5
3.36803692175593,817,509,-308,-663,562.5,100.5
3.37018353547279,819,509,-310,-664,564.5,99.5
3.37233014918965,818,509,-309,-663.5,563.5,100
3.37447676290651,817,509,-308,-663,562.5,100.5
3.37662337662338,819,509,-310,-664,564.5,99.5
3.37876999034024,817,509,-308,-663,562.5,100.5
3.3809166040571,818,508,-310,-663,564,99
3.38306321777396,819,509,-310,-664,564.5,99.5
3.38520983149082,819,509,-310,-664,564.5,99.5
3.38735644520768,819,509,-310,-664,564.5,99.5
3.38950305892455,819,509,-310,-664,564.5,99.5
3.39164967264141,820,509,-311,-664.5,565.5,99
3.39379628635827,819,509,-310,-664,564.5,99.5
3.39594290007513,820,509,-311,-664.5,565.5,99
3.39808951379199,821,509,-312,-665,566.5,98.5
3.40023612750885,821,508,-313,-664.5,567,97.5
3.40238274122572,824,508,-316,-666,570,96
3.40452935494258,826,509,-317,-667.5,571.5,96
3.40667596865944,825,509,-316,-667,570.5,96.5
3.4088225823763,826,509,-317,-667.5,571.5,96
3.41096919609316,825,509,-316,-667,570.5,96.5
3.41311580981002,824,509,-315,-666.5,569.5,97
3.41526242352689,823,509,-314,-666,568.5,97.5
3.41740903724375,825,509,-316,-667,570.5,96.5
3.41955565096061,825,509,-316,-667,570.5,96.5
3.42170226467747,826,508,-318,-667,572,95
3.42384887839433,826,509,-317,-667.5,571.5,96
3.42599549211119,825,509,-316,-667,570.5,96.5
3.42814210582806,827,509,-318,-668,572.5,95.5
3.43028871954492,828,508,-320,-668,574,94
3.43243533326178,828,509,-319,-668.5,573.5,95
3.43458194697864,830,509,-321,-669.5,575.5,94
3.4367285606955,830,509,-321,-669.5,575.5,94
3.43887517441236,831,509,-322,-670,576.5,93.5
3.44102178812923,829,509,-320,-669,574.5,94.5
3.44316840184609,829,509,-320,-669,574.5,94.5
3.44531501556295,831,509,-322,-670,576.5,93.5
3.44746162927981,832,509,-323,-670.5,577.5,93
3.44960824299667,834,509,-325,-671.5,579.5,92
3.45175485671353,834,509,-325,-671.5,579.5,92
3.4539014704304,834,509,-325,-671.5,579.5,92
3.45604808414726,834,509,-325,-671.5,579.5,92
3.45819469786412,832,509,-323,-670.5,577.5,93
3.46034131158098,832,509,-323,-670.5,577.5,93
3.46248792529784,832,509,-323,-670.5,577.5,93
3.4646345390147,832,509,-323,-670.5,577.5,93
3.46678115273157,832,509,-323,-670.5,577.5,93
3.46892776644843,832,509,-323,-670.5,577.5,93
3.47107438016529,834,508,-326,-671,580,91
3.47322099388215,833,509,-324,-671,578.5,92.5
3.47536760759901,834,509,-325,-671.5,579.5,92
3.47751422131587,834,509,-325,-671.5,579.5,92
3.47966083503274,834,509,-325,-671.5,579.5,92
3.4818074487496,834,509,-325,-671.5,579.5,92
3.48395406246646,833,509,-324,-671,578.5,92.5
3.48610067618332,833,509,-324,-671,578.5,92.5
3.48824728990018,832,509,-323,-670.5,577.5,93
3.49039390361704,830,509,-321,-669.5,575.5,94
3.49254051733391,829,509,-320,-669,574.5,94.5
3.49468713105077,829,509,-320,-669,574.5,94.5
3.49683374476763,826,509,-317,-667.5,571.5,96
3.49898035848449,825,509,-316,-667,570.5,96.5
3.50112697220135,825,509,-316,-667,570.5,96.5
3.50327358591821,824,509,-315,-666.5,569.5,97
3.50542019963508,824,509,-315,-666.5,569.5,97
3.50756681335194,824,509,-315,-666.5,569.5,97
3.5097134270688,824,509,-315,-666.5,569.5,97
3.51186004078566,823,509,-314,-666,568.5,97.5
3.51400665450252,822,509,-313,-665.5,567.5,98
3.51615326821938,821,509,-312,-665,566.5,98.5
3.51829988193625,821,509,-312,-665,566.5,98.5
3.52044649565311,821,509,-312,-665,566.5,98.5
3.52259310936997,819,509,-310,-664,564.5,99.5
3.52473972308683,817,509,-308,-663,562.5,100.5
3.52688633680369,813,509,-304,-661,558.5,102.5
3.52903295052055,811,509,-302,-660,556.5,103.5
3.53117956423742,809,509,-300,-659,554.5,104.5
3.53332617795428,810,509,-301,-659.5,555.5,104
3.53547279167114,813,509,-304,-661,558.5,102.5
3.537619405388,815,509,-306,-662,560.5,101.5
3.53976601910486,816,509,-307,-662.5,561.5,101
3.54191263282172,815,509,-306,-662,560.5,101.5
3.54405924653859,816,509,-307,-662.5,561.5,101
3.54620586025545,815,509,-306,-662,560.5,101.5
3.54835247397231,814,509,-305,-661.5,559.5,102
3.55049908768917,814,509,-305,-661.5,559.5,102
3.55264570140603,814,508,-306,-661,560,101
3.55479231512289,815,509,-306,-662,560.5,101.5
3.55693892883976,814,509,-305,-661.5,559.5,102
3.55908554255662,814,509,-305,-661.5,559.5,102
3.56123215627348,814,509,-305,-661.5,559.5,102
3.56337876999034,813,509,-304,-661,558.5,102.5
3.5655253837072,816,509,-307,-662.5,561.5,101
3.56767199742406,818,509,-309,-663.5,563.5,100
3.56981861114093,819,509,-310,-664,564.5,99.5
3.57196522485779,818,509,-309,-663.5,563.5,100
3.57411183857465,818,509,-309,-663.5,563.5,100
3.57625845229151,819,509,-310,-664,564.5,99.5
3.57840506600837,818,509,-309,-663.5,563.5,100
3.58055167972523,818,509,-309,-663.5,563.5,100
3.58269829344209,817,509,-308,-663,562.5,100.5
3.58484490715896,817,509,-308,-663,562.5,100.5
3.58699152087582,818,509,-309,-663.5,563.5,100
3.58913813459268,817,509,-308,-663,562.5,100.5
3.59128474830954,819,509,-310,-664,564.5,99.5
3.5934313620264,819,509,-310,-664,564.5,99.5
3.59557797574326,818,509,-309,-663.5,563.5,100
3.59772458946013,817,509,-308,-663,562.5,100.5
3.59987120317699,817,509,-308,-663,562.5,100.5
3.60201781689385,818,509,-309,-663.5,563.5,100
3.60416443061071,818,509,-309,-663.5,563.5,100
3.60631104432757,822,509,-313,-665.5,567.5,98
3.60845765804443,820,509,-311,-664.5,565.5,99
3.6106042717613,822,509,-313,-665.5,567.5,98
3.61275088547816,823,509,-314,-666,568.5,97.5
3.61489749919502,824,509,-315,-666.5,569.5,97
3.61704411291188,824,509,-315,-666.5,569.5,97
3.61919072662874,824,509,-315,-666.5,569.5,97
3.6213373403456,824,509,-315,-666.5,569.5,97
3.62348395406247,823,509,-314,-666,568.5,97.5
3.62563056777933,824,509,-315,-666.5,569.5,97
3.62777718149619,822,509,-313,-665.5,567.5,98
3.62992379521305,823,509,-314,-666,568.5,97.5
3.63207040892991,821,509,-312,-665,566.5,98.5
3.63421702264677,822,509,-313,-665.5,567.5,98
3.63636363636364,821,509,-312,-665,566.5,98.5
3.6385102500805,824,509,-315,-666.5,569.5,97
3.64065686379736,826,509,-317,-667.5,571.5,96
3.64280347751422,827,508,-319,-667.5,573,94.5
3.64495009123108,827,509,-318,-668,572.5,95.5
3.64709670494794,827,509,-318,-668,572.5,95.5
3.64924331866481,828,509,-319,-668.5,573.5,95
3.65138993238167,828,509,-319,-668.5,573.5,95
3.65353654609853,828,509,-319,-668.5,573.5,95
3.65568315981539,827,509,-318,-668,572.5,95.5
3.65782977353225,826,509,-317,-667.5,571.5,96
3.65997638724911,825,509,-316,-667,570.5,96.5
3.66212300096598,826,509,-317,-667.5,571.5,96
3.66426961468284,824,509,-315,-666.5,569.5,97
3.6664162283997,825,509,-316,-667,570.5,96.5
3.66856284211656,825,509,-316,-667,570.5,96.5
3.67070945583342,827,509,-318,-668,572.5,95.5
3.67285606955028,828,509,-319,-668.5,573.5,95
3.67500268326715,829,509,-320,-669,574.5,94.5
3.67714929698401,829,509,-320,-669,574.5,94.5
3.67929591070087,829,509,-320,-669,574.5,94.5
3.68144252441773,828,508,-320,-668,574,94
3.68358913813459,827,509,-318,-668,572.5,95.5
3.68573575185145,826,509,-317,-667.5,571.5,96
3.68788236556832,827,509,-318,-668,572.5,95.5
3.69002897928518,828,509,-319,-668.5,573.5,95
3.69217559300204,826,509,-317,-667.5,571.5,96
3.6943222067189,827,509,-318,-668,572.5,95.5
3.69646882043576,827,509,-318,-668,572.5,95.5
3.69861543415262,826,508,-318,-667,572,95
3.70076204786949,827,509,-318,-668,572.5,95.5
3.70290866158635,826,509,-317,-667.5,571.5,96
3.70505527530321,828,509,-319,-668.5,573.5,95
3.70720188902007,826,509,-317,-667.5,571.5,96
3.70934850273693,827,509,-318,-668,572.5,95.5
3.71149511645379,827,509,-318,-668,572.5,95.5
3.71364173017066,828,509,-319,-668.5,573.5,95
3.71578834388752,829,509,-320,-669,574.5,94.5
3.71793495760438,829,509,-320,-669,574.5,94.5
3.72008157132124,828,509,-319,-668.5,573.5,95
3.7222281850381,828,509,-319,-668.5,573.5,95
3.72437479875496,830,509,-321,-669.5,575.5,94
3.72652141247183,829,509,-320,-669,574.5,94.5
3.72866802618869,829,509,-320,-669,574.5,94.5
3.73081463990555,829,509,-320,-669,574.5,94.5
3.73296125362241,829,509,-320,-669,574.5,94.5
3.73510786733927,829,509,-320,-669,574.5,94.5
3.73725448105613,830,509,-321,-669.5,575.5,94
3.739401094773,830,509,-321,-669.5,575.5,94
3.74154770848986,830,509,-321,-669.5,575.5,94
3.74369432220672,832,509,-323,-670.5,577.5,93
3.74584093592358,833,509,-324,-671,578.5,92.5
3.74798754964044,834,509,-325,-671.5,579.5,92
3.7501341633573,832,509,-323,-670.5,577.5,93
3.75228077707417,831,509,-322,-670,576.5,93.5
3.75442739079103,830,509,-321,-669.5,575.5,94
3.75657400450789,830,509,-321,-669.5,575.5,94
3.75872061822475,832,509,-323,-670.5,577.5,93
3.76086723194161,833,509,-324,-671,578.5,92.5
3.76301384565847,833,509,-324,-671,578.5,92.5
3.76516045937534,835,509,-326,-672,580.5,91.5
3.7673070730922,836,509,-327,-672.5,581.5,91
3.76945368680906,836,509,-327,-672.5,581.5,91
3.77160030052592,835,509,-326,-672,580.5,91.5
3.77374691424278,835,509,-326,-672,580.5,91.5
3.77589352795964,836,509,-327,-672.5,581.5,91
3.77804014167651,835,509,-326,-672,580.5,91.5
3.78018675539337,835,509,-326,-672,580.5,91.5
3.78233336911023,837,509,-328,-673,582.5,90.5
3.78447998282709,837,509,-328,-673,582.5,90.5
3.78662659654395,836,508,-328,-672,582,90
3.78877321026081,836,509,-327,-672.5,581.5,91
3.79091982397768,836,509,-327,-672.5,581.5,91
3.79306643769454,834,509,-325,-671.5,579.5,92
3.7952130514114,833,509,-324,-671,578.5,92.5
3.79735966512826,832,508,-324,-670,578,92
3.79950627884512,831,509,-322,-670,576.5,93.5
3.80165289256198,831,509,-322,-670,576.5,93.5
3.80379950627884,831,509,-322,-670,576.5,93.5
3.80594611999571,829,509,-320,-669,574.5,94.5
3.80809273371257,828,508,-320,-668,574,94
3.81023934742943,826,509,-317,-667.5,571.5,96
3.81238596114629,826,509,-317,-667.5,571.5,96
3.81453257486315,827,509,-318,-668,572.5,95.5
3.81667918858001,826,509,-317,-667.5,571.5,96
3.81882580229688,826,509,-317,-667.5,571.5,96
3.82097241601374,826,509,-317,-667.5,571.5,96
3.8231190297306,827,509,-318,-668,572.5,95.5
3.82526564344746,826,509,-317,-667.5,571.5,96
3.82741225716432,826,509,-317,-667.5,571.5,96
3.82955887088118,827,509,-318,-668,572.5,95.5
3.83170548459805,827,509,-318,-668,572.5,95.5
3.83385209831491,826,509,-317,-667.5,571.5,96
3.83599871203177,826,509,-317,-667.5,571.5,96
3.83814532574863,825,509,-316,-667,570.5,96.5
3.84029193946549,826,508,-318,-667,572,95
3.84243855318235,825,509,-316,-667,570.5,96.5
3.84458516689922,824,509,-315,-666.5,569.5,97
3.84673178061608,822,509,-313,-665.5,567.5,98
3.84887839433294,823,509,-314,-666,568.5,97.5
3.8510250080498,823,509,-314,-666,568.5,97.5
3.85317162176666,825,509,-316,-667,570.5,96.5
3.85531823548352,825,509,-316,-667,570.5,96.5
3.85746484920039,825,509,-316,-667,570.5,96.5
3.85961146291725,824,509,-315,-666.5,569.5,97
3.86175807663411,826,509,-317,-667.5,571.5,96
3.86390469035097,826,509,-317,-667.5,571.5,96
3.86605130406783,825,509,-316,-667,570.5,96.5
3.86819791778469,823,509,-314,-666,568.5,97.5
3.87034453150156,823,509,-314,-666,568.5,97.5
3.87249114521842,821,509,-312,-665,566.5,98.5
3.87463775893528,820,508,-312,-664,566,98
3.87678437265214,820,509,-311,-664.5,565.5,99
3.878930986369,819,509,-310,-664,564.5,99.5
3.88107760008586,819,509,-310,-664,564.5,99.5
3.88322421380273,821,509,-312,-665,566.5,98.5
3.88537082751959,820,509,-311,-664.5,565.5,99
3.88751744123645,819,509,-310,-664,564.5,99.5
3.88966405495331,822,509,-313,-665.5,567.5,98
3.89181066867017,828,509,-319,-668.5,573.5,95
3.89395728238703,834,509,-325,-671.5,579.5,92
3.8961038961039,844,508,-336,-676,590,86
3.89825050982076,847,509,-338,-678,592.5,85.5
3.90039712353762,851,509,-342,-680,596.5,83.5
3.90254373725448,855,509,-346,-682,600.5,81.5
3.90469035097134,861,509,-352,-685,606.5,78.5
3.9068369646882,862,509,-353,-685.5,607.5,78
3.90898357840507,869,509,-360,-689,614.5,74.5
3.91113019212193,875,509,-366,-692,620.5,71.5
3.91327680583879,874,509,-365,-691.5,619.5,72
3.91542341955565,867,509,-358,-688,612.5,75.5
3.91757003327251,863,509,-354,-686,608.5,77.5
3.91971664698937,857,509,-348,-683,602.5,80.5
3.92186326070624,853,509,-344,-681,598.5,82.5
3.9240098744231,849,509,-340,-679,594.5,84.5
3.92615648813996,838,509,-329,-673.5,583.5,90
3.92830310185682,829,508,-321,-668.5,575,93.5
3.93044971557368,818,509,-309,-663.5,563.5,100
3.93259632929054,813,509,-304,-661,558.5,102.5
3.93474294300741,811,509,-302,-660,556.5,103.5
3.93688955672427,813,509,-304,-661,558.5,102.5
3.93903617044113,815,509,-306,-662,560.5,101.5
3.94118278415799,817,509,-308,-663,562.5,100.5
3.94332939787485,821,508,-313,-664.5,567,97.5
3.94547601159171,822,509,-313,-665.5,567.5,98
3.94762262530858,823,509,-314,-666,568.5,97.5
3.94976923902544,823,509,-314,-666,568.5,97.5
3.9519158527423,823,509,-314,-666,568.5,97.5
3.95406246645916,821,509,-312,-665,566.5,98.5
3.95620908017602,821,509,-312,-665,566.5,98.5
3.95835569389288,821,509,-312,-665,566.5,98.5
3.96050230760975,822,509,-313,-665.5,567.5,98
3.96264892132661,823,509,-314,-666,568.5,97.5
3.96479553504347,823,509,-314,-666,568.5,97.5
3.96694214876033,821,509,-312,-665,566.5,98.5
3.96908876247719,819,508,-311,-663.5,565,98.5
3.97123537619405,817,509,-308,-663,562.5,100.5
3.97338198991092,818,509,-309,-663.5,563.5,100
3.97552860362778,820,509,-311,-664.5,565.5,99
3.97767521734464,820,508,-312,-664,566,98
3.9798218310615,822,509,-313,-665.5,567.5,98
3.98196844477836,823,509,-314,-666,568.5,97.5
3.98411505849522,822,509,-313,-665.5,567.5,98
3.98626167221209,823,509,-314,-666,568.5,97.5
3.98840828592895,822,509,-313,-665.5,567.5,98
3.99055489964581,823,509,-314,-666,568.5,97.5
3.99270151336267,822,509,-313,-665.5,567.5,98
3.99484812707953,821,509,-312,-665,566.5,98.5
3.99699474079639,823,509,-314,-666,568.5,97.5
3.99914135451326,823,509,-314,-666,568.5,97.5
4.00128796823012,823,509,-314,-666,568.5,97.5
4.00343458194698,824,508,-316,-666,570,96
4.00558119566384,824,509,-315,-666.5,569.5,97
4.0077278093807,825,509,-316,-667,570.5,96.5
4.00987442309756,825,509,-316,-667,570.5,96.5
4.01202103681443,827,509,-318,-668,572.5,95.5
4.01416765053129,826,509,-317,-667.5,571.5,96
4.01631426424815,828,509,-319,-668.5,573.5,95
4.01846087796501,830,508,-322,-669,576,93
4.02060749168187,829,509,-320,-669,574.5,94.5
4.02275410539873,828,509,-319,-668.5,573.5,95
4.0249007191156,827,509,-318,-668,572.5,95.5
4.02704733283246,827,508,-319,-667.5,573,94.5
4.02919394654932,828,509,-319,-668.5,573.5,95
4.03134056026618,827,509,-318,-668,572.5,95.5
4.03348717398304,828,509,-319,-668.5,573.5,95
4.0356337876999,828,509,-319,-668.5,573.5,95
4.03778040141676,828,509,-319,-668.5,573.5,95
4.03992701513363,828,509,-319,-668.5,573.5,95
4.04207362885049,829,509,-320,-669,574.5,94.5
4.04422024256735,828,509,-319,-668.5,573.5,95
4.04636685628421,829,509,-320,-669,574.5,94.5
4.04851347000107,829,509,-320,-669,574.5,94.5
4.05066008371793,830,508,-322,-669,576,93
4.0528066974348,830,508,-322,-669,576,93
4.05495331115166,831,509,-322,-670,576.5,93.5
4.05709992486852,831,509,-322,-670,576.5,93.5
4.05924653858538,832,509,-323,-670.5,577.5,93
4.06139315230224,831,509,-322,-670,576.5,93.5
4.0635397660191,832,509,-323,-670.5,577.5,93
4.06568637973597,833,508,-325,-670.5,579,91.5
4.06783299345283,832,509,-323,-670.5,577.5,93
4.06997960716969,832,509,-323,-670.5,577.5,93
4.07212622088655,830,508,-322,-669,576,93
4.07427283460341,832,509,-323,-670.5,577.5,93
4.07641944832027,835,509,-326,-672,580.5,91.5
4.07856606203714,834,509,-325,-671.5,579.5,92
4.080712675754,834,509,-325,-671.5,579.5,92
4.08285928947086,834,508,-326,-671,580,91
4.08500590318772,834,509,-325,-671.5,579.5,92
4.08715251690458,836,509,-327,-672.5,581.5,91
4.08929913062144,835,509,-326,-672,580.5,91.5
4.09144574433831,837,509,-328,-673,582.5,90.5
4.09359235805517,837,509,-328,-673,582.5,90.5
4.09573897177203,838,509,-329,-673.5,583.5,90
4.09788558548889,842,509,-333,-675.5,587.5,88
4.10003219920575,841,509,-332,-675,586.5,88.5
4.10217881292261,840,509,-331,-674.5,585.5,89
4.10432542663948,840,509,-331,-674.5,585.5,89
4.10647204035634,838,509,-329,-673.5,583.5,90
4.1086186540732,838,509,-329,-673.5,583.5,90
4.11076526779006,839,509,-330,-674,584.5,89.5
4.11291188150692,837,509,-328,-673,582.5,90.5
4.11505849522378,836,509,-327,-672.5,581.5,91
4.11720510894065,838,509,-329,-673.5,583.5,90
4.11935172265751,839,509,-330,-674,584.5,89.5
4.12149833637437,838,509,-329,-673.5,583.5,90
4.12364495009123,840,509,-331,-674.5,585.5,89
4.12579156380809,840,509,-331,-674.5,585.5,89
4.12793817752495,838,509,-329,-673.5,583.5,90
4.13008479124182,840,509,-331,-674.5,585.5,89
4.13223140495868,840,509,-331,-674.5,585.5,89
4.13437801867554,840,509,-331,-674.5,585.5,89
4.1365246323924,840,509,-331,-674.5,585.5,89
4.13867124610926,839,509,-330,-674,584.5,89.5
4.14081785982612,840,509,-331,-674.5,585.5,89
4.14296447354299,840,509,-331,-674.5,585.5,89
4.14511108725985,840,509,-331,-674.5,585.5,89
4.14725770097671,837,509,-328,-673,582.5,90.5
4.14940431469357,839,508,-331,-673.5,585,88.5
4.15155092841043,837,509,-328,-673,582.5,90.5
4.15369754212729,837,509,-328,-673,582.5,90.5
4.15584415584416,838,509,-329,-673.5,583.5,90
4.15799076956102,838,509,-329,-673.5,583.5,90
4.16013738327788,837,509,-328,-673,582.5,90.5
4.16228399699474,837,509,-328,-673,582.5,90.5
4.1644306107116,836,509,-327,-672.5,581.5,91
4.16657722442846,836,509,-327,-672.5,581.5,91
4.16872383814533,834,509,-325,-671.5,579.5,92
4.17087045186219,832,509,-323,-670.5,577.5,93
4.17301706557905,832,508,-324,-670,578,92
4.17516367929591,831,509,-322,-670,576.5,93.5
4.17731029301277,832,509,-323,-670.5,577.5,93
4.17945690672963,829,509,-320,-669,574.5,94.5
4.1816035204465,831,509,-322,-670,576.5,93.5
4.18375013416336,829,509,-320,-669,574.5,94.5
4.18589674788022,825,509,-316,-667,570.5,96.5
4.18804336159708,824,509,-315,-666.5,569.5,97
4.19018997531394,822,509,-313,-665.5,567.5,98
4.1923365890308,821,509,-312,-665,566.5,98.5
4.19448320274767,821,509,-312,-665,566.5,98.5
4.19662981646453,820,509,-311,-664.5,565.5,99
4.19877643018139,822,509,-313,-665.5,567.5,98
4.20092304389825,822,509,-313,-665.5,567.5,98
4.20306965761511,822,509,-313,-665.5,567.5,98
4.20521627133197,822,509,-313,-665.5,567.5,98
4.20736288504883,822,509,-313,-665.5,567.5,98
4.2095094987657,821,509,-312,-665,566.5,98.5
4.21165611248256,819,509,-310,-664,564.5,99.5
4.21380272619942,819,509,-310,-664,564.5,99.5
4.21594933991628,819,509,-310,-664,564.5,99.5
4.21809595363314,820,509,-311,-664.5,565.5,99
4.22024256735001,821,509,-312,-665,566.5,98.5
4.22238918106687,819,508,-311,-663.5,565,98.5
4.22453579478373,819,509,-310,-664,564.5,99.5
4.22668240850059,817,509,-308,-663,562.5,100.5
4.22882902221745,817,509,-308,-663,562.5,100.5
4.23097563593431,816,509,-307,-662.5,561.5,101
4.23312224965118,816,509,-307,-662.5,561.5,101
4.23526886336804,816,508,-308,-662,562,100
4.2374154770849,819,509,-310,-664,564.5,99.5
4.23956209080176,820,508,-312,-664,566,98
4.24170870451862,821,509,-312,-665,566.5,98.5
4.24385531823548,823,509,-314,-666,568.5,97.5
4.24600193195235,823,509,-314,-666,568.5,97.5
4.24814854566921,822,509,-313,-665.5,567.5,98
4.25029515938607,822,509,-313,-665.5,567.5,98
4.25244177310293,823,509,-314,-666,568.5,97.5
4.25458838681979,823,509,-314,-666,568.5,97.5
4.25673500053665,823,509,-314,-666,568.5,97.5
4.25888161425352,823,509,-314,-666,568.5,97.5
4.26102822797038,823,508,-315,-665.5,569,96.5
4.26317484168724,823,508,-315,-665.5,569,96.5
4.2653214554041,824,509,-315,-666.5,569.5,97
4.26746806912096,822,509,-313,-665.5,567.5,98
4.26961468283782,821,509,-312,-665,566.5,98.5
4.27176129655468,821,509,-312,-665,566.5,98.5
4.27390791027155,820,509,-311,-664.5,565.5,99
4.27605452398841,823,509,-314,-666,568.5,97.5
4.27820113770527,822,509,-313,-665.5,567.5,98
4.28034775142213,822,509,-313,-665.5,567.5,98
4.28249436513899,822,509,-313,-665.5,567.5,98
4.28464097885585,821,509,-312,-665,566.5,98.5
4.28678759257272,823,509,-314,-666,568.5,97.5
4.28893420628958,823,509,-314,-666,568.5,97.5
4.29108082000644,824,509,-315,-666.5,569.5,97
4.2932274337233,824,509,-315,-666.5,569.5,97
4.29537404744016,824,509,-315,-666.5,569.5,97
4.29752066115702,825,509,-316,-667,570.5,96.5
4.29966727487389,824,509,-315,-666.5,569.5,97
4.30181388859075,825,509,-316,-667,570.5,96.5
4.30396050230761,825,509,-316,-667,570.5,96.5
4.30610711602447,825,509,-316,-667,570.5,96.5
4.30825372974133,824,509,-315,-666.5,569.5,97
4.31040034345819,824,509,-315,-666.5,569.5,97
4.31254695717506,823,509,-314,-666,568.5,97.5
4.31469357089192,821,509,-312,-665,566.5,98.5
4.31684018460878,823,509,-314,-666,568.5,97.5
4.31898679832564,824,509,-315,-666.5,569.5,97
4.3211334120425,824,509,-315,-666.5,569.5,97
4.32328002575936,825,509,-316,-667,570.5,96.5
4.32542663947623,826,509,-317,-667.5,571.5,96
4.32757325319309,826,509,-317,-667.5,571.5,96
4.32971986690995,826,509,-317,-667.5,571.5,96
4.33186648062681,826,509,-317,-667.5,571.5,96
4.33401309434367,827,509,-318,-668,572.5,95.5
4.33615970806053,827,509,-318,-668,572.5,95.5
4.3383063217774,827,509,-318,-668,572.5,95.5
4.34045293549426,827,509,-318,-668,572.5,95.5
4.34259954921112,826,509,-317,-667.5,571.5,96
4.34474616292798,825,509,-316,-667,570.5,96.5
4.34689277664484,823,509,-314,-666,568.5,97.5
4.3490393903617,826,509,-317,-667.5,571.5,96
4.35118600407857,827,509,-318,-668,572.5,95.5
4.35333261779543,828,509,-319,-668.5,573.5,95
4.35547923151229,828,509,-319,-668.5,573.5,95
4.35762584522915,828,509,-319,-668.5,573.5,95
4.35977245894601,829,509,-320,-669,574.5,94.5
4.36191907266287,829,509,-320,-669,574.5,94.5
4.36406568637974,829,509,-320,-669,574.5,94.5
4.3662123000966,828,509,-319,-668.5,573.5,95
4.36835891381346,827,509,-318,-668,572.5,95.5
4.37050552753032,828,508,-320,-668,574,94
4.37265214124718,830,508,-322,-669,576,93
4.37479875496404,830,509,-321,-669.5,575.5,94
4.37694536868091,830,509,-321,-669.5,575.5,94
4.37909198239777,829,509,-320,-669,574.5,94.5
4.38123859611463,828,509,-319,-668.5,573.5,95
4.38338520983149,827,509,-318,-668,572.5,95.5
4.38553182354835,827,509,-318,-668,572.5,95.5
4.38767843726521,827,509,-318,-668,572.5,95.5
4.38982505098208,828,509,-319,-668.5,573.5,95
4.39197166469894,829,509,-320,-669,574.5,94.5
4.3941182784158,827,509,-318,-668,572.5,95.5
4.39626489213266,829,509,-320,-669,574.5,94.5
4.39841150584952,829,509,-320,-669,574.5,94.5
4.40055811956638,827,509,-318,-668,572.5,95.5
4.40270473328325,828,509,-319,-668.5,573.5,95
4.40485134700011,828,508,-320,-668,574,94
4.40699796071697,829,509,-320,-669,574.5,94.5
4.40914457443383,828,509,-319,-668.5,573.5,95
4.41129118815069,829,509,-320,-669,574.5,94.5
4.41343780186755,830,509,-321,-669.5,575.5,94
4.41558441558442,830,509,-321,-669.5,575.5,94
4.41773102930128,831,508,-323,-669.5,577,92.5
4.41987764301814,829,509,-320,-669,574.5,94.5
4.422024256735,830,509,-321,-669.5,575.5,94
4.42417087045186,832,509,-323,-670.5,577.5,93
4.42631748416872,832,509,-323,-670.5,577.5,93
4.42846409788558,831,509,-322,-670,576.5,93.5
4.43061071160245,829,509,-320,-669,574.5,94.5
4.43275732531931,827,509,-318,-668,572.5,95.5
4.43490393903617,827,509,-318,-668,572.5,95.5
4.43705055275303,826,509,-317,-667.5,571.5,96
4.43919716646989,827,509,-318,-668,572.5,95.5
4.44134378018676,829,509,-320,-669,574.5,94.5
4.44349039390362,831,509,-322,-670,576.5,93.5
4.44563700762048,833,509,-324,-671,578.5,92.5
4.44778362133734,834,508,-326,-671,580,91
4.4499302350542,833,509,-324,-671,578.5,92.5
4.45207684877106,833,509,-324,-671,578.5,92.5
4.45422346248793,832,509,-323,-670.5,577.5,93
4.45637007620479,833,509,-324,-671,578.5,92.5
4.45851668992165,833,509,-324,-671,578.5,92.5
4.46066330363851,832,509,-323,-670.5,577.5,93
4.46280991735537,831,509,-322,-670,576.5,93.5
4.46495653107223,832,509,-323,-670.5,577.5,93
4.4671031447891,831,509,-322,-670,576.5,93.5
4.46924975850596,829,509,-320,-669,574.5,94.5
4.47139637222282,829,509,-320,-669,574.5,94.5
4.47354298593968,829,509,-320,-669,574.5,94.5
4.47568959965654,829,509,-320,-669,574.5,94.5
4.4778362133734,828,509,-319,-668.5,573.5,95
4.47998282709027,829,509,-320,-669,574.5,94.5
4.48212944080713,829,509,-320,-669,574.5,94.5
4.48427605452399,827,509,-318,-668,572.5,95.5
4.48642266824085,825,509,-316,-667,570.5,96.5
4.48856928195771,822,509,-313,-665.5,567.5,98
4.49071589567457,821,509,-312,-665,566.5,98.5
4.49286250939143,820,509,-311,-664.5,565.5,99
4.4950091231083,819,509,-310,-664,564.5,99.5
4.49715573682516,818,509,-309,-663.5,563.5,100
4.49930235054202,815,509,-306,-662,560.5,101.5
4.50144896425888,816,509,-307,-662.5,561.5,101
4.50359557797574,815,509,-306,-662,560.5,101.5
4.5057421916926,816,509,-307,-662.5,561.5,101
4.50788880540947,815,509,-306,-662,560.5,101.5
4.51003541912633,814,509,-305,-661.5,559.5,102
4.51218203284319,814,509,-305,-661.5,559.5,102
4.51432864656005,813,509,-304,-661,558.5,102.5
4.51647526027691,814,509,-305,-661.5,559.5,102
4.51862187399377,816,509,-307,-662.5,561.5,101
4.52076848771064,816,509,-307,-662.5,561.5,101
4.5229151014275,817,509,-308,-663,562.5,100.5
4.52506171514436,817,509,-308,-663,562.5,100.5
4.52720832886122,815,509,-306,-662,560.5,101.5
4.52935494257808,816,508,-308,-662,562,100
4.53150155629494,815,509,-306,-662,560.5,101.5
4.53364817001181,815,509,-306,-662,560.5,101.5
4.53579478372867,816,509,-307,-662.5,561.5,101
4.53794139744553,817,509,-308,-663,562.5,100.5
4.54008801116239,817,509,-308,-663,562.5,100.5
4.54223462487925,818,509,-309,-663.5,563.5,100
4.54438123859611,818,509,-309,-663.5,563.5,100
4.54652785231298,817,509,-308,-663,562.5,100.5
4.54867446602984,818,509,-309,-663.5,563.5,100
4.5508210797467,818,509,-309,-663.5,563.5,100
4.55296769346356,815,509,-306,-662,560.5,101.5
4.55511430718042,814,509,-305,-661.5,559.5,102
4.55726092089728,811,509,-302,-660,556.5,103.5
4.55940753461415,809,509,-300,-659,554.5,104.5
4.56155414833101,806,509,-297,-657.5,551.5,106
4.56370076204787,805,509,-296,-657,550.5,106.5
4.56584737576473,806,509,-297,-657.5,551.5,106
4.56799398948159,806,508,-298,-657,552,105
4.57014060319845,805,509,-296,-657,550.5,106.5
4.57228721691532,808,509,-299,-658.5,553.5,105
4.57443383063218,809,509,-300,-659,554.5,104.5
4.57658044434904,813,509,-304,-661,558.5,102.5
4.5787270580659,822,509,-313,-665.5,567.5,98
4.58087367178276,832,509,-323,-670.5,577.5,93
4.58302028549962,842,509,-333,-675.5,587.5,88
4.58516689921649,849,509,-340,-679,594.5,84.5
4.58731351293335,851,509,-342,-680,596.5,83.5
4.58946012665021,857,509,-348,-683,602.5,80.5
4.59160674036707,860,509,-351,-684.5,605.5,79
4.59375335408393,862,509,-353,-685.5,607.5,78
4.59589996780079,863,509,-354,-686,608.5,77.5
4.59804658151766,862,509,-353,-685.5,607.5,78
4.60019319523452,860,508,-352,-684,606,78
4.60233980895138,855,509,-346,-682,600.5,81.5
4.60448642266824,851,509,-342,-680,596.5,83.5
4.6066330363851,843,509,-334,-676,588.5,87.5
4.60877965010196,829,509,-320,-669,574.5,94.5
4.61092626381883,812,509,-303,-660.5,557.5,103
4.61307287753569,798,509,-289,-653.5,543.5,110
4.61521949125255,790,509,-281,-649.5,535.5,114
4.61736610496941,785,509,-276,-647,530.5,116.5
4.61951271868627,788,509,-279,-648.5,533.5,115
4.62165933240313,790,509,-281,-649.5,535.5,114
4.62380594612,796,508,-288,-652,542,110
4.62595255983686,798,509,-289,-653.5,543.5,110
4.62809917355372,799,509,-290,-654,544.5,109.5
4.63024578727058,800,509,-291,-654.5,545.5,109
4.63239240098744,797,509,-288,-653,542.5,110.5
4.6345390147043,797,509,-288,-653,542.5,110.5
4.63668562842117,795,508,-287,-651.5,541,110.5
4.63883224213803,792,509,-283,-650.5,537.5,113
4.64097885585489,792,508,-284,-650,538,112
4.64312546957175,792,509,-283,-650.5,537.5,113
4.64527208328861,792,509,-283,-650.5,537.5,113
4.64741869700547,791,509,-282,-650,536.5,113.5
4.64956531072233,791,509,-282,-650,536.5,113.5
4.6517119244392,791,509,-282,-650,536.5,113.5
4.65385853815606,791,509,-282,-650,536.5,113.5
4.65600515187292,791,509,-282,-650,536.5,113.5
4.65815176558978,793,509,-284,-651,538.5,112.5
4.66029837930664,794,509,-285,-651.5,539.5,112
4.66244499302351,791,509,-282,-650,536.5,113.5
4.66459160674037,788,509,-279,-648.5,533.5,115
4.66673822045723,786,509,-277,-647.5,531.5,116
4.66888483417409,782,509,-273,-645.5,527.5,118
4.67103144789095,782,509,-273,-645.5,527.5,118
4.67317806160781,783,509,-274,-646,528.5,117.5
4.67532467532468,787,508,-279,-647.5,533,114.5
4.67747128904154,789,509,-280,-649,534.5,114.5
4.6796179027584,790,509,-281,-649.5,535.5,114
4.68176451647526,789,509,-280,-649,534.5,114.5
4.68391113019212,791,509,-282,-650,536.5,113.5
4.68605774390898,790,509,-281,-649.5,535.5,114
4.68820435762585,785,509,-276,-647,530.5,116.5
4.69035097134271,782,508,-274,-645,528,117
4.69249758505957,781,509,-272,-645,526.5,118.5
4.69464419877643,782,509,-273,-645.5,527.5,118
4.69679081249329,786,509,-277,-647.5,531.5,116
4.69893742621015,787,509,-278,-648,532.5,115.5
4.70108403992702,786,509,-277,-647.5,531.5,116
4.70323065364388,784,509,-275,-646.5,529.5,117
4.70537726736074,785,509,-276,-647,530.5,116.5
4.7075238810776,787,509,-278,-648,532.5,115.5
4.70967049479446,788,508,-280,-648,534,114
4.71181710851132,788,509,-279,-648.5,533.5,115
4.71396372222818,788,509,-279,-648.5,533.5,115
4.71611033594505,787,509,-278,-648,532.5,115.5
4.71825694966191,789,509,-280,-649,534.5,114.5
4.72040356337877,789,509,-280,-649,534.5,114.5
4.72255017709563,788,509,-279,-648.5,533.5,115
4.72469679081249,787,509,-278,-648,532.5,115.5
4.72684340452935,791,509,-282,-650,536.5,113.5
4.72899001824622,790,509,-281,-649.5,535.5,114
4.73113663196308,790,509,-281,-649.5,535.5,114
4.73328324567994,792,509,-283,-650.5,537.5,113
4.7354298593968,790,509,-281,-649.5,535.5,114
4.73757647311366,787,509,-278,-648,532.5,115.5
4.73972308683052,786,509,-277,-647.5,531.5,116
4.74186970054739,784,509,-275,-646.5,529.5,117
4.74401631426425,786,509,-277,-647.5,531.5,116
4.74616292798111,786,509,-277,-647.5,531.5,116
4.74830954169797,789,509,-280,-649,534.5,114.5
4.75045615541483,789,509,-280,-649,534.5,114.5
4.75260276913169,791,509,-282,-650,536.5,113.5
4.75474938284856,793,509,-284,-651,538.5,112.5
4.75689599656542,796,509,-287,-652.5,541.5,111
4.75904261028228,797,509,-288,-653,542.5,110.5
4.76118922399914,799,509,-290,-654,544.5,109.5
4.763335837716,799,509,-290,-654,544.5,109.5
4.76548245143286,802,509,-293,-655.5,547.5,108
4.76762906514973,801,509,-292,-655,546.5,108.5
4.76977567886659,803,509,-294,-656,548.5,107.5
4.77192229258345,803,509,-294,-656,548.5,107.5
4.77406890630031,802,509,-293,-655.5,547.5,108
4.77621552001717,801,509,-292,-655,546.5,108.5
4.77836213373403,801,509,-292,-655,546.5,108.5
4.7805087474509,801,509,-292,-655,546.5,108.5
4.78265536116776,802,509,-293,-655.5,547.5,108
4.78480197488462,803,509,-294,-656,548.5,107.5
4.78694858860148,803,509,-294,-656,548.5,107.5
4.78909520231834,807,509,-298,-658,552.5,105.5
4.7912418160352,807,509,-298,-658,552.5,105.5
4.79338842975207,808,509,-299,-658.5,553.5,105
4.79553504346893,809,509,-300,-659,554.5,104.5
4.79768165718579,810,509,-301,-659.5,555.5,104
4.79982827090265,810,509,-301,-659.5,555.5,104
4.80197488461951,809,509,-300,-659,554.5,104.5
4.80412149833637,809,509,-300,-659,554.5,104.5
4.80626811205324,808,509,-299,-658.5,553.5,105
4.8084147257701,809,509,-300,-659,554.5,104.5
4.81056133948696,812,509,-303,-660.5,557.5,103
4.81270795320382,816,509,-307,-662.5,561.5,101
4.81485456692068,815,509,-306,-662,560.5,101.5
4.81700118063754,815,509,-306,-662,560.5,101.5
4.81914779435441,814,508,-306,-661,560,101
4.82129440807127,815,509,-306,-662,560.5,101.5
4.82344102178813,813,509,-304,-661,558.5,102.5
4.82558763550499,814,509,-305,-661.5,559.5,102
4.82773424922185,813,509,-304,-661,558.5,102.5
4.82988086293871,815,509,-306,-662,560.5,101.5
4.83202747665558,815,509,-306,-662,560.5,101.5
4.83417409037244,813,509,-304,-661,558.5,102.5
4.8363207040893,815,509,-306,-662,560.5,101.5
4.83846731780616,812,509,-303,-660.5,557.5,103
4.84061393152302,811,509,-302,-660,556.5,103.5
4.84276054523988,809,509,-300,-659,554.5,104.5
4.84490715895675,808,509,-299,-658.5,553.5,105
4.84705377267361,809,509,-300,-659,554.5,104.5
4.84920038639047,808,509,-299,-658.5,553.5,105
4.85134700010733,804,509,-295,-656.5,549.5,107
4.85349361382419,804,509,-295,-656.5,549.5,107
4.85564022754105,806,509,-297,-657.5,551.5,106
4.85778684125792,808,509,-299,-658.5,553.5,105
4.85993345497478,808,509,-299,-658.5,553.5,105
4.86208006869164,808,509,-299,-658.5,553.5,105
4.8642266824085,806,508,-298,-657,552,105
4.86637329612536,804,509,-295,-656.5,549.5,107
4.86851990984222,805,509,-296,-657,550.5,106.5
4.87066652355908,803,509,-294,-656,548.5,107.5
4.87281313727595,801,509,-292,-655,546.5,108.5
4.87495975099281,801,508,-293,-654.5,547,107.5
4.87710636470967,801,509,-292,-655,546.5,108.5
4.87925297842653,802,509,-293,-655.5,547.5,108
4.88139959214339,802,509,-293,-655.5,547.5,108
4.88354620586026,804,509,-295,-656.5,549.5,107
4.88569281957712,804,509,-295,-656.5,549.5,107
4.88783943329398,805,509,-296,-657,550.5,106.5
4.88998604701084,807,509,-298,-658,552.5,105.5
4.8921326607277,806,509,-297,-657.5,551.5,106
4.89427927444456,804,509,-295,-656.5,549.5,107
4.89642588816143,802,509,-293,-655.5,547.5,108
4.89857250187829,802,509,-293,-655.5,547.5,108
4.90071911559515,803,509,-294,-656,548.5,107.5
4.90286572931201,804,509,-295,-656.5,549.5,107
4.90501234302887,808,509,-299,-658.5,553.5,105
4.90715895674573,807,509,-298,-658,552.5,105.5
4.9093055704626,805,509,-296,-657,550.5,106.5
4.91145218417946,809,509,-300,-659,554.5,104.5
4.91359879789632,811,509,-302,-660,556.5,103.5
4.91574541161318,813,509,-304,-661,558.5,102.5
4.91789202533004,815,509,-306,-662,560.5,101.5
4.9200386390469,816,509,-307,-662.5,561.5,101
4.92218525276377,817,509,-308,-663,562.5,100.5
4.92433186648063,817,509,-308,-663,562.5,100.5
4.92647848019749,816,509,-307,-662.5,561.5,101
4.92862509391435,818,509,-309,-663.5,563.5,100
4.93077170763121,822,509,-313,-665.5,567.5,98
4.93291832134807,825,509,-316,-667,570.5,96.5
4.93506493506493,827,509,-318,-668,572.5,95.5
4.9372115487818,825,509,-316,-667,570.5,96.5
4.93935816249866,822,509,-313,-665.5,567.5,98
4.94150477621552,817,509,-308,-663,562.5,100.5
4.94365138993238,814,508,-306,-661,560,101
4.94579800364924,815,509,-306,-662,560.5,101.5
4.9479446173661,817,509,-308,-663,562.5,100.5
4.95009123108297,819,509,-310,-664,564.5,99.5
4.95223784479983,820,509,-311,-664.5,565.5,99
4.95438445851669,820,508,-312,-664,566,98
4.95653107223355,819,509,-310,-664,564.5,99.5
4.95867768595041,821,509,-312,-665,566.5,98.5
4.96082429966727,823,509,-314,-666,568.5,97.5
4.96297091338414,825,509,-316,-667,570.5,96.5
4.965117527101,828,509,-319,-668.5,573.5,95
4.96726414081786,828,509,-319,-668.5,573.5,95
4.96941075453472,830,509,-321,-669.5,575.5,94
4.97155736825158,830,509,-321,-669.5,575.5,94
4.97370398196844,832,509,-323,-670.5,577.5,93
4.97585059568531,832,508,-324,-670,578,92
4.97799720940217,833,509,-324,-671,578.5,92.5
4.98014382311903,833,509,-324,-671,578.5,92.5
4.98229043683589,832,508,-324,-670,578,92
4.98443705055275,832,509,-323,-670.5,577.5,93
4.98658366426961,831,509,-322,-670,576.5,93.5
4.98873027798648,831,509,-322,-670,576.5,93.5
4.99087689170334,830,508,-322,-669,576,93
4.9930235054202,832,508,-324,-670,578,92
4.99517011913706,832,508,-324,-670,578,92
4.99731673285392,834,509,-325,-671.5,579.5,92
4.99946334657078,834,509,-325,-671.5,579.5,92
5.00160996028765,832,509,-323,-670.5,577.5,93
5.00375657400451,833,509,-324,-671,578.5,92.5
5.00590318772137,833,509,-324,-671,578.5,92.5
5.00804980143823,835,509,-326,-672,580.5,91.5
5.01019641515509,834,509,-325,-671.5,579.5,92
5.01234302887195,834,509,-325,-671.5,579.5,92
5.01448964258882,834,509,-325,-671.5,579.5,92
5.01663625630568,833,509,-324,-671,578.5,92.5
5.01878287002254,830,509,-321,-669.5,575.5,94
5.0209294837394,828,509,-319,-668.5,573.5,95
5.02307609745626,827,509,-318,-668,572.5,95.5
5.02522271117312,829,509,-320,-669,574.5,94.5
5.02736932488999,828,509,-319,-668.5,573.5,95
5.02951593860685,828,509,-319,-668.5,573.5,95
5.03166255232371,830,509,-321,-669.5,575.5,94
5.03380916604057,829,509,-320,-669,574.5,94.5
5.03595577975743,827,509,-318,-668,572.5,95.5
5.03810239347429,825,509,-316,-667,570.5,96.5
5.04024900719116,822,508,-314,-665,568,97
5.04239562090802,820,508,-312,-664,566,98
5.04454223462488,824,509,-315,-666.5,569.5,97
5.04668884834174,825,509,-316,-667,570.5,96.5
5.0488354620586,824,509,-315,-666.5,569.5,97
5.05098207577546,822,509,-313,-665.5,567.5,98
5.05312868949233,819,509,-310,-664,564.5,99.5
5.05527530320919,817,509,-308,-663,562.5,100.5
5.05742191692605,818,509,-309,-663.5,563.5,100
5.05956853064291,817,509,-308,-663,562.5,100.5
5.06171514435977,817,509,-308,-663,562.5,100.5
5.06386175807663,817,508,-309,-662.5,563,99.5
5.0660083717935,818,509,-309,-663.5,563.5,100
5.06815498551036,817,509,-308,-663,562.5,100.5
5.07030159922722,817,509,-308,-663,562.5,100.5
5.07244821294408,817,509,-308,-663,562.5,100.5
5.07459482666094,814,508,-306,-661,560,101
5.0767414403778,809,509,-300,-659,554.5,104.5
5.07888805409467,806,509,-297,-657.5,551.5,106
5.08103466781153,803,509,-294,-656,548.5,107.5
5.08318128152839,802,509,-293,-655.5,547.5,108
5.08532789524525,803,509,-294,-656,548.5,107.5
5.08747450896211,800,509,-291,-654.5,545.5,109
5.08962112267897,798,509,-289,-653.5,543.5,110
5.09176773639583,797,509,-288,-653,542.5,110.5
5.0939143501127,799,509,-290,-654,544.5,109.5
5.09606096382956,800,509,-291,-654.5,545.5,109
5.09820757754642,802,509,-293,-655.5,547.5,108
5.10035419126328,803,509,-294,-656,548.5,107.5
5.10250080498014,805,509,-296,-657,550.5,106.5
5.10464741869701,806,509,-297,-657.5,551.5,106
5.10679403241387,807,509,-298,-658,552.5,105.5
5.10894064613073,808,509,-299,-658.5,553.5,105
5.11108725984759,806,508,-298,-657,552,105
5.11323387356445,805,509,-296,-657,550.5,106.5
5.11538048728131,803,509,-294,-656,548.5,107.5
5.11752710099818,802,509,-293,-655.5,547.5,108
5.11967371471504,804,508,-296,-656,550,106
5.1218203284319,800,509,-291,-654.5,545.5,109
5.12396694214876,799,509,-290,-654,544.5,109.5
5.12611355586562,799,509,-290,-654,544.5,109.5
5.12826016958248,798,509,-289,-653.5,543.5,110
5.13040678329935,799,509,-290,-654,544.5,109.5
5.13255339701621,802,509,-293,-655.5,547.5,108
5.13470001073307,807,509,-298,-658,552.5,105.5
5.13684662444993,806,509,-297,-657.5,551.5,106
5.13899323816679,810,508,-302,-659,556,103
5.14113985188365,810,509,-301,-659.5,555.5,104
5.14328646560052,809,509,-300,-659,554.5,104.5
5.14543307931738,809,509,-300,-659,554.5,104.5
5.14757969303424,808,509,-299,-658.5,553.5,105
5.1497263067511,808,509,-299,-658.5,553.5,105
5.15187292046796,809,509,-300,-659,554.5,104.5
5.15401953418482,807,509,-298,-658,552.5,105.5
5.15616614790168,807,509,-298,-658,552.5,105.5
5.15831276161855,808,509,-299,-658.5,553.5,105
5.16045937533541,808,509,-299,-658.5,553.5,105
5.16260598905227,810,509,-301,-659.5,555.5,104
5.16475260276913,813,509,-304,-661,558.5,102.5
5.16689921648599,813,509,-304,-661,558.5,102.5
5.16904583020285,815,509,-306,-662,560.5,101.5
5.17119244391972,813,509,-304,-661,558.5,102.5
5.17333905763658,811,509,-302,-660,556.5,103.5
5.17548567135344,810,509,-301,-659.5,555.5,104
5.1776322850703,809,509,-300,-659,554.5,104.5
5.17977889878716,808,509,-299,-658.5,553.5,105
5.18192551250402,808,509,-299,-658.5,553.5,105
5.18407212622089,808,509,-299,-658.5,553.5,105
5.18621873993775,809,509,-300,-659,554.5,104.5
5.18836535365461,808,509,-299,-658.5,553.5,105
5.19051196737147,807,509,-298,-658,552.5,105.5
5.19265858108833,809,509,-300,-659,554.5,104.5
5.19480519480519,809,509,-300,-659,554.5,104.5
5.19695180852206,811,509,-302,-660,556.5,103.5
5.19909842223892,812,508,-304,-660,558,102
5.20124503595578,816,509,-307,-662.5,561.5,101
5.20339164967264,818,509,-309,-663.5,563.5,100
5.2055382633895,820,509,-311,-664.5,565.5,99
5.20768487710636,817,509,-308,-663,562.5,100.5
5.20983149082323,818,509,-309,-663.5,563.5,100
5.21197810454009,818,508,-310,-663,564,99
5.21412471825695,819,509,-310,-664,564.5,99.5
5.21627133197381,819,509,-310,-664,564.5,99.5
5.21841794569067,821,509,-312,-665,566.5,98.5
5.22056455940753,820,509,-311,-664.5,565.5,99
5.2227111731244,820,509,-311,-664.5,565.5,99
5.22485778684126,819,509,-310,-664,564.5,99.5
5.22700440055812,819,509,-310,-664,564.5,99.5
5.22915101427498,822,509,-313,-665.5,567.5,98
5.23129762799184,823,509,-314,-666,568.5,97.5
5.2334442417087,824,509,-315,-666.5,569.5,97
5.23559085542557,826,509,-317,-667.5,571.5,96
5.23773746914243,826,509,-317,-667.5,571.5,96
5.23988408285929,826,509,-317,-667.5,571.5,96
5.24203069657615,824,509,-315,-666.5,569.5,97
5.24417731029301,823,509,-314,-666,568.5,97.5
5.24632392400987,823,509,-314,-666,568.5,97.5
5.24847053772674,820,509,-311,-664.5,565.5,99
5.2506171514436,821,509,-312,-665,566.5,98.5
5.25276376516046,822,509,-313,-665.5,567.5,98
5.25491037887732,825,508,-317,-666.5,571,95.5
5.25705699259418,826,509,-317,-667.5,571.5,96
5.25920360631104,828,509,-319,-668.5,573.5,95
5.26135022002791,832,509,-323,-670.5,577.5,93
5.26349683374477,840,509,-331,-674.5,585.5,89
5.26564344746163,848,509,-339,-678.5,593.5,85
5.26779006117849,851,509,-342,-680,596.5,83.5
5.26993667489535,855,509,-346,-682,600.5,81.5
5.27208328861221,859,509,-350,-684,604.5,79.5
5.27422990232908,865,509,-356,-687,610.5,76.5
5.27637651604594,870,509,-361,-689.5,615.5,74
5.2785231297628,879,509,-370,-694,624.5,69.5
5.28066974347966,884,509,-375,-696.5,629.5,67
5.28281635719652,881,509,-372,-695,626.5,68.5
5.28496297091338,878,509,-369,-693.5,623.5,70
5.28710958463025,866,509,-357,-687.5,611.5,76
5.28925619834711,860,509,-351,-684.5,605.5,79
5.29140281206397,856,509,-347,-682.5,601.5,81
5.29354942578083,850,508,-342,-679,596,83
5.29569603949769,843,509,-334,-676,588.5,87.5
5.29784265321455,835,509,-326,-672,580.5,91.5
5.29998926693142,828,509,-319,-668.5,573.5,95
5.30213588064828,826,509,-317,-667.5,571.5,96
5.30428249436514,827,509,-318,-668,572.5,95.5
5.306429108082,827,509,-318,-668,572.5,95.5
5.30857572179886,827,509,-318,-668,572.5,95.5
5.31072233551572,829,509,-320,-669,574.5,94.5
5.31286894923258,833,509,-324,-671,578.5,92.5
5.31501556294945,835,509,-326,-672,580.5,91.5
5.31716217666631,836,509,-327,-672.5,581.5,91
5.31930879038317,836,509,-327,-672.5,581.5,91
5.32145540410003,835,509,-326,-672,580.5,91.5
5.32360201781689,833,509,-324,-671,578.5,92.5
5.32574863153375,833,509,-324,-671,578.5,92.5
5.32789524525062,832,509,-323,-670.5,577.5,93
5.33004185896748,832,509,-323,-670.5,577.5,93
5.33218847268434,834,509,-325,-671.5,579.5,92
5.3343350864012,835,509,-326,-672,580.5,91.5
5.33648170011806,836,509,-327,-672.5,581.5,91
5.33862831383493,838,509,-329,-673.5,583.5,90
5.34077492755179,837,509,-328,-673,582.5,90.5
5.34292154126865,838,509,-329,-673.5,583.5,90
5.34506815498551,839,509,-330,-674,584.5,89.5
5.34721476870237,842,509,-333,-675.5,587.5,88
5.34936138241923,842,509,-333,-675.5,587.5,88
5.3515079961361,842,509,-333,-675.5,587.5,88
5.35365460985296,843,509,-334,-676,588.5,87.5
5.35580122356982,841,509,-332,-675,586.5,88.5
5.35794783728668,841,509,-332,-675,586.5,88.5
5.36009445100354,841,509,-332,-675,586.5,88.5
5.3622410647204,841,509,-332,-675,586.5,88.5
5.36438767843727,841,509,-332,-675,586.5,88.5
5.36653429215413,841,509,-332,-675,586.5,88.5
5.36868090587099,843,509,-334,-676,588.5,87.5
5.37082751958785,845,509,-336,-677,590.5,86.5
5.37297413330471,845,509,-336,-677,590.5,86.5
5.37512074702157,845,509,-336,-677,590.5,86.5
5.37726736073843,843,509,-334,-676,588.5,87.5
5.3794139744553,842,509,-333,-675.5,587.5,88
5.38156058817216,840,509,-331,-674.5,585.5,89
5.38370720188902,839,509,-330,-674,584.5,89.5
5.38585381560588,841,509,-332,-675,586.5,88.5
5.38800042932274,842,509,-333,-675.5,587.5,88
5.3901470430396,844,509,-335,-676.5,589.5,87
5.39229365675647,843,509,-334,-676,588.5,87.5
5.39444027047333,843,509,-334,-676,588.5,87.5
5.39658688419019,843,509,-334,-676,588.5,87.5
5.39873349790705,842,509,-333,-675.5,587.5,88
5.40088011162391,843,509,-334,-676,588.5,87.5
5.40302672534077,844,509,-335,-676.5,589.5,87
5.40517333905764,843,509,-334,-676,588.5,87.5
5.4073199527745,843,508,-335,-675.5,589,86.5
5.40946656649136,843,509,-334,-676,588.5,87.5
5.41161318020822,844,509,-335,-676.5,589.5,87
5.41375979392508,843,509,-334,-676,588.5,87.5
5.41590640764194,843,508,-335,-675.5,589,86.5
5.41805302135881,843,509,-334,-676,588.5,87.5
5.42019963507567,843,509,-334,-676,588.5,87.5
5.42234624879253,843,509,-334,-676,588.5,87.5
5.42449286250939,843,509,-334,-676,588.5,87.5
5.42663947622625,844,509,-335,-676.5,589.5,87
5.42878608994311,844,509,-335,-676.5,589.5,87
5.43093270365998,843,509,-334,-676,588.5,87.5
5.43307931737684,843,509,-334,-676,588.5,87.5
5.4352259310937,843,509,-334,-676,588.5,87.5
5.43737254481056,844,509,-335,-676.5,589.5,87
5.43951915852742,846,509,-337,-677.5,591.5,86
5.44166577224428,848,509,-339,-678.5,593.5,85
5.44381238596115,845,509,-336,-677,590.5,86.5
5.44595899967801,845,509,-336,-677,590.5,86.5
5.44810561339487,846,509,-337,-677.5,591.5,86
5.45025222711173,847,509,-338,-678,592.5,85.5
5.45239884082859,847,509,-338,-678,592.5,85.5
5.45454545454545,847,508,-339,-677.5,593,84.5
5.45669206826232,846,508,-338,-677,592,85
5.45883868197918,846,509,-337,-677.5,591.5,86
5.46098529569604,847,509,-338,-678,592.5,85.5
5.4631319094129,846,508,-338,-677,592,85
5.46527852312976,845,509,-336,-677,590.5,86.5
5.46742513684662,847,509,-338,-678,592.5,85.5
5.46957175056349,849,509,-340,-679,594.5,84.5
5.47171836428035,849,509,-340,-679,594.5,84.5
5.47386497799721,848,509,-339,-678.5,593.5,85
5.47601159171407,851,509,-342,-680,596.5,83.5
5.47815820543093,847,509,-338,-678,592.5,85.5
5.48030481914779,849,509,-340,-679,594.5,84.5
5.48245143286466,849,509,-340,-679,594.5,84.5
5.48459804658152,848,509,-339,-678.5,593.5,85
5.48674466029838,849,509,-340,-679,594.5,84.5
5.48889127401524,849,509,-340,-679,594.5,84.5
5.4910378877321,849,509,-340,-679,594.5,84.5
5.49318450144896,849,509,-340,-679,594.5,84.5
5.49533111516583,850,509,-341,-679.5,595.5,84
5.49747772888269,849,509,-340,-679,594.5,84.5
5.49962434259955,851,509,-342,-680,596.5,83.5
5.50177095631641,849,509,-340,-679,594.5,84.5
5.50391757003327,851,509,-342,-680,596.5,83.5
5.50606418375013,850,509,-341,-679.5,595.5,84
5.508210797467,852,509,-343,-680.5,597.5,83
5.51035741118386,850,509,-341,-679.5,595.5,84
5.51250402490072,852,509,-343,-680.5,597.5,83
5.51465063861758,850,508,-342,-679,596,83
5.51679725233444,850,509,-341,-679.5,595.5,84
5.5189438660513,851,509,-342,-680,596.5,83.5
5.52109047976817,851,509,-342,-680,596.5,83.5
5.52323709348503,850,508,-342,-679,596,83
5.52538370720189,851,509,-342,-680,596.5,83.5
5.52753032091875,850,509,-341,-679.5,595.5,84
5.52967693463561,854,509,-345,-681.5,599.5,82
5.53182354835247,852,509,-343,-680.5,597.5,83
5.53397016206934,850,508,-342,-679,596,83
5.5361167757862,851,509,-342,-680,596.5,83.5
5.53826338950306,851,509,-342,-680,596.5,83.5
5.54041000321992,852,509,-343,-680.5,597.5,83
5.54255661693678,850,509,-341,-679.5,595.5,84
5.54470323065364,851,508,-343,-679.5,597,82.5
5.5468498443705,849,509,-340,-679,594.5,84.5
5.54899645808737,848,509,-339,-678.5,593.5,85
5.55114307180423,850,508,-342,-679,596,83
5.55328968552109,849,509,-340,-679,594.5,84.5
5.55543629923795,848,509,-339,-678.5,593.5,85
5.55758291295481,848,509,-339,-678.5,593.5,85
