t,leadI,leadII,leadIII,aVR,aVL,aVF
0,853,239,-614,-546,733.5,-187.5
0.00216333153055706,851,296,-555,-573.5,703,-129.5
0.00432666306111412,843.815074352021,319.848721513746,-523.966352838274,-581.831897932884,683.890713595148,-102.058815662264
0.00648999459167117,841.639077771858,343.57562193468,-498.063455837177,-592.607349853269,669.851266804517,-77.2439169512484
0.00865332612222823,851.407831779623,363.908326435012,-487.499505344611,-607.658079107317,669.453668562117,-61.7955894547994
0.0108166576527853,863.287628399741,359.725673985422,-503.561954414319,-611.506651192582,683.42479140703,-71.9181402144483
0.0129799891833423,857.835083454355,326.14425807393,-531.690825380424,-591.989670764142,694.762954417389,-102.773283653247
0.0151433207138994,846.951977152172,307.54587306682,-539.406104085351,-577.248925109496,693.179040618762,-115.930115509266
0.0173066522444565,845.240780559574,300.159095012203,-545.08168554737,-572.699937785888,695.161233053472,-122.461295267584
0.0194699837750135,841.118880698144,297.955298201759,-543.163582496385,-569.537089449951,692.141231597264,-122.604142147313
0.0216333153055706,833.039938159755,291.473493074555,-541.5664450852,-562.256715617155,687.303191622477,-125.046476005322
0.0237966468361276,833.860549937651,286.620679860045,-547.239870077607,-560.240614898848,690.550210007629,-130.309595108781
0.0259599783666847,844.061675148789,298.366939004374,-545.694736144415,-571.214307076582,694.878205646602,-123.66389857002
0.0281233098972418,853.66181013632,311.199004626357,-542.462805509963,-582.430407381338,698.062307823142,-115.631900441803
0.0302866414277988,843.275286409324,321.512607079389,-521.762679329936,-582.393946744357,682.51898286963,-100.125036125274
0.0324499729583559,836.451045908434,327.941722817028,-508.509323091406,-582.196384362731,672.48018449992,-90.2838001371894
0.0346133044889129,834.628555519977,320.580178429764,-514.048377090213,-577.604366974871,674.338466305095,-96.7340993302242
0.03677663601947,829.574707523023,309.771491535823,-519.8032159872,-569.673099529423,674.688961755112,-105.015862225688
0.038939967550027,824.003046786052,291.242469817037,-532.760576969015,-557.622758301545,678.381811877533,-120.759053575989
0.0411032990805841,827.297875785149,274.795485209532,-552.502390575617,-551.046680497341,689.900133180383,-138.853452683043
0.0432666306111412,841.951955449927,282.570032772397,-559.38192267753,-562.260994111162,700.666939063729,-138.405944952566
0.0454299621416982,844.363118395951,294.636463353175,-549.726655042777,-569.499790874563,697.044886719364,-127.545095844801
0.0475932936722553,833.872533961454,306.400974195586,-527.471559765867,-570.13675407852,680.672046863661,-110.535292785141
0.0497566252028123,829.964722393943,310.941752117916,-519.022970276028,-570.453237255929,674.493846334985,-104.040609079056
0.0519199567333694,829.758572952751,308.609682475013,-521.148890477737,-569.184127713882,675.453731715244,-106.269604001362
0.0540832882639264,825.652603271821,294.877446982218,-530.775156289602,-560.265025127019,678.213879780712,-117.948854653692
0.0562466197944835,820.077697365567,291.118109009411,-528.959588356156,-555.597903187489,674.518642860862,-118.920739673373
0.0584099513250406,829.531634159114,299.177081295793,-530.354552863321,-564.354357727453,679.943093511217,-115.588735783764
0.0605732828555976,839.582869261875,303.519361630551,-536.063507631324,-571.551115446213,687.8231884466,-116.272073000387
0.0627366143861547,837.844629719992,305.761036166534,-532.083593553458,-571.802832943263,684.964111636725,-113.161278693462
0.0648999459167117,828.191465690527,300.45141697642,-527.740048714107,-564.321441333473,677.965757202317,-113.644315868844
0.0670632774472688,828.233933116934,297.167704831926,-531.066228285007,-562.70081897443,679.65008070097,-116.94926172654
0.0692266089778259,825.276767671152,297.56161472404,-527.715152947112,-561.419191197596,676.495960309132,-115.076769111536
0.0713899405083829,819.693562535842,290.275596148444,-529.417966387398,-554.984579342143,674.55576446162,-119.571185119477
0.07355327203894,820.496086829713,271.612568335256,-548.883518494457,-546.054327582485,684.689802662085,-138.635475079601
0.075716603569497,833.996360148289,283.604259975278,-550.392100173012,-558.800310061784,692.19423016065,-133.393920098867
0.0778799351000541,842.59264822753,303.6481418596,-538.94450636793,-573.120395043565,690.76857729773,-117.648182254165
0.0800432666306111,838.552556489605,317.429167873721,-521.123388615883,-577.990862181663,679.837972552744,-101.847110371081
0.0822065981611682,829.457453909333,322.820979102165,-506.636474807167,-576.139216505749,668.04696435825,-91.9077478525011
0.0843699296917253,829.87925248228,328.672234038039,-501.207018444241,-579.27574326016,665.543135463261,-86.2673922031009
0.0865332612222823,828.20312306224,331.479129775348,-496.723993286892,-579.841126418794,662.463558174566,-82.6224317557725
0.0886965927528394,823.268430916027,308.674252369705,-514.594178546322,-565.971341642866,668.931304731174,-102.959963088309
0.0908599242833964,824.208488804936,299.394186754653,-524.814302050283,-561.801337779795,674.51139542761,-112.710057647815
0.0930232558139535,841.038730884714,295.063175229183,-545.97555565553,-568.050953056948,693.507143270122,-125.456190213174
0.0951865873445105,843.927651084672,314.672319292384,-529.255331792288,-579.299985188528,686.59149143848,-107.291506249952
0.0973499188750676,835.182393950259,302.480989750657,-532.701404199602,-568.831691850458,683.94189907493,-115.110207224472
0.0995132504056247,829.842874323548,307.857182749061,-521.985691574487,-568.850028536304,675.914282949018,-107.064254412713
0.101676581936182,832.403355175475,306.794298202749,-525.609056972726,-569.598826689112,679.006206074101,-109.407379384988
0.103839913466739,829.47670991174,291.535423741123,-537.941286170617,-560.506066826432,683.708998041179,-123.202931214747
0.106003244997296,826.706536038133,287.412630090392,-539.293905947741,-557.059583064262,683.000220992937,-125.940637928675
0.108166576527853,835.923320995465,283.649835686858,-552.273485308606,-559.786578341162,694.098403152036,-134.311824810874
0.11032990805841,848.074564306037,280.932027270631,-567.142537035406,-564.503295788334,707.608550670721,-143.105254882387
0.112493239588967,847.865545761434,267.831419226151,-580.034126535284,-557.848482493793,713.949836148359,-156.101353654566
0.114656571119524,836.327911158271,270.792562700308,-565.535348457963,-553.56023692929,700.931629808117,-147.371392878827
0.116819902650081,835.136331054448,275.040881810188,-560.09544924426,-555.088606432318,697.615890149354,-142.527283717036
0.118983234180638,836.440260723732,289.421003786315,-547.019256937417,-562.930632255023,691.729758830574,-128.799126575551
0.121146565711195,828.499590916891,295.342578007575,-533.157012909316,-561.921084462233,680.828301913104,-118.907217450871
0.123309897241752,826.409382844595,296.262281504518,-530.147101340077,-561.335832174557,678.278242092336,-116.942409917779
0.125473228772309,837.136690861538,293.129414443647,-544.007276417891,-565.133052652593,690.571983639714,-125.438930987122
0.127636560302866,848.570409030996,288.898575201086,-559.67183382991,-568.734492116041,704.121121430453,-135.386629314412
0.129799891833423,844.820019403407,287.32562731406,-557.494392089348,-566.072823358734,701.157205746377,-135.084382387644
0.131963223363981,836.4290735661,288.311581683749,-548.117491882351,-562.370327624925,692.273282724225,-129.902955099301
0.134126554894538,836.960968429865,291.233597634812,-545.727370795053,-564.097283032339,691.344169612459,-127.24688658012
0.136289886425095,837.714815164528,297.941606413289,-539.773208751239,-567.828210788908,688.744011957883,-120.915801168975
0.138453217955652,832.705325240076,306.435242093505,-526.270083146571,-569.57028366679,679.487704193324,-109.917420526533
0.140616549486209,832.400981802975,305.837271069797,-526.563710733178,-569.119126436386,679.482346268077,-110.36321983169
0.142779881016766,845.223990915852,301.765747012241,-543.458243903611,-573.494868964047,694.341117409732,-120.846248445685
0.144943212547323,851.488545417136,289.248167910626,-562.240377506511,-570.368356663881,706.864461461823,-136.496104797942
0.14710654407788,843.539647536301,271.507579377078,-572.032068159222,-557.52361345669,707.785857847762,-150.262244391072
0.149269875608437,838.663847037321,269.113814564059,-569.550032473262,-553.88883080069,704.106939755291,-150.218108954602
0.151433207138994,838.808732904153,280.160830095214,-558.647902808939,-559.484781499684,698.728317856546,-139.243536356862
0.153596538669551,838.219761957248,289.897478466127,-548.322283491121,-564.058620211688,693.271022724185,-129.212402512497
0.155759870200108,829.585097227744,284.732440133297,-544.852657094447,-557.158768680521,687.218877161096,-130.060108480575
0.157923201730665,834.561879784892,283.028293732195,-551.533586052698,-558.795086758544,693.047732918795,-134.252646160251
0.160086533261222,847.507507108051,288.140864513998,-559.366642594053,-567.824185811024,703.437074851052,-135.612889040028
0.162249864791779,849.861669530436,294.954727009992,-554.906942520444,-572.408198270214,702.38430602544,-129.976107755226
0.164413196322336,839.593678557944,298.532287153197,-541.061391404747,-569.062982855571,690.327534981346,-121.264552125775
0.166576527852893,837.903123760198,291.993153722146,-545.909970038053,-564.948138741172,691.906546899125,-126.958408157953
0.168739859383451,842.209046888815,292.211822447021,-549.997224441795,-567.210434667918,696.103135665305,-128.892700997387
0.170903190914008,836.204538529861,287.242988037869,-548.961550491993,-561.723763283865,692.583044510927,-130.859281227062
0.173066522444565,830.569800969144,286.916806520483,-543.652994448661,-558.743303744814,687.111397708902,-128.368093964089
0.175229853975122,838.444220715514,290.566007264782,-547.878213450732,-564.505113990148,693.161217083123,-128.656103092975
0.177393185505679,849.525342478299,297.934657451462,-551.590685026837,-573.72999996488,700.558013752568,-126.828013787688
0.179556517036236,847.195551980387,292.908122351098,-554.287429629289,-570.051837165742,700.741490804838,-130.689653639095
0.181719848566793,837.522957701847,285.601854905697,-551.92110279615,-561.562406303772,694.722030248998,-133.159623945227
0.18388318009735,837.796647488387,285.11913218125,-552.677515307137,-561.457889834818,695.237081397762,-133.779191562943
0.186046511627907,838.832347107119,287.993225866538,-550.839121240581,-563.412786486828,694.83573417385,-131.422947687022
0.188209843158464,833.164861633071,300.62155392965,-532.543307703421,-566.89320778136,682.854084668246,-115.960876886886
0.190373174689021,832.886196104889,311.486087454219,-521.400108650669,-572.186141779554,677.143152377779,-104.957010598225
0.192536506219578,844.459538523671,320.198129194887,-524.261409328784,-582.328833859279,684.360473926227,-102.031640066948
0.194699837750135,850.951603832159,316.272633887878,-534.678969944282,-583.612118860019,692.81528688822,-109.203168028202
0.196863169280692,845.004149626368,306.698292374902,-538.305857251466,-575.851221000635,691.655003438917,-115.803782438282
0.199026500811249,837.521251548708,299.027458373409,-538.493793175299,-568.274354961059,688.007522362004,-119.733167400945
0.201189832341806,838.881851045897,294.432120198231,-544.449730847666,-566.656985622064,691.665790946782,-125.008805324718
0.203353163872363,837.668743468546,288.73267251149,-548.936070957057,-563.200707990018,693.302407212801,-130.101699222783
0.20551649540292,832.638614557595,291.351285737802,-541.287328819793,-561.994950147698,686.962971688694,-124.968021540996
0.207679826933478,833.450125525145,301.63978340952,-531.810342115626,-567.544954467333,682.630233820385,-115.085279353053
0.209843158464035,847.940310276478,313.402401048535,-534.537909227942,-580.671355662506,691.23910975221,-110.567754089703
0.212006489994592,850.81098757919,307.544132257362,-543.266855321828,-579.177559918276,697.038921450509,-117.861361532233
0.214169821525149,843.956104006762,296.294569302434,-547.661534704327,-570.125336654598,695.808819355545,-125.683482700947
0.216333153055706,840.603140108342,296.900502144051,-543.702637964291,-568.751821126197,692.152889036316,-123.40106791012
0.218496484586263,843.68489032834,290.741889042988,-552.943001285352,-567.213389685664,698.313945806846,-131.100556121182
0.22065981611682,841.852087605458,288.316930868528,-553.53515673693,-565.084509236993,697.693622171194,-132.609112934201
0.222823147647377,835.012647882839,280.394409237059,-554.61823864578,-557.703528559949,694.815443264309,-137.11191470436
0.224986479177934,842.92017888409,290.971389991028,-551.948788893063,-566.945784437559,697.434483888576,-130.488699451018
0.227149810708491,856.37826622377,301.077861007841,-555.300405215929,-578.728063615805,705.839335719849,-127.111272104044
0.229313142239048,853.482911258282,302.440835404034,-551.042075854248,-577.961873331158,702.262493556265,-124.300620225107
0.231476473769605,844.628492438769,302.274629688631,-542.353862750138,-573.4515610637,693.491177594454,-120.039616530754
0.233639805300162,844.514819489377,306.175348561793,-538.339470927583,-575.345084025585,691.42714520848,-116.082061182895
0.235803136830719,844.801735971589,294.937137483576,-549.864598488012,-569.869436727583,697.333167229801,-127.463730502218
0.237966468361276,838.765294192694,288.820377641104,-549.94491655159,-563.792835916899,694.355105372142,-130.562269455243
0.240129799891833,835.679731719071,284.787097748887,-550.892633970184,-560.233414733979,693.286182844628,-133.052768110649
0.24229313142239,844.771582326152,296.310533955213,-548.461048370939,-570.541058140682,696.616315348546,-126.075257207863
0.244456462952948,853.279658903185,306.261252272215,-547.01840663097,-579.7704555877,700.149032767078,-120.378577179377
0.246619794483505,849.43980626488,304.150366714302,-545.289439550578,-576.795086489591,697.364622907729,-120.569536418138
0.248783126014062,843.384394821965,303.707589017327,-539.676805804637,-573.545991919646,691.530600313301,-117.984608393655
0.250946457544619,847.790045871751,303.700392954887,-544.089652916864,-575.745219413319,695.939849394307,-120.194629980988
0.253109789075176,846.994238161437,297.870475170221,-549.123762991216,-572.432356665829,698.059000576326,-125.626643910497
0.255273120605733,842.841053140646,289.353486750403,-553.487566390243,-566.097269945524,698.164309765445,-132.06703981992
0.25743645213629,841.57215753328,285.525093338333,-556.047064194948,-563.548625435807,698.809610864114,-135.260985428308
0.259599783666847,854.416493612284,294.478345475023,-559.93814813726,-574.447419543653,707.177320874772,-132.729901331119
0.261763115197404,857.745720297543,303.885432223869,-553.860288073674,-580.815576260706,705.803004185609,-124.987427924902
0.263926446727961,848.40570264,304.960191272651,-543.44551136735,-576.682946956326,695.925607003675,-119.242660047349
0.266089778258518,846.283372814758,307.676085044112,-538.607287770645,-576.979728929435,692.445330292702,-115.465601363267
0.268253109789075,849.898184283242,301.219049428905,-548.679134854337,-575.558616856073,699.288659568789,-123.730042712716
0.270416441319632,845.3574362259,293.463269102817,-551.894167123082,-569.410352664358,698.625801674491,-129.215449010133
0.272579772850189,837.682080904486,285.078389940484,-552.603690964003,-561.380235422485,695.142885934245,-133.76265051176
0.274743104380746,842.586945884336,283.547045004742,-559.039900879595,-563.066995444539,700.813423381966,-137.746427937427
0.276906435911303,853.158080337873,293.264742817643,-559.893337520229,-573.211411577758,706.525708929051,-133.314297351293
0.27906976744186,850.804252362307,294.025581045137,-556.77867131717,-572.414916703722,703.791461839739,-131.376545136017
0.281233098972418,841.931076763321,289.06355044724,-552.867526316081,-565.497313605281,697.399301539701,-131.90198793442
0.283396430502975,839.111377966455,274.046800529606,-565.064577436849,-556.579089248031,702.087977701652,-145.508888453621
0.285559762033532,841.33638276112,278.415836225609,-562.920546535511,-559.876109493365,702.128464648316,-142.252355154951
0.287723093564089,838.228167789534,263.831096033668,-574.397071755866,-551.029631911601,706.3126197727,-155.282987861099
0.289886425094646,831.699922891702,251.259688777722,-580.440234113981,-541.479805834712,706.070078502841,-164.590272668129
0.292049756625203,839.202394300477,242.627636614891,-596.574757685586,-540.915015457684,717.888575993031,-176.973560535348
0.29421308815576,847.546434262388,236.286400037464,-611.260034224924,-541.916417149926,729.403234243656,-187.48681709373
0.296376419686317,841.002824411602,240.032848754742,-600.96997565686,-540.517836583172,720.986400034231,-180.468563451059
0.298539751216874,832.433899927394,235.856675457323,-596.577224470071,-534.145287692358,714.505562198732,-180.360274506374
0.300703082747431,834.424229439196,243.394983733484,-591.029245705712,-538.90960658634,712.726737572454,-173.817130986114
0.302866414277988,834.868066291802,254.767710957435,-580.100355334367,-544.817888624619,707.484210813084,-162.666322188466
0.305029745808545,828.101167270169,246.694773842184,-581.406393427986,-537.397970556176,704.753780349078,-167.355809792901
0.307193077339102,827.015158701273,250.451771059157,-576.563387642116,-538.733464880215,701.789273171694,-163.055808291479
0.309356408869659,839.796407168144,231.790243442404,-608.00616372574,-535.793325305274,723.901285446942,-188.107960141668
0.311519740400216,845.421626857295,224.624380902387,-620.797245954908,-535.023003879841,733.109436406102,-198.086432526261
0.313683071930773,837.938042329715,227.616858612637,-610.321183717078,-532.777450471176,724.129613023396,-191.35216255222
0.31584640346133,833.027786511374,238.920470136996,-594.107316374378,-535.974128324185,713.567551442876,-177.593423118691
0.318009734991888,835.778742761875,255.479355382657,-580.299387379217,-545.629049072266,708.039065070546,-162.41001599828
0.320173066522445,832.624846288449,245.757162871924,-586.867683416526,-539.191004580186,709.746264852488,-170.555260272301
0.322336398053002,824.606071277364,227.779031247384,-596.82704002998,-526.192551262374,710.716555653672,-184.524004391298
0.324499729583559,825.497049448682,219.146175724758,-606.350873723924,-522.32161258672,715.923961586303,-193.602348999583
0.326663061114116,838.740459652977,216.912913773534,-621.827545879443,-527.826686713256,730.28400276621,-202.457316052954
0.328826392644673,842.895299551713,215.662103308717,-627.233196242996,-529.278701430215,735.064247897355,-205.78554646714
0.33098972417523,835.250354788872,217.200851812873,-618.049502975999,-526.225603300872,726.649928882436,-200.424325581563
0.333153055705787,834.671399727714,221.9914860145,-612.679913713213,-528.331442871107,723.675656720464,-195.344213849357
0.335316387236344,839.675096908901,224.187731682812,-615.487365226088,-531.931414295857,727.581231067495,-195.649816771638
0.337479718766901,833.69679723987,219.751963905207,-613.944833334663,-526.724380572539,723.820815287267,-197.096434714728
0.339643050297458,829.029717756473,222.61910565741,-606.410612099063,-525.824411706942,717.720164927768,-191.895753220826
0.341806381828015,834.756464783879,214.262384781835,-620.494080002044,-524.509424782857,727.625272392961,-203.115847610105
0.343969713358572,843.630513392819,213.717509859106,-629.913003533713,-528.674011625962,736.771758463266,-208.097746837303
0.346133044889129,842.44291289856,212.219325604896,-630.223587293665,-527.331119251728,736.333250096112,-209.002130844385
0.348296376419686,834.47285968462,220.677662330986,-613.795197353634,-527.575261007803,724.134028519127,-196.558767511324
0.350459707950243,836.013689909852,226.032855608069,-609.980834301782,-531.023272758961,722.997262105817,-191.973989346857
0.3526230394808,838.70659544019,220.833557915013,-617.873037525178,-529.770076677602,728.289816482684,-198.519739805082
0.354786371011358,832.500144937093,211.011446873696,-621.488698063397,-521.755795905395,726.994421500245,-205.23862559485
0.356949702541915,828.684071334511,219.95860017009,-608.725471164421,-524.3213357523,718.704771249466,-194.383435497166
0.359113034072472,836.287272401675,229.504513392937,-606.782759008738,-532.895892897306,721.535015705207,-188.639122807901
0.361276365603029,842.081282023464,234.054670158706,-608.026611864758,-538.067976091085,725.053946944111,-186.985970853026
0.363439697133586,833.533949108343,234.281034108575,-599.252914999768,-533.907491608459,716.393432054055,-182.485940445596
0.365603028664143,829.835424011038,219.091617404931,-610.743806606107,-524.463520707984,720.289615308572,-195.826094600588
0.3677663601947,834.506491556323,227.249914521015,-607.256577035308,-530.878203038669,720.881534295816,-190.003331257147
0.369929691725257,834.69683278379,229.722026284337,-604.974806499452,-532.209429534064,719.835819641621,-187.626390107558
0.372093023255814,828.547927217571,231.81210503125,-596.735822186321,-530.18001612441,712.641874701946,-182.461858577536
0.374256354786371,833.576059956498,235.748883692239,-597.82717626426,-534.662471824369,715.701618110379,-181.039146286011
0.376419686316928,844.487655413613,233.638860113051,-610.848795300562,-539.063257763332,727.668225357088,-188.604967593756
0.378583017847485,851.12390168333,236.886403163145,-614.237498520185,-544.005152423237,732.680700101757,-188.67554767852
0.380746349378042,850.71197652197,254.383064264366,-596.328912257603,-552.547520393168,723.520444389786,-170.972923996618
0.382909680908599,857.208851931584,260.930779130098,-596.278072801486,-559.069815530841,726.743462366535,-167.673646835694
0.385073012439156,869.865053146409,280.51849214279,-589.34656100362,-575.191772644599,729.605807075014,-154.414034430415
0.387236343969713,858.028158893011,293.143793417194,-564.884365475817,-575.585976155102,711.456262184414,-135.870286029311
0.38939967550027,851.338987276199,313.150570301152,-538.188416975048,-582.244778788675,694.763702125623,-112.518923336948
0.391563007030827,849.455904502975,337.76013244145,-511.695772061525,-593.608018472213,680.57583828225,-86.9678198100376
0.393726338561385,909.991922239682,373.39493978455,-536.596982455131,-641.693431012116,723.294452347407,-81.6010213352905
0.395889670091942,944.879726091904,392.654107015466,-552.225619076438,-668.766916553685,748.552672584171,-79.7857560304864
0.398053001622499,967.95158232803,400.81865651487,-567.13292581316,-684.38511942145,767.542254070595,-83.157134649145
0.400216333153056,967.65570976873,402.240778117073,-565.414931651657,-684.948243942902,766.535320710194,-81.5870767672919
0.402379664683613,903.6744003437,387.053782850384,-516.620617493315,-645.364091597042,710.147508918508,-64.7834173214655
0.40454299621417,854.196176199883,374.606957076072,-479.589219123811,-614.401566637978,666.892697661847,-52.4911310238692
0.406706327744727,850.246515352283,369.636797460386,-480.609717891897,-609.941656406334,665.42811662209,-55.4864602157556
0.408869659275284,864.641161749745,362.25171826325,-502.389443486495,-613.446440006497,683.51530261812,-70.0688626116223
0.411032990805841,865.714060579018,335.684967696936,-530.029092882082,-600.699514137977,697.87157673055,-97.1720625925731
0.413196322336398,849.910550968189,291.558533059402,-558.352017908787,-570.734542013795,704.131284438488,-133.396742424692
0.415359653866955,835.032800951893,249.921280998947,-585.111519952946,-542.47704097542,710.072160452419,-167.595119476999
0.417522985397512,833.572447873397,243.427847299891,-590.144600573506,-538.500147586644,711.858524223452,-173.358376636808
0.419686316928069,832.961249471022,240.523310814161,-592.437938656861,-536.742280142591,712.699594063941,-175.95731392135
0.421849648458626,828.053438240048,247.509065714332,-580.544372525715,-537.78125197719,704.298905382881,-166.517653405691
0.424012979989183,827.444687227875,253.580941276143,-573.863745951732,-540.512814252009,700.654216589803,-160.141402337794
0.42617631151974,840.486570013606,262.070273193979,-578.416296819627,-551.278421603792,709.451433416616,-158.173011812824
0.428339643050297,847.738355873551,279.522198276476,-568.216157597076,-563.630277075014,707.977256735314,-144.3469796603
0.430502974580855,844.974115940458,273.910925732795,-571.063190207662,-559.442520836627,708.01865307406,-148.576132237433
0.432666306111412,843.435486446907,276.66193340337,-566.773553043537,-560.048709925139,705.104519745222,-145.055809820083
0.434829637641969,848.483757385227,278.094463369052,-570.389294016175,-563.289110377139,709.436525700701,-146.147415323562
0.436992969172526,844.779806647122,276.550030136925,-568.229776510197,-560.664918392024,706.50479157866,-145.839873186636
0.439156300703083,835.394536230371,271.251713607345,-564.142822623026,-553.323124918858,699.768679426698,-146.445554507841
0.44131963223364,835.536070260581,271.431787746885,-564.104282513696,-553.483929003733,699.820176387138,-146.336247383405
0.443482963764197,843.786649211958,277.978697587749,-565.807951624209,-560.882673399853,704.797300418084,-143.91462701823
0.445646295294754,838.957678326233,277.944239659264,-561.013438666969,-558.450958992748,699.985558496601,-141.534599503852
0.447809626825311,830.975536849329,270.131603467821,-560.843933381508,-550.553570158575,695.909735115418,-145.356164956843
0.449972958355868,829.923523861505,258.981583173552,-570.941940687953,-544.452553517528,700.432732274729,-155.9801787572
0.452136289886425,837.470464865958,251.321732042496,-586.148732823462,-544.396098454227,711.80959884471,-167.413500390483
0.454299621416982,835.545679988393,251.020723967315,-584.524956021078,-543.283201977854,710.035318004736,-166.752116026881
0.456462952947539,828.594489317907,258.388569303091,-570.205920014816,-543.491529310499,699.400204666362,-155.908675355863
0.458626284478096,834.341064900169,270.458604936053,-563.882459964115,-552.399834918111,699.111762432142,-146.711927514031
0.460789616008653,841.989689448908,287.087301700053,-554.902387748855,-564.538495574481,698.446038598881,-133.907543024401
0.46295294753921,837.453004546728,289.545621726638,-547.90738282009,-563.499313136683,692.680193683409,-129.180880546726
0.465116279069767,831.939693231346,279.29102624231,-552.648666989036,-555.615359736828,692.294180110191,-136.678820373363
0.467279610600325,835.906480109812,265.647209278303,-570.259270831509,-550.776844694057,703.08287547066,-152.306030776603
0.469442942130882,840.549375033975,260.919832068388,-579.629542965587,-550.734603551182,710.089458999781,-159.3548554486
0.471606273661439,833.169523146768,254.960406323636,-578.209116823132,-544.064964735202,705.68931998495,-161.624355249748
0.473769605191996,830.041693127826,251.888917241991,-578.152775885835,-540.965305184909,704.097234506831,-163.131929321922
0.475932936722553,838.327312284721,243.243790139219,-595.083522145502,-540.78555121197,716.705417215112,-175.919866003142
0.47809626825311,841.896055285713,256.549734073813,-585.3463212119,-549.222894679763,713.621188248807,-164.398293569044
0.480259599783667,837.768695073782,260.378414508674,-577.390280565108,-549.073554791228,707.579487819445,-158.505933028217
0.482422931314224,836.066272517488,261.336089451797,-574.73018306569,-548.701180984643,705.398227791589,-156.697046806946
0.484586262844781,839.894499105191,255.297739355056,-584.596759750135,-547.596119230123,712.245629427663,-164.64951019754
0.486749594375338,841.550168069867,255.623589390472,-585.926578679395,-548.586878730169,713.738373374631,-165.151494644462
0.488912925905895,836.120595059923,245.341990666341,-590.778604393583,-540.731292863132,713.449599726753,-172.718306863621
0.491076257436452,835.672167207392,242.364836718894,-593.307330488498,-539.018501963143,714.489748847945,-175.471246884802
0.493239588967009,845.923951608602,244.906940139452,-601.017011469151,-545.415445874027,723.470481538877,-178.05503566485
0.495402920497566,846.562066469349,255.016895877302,-591.545170592047,-550.789481173325,719.053618530698,-168.264137357373
0.497566252028123,838.450731979896,256.624453695525,-581.826278284371,-547.537592837711,710.138505132134,-162.600912294423
0.49972958355868,839.252033517864,265.744486055537,-573.507547462327,-552.4982597867,706.379790490096,-153.881530703395
0.501892915089237,845.369955088995,272.820480244943,-572.549474844051,-559.095217666969,708.959714966523,-149.864497299554
0.504056246619795,842.667963194336,260.994529675487,-581.673433518848,-551.831246434912,712.170698356592,-160.33945192168
0.506219578150352,835.888415334515,252.846937302316,-583.041478032199,-544.367676318416,709.464946683357,-165.097270364941
0.508382909680909,840.219165347676,245.063926326746,-595.15523902093,-542.641545837211,717.687202184303,-175.045656347092
0.510546241211466,847.571020191767,261.500003781087,-586.07101641068,-554.535511986427,716.821018301223,-162.285506314797
0.512709572742023,844.274864814423,269.433125634064,-574.841739180359,-556.853995224244,709.558301997391,-152.704306773147
0.51487290427258,838.044164699219,273.218729938278,-564.82543476094,-555.631447318748,701.434799730079,-145.803352411331
0.517036235803137,841.162377464053,285.410828170796,-555.751549293257,-563.286602817425,698.456963378655,-135.17036056123
0.519199567333694,847.878483096694,289.091153735459,-558.787329361235,-568.484818416076,703.332906228965,-134.848087812888
0.521362898864251,840.27551163627,282.198210237522,-558.077301398748,-561.236860936896,699.176406517509,-137.939545580613
0.523526230394808,834.804248625135,277.647770382282,-557.156478242852,-556.226009503708,695.980363433993,-139.754353930285
0.525689561925365,844.176495636847,284.035401301414,-560.141094335433,-564.10594846913,702.15879498614,-138.05284651701
0.527852893455922,850.963826130825,292.901762766501,-558.062063364324,-571.932794448663,704.512944747575,-132.580150298911
0.530016224986479,845.563643953677,305.684357049611,-539.879286904066,-575.624000501644,692.721465428871,-117.097464927228
0.532179556517036,840.75630774917,312.081238534373,-528.675069214797,-576.418773141771,684.715688481983,-108.296915340212
0.534342888047593,846.293991275937,321.298446744446,-524.995544531491,-583.796219010191,685.644767903714,-101.848548893523
0.53650621957815,848.326669057569,323.14221967014,-525.184449387428,-585.734444363854,686.755559222499,-101.021114858644
0.538669551108707,842.036480002795,307.362065431967,-534.674414570828,-574.699272717381,688.355447286811,-113.656174569431
0.540832882639264,839.974306336968,289.922492060002,-550.051814276966,-564.948399198485,695.013060306967,-130.064661108482
0.542996214169822,849.950184343327,282.105295179928,-567.8448891634,-566.027739761627,708.897536753363,-142.869796991736
0.545159545700379,851.032916873226,270.9288262144,-580.104090658826,-560.980871543813,715.568503766026,-154.587632222213
0.547322877230936,844.052454904932,276.341594382959,-567.710860521972,-560.197024643945,705.881657713452,-145.684633069507
0.549486208761493,842.636743823609,281.627447734084,-561.009296089526,-562.132095778846,701.823019956567,-139.690924177721
0.55164954029205,850.070702790563,288.443308504602,-561.62739428596,-569.257005647583,705.849048538262,-136.592042890679
0.553812871822607,848.718917959889,290.790165522199,-557.92875243769,-569.754541741044,703.32383519879,-133.569293457745
0.555976203353164,841.383242645057,287.381754942948,-554.001487702109,-564.382498794003,697.692365173583,-133.309866379581
0.558139534883721,843.183154181803,285.684989646383,-557.49816453542,-564.434071914093,700.340659358611,-135.906587444519
0.560302866414278,853.982296350288,275.058825514201,-578.923470836087,-564.520560932244,716.452883593187,-151.932322660943
0.562466197944835,851.031356228387,275.664054112459,-575.367302115928,-563.347705170423,713.199329172157,-149.851624001735
0.564629529475392,845.278724428833,274.935987302381,-570.342737126452,-560.107355865607,707.810730777642,-147.703374912035
0.566792861005949,847.397085037452,287.095211643806,-560.301873393646,-567.246148340629,703.849479215549,-136.60333087492
0.568956192536506,855.038638859555,295.417601050589,-559.621037808966,-575.228119955072,707.32983833426,-132.101718379188
0.571119524067063,848.44110618258,298.622936630398,-549.818169552182,-573.532021406489,699.129637867381,-125.597616460892
0.57328285559762,842.787206317071,293.980829923923,-548.806376393148,-568.384018120497,695.796791355109,-127.412773234612
0.575446187128177,849.020410049202,301.857348847401,-547.163061201801,-575.438879448302,698.091735625502,-122.6528561772
0.577609518658734,856.864379206976,301.842976191645,-555.02140301533,-579.35367769931,705.942891111153,-126.589213411843
0.579772850189291,852.421286160907,295.047919692344,-557.373366468563,-573.734602926625,704.897326314735,-131.162723388109
0.581936181719849,846.592096735927,291.612327963259,-554.979768772669,-569.102212349593,700.785932754298,-131.683720404705
0.584099513250406,852.576626004099,297.63722545413,-554.93940054997,-575.106925729114,703.758013277035,-128.65108754792
0.586262844780963,854.910496763615,304.240922532828,-550.669574230787,-579.575709648221,702.790035497201,-123.21432584898
0.58842617631152,849.042714681916,302.751985717818,-546.290728964098,-575.897350199867,697.666721823007,-121.76937162314
0.590589507842077,846.446139918278,298.351623041491,-548.094516876788,-572.398881479884,697.270328397533,-124.871446917649
0.592752839372634,854.913094235891,288.130599034613,-566.782495201279,-571.521846635252,710.847794718585,-139.325948083333
0.594916170903191,858.407859536064,283.955554838054,-574.45230469801,-571.181707187059,716.430082117037,-145.248374929978
0.597079502433748,849.767460831997,280.366807436928,-569.40065339507,-565.067134134463,709.584057113534,-144.516922979071
0.599242833964305,849.108784270065,279.727695337926,-569.381088932139,-564.418239803996,709.244936601102,-144.826696797106
0.601406165494862,856.604920899655,291.887235917183,-564.717684982472,-574.246078408419,710.661302941063,-136.415224532644
0.603569497025419,856.655524635286,299.271808557669,-557.383716077618,-577.963666596477,707.019620356452,-129.055953759975
0.605732828555976,851.030790496801,300.808314719678,-550.222475777123,-575.919552608239,700.626633136962,-124.707080528723
0.607896160086533,851.253710418755,295.157167846669,-556.096542572085,-573.205439132712,703.67512649542,-130.469687362708
0.61005949161709,860.29388613925,303.405348716735,-556.888537422516,-581.849617427992,708.591211780883,-126.74159435289
0.612222823147647,859.791739154733,300.762817743505,-559.028921411228,-580.277278449119,709.410330282981,-129.133051833862
0.614386154678204,851.695270420649,293.600248362112,-558.095022058537,-572.647759391381,704.895146239593,-132.247386848212
0.616549486208761,854.638976197974,285.936747990132,-568.702228207842,-570.287862094053,711.670602202908,-141.382740108855
0.618712817739319,860.962154551272,290.086511626215,-570.875642925057,-575.524333088744,715.918898738164,-140.394565649421
0.620876149269876,857.550157482978,292.53635113095,-565.013806352028,-575.043254306964,711.281981917503,-136.238727610539
0.623039480800433,851.942173302376,301.717303460994,-550.224869841382,-576.829738381685,701.083521571879,-124.253783190194
0.62520281233099,856.898486572848,315.41408708783,-541.484399485019,-586.156286830339,699.191443028933,-113.035156198595
0.627366143861547,864.64596361432,321.03194897832,-543.614014636,-592.83895629632,704.12998912516,-111.29103282884
0.629529475392104,860.337466167953,315.6564409072,-544.681025260753,-587.996953537577,702.509245714353,-114.512292176777
0.631692806922661,852.596985970605,301.741647728917,-550.855338241688,-577.169316849761,701.726162106147,-124.556845256386
0.633856138453218,856.779585017646,295.429833474957,-561.349751542689,-576.104709246301,709.064668280168,-132.959959033866
0.636019469983775,860.285573738985,291.371213028947,-568.914360710038,-575.828393383966,714.599967224512,-138.771573840546
0.638182801514332,853.109163031844,289.173190250824,-563.93597278102,-571.141176641334,708.522567906432,-137.381391265098
0.640346133044889,848.114360368013,296.256367924696,-551.857992443317,-572.185364146355,699.986176405665,-127.800812259311
0.642509464575446,856.807335416252,303.582698052213,-553.224637364039,-580.195016734233,705.015986390145,-124.820969655913
0.644672796106003,859.614515354592,312.729847654729,-546.884667699863,-586.172181504661,703.249591527227,-117.077410022567
0.64683612763656,855.602120113076,314.194232607706,-541.407887505371,-584.898176360391,698.505003809224,-113.606827448833
0.648999459167117,851.706131918669,315.397763097342,-536.308368821327,-583.551947508006,694.007250369998,-110.455302861993
0.651162790697674,855.975026371397,309.187108656319,-546.787917715078,-582.581067513858,701.381472043237,-118.800404529379
0.653326122228231,856.44636554874,308.410502456911,-548.03586309183,-582.428434002825,702.241114320285,-119.81268031746
0.655489453758789,849.886722424332,308.729969400888,-541.156753023444,-579.30834591261,695.521737723888,-116.213391811278
0.657652785289346,849.49539394468,315.945022108633,-533.550371836047,-582.720208026657,691.522882890364,-108.802674863707
0.659816116819903,858.377710823748,320.630034306354,-537.747676517393,-589.503872565051,698.06269367057,-108.558821105519
0.66197944835046,857.33007674116,322.19622626813,-535.133850473031,-589.763151504645,696.231963607096,-106.468812102451
0.664142779881017,846.238470750625,309.080332787179,-537.158137963446,-577.659401768902,691.698304357035,-114.038902588133
0.666306111411574,844.939521788959,301.672326137755,-543.267195651204,-573.305923963357,694.103358720082,-120.797434756724
0.668469442942131,847.63826769242,292.776726330588,-554.861541361832,-570.207497011504,701.249904527126,-131.042407515622
0.670632774472688,847.633043430722,289.983967424712,-557.64907600601,-568.808505427717,702.641059718366,-133.832554290649
0.672796106003245,837.448786089845,292.593321621495,-544.85546446835,-565.02105385567,691.152125279098,-126.131071423428
0.674959437533802,838.831901166698,299.937832824716,-538.894068341982,-569.384866995707,688.86298475434,-119.478117758633
0.677122769064359,845.980142254827,305.950128979503,-540.030013275324,-575.965135617165,693.005077765076,-117.03994214791
0.679286100594916,842.04614620851,305.914185698297,-536.131960510214,-573.980165953403,689.089053359362,-115.108887405959
0.681449432125473,835.808861635216,302.2567806686,-533.552080966616,-569.032821151908,684.680471300916,-115.647650149008
0.68361276365603,835.926364911417,297.327075143629,-538.599289767788,-566.626720027523,687.262827339603,-120.63610731208
0.685776095186587,842.314349551252,296.227603344439,-546.086746206813,-569.270976447846,694.200547879032,-124.929571431187
0.687939426717144,835.208316898983,283.433559716397,-551.774757182586,-559.32093830769,693.491537040784,-134.170598733094
0.690102758247702,830.100883749962,280.690061527626,-549.410822222336,-555.395472638794,689.755852986149,-134.360380347355
0.692266089778259,834.605380480893,290.877554250402,-543.727826230491,-562.741467365648,689.166603355692,-126.425135990044
0.694429421308816,839.422996635381,289.818184944365,-549.604811691016,-564.620590789873,694.513904163198,-129.893313373325
0.696592752839373,832.410112296497,280.732169854419,-551.677942442079,-556.571141075458,692.044027369288,-135.47288629383
0.69875608436993,827.526542236615,280.127826812805,-547.39871542381,-553.82718452471,687.462628830213,-133.635444305503
0.700919415900487,832.129734309346,282.0856695767,-550.044064732646,-557.107701943023,691.086899520996,-133.979197577973
0.703082747431044,834.860246644696,282.053337455496,-552.806909189199,-558.456792050096,693.833577916947,-135.376785866851
0.705246078961601,828.828924868031,270.677894695137,-558.151030172894,-549.753409781584,693.489977520463,-143.736567738878
0.707409410492158,824.966883001009,271.031875559377,-553.935007441632,-547.999379280193,689.45094522132,-141.451565941128
0.709572742022715,834.271093855034,274.694313234137,-559.576780620897,-554.482703544585,696.923937237966,-142.44123369338
0.711736073553272,835.617386230434,277.420289464536,-558.197096765898,-556.518837847485,696.907241498166,-140.388403650681
0.713899405083829,827.941718333266,283.882749857411,-544.058968475855,-555.912234095339,686.00034340456,-130.088109309222
0.716062736614386,825.370078136223,280.415726932911,-544.954351203312,-552.892902534567,685.162214669767,-132.2693121352
0.718226068144943,833.038056352897,282.786633408291,-550.251422944606,-557.912344880594,691.644739648751,-133.732394768157
0.7203893996755,828.401759360613,277.630060775942,-550.771698584671,-553.015910068277,689.586728972642,-136.570818904365
0.722552731206057,824.047156589921,264.135583617163,-559.911572972758,-544.091370103542,691.979364781339,-147.887994677797
0.724716062736614,826.90243390728,256.659191468679,-570.243242438601,-541.78081268798,698.572838172941,-156.792025484961
0.726879394267171,836.259720321417,258.254164650564,-578.005555670853,-547.256942485991,707.132637996135,-159.875695510145
0.729042725797729,833.708831490791,256.781754232131,-576.92707725866,-545.245292861461,705.317954374726,-160.072661513265
0.731206057328286,827.122033649738,236.438451482648,-590.683582167091,-531.780242566193,708.902807908415,-177.122565342222
0.733369388858843,830.116317077248,252.033717503606,-578.082599573642,-541.075017290427,704.099458325445,-163.024441035018
0.7355327203894,838.226837843199,267.80386662958,-570.422971213619,-553.015352236389,704.324904528409,-151.30955229202
0.737696051919957,832.257901077918,264.470436526366,-567.787464551552,-548.364168802142,700.022682814735,-151.658514012593
0.739859383450514,825.198509165876,268.63594730813,-556.562561857745,-546.917228237003,690.880535511811,-143.963307274808
0.742022714981071,831.503261524183,264.516254203064,-566.98700732112,-548.009757863623,699.245134422652,-151.235376559028
0.744186046511628,839.230768512082,272.84953360611,-566.381234905972,-556.040151059096,702.806001709027,-146.765850649931
0.746349378042185,835.232805450119,270.260421546967,-564.972383903152,-552.746613498543,700.102594676636,-147.355981178093
0.748512709572742,830.394404587583,267.273081187184,-563.121323400399,-548.833742887383,696.757863993991,-147.924121106607
0.750676041103299,835.348578254235,276.702951644623,-558.645626609611,-556.025764949429,696.997102431923,-140.971337482494
0.752839372633856,839.325737412432,284.834346551706,-554.491390860726,-562.080041982069,696.908564136579,-134.82852215451
0.755002704164413,833.852991148878,276.61163998197,-557.241351166908,-555.232315565424,695.547171157893,-140.314855592469
0.75716603569497,830.556938644742,273.70568312646,-556.851255518282,-552.131310885601,693.704097081512,-141.572786195911
0.759329367225527,838.261644631557,276.541864266665,-561.719780364891,-557.401754449111,699.990712498224,-142.588958049113
0.761492698756084,841.93750054894,284.962873422414,-556.974627126526,-563.450186985677,699.456063837733,-136.005876852056
0.763656030286641,833.658835314523,287.492715246921,-546.166120067601,-560.575775280722,689.912477691062,-129.33670241034
0.765819361817198,832.855049115753,299.352273139913,-533.50277597584,-566.103661127833,683.178912545796,-117.075251417964
0.767982693347756,838.496505242135,307.429368984486,-531.067136257649,-572.962937113311,684.781820749892,-111.818883636581
0.770146024878313,839.272383663785,303.487885009911,-535.784498653874,-571.380134336848,687.52844115883,-116.148306821982
0.77230935640887,832.742908037683,274.816046549242,-557.926861488441,-553.779477293462,695.334884763062,-141.5554074696
0.774472687939427,833.078621187104,257.263801427543,-575.814819759561,-545.171211307323,704.446720473332,-159.275509166009
0.776636019469984,840.578962745747,270.450054807934,-570.128907937813,-555.51450877684,705.35393534178,-149.83942656494
0.778799351000541,841.450194185424,280.646070077149,-560.804124108275,-561.048132131286,701.127159146849,-140.079027015563
0.780962682531098,834.580376470764,278.915861389708,-555.664515081056,-556.748118930236,695.12244577591,-138.374326845674
0.783126014061655,836.349909028827,281.821838986003,-554.528070042824,-559.085874007415,695.438989535826,-136.35311552841
0.785289345592212,842.037287626955,288.682173479347,-553.355114147608,-565.359730553151,697.696200887281,-132.336470334131
0.787452677122769,839.317088608164,291.560787887634,-547.75630072053,-565.438938247899,693.536694664347,-128.097756416448
0.789616008653326,831.456454913161,286.355914293473,-545.100540619688,-558.906184603317,688.278497766424,-129.372313163108
0.791779340183883,835.46203690904,278.184889440664,-557.277147468376,-556.823463174852,696.369592188708,-139.546129013856
0.79394267171444,845.963429377691,273.204693096939,-572.758736280752,-559.584061237315,709.361082829222,-149.777021591907
0.796106003244997,840.103881119594,266.157482821598,-573.946398297995,-553.130681970596,707.025139708795,-153.894457738198
0.798269334775554,834.431206950954,259.709430958401,-574.721775992553,-547.070318954678,704.576491471754,-157.506172517076
0.800432666306111,839.509751556305,260.333769693135,-579.17598186317,-549.92176062472,709.342866709738,-159.421106085017
0.802595997836668,843.583153913034,273.354671904887,-570.228482008147,-558.468912908961,706.90581796059,-148.43690505163
0.804759329367225,839.910963196434,279.380241555761,-560.530721640673,-559.645602376098,700.220842418554,-140.575240042456
0.806922660897783,835.320440615669,292.296204078824,-543.024236536844,-563.808322347246,689.172338576256,-125.36401622901
0.80908599242834,841.217233101987,299.35557291442,-541.861660187567,-570.286403008204,691.539446644777,-121.253043636574
0.811249323958897,846.140072574533,290.567195500365,-555.572877074167,-568.353634037449,700.85647482435,-132.502840786901
0.813412655489454,841.505116104442,288.332484551726,-553.172631552716,-564.918800328084,697.338873828579,-132.420073500495
0.815575987020011,838.472755734942,278.480845985241,-559.991909749702,-558.476800860092,699.232332742322,-140.75553188223
0.817739318550568,843.806350897206,281.948980498003,-561.857370399203,-562.877665697605,702.831860648205,-139.9541949506
0.819902650081125,845.967246177546,290.223268034522,-555.743978143024,-568.095257106034,700.855612160285,-132.760355054251
0.822065981611682,838.57867875928,296.728082220448,-541.850596538831,-567.653380489864,690.214637649056,-122.561257159192
0.824229313142239,835.396988168777,265.832508581897,-569.56447958688,-550.614748375337,702.480733877828,-151.865985502492
0.826392644672796,842.753886026196,275.424404534315,-567.329481491881,-559.089145280255,705.041683759038,-145.952538478783
0.828555976203353,844.064095317879,278.365255668974,-565.698839648906,-561.214675493427,704.881467483393,-143.666791989966
0.83071930773391,836.197808804717,276.622018909718,-559.575789894999,-556.409913857217,697.886799349858,-141.47688549264
0.832882639264467,837.658707792301,269.736306039931,-567.922401752371,-553.697506916116,702.790554772336,-149.09304785622
0.835045970795024,842.625308805987,269.21280708011,-573.412501725877,-555.919057943049,708.018905265932,-152.099847322883
0.837209302325581,843.252874419449,264.393304211657,-578.859570207792,-553.823089315553,711.056222313621,-157.233132998067
0.839372633856138,835.87737400281,250.301181597027,-585.576192405783,-543.089277799919,710.726783204297,-167.637505404378
0.841535965386696,838.48459876049,258.796231839802,-579.688366920688,-548.640415300146,709.086482840589,-160.446067540443
0.843699296917253,844.542986185974,264.957349407697,-579.585636778277,-554.750167796835,712.064311482126,-157.31414368529
0.84586262844781,844.020388889566,264.427086666356,-579.59330222321,-554.223737777961,711.806845556388,-157.583107778427
0.848025959978367,836.684040911888,250.853093213031,-585.830947698858,-543.76856706246,711.257494305373,-167.488927242914
0.850189291508924,839.64787539786,250.136619508552,-589.511255889308,-544.892247453206,714.579565643584,-169.687318190378
0.852352623039481,845.579173533084,263.346983041403,-582.232190491681,-554.463078287244,713.905682012383,-159.442603725139
0.854515954570038,839.916790635968,266.69910602753,-573.217684608438,-553.307948331749,706.567237622203,-153.259289290454
0.856679286100595,835.266979957732,267.278911173925,-567.988068783807,-551.272945565828,701.627524370769,-150.354578804941
0.858842617631152,839.150578842473,273.860236476065,-565.290342366409,-556.505407659269,702.220460604441,-145.715052945172
0.861005949161709,845.175445021907,282.369909301247,-562.80553572066,-563.772677161577,703.990490371284,-140.217813209706
0.863169280692266,839.442975583017,278.547456527148,-560.895519055868,-558.995216055083,700.169247319443,-141.17403126436
0.865332612222823,834.298056219397,268.4701824497,-565.827873769697,-551.384119334548,700.062964994547,-148.678845659999
0.86749594375338,839.960913347744,259.736067198129,-580.224846149615,-549.848490272937,710.09287974868,-160.244389475743
0.869659275283937,844.364887865968,266.440740301628,-577.92414756434,-555.402814083798,711.144517715154,-155.741703631356
0.871822606814494,837.453946119183,264.242628647257,-573.211317471926,-550.84828738322,705.332631795555,-154.484344412334
0.873985938345051,835.871910691539,275.778618727969,-560.09329196357,-555.825264709754,697.982601327554,-142.157336617801
0.876149269875608,844.829548911663,289.806488766407,-555.023060145257,-567.318018839035,699.92630452846,-132.608285689425
0.878312601406166,845.547654406118,293.927543583383,-551.620110822735,-569.737598994751,698.583882614427,-128.846283619676
0.880475932936723,836.943245146909,285.262343172361,-551.680901974548,-561.102794159635,694.312073560728,-133.209279401093
0.88263926446728,836.076718734761,260.427215713085,-575.649503021676,-548.251967223923,705.863110878218,-157.611143654296
0.884802595997837,842.048459128248,256.519065541181,-585.529393587067,-549.283762334715,713.788926357658,-164.505164022943
0.886965927528394,842.064057379525,258.507527985661,-583.556529393864,-550.285792682593,712.810293386694,-162.524500704101
0.889129259058951,836.481250239257,262.187476685317,-574.29377355394,-549.334363462287,705.387511896599,-156.053148434311
0.891292590589508,838.605960051847,265.559087408085,-573.046872643763,-552.082523729966,705.826416347805,-153.743892617839
0.893455922120065,847.930271576382,278.192216452829,-569.738055123554,-563.061244014605,708.834163349968,-145.772919335362
0.895619253650622,846.782239603623,284.766996768101,-562.015242835522,-565.774618185862,704.398741219573,-138.624123033711
0.897782585181179,839.041942124182,289.209373346305,-549.832568777876,-564.125657735244,694.437255451029,-130.311597715786
0.899945916711736,841.81928005862,290.934528222885,-550.884751835735,-566.376904140752,696.352015947177,-129.975111806425
0.902109248242293,849.451444496454,289.335205140918,-560.116239355536,-569.393324818686,704.783841925995,-135.390517107309
0.90427257977285,846.968584178395,290.203922703579,-556.764661474816,-568.586253440987,701.866622826606,-133.280369385619
0.906435911303407,841.398069616861,283.888433009976,-557.509636606885,-562.643251313418,699.453853111873,-136.810601798454
0.908599242833964,844.101886845994,288.355949615217,-555.745937230777,-566.228918230606,699.923912038386,-133.69499380778
0.910762574364521,851.061809159656,298.591813285169,-552.469995874487,-574.826811222412,701.765902517072,-126.939091294659
0.912925905895078,846.372254960799,300.888586854292,-545.483668106506,-573.630420907546,695.927961533652,-122.297540626107
0.915089237425636,841.233158778367,296.840290469505,-544.392868308862,-569.036724623936,692.813013543615,-123.776288919679
0.917252568956193,843.114551548618,293.817865341203,-549.296686207415,-568.46620844491,696.205618878016,-127.739410433106
0.91941590048675,848.71645336146,295.65865274228,-553.05780061918,-572.18755305187,700.88712699032,-128.69957393845
0.921579232017307,844.48076477165,280.523494603214,-563.957270168436,-562.502129687432,704.219017470043,-141.716887782611
0.923742563547864,838.52490001384,273.018480586767,-565.506419427072,-555.771690300303,702.015659720456,-146.243969420152
0.925905895078421,845.831576085964,287.137521115437,-558.694054970526,-566.4845486007,702.262815528245,-135.778266927544
0.928069226608978,848.881420278227,287.229364080942,-561.652056197284,-568.055392179584,705.266738237755,-137.211346058171
0.930232558139535,843.768527751162,291.820377097748,-551.948150653415,-567.794452424455,697.858339202288,-130.063886777833
0.932395889670092,840.601356732134,292.00291958596,-548.598437146174,-566.302138159047,694.599896939154,-128.297758780107
0.934559221200649,849.387317512736,301.735130995808,-547.652186516928,-575.561224254272,698.519752014832,-122.95852776056
0.936722552731206,851.794548964625,290.437605320097,-561.356943644528,-571.116077142361,706.575746304577,-135.459669162216
0.938885884261763,844.178390347419,287.796927998966,-556.381462348452,-565.987659173192,700.279926347936,-134.292267174743
0.94104921579232,843.827571622285,280.370630483588,-563.456941138698,-562.099101052936,703.642256380491,-141.543155327555
0.943212547322877,852.254249679805,277.857490397321,-574.396759282483,-565.055870038563,713.325504481144,-148.269634442581
0.945375878853434,853.574755567857,275.818537562256,-577.756218005601,-564.696646565057,715.665486786729,-150.968840221672
0.947539210383991,844.611280705065,273.302709326611,-571.308571378454,-558.956995015838,707.959926041759,-149.002931025921
0.949702541914548,842.049452611942,282.657748906647,-559.391703705295,-562.353600759294,700.720578158618,-138.366977399324
0.951865873445105,851.103847566938,285.18287342343,-565.920974143509,-568.143360495184,708.512410855223,-140.369050360039
0.954029204975663,846.926131066309,284.528039297414,-562.398091768895,-565.727085181862,704.662111417602,-138.935026235741
0.95619253650622,840.730712003803,276.052854578512,-564.677857425291,-558.391783291158,702.704284714547,-144.312501423389
0.958355868036777,842.090039160979,274.028078439851,-568.061960721129,-558.059058800415,705.075999941054,-147.016941140639
0.960519199567334,849.725949045456,277.408601519829,-572.317347525627,-563.567275282643,711.021648285541,-147.454373002899
0.962682531097891,848.280858379481,284.24303898173,-564.037819397751,-566.261948680606,706.159338888616,-139.89739020801
0.964845862628448,842.356058675506,290.992474178279,-551.363584497228,-566.674266426893,696.859821586367,-130.185555159475
0.967009194159005,845.224663801388,290.44219537097,-554.782468430418,-567.833429586179,700.003566115903,-132.170136529724
0.969172525689562,849.824438599,281.479521547972,-568.344917051028,-565.651980073486,709.084677825014,-143.432697751528
0.971335857220119,842.508257909051,275.7651489833,-566.743108925751,-559.136703446175,704.625683417401,-145.488979971225
0.973499188750676,836.387531832153,260.965771433978,-575.421760398175,-548.676651633065,705.904646115164,-157.227994482099
0.975662520281233,840.773892656669,256.822655407389,-583.95123724928,-548.798274032029,712.362564952974,-163.564290920945
0.97782585181179,845.000641872907,253.356593284319,-591.644048588587,-549.178617578613,718.322345230747,-169.143727652134
0.979989183342347,838.667383486451,255.453957129522,-583.213426356929,-547.060670307986,710.94040492169,-163.879734613703
0.982152514872904,832.314853725328,265.157737078187,-567.157116647141,-548.736295401758,699.735985186235,-150.999689784477
0.984315846403461,837.554630085541,286.121360025165,-551.433270060376,-561.837995055353,694.493950072959,-132.655955017605
0.986479177934018,839.291448066827,284.911244002553,-554.380204064273,-562.10134603469,696.83582606555,-134.73448003086
0.988642509464575,833.099409152784,283.474194474518,-549.625214678267,-558.286801813651,691.362311915525,-133.075510101874
0.990805840995132,830.270194885955,279.994166970215,-550.27602791574,-555.132180928085,690.273111400848,-135.140930472762
0.99296917252569,839.285266932021,277.908440488508,-561.376826443513,-558.596853710264,700.331046687767,-141.734192977503
0.995132504056247,840.999435952496,275.641864733818,-565.357571218678,-558.320650343157,703.178503585587,-144.85785324243
0.997295835586804,832.261370807615,273.06479068792,-559.196580119695,-552.663080747767,695.728975463655,-143.065894715888
0.999459167117361,831.388977520098,276.544430633809,-554.844546886289,-553.966704076953,693.116762203193,-139.15005812624
1.00162249864792,840.535533155064,288.613538071528,-551.921995083535,-564.574535613296,696.2287641193,-131.654228506004
1.00378583017847,837.763705974805,295.140724671985,-542.62298130282,-566.452215323395,690.193343638812,-123.741128315417
1.00594916170903,832.277993369997,283.616027041481,-548.661966328516,-557.947010205739,690.469979849256,-132.522969643517
1.00811249323959,834.16911928603,268.668363348737,-565.500755937293,-551.418741317384,699.834937611661,-148.416196294278
1.01027582477015,840.143946726313,258.815686495427,-581.328260230886,-549.47981661087,710.7361034786,-161.25628686773
1.0124391563007,839.06680602866,250.480371260364,-588.586434768296,-544.773588644512,713.826620398478,-169.053031753966
1.01460248783126,831.669192915374,240.983769528721,-590.685423386654,-536.326481222048,711.177308151014,-174.850826928967
1.01676581936182,834.342261845506,248.064083174429,-586.278178671078,-541.203172509968,710.310220258292,-169.107047748325
1.01892915089237,840.663461497001,258.221775561342,-582.44168593566,-549.442618529171,711.552573716331,-162.109955187159
1.02109248242293,836.502694259355,269.678654473122,-566.824039786233,-553.090674366238,701.663367022794,-148.572692656556
1.02325581395349,831.448804316663,274.162315536697,-557.286488779965,-552.80555992668,694.367646548314,-141.562086621634
1.02541914548405,835.713944299503,278.736813362545,-556.977130936958,-557.225378831024,696.345537618231,-139.120158787207
1.0275824770146,843.91920517659,284.509200139634,-559.410005036956,-564.214202658112,701.664605106773,-137.450402448661
1.02974580854516,838.536940199303,276.846306402796,-561.690633796507,-557.691623301049,700.113786997905,-142.422163696855
1.03190914007572,832.142008290559,268.584913532605,-563.557094757954,-550.363460911582,697.849551524256,-147.486090612674
1.03407247160627,838.707636631369,269.601081154283,-569.106555477086,-554.154358892826,703.907096054228,-149.752737161401
1.03623580313683,842.69711110926,271.28285926121,-571.41425184805,-556.989985185235,707.055681478655,-150.06569629342
1.03839913466739,837.046308072385,274.088233178459,-562.958074893926,-555.567270625422,700.002191483155,-144.434920857734
1.04056246619794,832.827803206575,278.563851088696,-554.263952117879,-555.695827147636,693.545877662227,-137.850050514591
1.0427257977285,839.35900828459,272.818643591008,-566.540364693582,-556.088825937799,702.949686489086,-146.860860551287
1.04488912925906,841.451251842892,263.390717403673,-578.060534439219,-552.420984623283,709.755893141056,-157.334908517773
1.04705246078962,830.05605559673,250.029488222118,-580.026567374612,-540.042771909424,705.041311485671,-164.998539576247
1.04921579232017,826.850797677952,252.681800047763,-574.168997630189,-539.766298862857,700.50989765407,-160.743598791213
1.05137912385073,834.861622251384,251.908336637432,-582.953285613952,-543.384979444408,708.907453932668,-165.52247448826
1.05354245538129,837.482654921829,246.560943451094,-590.921711470736,-542.021799186461,714.202183196282,-172.180384009821
1.05570578691184,829.904174547922,253.477191404087,-576.426983143835,-541.690682976004,703.165578845879,-161.474895869874
1.0578691184424,833.355200547408,262.313867881867,-571.041332665541,-547.834534214638,702.198266606475,-154.363732391837
1.06003244997296,843.512890129556,275.628084651377,-567.884805478179,-559.570487390466,705.698847803868,-146.128360413401
1.06219578150352,845.818089396483,276.732126892231,-569.085962504253,-561.275108144357,707.452025950368,-146.176917806011
1.06435911303407,846.054098380311,275.000804429051,-571.05329395126,-560.527451404681,708.553696165785,-148.026244761104
1.06652244456463,857.510239047514,272.88583867374,-584.624400373773,-565.198038860627,721.067319710643,-155.869280850017
1.06868577609519,872.537945414056,283.551334589576,-588.98661082448,-578.044640001816,730.762278119268,-152.717638117452
1.07084910762574,866.459632793277,301.293137327369,-565.166495465908,-583.876385060322,715.813064129592,-131.93667906927
1.0730124391563,857.454935382821,317.147530626906,-540.307404755915,-587.301233004863,698.881170069368,-111.579937064505
1.07517577068686,865.731353955491,344.323124674874,-521.408229280617,-605.027239315183,693.569791618054,-88.5425523028712
1.07733910221741,916.08316412852,374.59079024328,-541.49237388524,-645.3369771859,728.78776900688,-83.45079182098
1.07950243374797,942.373375541844,376.746356653595,-565.627018888249,-659.55986609772,754.000197215047,-94.4403311173272
1.08166576527853,964.502362639463,382.837475827915,-581.664886811548,-673.669919233689,773.083624725506,-99.4137054918166
1.08382909680909,970.15906540713,380.785650232872,-589.373415174258,-675.472357820001,779.766240290694,-104.293882470693
1.08599242833964,913.273663073473,365.967184525897,-547.306478547577,-639.620423799685,730.290070810525,-90.66964701084
1.0881557598702,857.055458999912,361.423030434506,-495.632428565406,-609.239244717209,676.343943782659,-67.1046990654499
1.09031909140076,852.988825720292,370.507540066037,-482.481285654255,-611.748182893165,667.735055687274,-55.9868727941087
1.09248242293131,865.129838298784,365.474308085153,-499.655530213631,-615.302073191969,682.392684256208,-67.0906110642388
1.09464575446187,866.959709848146,350.393094763462,-516.566615084683,-608.676402305804,691.763162466414,-83.0867601606103
1.09680908599243,847.91181954053,322.56497684852,-525.34684269201,-585.238398194525,686.62933111627,-101.390932921745
1.09897241752299,835.975405122816,315.09169096571,-520.883714157106,-575.533548044263,678.429559639961,-102.896011595698
1.10113574905354,837.63553789253,316.492539032203,-521.142998860327,-577.064038462366,679.389268376428,-102.325229914062
1.1032990805841,837.279089261139,305.159717459034,-532.119371802105,-571.219403360086,684.699230531622,-113.479827171536
1.10546241211466,829.785997201691,287.462046369274,-542.323950832417,-558.624021785483,686.054974017054,-127.430952231571
1.10762574364521,828.004599088035,289.170278479601,-538.834320608434,-558.587438783818,683.419459848234,-124.832021064416
1.10978907517577,840.087474500735,296.039650227362,-544.047824273373,-568.063562364049,692.067649387054,-124.004087023006
1.11195240670633,842.255909494746,294.315319639703,-547.940589855044,-568.285614567224,695.098249674895,-126.812635107671
1.11411573823688,838.643047939316,290.577526834866,-548.06552110445,-564.610287387091,693.354284521883,-128.743997134792
1.11627906976744,840.58010486143,285.578005003714,-555.002099857716,-563.079054932572,697.791102359573,-134.712047427001
1.118442401298,849.810993232462,290.056544077122,-559.754449155339,-569.933768654792,704.782721193901,-134.848952539109
1.12060573282856,848.681414262955,281.508600181008,-567.172814081947,-565.095007221982,707.927114172451,-142.83210695047
1.12276906435911,839.947933216548,277.038096172053,-562.909837044494,-558.493014694301,701.428885130521,-142.935870436221
1.12493239588967,840.770301436863,278.914492226615,-561.855809210248,-559.842396831739,701.313055323556,-141.470658491816
1.12709572742023,843.555538127463,287.434201842143,-556.12133628532,-565.494869984803,699.838437206392,-134.343567221588
1.12925905895078,838.233308752169,293.383727565451,-544.849581186718,-565.80851815881,691.541444969444,-125.732926810634
1.13142239048134,831.607879844497,297.979133385886,-533.628746458611,-564.793506615191,682.618313151554,-117.824806536362
1.1335857220119,833.009713377605,293.333774063382,-539.675939314223,-563.171743720494,686.342826345914,-123.171082625421
1.13574905354246,839.770308446365,294.555090702966,-545.215217743399,-567.162699574665,692.492763094882,-125.330063520217
1.13791238507301,834.164347376026,286.896807513149,-547.267539862877,-560.530577444587,690.715943619451,-130.185366174864
1.14007571660357,827.156235335009,271.912512577601,-555.243722757408,-549.534373956305,691.199979046208,-141.665605089904
1.14223904813413,834.078384938047,271.741135662958,-562.337249275089,-552.909760300502,698.207817106568,-145.298056806066
1.14440237966468,839.796235745206,281.470668115235,-558.325567629971,-560.633451930221,699.060901687588,-138.427449757368
1.14656571119524,834.688674049397,284.447026209809,-550.241647839588,-559.567850129603,692.465160944493,-132.89731081489
1.1487290427258,831.627681843086,295.952518906955,-535.675162936131,-563.790100375021,683.651422389609,-119.861322014588
1.15089237425635,839.680335046124,298.200435987007,-541.479899059116,-568.940385516565,690.58011705262,-121.639731536055
1.15305570578691,843.653020175202,276.422895088334,-567.230125086868,-560.037957631768,705.441572631035,-145.403614999267
1.15521903731747,834.617695937245,256.116959938846,-578.500735998399,-545.367327938046,706.559215967822,-161.191888029776
1.15738236884803,832.533982703156,248.215644468459,-584.318338234697,-540.374813585807,708.426160468926,-168.051346883119
1.15954570037858,839.390690100645,253.370847516785,-586.01984258386,-546.380768808715,712.705266342252,-166.324497533537
1.16170903190914,841.969489055518,265.900478947123,-576.069010108395,-553.93498400132,709.019249581956,-155.084265580636
1.1638723634397,834.432922102758,267.518987185491,-566.913934917267,-550.975954644124,700.673428510012,-149.697473865888
1.16603569497025,834.866262866568,280.321724124528,-554.544538742041,-557.593993495548,694.705400804305,-137.111407308757
1.16819902650081,842.019262861802,288.932628545484,-553.086634316318,-565.475945703643,697.55294858906,-132.077002885417
1.17036235803137,843.323379387026,283.930392939881,-559.392986447145,-563.626886163453,701.358182917085,-137.731296753632
1.17252568956193,836.492814193805,269.33050831516,-567.162305878645,-552.911661254482,701.827560036225,-148.915898781743
1.17468902109248,837.994577875442,265.649454587008,-572.345123288435,-551.822016231225,705.169850581939,-153.347834350713
1.17685235262304,843.156650443379,267.126601903202,-576.030048540178,-555.141626173291,709.593349491778,-154.451723318488
1.1790156841536,843.148238991157,266.587642863332,-576.560596127825,-554.867940927244,709.854417559491,-154.986476632247
1.18117901568415,833.90612750991,274.222448701477,-559.683678808433,-554.064288105693,696.794903159172,-142.730615053478
1.18334234721471,837.035052334472,287.010403683806,-550.024648650666,-562.022728009139,693.529850492569,-131.50712248343
1.18550567874527,846.51373166998,297.229150442185,-549.284581227795,-571.871441056082,697.899156448888,-126.027715392805
1.18766901027582,842.095151582078,291.878977426598,-550.21617415548,-566.987064504338,696.155662868779,-129.168598364441
1.18983234180638,835.257592322794,280.704103912433,-554.553488410362,-557.980848117614,694.905540366578,-136.924692248964
1.19199567333694,840.190993093627,270.472861058446,-569.718132035181,-555.331927076037,704.954562564404,-149.622635488367
1.1941590048675,845.932811071597,269.815571467726,-576.117239603871,-557.874191269662,711.025025337734,-153.150834068072
1.19632233639805,840.728342905893,272.2871219388,-568.441220967093,-556.507732422346,704.584781936493,-148.077049514147
1.19848566792861,837.48390674413,274.261068767213,-563.222837976917,-555.872487755672,700.353372360524,-144.480884604852
1.20064899945917,843.672389614083,271.690239163168,-571.982150450915,-557.681314388626,707.827270032499,-150.145955643873
1.20281233098972,849.842274274866,266.911881890247,-582.930392384618,-558.377078082556,716.386333329742,-158.009255247186
1.20497566252028,843.501426019613,269.868983184479,-573.632442835134,-556.685204602046,708.566934427374,-151.881729825328
1.20713899405084,838.183551988416,266.819965317177,-571.363586671239,-552.501758652796,704.773569329828,-152.271810677031
1.2093023255814,845.614970233476,263.383445783428,-582.231524450048,-554.499208008452,713.923247341762,-159.42403933331
1.21146565711195,846.565749130904,263.711723479116,-582.854025651788,-555.13873630501,714.709887391346,-159.571151086336
1.21362898864251,841.333727142759,259.448698276646,-581.885028866113,-550.391212709703,711.609378004436,-161.218165294733
1.21579232017307,840.28290748598,260.394592185147,-579.888315300833,-550.338749835563,710.085611393406,-159.746861557843
1.21795565170362,849.190700585565,267.267172438635,-581.923528146931,-558.2289365121,715.557114366248,-157.328177854148
1.22011898323418,849.89045989092,272.412183752653,-577.478276138267,-561.151321821787,713.684368014593,-152.533046192807
1.22228231476474,844.107524209769,275.0079970688,-569.099527140969,-559.557760639284,706.603525675369,-147.045765036085
1.22444564629529,842.286896488741,275.271613934613,-567.015282554128,-558.779255211677,704.651089521435,-145.871834309758
1.22660897782585,849.703183243937,277.326916052605,-572.376267191332,-563.515049648271,711.039725217634,-147.524675569363
1.22877230935641,849.103966673299,268.473430448675,-580.630536224624,-558.788698560987,714.867251448962,-156.078552887974
1.23093564088697,842.456934155224,260.878915672778,-581.578018482446,-551.667924914001,712.017476318835,-160.349551404834
1.23309897241752,844.130327358633,259.805529182546,-584.324798176088,-551.967928270589,714.22756276736,-162.259634496771
1.23526230394808,851.047327345114,267.617554543102,-583.429772802012,-559.332440944108,717.238550073563,-157.906109129455
1.23742563547864,848.941356344872,265.653866742627,-583.287489602245,-557.297611543749,716.114422973558,-158.816811429809
1.23958896700919,840.500203186267,270.587825810093,-569.912377376175,-555.54401449818,705.206290281221,-149.662275783041
1.24175229853975,843.305770752046,266.126223390772,-577.179547361275,-554.715997071409,710.242659056661,-155.526661985252
1.24391563007031,851.89953182716,267.867999218082,-584.031532609078,-559.883765522621,717.965532218119,-158.081766695498
1.24607896160087,848.801141208573,256.808354801534,-591.99278640704,-552.804748005053,720.396963807806,-167.592215802753
1.24824229313142,842.531222856092,252.544170187686,-589.987052668407,-547.537696521889,716.25913776225,-168.721441240361
1.25040562466198,847.648379991821,255.349516874697,-592.298863117124,-551.498948433259,719.973621554473,-168.474673121214
1.25256895619254,855.853385775126,255.570293385568,-600.283092389558,-555.711839580347,728.068239082342,-172.356399501995
1.25473228772309,851.422009235015,268.804226631755,-582.61778260326,-560.113117933385,717.019895919137,-156.906777985753
1.25689561925365,846.985729115726,271.541434050447,-575.444295065279,-559.263581583087,711.215012090502,-151.951430507416
1.25905895078421,851.758923584287,283.142267295785,-568.616656288502,-567.450595440036,710.187789936395,-142.737194496359
1.26122228231476,855.011214426935,280.069240277321,-574.941974149613,-567.540227352128,714.976594288274,-147.436366936146
1.26338561384532,850.315739704059,279.927118033705,-570.388621670354,-565.121428868882,710.352180687206,-145.230751818324
1.26554894537588,846.850839714598,276.319651147306,-570.531188567292,-561.585245430952,708.691014140945,-147.105768709993
1.26771227690644,854.287282589543,290.072891293611,-564.214391295932,-572.180086941577,709.250836942738,-137.070750001161
1.26987560843699,857.37400407839,295.571244856494,-561.802759221896,-576.472624467442,709.588381650143,-133.115757182701
1.27203893996755,849.875344930644,304.024601347079,-545.850743583565,-576.949973138862,697.863044257105,-120.913071118243
1.27420227149811,846.696950570391,303.869251953566,-542.827698616825,-575.283101261979,694.762324593608,-119.47922333163
1.27636560302866,855.063034335682,319.322717076369,-535.740317259313,-587.192875706026,695.401675797498,-108.208800091472
1.27852893455922,856.898005949948,304.054608063999,-552.84339788595,-580.476307006974,704.870701917949,-124.394394910975
1.28069226608978,848.112107883903,287.161086442172,-560.951021441731,-567.636597163038,704.531564662817,-136.894967499779
1.28285559762034,848.322176347844,281.602752646615,-566.71942370123,-564.962464497229,707.520800024537,-142.558335527307
1.28501892915089,857.461380579205,288.61567460186,-568.845705977346,-573.038527590533,713.153543278276,-140.115015687743
1.28718226068145,857.75516839791,295.001793153689,-562.753375244221,-576.378480775799,710.254271821065,-133.875791045266
1.28934559221201,848.912712947893,296.526397119973,-552.386315827921,-572.719555033933,700.649514387907,-127.929959353974
1.29150892374256,851.451122358639,297.750628303073,-553.700494055567,-574.600875330856,702.575808207103,-127.974932876247
1.29367225527312,860.683345396268,302.000119013036,-558.683226383232,-581.341732204652,709.68328588975,-128.341553685098
1.29583558680368,858.836339994255,283.300864823893,-575.535475170362,-571.068602409074,717.185907582308,-146.117305173234
1.29799891833423,851.745606896047,275.635565600315,-576.110041295732,-563.690586248181,713.92782409589,-150.237237847709
1.30016224986479,856.647055666173,282.147920049572,-574.499135616601,-569.397487857872,715.573095641387,-146.175607783515
1.30232558139535,863.733738324975,283.727414006649,-580.006324318326,-573.730576165812,721.87003132165,-148.139455155838
1.30448891292591,859.397205317229,283.065990686996,-576.331214630233,-571.231598002113,717.864209973731,-146.632611971618
1.30665224445646,851.975047914116,288.37547570441,-563.599572209706,-570.175261809263,707.787310061911,-137.612048252648
1.30881557598702,855.835746829775,304.804747849018,-551.030998980757,-580.320247339397,703.433372905266,-123.113125565869
1.31097890751758,862.229411464493,294.276085803053,-567.95332566144,-578.252748633773,715.091368562967,-136.838619929193
1.31314223904813,855.323195793807,290.386227471532,-564.936968322275,-572.85471163267,710.130082058041,-137.275370425371
1.31530557057869,850.592767818538,284.31701849645,-566.275749322088,-567.454893157494,708.434258570313,-140.979365412819
1.31746890210925,857.310963349553,276.830096297026,-580.480867052527,-567.070529823289,718.89591520104,-151.825385377751
1.31963223363981,860.699951576205,282.76469891322,-577.935252662985,-571.732325244713,719.317602119595,-147.585276874882
1.32179556517036,853.769689908765,295.457539454888,-558.312150453877,-574.613614681826,706.040920181321,-131.427305499495
1.32395889670092,850.261839682206,286.721528409102,-563.540311273104,-568.491684045654,706.901075477655,-138.409391432001
1.32612222823148,857.274346892317,289.822563533393,-567.451783358925,-573.548455212855,712.363065125621,-138.814609912766
1.32828555976203,862.514630444273,295.071677907711,-567.442952536561,-578.793154175992,714.978791490417,-136.185637314425
1.33044889129259,855.882291376182,292.407182108268,-563.475109267914,-574.144736742225,709.678700322048,-135.533963579823
1.33261222282315,852.62617191727,273.428281735931,-579.197890181339,-563.0272268266,715.912031049305,-152.884804222704
1.3347755543537,859.75764863235,269.481252433596,-590.276396198754,-564.619450532973,725.017022415552,-160.397571882579
1.33693888588426,861.53341805651,262.43657104435,-599.09684701216,-561.98499455043,730.315132534335,-168.330137983905
1.33910221741482,850.567116115552,253.097479416425,-597.469636699127,-551.832297765988,724.018376407339,-172.186078641351
1.34126554894538,850.68314820649,278.521005409607,-572.162142796883,-564.602076808049,711.422645501687,-146.820568693638
1.34342888047593,856.179615265971,272.219080269484,-583.960534996487,-564.199347767728,720.070075131229,-155.870727363501
1.34559221200649,853.724808454875,282.912987781553,-570.811820673322,-568.318898118214,712.268314564098,-143.949416445884
1.34775554353705,845.186578379467,283.328742712682,-561.857835666785,-564.257660546075,703.522207023126,-139.264546477051
1.3499188750676,846.691591824782,272.907717088053,-573.783874736728,-559.799654456418,710.237733280755,-150.438078824338
1.35208220659816,853.311667730084,259.192048419026,-594.119619311058,-556.251858074555,723.715643520571,-167.463785446016
1.35424553812872,849.311486952532,252.268795275872,-597.04269167666,-550.790141114202,723.177089314596,-172.386948200394
1.35640886965928,839.22918777935,250.1691369505,-589.06005082885,-544.699162364925,714.1446193041,-169.445456939175
1.35857220118983,841.876305319521,255.261885525539,-586.614419793981,-548.56909542253,714.245362556751,-165.676267134221
1.36073553272039,848.071192142117,261.110645729135,-586.960546412982,-554.590918935626,717.51586927755,-162.924950341924
1.36289886425095,843.288528480124,276.621060190964,-566.66746828916,-559.954794335544,704.977998384642,-145.023204049098
1.3650621957815,836.574937462227,280.801927617364,-555.773009844864,-558.688432539795,696.173973653546,-137.48554111375
1.36722552731206,840.254490742415,279.774544551744,-560.479946190671,-560.01451764708,700.367218466543,-140.352700819463
1.36938885884262,845.717975694113,263.667480154301,-582.050495539811,-554.692727924207,713.884235616962,-159.191507692755
1.37155219037317,838.723870820138,262.831744599844,-575.892126220295,-550.777807709991,707.307998520217,-156.530190810226
1.37371552190373,831.070884994763,269.222959700077,-561.847925294686,-550.14692234742,696.459405144725,-146.312482797305
1.37587885343429,836.305243900551,277.950652214661,-558.35459168589,-557.127948057606,697.32991779322,-140.201969735614
1.37804218496485,840.781838863706,278.83965941588,-561.942179447826,-559.810749139793,701.362009155766,-141.551260015973
1.3802055164954,832.793745838261,263.516353932682,-569.277391905579,-548.155049885472,701.03556887192,-152.880518986448
1.38236884802596,829.183111859717,260.947683859859,-568.235427999858,-545.065397859788,698.709269929787,-153.643872069999
1.38453217955652,836.746966608642,241.69752691369,-595.049439694952,-539.222246761166,715.898203151797,-176.675956390631
1.38669551108707,836.885898779458,240.702175280156,-596.183723499301,-538.794037029807,716.534811139379,-177.740774109572
1.38885884261763,829.327350375087,251.46565478072,-577.861695594367,-540.396502577903,703.594522984727,-163.198020406824
1.39102217414819,828.075226818685,260.601200940271,-567.474025878414,-544.338213879478,697.774626348549,-153.436412469071
1.39318550567875,834.414102090172,264.237814254485,-570.176287835687,-549.325958172328,702.29519496293,-152.969236790601
1.3953488372093,834.380670576359,264.838737868457,-569.541932707903,-549.609704222408,701.961301642131,-152.351597419723
1.39751216873986,825.796087419107,269.587819047658,-556.208268371449,-547.691953233383,691.002177895278,-143.310224661896
1.39967550027042,827.853929484237,271.521022249275,-556.332907234962,-549.687475866756,692.093418359599,-142.405942492844
1.40183883180097,835.647107254685,276.719962117464,-558.92714513722,-556.183534686074,697.287126195952,-141.103591509878
1.40400216333153,834.052354763659,275.483381302442,-558.568973461217,-554.76786803305,696.310664112438,-141.542796079388
1.40616549486209,824.620823727571,268.809387968706,-555.811435758864,-546.715105848139,690.216129743218,-143.501023895079
1.40832882639264,828.984239162431,256.996225125574,-571.988014036857,-542.990232144002,700.486126599644,-157.495894455641
1.4104921579232,835.753439874226,247.618236653061,-588.135203221166,-541.685838263643,711.944321547696,-170.258483284053
1.41265548945376,829.209247554574,236.425316904121,-592.783930650453,-532.817282229348,710.996589102513,-178.179306873166
1.41481882098432,823.751375516204,227.758995467938,-595.992380048265,-525.755185492071,709.871877782234,-184.116692290163
1.41698215251487,829.227904884153,236.40289521133,-592.825009672822,-532.815400047741,711.026457278487,-178.211057230746
1.41914548404543,836.531919336657,242.505393967249,-594.026525369408,-539.518656651953,715.279222353032,-175.760565701079
1.42130881557599,830.594148238754,238.145885620984,-592.44826261777,-534.370016929869,711.521205428262,-177.151188498393
1.42347214710654,827.984492604782,234.357975243338,-593.626517361443,-531.17123392406,710.805504983113,-179.634271059053
1.4256354786371,832.383807584735,229.582585543327,-602.801222041408,-530.983196564031,717.592514813072,-186.609318249041
1.42779881016766,837.021529814722,223.662022464973,-613.359507349749,-530.341776139848,725.190518582235,-194.848742442388
1.42996214169822,830.754069350662,225.966253091763,-604.787816258899,-528.360161221212,717.77094280478,-189.410781583568
1.43212547322877,828.856689459857,230.035064775678,-598.821624684179,-529.445877117768,713.839157072018,-184.393279954251
1.43428880475933,835.804023309675,241.12992739853,-594.674095911145,-538.466975354102,715.23905961041,-176.772084256308
1.43645213628989,840.242366666827,252.174440076169,-588.067926590658,-546.208403371498,714.155146628743,-167.946743257245
1.43861546782044,835.083438559288,250.02588555307,-585.057553006218,-542.554662056179,710.070495782753,-167.515833726574
1.440778799351,832.52575673885,255.25953118391,-577.26622555494,-543.89264396138,704.895991146895,-161.003347185515
1.44294213088156,838.748605983705,257.430401033516,-581.318204950189,-548.08950350861,710.033405466947,-161.943901958337
1.44510546241211,840.148377803262,259.830775548057,-580.317602255205,-549.98957667566,710.232990029234,-160.243413353574
1.44726879394267,831.543058909844,261.486444834239,-570.056614075605,-546.514751872041,700.799836492724,-154.285084620683
1.44943212547323,832.12466572141,264.396550140958,-567.728115580453,-548.260607931184,699.926390650932,-151.665782719747
1.45159545700379,836.995238848911,268.925115975254,-568.070122873657,-552.960177412082,702.532680861284,-149.572503449202
1.45375878853434,837.789630862163,273.858200742054,-563.931430120108,-555.823915802108,700.860530491135,-145.036614689027
1.4559221200649,832.090649278262,281.348466410867,-550.742182867395,-556.719557844564,691.416416072828,-134.696858228264
1.45808545159546,833.161617907488,280.715821722646,-552.445796184841,-556.938719815067,692.803707046165,-135.864987231098
1.46024878312601,841.452398068163,267.186062885121,-574.266335183042,-554.319230476642,707.859366625603,-153.54013614896
1.46241211465657,839.19801414194,268.540507839024,-570.657506302916,-553.869260990482,704.927760222428,-151.058499231946
1.46457544618713,834.030514716422,270.18967698358,-563.840837732842,-552.110095850001,698.935676224632,-146.825580374631
1.46673877771769,837.274592708931,277.083143365232,-560.191449343698,-557.178868037081,698.733021026314,-141.554152989233
1.46890210924824,844.370996038299,286.227067078946,-558.143928959354,-565.299031558623,701.257462498826,-135.958430940204
1.4710654407788,839.5578194046,272.843622316578,-566.714197088021,-556.200720860589,703.136008246311,-146.935287385721
1.47322877230936,831.032758421608,257.841373083107,-573.191385338501,-544.437065752358,702.112071880055,-157.675006127697
1.47539210383991,838.463660949743,255.510731974227,-582.952928975516,-546.987196461985,710.708294962629,-163.721098500644
1.47755543537047,845.146164524521,258.538416956352,-586.607747568169,-551.842290740437,715.876956046345,-164.034665305908
1.47971876690103,839.725165315929,250.947574064211,-588.777591251718,-545.33636969007,714.251378283823,-168.915008593753
1.48188209843158,834.643157218216,254.226523990459,-580.416633227757,-544.434840604337,707.529895222986,-163.095054618649
1.48404542996214,841.863209535305,260.745159062757,-581.118050472548,-551.304184299031,711.490630003927,-160.186445704896
1.4862087614927,847.567244191378,277.871763396486,-569.695480794892,-562.719503793932,708.631362493135,-145.911858699203
1.48837209302326,841.013278716548,285.679928244472,-555.333350472076,-563.34660348051,698.173314594312,-134.826711113802
1.49053542455381,837.150284432011,280.74166348152,-556.408620950491,-558.945973956766,696.779452691251,-137.833478734485
1.49269875608437,843.926982502673,278.59449567737,-565.332486825303,-561.260739090022,704.629734663989,-143.368995573967
1.49486208761493,847.676607369439,270.937877851355,-576.738729518085,-559.307242610397,712.207668443762,-152.900425833365
1.49702541914548,838.311630394197,259.555436627281,-578.756193766916,-548.933533510739,708.533912080557,-159.600378569817
1.49918875067604,836.496457852753,266.481778302035,-570.014679550719,-551.489118077394,703.255568701736,-151.766450624342
1.5013520822066,844.28608200992,273.231308593447,-571.054773416473,-558.758695301684,707.670427713196,-148.911732411513
1.50351541373716,843.512656751024,289.154619346475,-554.358037404548,-566.33363804875,698.935347077786,-132.601709029036
1.50567874526771,839.763972741138,267.640769411302,-572.123203329836,-553.70237107622,705.943588035487,-152.241216959267
1.50784207679827,836.427796074028,279.287786284428,-557.140009789601,-557.857791179228,696.783902931814,-138.926111752586
1.51000540832883,845.940425515098,277.582909049012,-568.357516466086,-561.761667282055,707.148970990592,-145.387303708537
1.51216873985938,844.052283433376,284.724468767771,-559.327814665605,-564.388376100574,701.690049049491,-137.301672948917
1.51433207138994,837.469522736606,267.93893679685,-569.530585939755,-552.704229766728,703.500054338181,-150.795824571453
1.5164954029205,840.371690346124,264.861634393279,-575.510055952845,-552.616662369701,707.940873149485,-155.324210779783
1.51865873445105,846.014986202017,266.579963060114,-579.435023141903,-556.297474631065,712.72500467196,-156.427530040894
1.52082206598161,843.507470507849,269.496374438824,-574.011096069025,-556.501922473336,708.759283288437,-152.2573608151
1.52298539751217,836.295729737803,279.486181835956,-556.809547901848,-557.89095578688,696.552638819825,-138.661683032946
1.52514872904273,838.542793676108,292.231051413015,-546.311742263093,-565.386922544561,692.427267969601,-127.040345425039
1.52731206057328,845.053617771219,307.030275259353,-538.023342511867,-576.041946515286,691.538480141543,-115.496533626257
1.52947539210384,839.729444436843,314.598370018687,-525.131074418156,-577.163907227765,682.4302594275,-105.266352199734
1.5316387236344,835.665363359025,304.096379350591,-531.568984008435,-569.880871354808,683.61717368373,-113.736302328922
1.53380205516495,841.858989827967,295.585137122608,-546.273852705359,-568.722063475287,694.066421266663,-125.344357791376
1.53596538669551,846.61528917024,290.351956298689,-556.263332871551,-568.483622734464,701.439311020895,-132.955688286431
1.53812871822607,839.950921815677,280.367512853658,-559.583408962019,-560.159217334667,699.767165388848,-139.607948054181
1.54029204975663,835.949917134784,277.837350992127,-558.112566142657,-556.893634063455,697.03124163872,-140.137607575265
1.54245538128718,841.017181623824,288.090876265658,-552.926305358166,-564.554028944741,696.971743490995,-132.417714546254
1.54461871281774,845.027312642273,293.582760175479,-551.444552466794,-569.305036408876,698.235932554533,-128.930896145658
1.5467820443483,836.238534247407,288.23043566787,-548.008098579538,-562.234484957639,692.123316413472,-129.888831455834
1.54894537587885,833.065640885991,276.04986611728,-557.015774768712,-554.557753501636,695.040707827352,-140.482954325716
1.55110870740941,841.385489160877,262.429915643616,-578.955573517261,-551.907702402246,710.170531339069,-158.262828936822
1.55327203893997,842.972602675367,244.319076149149,-598.653526526217,-543.645839412258,720.813064600792,-177.167225188534
1.55543537047052,837.497562963244,229.134924202992,-608.362638760252,-533.316243583118,722.930100861748,-189.61385727863
1.55759870200108,835.812315637427,229.48535220765,-606.326963429778,-532.648833922538,721.069639533602,-188.420805611064
1.55976203353164,843.276320320673,245.287331813845,-597.988988506828,-544.281826067259,720.63265441375,-176.350828346491
1.5619253650622,842.821574284818,256.222276295231,-586.599297989587,-549.521925290024,714.710436137202,-165.188510847178
1.56408869659275,837.124844324198,252.966905373544,-584.157938950654,-545.045874848871,710.641391637426,-165.595516788555
1.56625202812331,836.570165245249,242.480005149509,-594.09016009574,-539.525085197379,715.330162670494,-175.805077473116
1.56841535965387,843.42338543126,230.277131792408,-613.146253638852,-536.850258611834,728.284819535056,-191.434560923222
1.57057869118442,843.296242695432,234.296548231392,-608.999694464039,-538.796395463412,726.147968579735,-187.351573116323
1.57274202271498,835.68851104568,239.981192442687,-595.707318602993,-537.834851744184,715.697914824336,-177.863063080153
1.57490535424554,837.666151084596,240.934722015932,-596.731429068664,-539.300436550264,717.19879007663,-177.898353526366
1.5770686857761,842.790999734064,239.347206163278,-603.443793570786,-541.069102948671,723.117396652425,-182.048293703754
1.57923201730665,840.729833180606,246.232706125285,-594.497127055321,-543.481269652946,717.613480117963,-174.132210465018
1.58139534883721,832.881097617777,244.512677789062,-588.368419828715,-538.696887703419,710.624758723246,-171.927871019826
1.58355868036777,838.86818150219,248.32756839654,-590.54061310565,-543.597874949365,714.70439730392,-171.106522354555
1.58572201189832,846.460261551017,251.860122708552,-594.600138842465,-549.160192129785,720.530200196741,-171.370008066956
1.58788534342888,842.856316609664,241.65843009548,-601.197886514184,-542.257373352572,722.027101561924,-179.769728209352
1.59004867495944,839.876260545618,239.59039249629,-600.285868049328,-539.733326520954,720.081064297473,-180.347737776519
1.59221200648999,844.095369508494,248.426152440473,-595.669217068021,-546.260760974483,719.882293288257,-173.621532313774
1.59437533802055,848.283017739554,260.347595275632,-587.935422463921,-554.315306507593,718.109220101738,-163.793913594145
1.59653866955111,843.261732669715,267.382851925718,-575.878880743997,-555.322292297717,709.570306706856,-154.248014409139
1.59870200108167,838.790315431108,258.486719276276,-580.303596154832,-548.638517353692,709.54695579297,-160.908438439278
1.60086533261222,846.451815530063,235.421102669504,-611.030712860558,-540.936459099784,728.741264195311,-187.804805095527
1.60302866414278,851.328286221232,230.346521789732,-620.9817644315,-540.837404005482,736.155025326367,-195.317621320884
1.60519199567334,842.293451337477,228.468343563844,-613.825107773632,-535.38089745066,728.059279555555,-192.678382104894
1.60735532720389,841.302509814001,227.808695358667,-613.493814455334,-534.555602586334,727.398162134667,-192.842559548333
1.60951865873445,848.544631447009,242.584173834273,-605.960457612736,-545.564402640641,727.252544529873,-181.688141889232
1.61168199026501,849.526749221872,270.289229751444,-579.237519470428,-559.907989486658,714.38213434615,-154.474144859492
1.61384532179557,841.912049920488,276.014141722506,-565.897908197982,-558.963095821497,703.904979059235,-144.941883237738
1.61600865332612,840.887482733119,280.849812327889,-560.037670405229,-560.868647530504,700.462576569174,-139.59392903867
1.61817198485668,849.734553453308,285.888677886286,-563.845875567022,-567.811615669797,706.790214510165,-138.978598840368
1.62033531638724,847.993874448312,286.769960394595,-561.223914053716,-567.381917421453,704.608894251014,-137.226976829561
1.62249864791779,840.195359530963,280.825574857402,-559.369784673561,-560.510467194182,699.782572102262,-139.27210490808
1.62466197944835,840.852453755684,273.84080189517,-567.011651860514,-557.346627825427,703.932052808099,-146.585424982672
1.62682531097891,849.413324055766,276.016584981611,-573.396739074154,-562.714954518689,711.40503156496,-148.690077046271
1.62898864250946,849.69314440543,276.848079343034,-572.845065062396,-563.270611874232,711.269104733913,-147.998492859681
1.63115197404002,843.234554381845,281.864394142256,-561.370160239589,-562.549474262051,702.302357310717,-139.752883048666
1.63331530557058,845.932357816316,292.966155534395,-552.966202281921,-569.449256675355,699.449280049118,-130.000023373763
1.63547863710114,853.241810281268,303.617001560116,-549.624808721151,-578.429405920692,701.433309501209,-123.003903580518
1.63764196863169,849.832235118233,302.799304741628,-547.032930376605,-576.31576992993,698.432582747419,-122.116812817489
1.63980530016225,842.999297675529,284.857764658882,-558.141533016647,-563.928531167205,700.570415346088,-136.641884178883
1.64196863169281,848.146175548171,277.233907719313,-570.912267828858,-562.690041633742,709.529221688515,-146.839180054773
1.64413196322336,854.312935691461,278.397608413884,-575.915327277577,-566.355272052672,715.114131484519,-148.758859431847
1.64629529475392,847.247053300701,278.520942196385,-568.726111104316,-562.883997748543,707.986582202509,-145.102584453966
1.64845862628448,842.671975083588,283.227232249485,-559.444742834103,-562.949603666537,701.058358958846,-138.108755292309
1.65062195781504,850.483242514024,290.111516690307,-560.371725823717,-570.297379602166,705.427484168871,-135.130104566705
1.65278528934559,852.55755140024,285.565341633484,-566.992209766756,-569.061446516862,709.774880583498,-140.713434066636
1.65494862087615,845.260277429359,284.562650178269,-560.69762725109,-564.911463803814,702.978952340225,-138.067488536411
1.65711195240671,839.991346741793,264.515755665027,-575.475591076765,-552.25355120341,707.733468909279,-155.479917705869
1.65927528393726,844.651935520491,261.787574132284,-582.864361388207,-553.219754826388,713.758148454349,-160.538393627961
1.66143861546782,847.968934029736,256.247918188658,-591.721015841078,-552.108426109197,719.844974935407,-167.73654882621
1.66360194699838,841.777442573357,245.080369284178,-596.697073289179,-543.428905928768,719.237257931268,-175.808352002501
1.66576527852893,838.351812046434,245.917575377136,-592.434236669297,-542.134693711785,715.393024357865,-173.25833064608
1.66792861005949,844.918613223107,263.862744086586,-581.055869136521,-554.390678654847,712.987241179814,-158.596562524967
1.67009194159005,845.603092127316,278.747728900048,-566.855363227268,-562.175410513682,706.229227677292,-144.05381716361
1.67225527312061,836.918281409952,274.154197089539,-562.764084320414,-555.536239249745,699.841182865183,-144.304943615438
1.67441860465116,834.161968409093,264.526518420678,-569.635449988415,-549.344243414885,701.898709198754,-152.554465783869
1.67658193618172,838.766522854292,251.546096033062,-587.22042682123,-545.156309443677,712.993474837761,-167.837165394084
1.67874526771228,838.486275083298,240.323110091589,-598.163164991708,-539.404692587443,718.324720037503,-178.92002745006
1.68090859924283,829.843312791671,233.181859738355,-596.661453053316,-531.512586265013,713.252382922493,-181.739796657481
1.68307193077339,832.085441135035,236.716662948342,-595.368778186693,-534.401052041688,713.727109660864,-179.326057619176
1.68523526230395,840.646377550865,256.045474395626,-584.600903155239,-548.345925973245,712.623640353052,-164.277714379807
1.68739859383451,838.586660426352,255.429113008574,-583.157547417778,-547.007886717463,710.872103922065,-163.864217204602
1.68956192536506,831.298719840809,249.200058846793,-582.098660994016,-540.249389343801,706.698690417412,-166.449301073612
1.69172525689562,834.214570601467,248.064017760024,-586.150552841444,-541.139294180746,710.182561721455,-169.04326754071
1.69388858842618,841.082114500971,250.113104971707,-590.969009529263,-545.597609736339,716.025562015117,-170.427952278778
1.69605191995673,837.26994253435,255.981896945648,-581.288045588702,-546.625919739999,709.278994061526,-162.653074321527
1.69821525148729,830.844580995291,257.024127949783,-573.820453045507,-543.934354472537,702.332517020399,-158.398162547862
1.70037858301785,833.456674328868,266.450565677262,-567.006108651605,-549.953620003065,700.231391490236,-150.277771487171
1.7025419145484,839.409308053683,269.281711471151,-570.127596582532,-554.345509762417,704.768452318108,-150.42294255569
1.70470524607896,835.142570282141,275.573387048964,-559.569183233176,-555.357978665553,697.355876757659,-141.997898092106
1.70686857760952,829.856635695702,273.891227400677,-555.965408295026,-551.873931548189,692.911021995364,-141.037090447175
1.70903190914008,834.693166422233,292.92426204945,-541.768904372783,-563.808714235842,688.231035397508,-124.422321161666
1.71119524067063,840.203677254155,299.457373852439,-540.746303401717,-569.830525553297,690.474990327936,-120.644464774639
1.71335857220119,833.726830200294,287.140636053593,-546.586194146701,-560.433733126944,690.156512173498,-129.722779046554
1.71552190373175,830.014347538966,272.923327922582,-557.091019616384,-551.468837730774,693.552683577675,-142.083845846901
1.7176852352623,835.974610258925,268.391947540048,-567.582662718877,-552.183278899487,701.778636488901,-149.595357589414
1.71984856679286,838.968407851907,266.525497187596,-572.442910664311,-552.746952519752,705.705659258109,-152.958706738358
1.72201189832342,831.692735545279,267.204453260606,-564.488282284672,-549.448594402942,698.090508914975,-148.641914512033
1.72417522985398,828.598414315085,271.331151281304,-557.267263033781,-549.964782798194,692.932838674433,-142.968055876238
1.72633856138453,837.02083360166,278.458318661791,-558.562514939869,-557.739576131725,697.791674270764,-140.052098139039
1.72850189291509,841.13996042618,277.617836213174,-563.522124213006,-559.378898319677,702.331042319593,-142.952143999916
1.73066522444565,834.470669286172,275.138957221313,-559.331712064859,-554.804813253743,696.901190675516,-142.096377421773
1.7328285559762,835.324361768824,280.367610340824,-554.956751428001,-557.845986054824,695.140556598413,-137.294570543589
1.73499188750676,844.109910596292,288.267271734573,-555.842638861719,-566.188591165433,699.976274729006,-133.787683563573
1.73715521903732,843.451766740736,292.167941753872,-551.283824986864,-567.809854247304,697.3677958638,-129.557941616496
1.73931855056787,833.782163882337,288.449919626107,-545.33224425623,-561.116041754222,689.557204069283,-128.441162315061
1.74148188209843,832.351333430396,287.795121839979,-544.556211590417,-560.073227635187,688.453772510406,-128.380544875219
1.74364521362899,839.717416768292,289.1334255795,-550.583991188792,-564.425421173896,695.150703978542,-130.725282804646
1.74580854515955,836.199757962888,278.181532706748,-558.018225256139,-557.190645334818,697.108991609514,-139.918346274696
1.7479718766901,829.119122649439,263.892344657214,-565.226777992224,-546.505733653327,697.172950320831,-150.667216667505
1.75013520822066,832.504466468556,252.174599836017,-580.329866632539,-542.339533152287,706.417166550547,-164.077633398261
1.75229853975122,841.222290124173,252.513655161905,-588.708634962268,-546.867972643039,714.96546254322,-168.097489900182
1.75446187128177,838.047192014997,264.365515219003,-573.681676795994,-551.206353617,705.864434405495,-154.658080788495
1.75662520281233,833.840629713107,277.247578692624,-556.593051020483,-555.544104202866,695.216840366795,-139.672736163929
1.75878853434289,842.753508621784,287.498254452846,-555.255254168938,-565.125881537315,699.004381395361,-133.878499858046
1.76095186587345,854.367812810154,296.025097794616,-558.342715015538,-575.196455302385,706.355263912846,-131.158808610461
1.763115197404,854.654445724435,300.957750776668,-553.696694947767,-577.806098250552,704.175570336101,-126.36947208555
1.76527852893456,856.692743803575,298.514523752054,-558.178220051521,-577.603633777814,707.435481927548,-129.831848149734
1.76744186046512,864.140026982318,312.286146694343,-551.853880287976,-588.213086838331,707.996953635147,-119.783866796817
1.76960519199567,869.524162667841,321.189271371362,-548.334891296479,-595.356717019602,708.92952698216,-113.572809962558
1.77176852352623,890.591023049308,342.648330519105,-547.942692530203,-616.619676784206,719.266857789755,-102.647181005549
1.77393185505679,930.971356198757,362.010523107271,-568.960833091486,-646.490939653014,749.966094645121,-103.475154992108
1.77609518658734,998.56485217794,393.582340541405,-604.982511636535,-696.073596359672,801.773681907237,-105.700085547565
1.7782585181179,1010.94230087915,414.22712996886,-596.715170910291,-712.584715424006,803.828735894722,-91.2440204707156
1.78042184964846,997.083862064095,420.631425123444,-576.452436940651,-708.857643593769,786.768149502373,-77.9105059086037
1.78258518117902,904.930692064652,393.530004055547,-511.400688009105,-649.2303480601,708.165690036879,-58.9353419767792
1.78474851270957,870.889201678271,376.243036774323,-494.646164903948,-623.566119226297,682.767683291109,-59.2015640648123
1.78691184424013,872.894328095503,355.354227349745,-517.540100745759,-614.124277722624,695.217214420631,-81.0929366980071
1.78907517577069,861.499183059932,336.826280547493,-524.672902512439,-599.162731803713,693.086042786185,-93.9233109824727
1.79123850730124,854.949285870811,319.711572857464,-535.237713013346,-587.330429364138,695.093499442078,-107.763070077941
1.7934018388318,849.814217096293,311.404674874466,-538.409542221827,-580.609445985379,694.11187965906,-113.502433673681
1.79556517036236,836.726917903158,305.41154691458,-531.315370988577,-571.069232408869,684.021144445867,-112.951912036998
1.79772850189291,824.781864572585,296.017057677289,-528.764806895296,-560.399461124937,676.77333573394,-116.373874609004
1.79989183342347,825.518367091542,287.801829286838,-537.716537804704,-556.66009818919,681.617452448123,-124.957354258933
1.80205516495403,834.500297772686,273.48270740419,-561.017590368496,-553.991502588438,697.758944070591,-143.767441482153
1.80421849648459,837.311933098945,262.064683314608,-575.247249784337,-549.688308206776,706.279591441641,-156.591283234864
1.80638182801514,833.618606122979,259.298724124228,-574.319881998751,-546.458665123604,703.969244060865,-157.510578937261
1.8085451595457,837.610481306373,263.103308286994,-574.507173019378,-550.356894796683,706.058827162875,-155.701932366192
1.81070849107626,847.451311722611,262.846937173078,-584.604374549533,-555.149124447844,716.027843136072,-160.878718688228
1.81287182260681,843.366956400371,265.043208641702,-578.323747758669,-554.205082521036,710.84535207952,-156.640269558484
1.81503515413737,837.395235669958,267.92811953975,-569.467116130209,-552.661677604854,703.431175900083,-150.769498295229
1.81719848566793,844.551563026165,269.022973224808,-575.528589801357,-556.787268125486,710.040076413761,-153.252808288274
1.81936181719849,848.461123384398,264.910935151132,-583.550188233266,-556.686029267765,716.005655808832,-159.319626541067
1.82152514872904,840.785600285715,261.269649849681,-579.515950436034,-551.027625067698,710.150775360874,-159.123150293176
1.8236884802596,832.004399719734,261.916839239092,-570.087560480642,-546.960619479413,701.045980100188,-154.085360620775
1.82585181179016,836.57353855105,260.447609534375,-576.125929016675,-548.510574042712,706.349733783862,-157.83915974115
1.82801514332071,839.001647434411,251.540773241061,-587.46087419335,-545.271210337736,713.231260813881,-167.960050476145
1.83017847485127,832.052075757249,240.435153043603,-591.616922713646,-536.243614400426,711.834499235447,-175.590884835021
1.83234180638183,829.413733402835,238.569488175201,-590.844245227633,-533.991610789018,710.128989315234,-176.137378526216
1.83450513791239,840.493734056518,237.047324234823,-603.446409821695,-538.770529145671,721.970071939106,-183.199542793436
1.83666846944294,841.805428224253,227.591280721021,-614.214147503232,-534.698354472637,728.009787863742,-193.311433391105
1.8388318009735,834.094610540089,222.411533027078,-611.683077513011,-528.253071783583,722.88884402655,-194.635772242967
1.84099513250406,831.481463466246,222.91500114236,-608.566462323886,-527.198232304303,720.023962895066,-192.825730590763
1.84315846403461,840.343241161955,233.478660178717,-606.864580983238,-536.910950670336,723.603911072596,-186.692960402261
1.84532179556517,838.596657580428,244.659187570284,-593.937470010145,-541.627922575356,716.267063795287,-174.639141219931
1.84748512709573,832.291097830669,253.767402840452,-578.523694990217,-543.029250335561,705.407396410443,-162.378146074882
1.84964845862628,832.503295313118,267.364425817165,-565.138869495954,-549.933860565141,698.821082404536,-148.887221839394
1.85181179015684,843.843052613067,280.258689654052,-563.584362959014,-562.05087113356,703.71370778604,-141.662836652481
1.8539751216874,843.082319444291,278.385452285898,-564.696867158392,-560.733885865095,703.889593301341,-143.155707436247
1.85613845321796,835.037019522921,261.454754675467,-573.582264847454,-548.245887099194,704.309642185188,-156.063755085994
1.85830178474851,833.911328181081,241.984453694301,-591.92687448678,-537.947890937691,712.919101333931,-174.97121039624
1.86046511627907,839.438739664103,229.961742721589,-609.476996942514,-534.700241192846,724.457868303308,-189.757627110463
1.86262844780963,837.509897298021,226.680804905412,-610.829092392608,-532.095351101716,724.169494845314,-192.074143743598
1.86479177934018,833.549156156863,234.322091156572,-599.227065000292,-533.935623656717,716.388110578577,-182.45248692186
1.86695511087074,840.3312769495,240.445550526196,-599.885726423304,-540.388413737848,720.108501686402,-179.720087948554
1.8691184424013,847.063399587365,248.068669744372,-598.994729842992,-547.566034665869,723.029064715179,-175.46303004931
1.87128177393186,842.528098123542,244.837838848087,-597.690259275455,-543.682968485814,720.109178699498,-176.426210213684
1.87344510546241,834.946812494919,258.696271619197,-576.250540875722,-546.821542057058,705.59867668532,-158.777134628262
1.87560843699297,839.894070980792,265.450218719771,-574.443852261021,-552.672144850281,707.168961620906,-154.496816770625
1.87777176852353,844.553213110614,277.190581401026,-567.362631709588,-560.87189725582,705.957922410101,-145.086025154281
1.87993510005408,838.15307662009,277.021710127711,-561.131366492379,-557.587393373901,699.642221556234,-142.054828182334
1.88209843158464,835.997488227811,272.349974563065,-563.647513664745,-554.173731395438,699.822500946278,-145.64876955084
1.8842617631152,844.344262908354,272.679635158009,-571.664627750345,-558.511949033182,708.00444532935,-149.492496296168
1.88642509464575,846.982062497819,297.642214945705,-549.339847552114,-572.312138721762,698.160955024967,-125.848816303204
1.88858842617631,840.82457593385,300.12589818745,-540.6986777464,-570.47523706065,690.761626840125,-120.286389779475
1.89075175770687,837.06580411711,299.484609933812,-537.581194183299,-568.275207025461,687.323499150204,-119.048292124743
1.89291508923743,842.877440128223,299.150387438876,-543.727052689347,-571.013913783549,693.302246408785,-122.288332625236
1.89507842076798,844.538451574185,289.132898057685,-555.4055535165,-566.835674815935,699.972002545343,-133.136327729407
1.89724175229854,839.087933231197,274.62490220086,-564.463031030337,-556.856417716029,701.775482130767,-144.919064414738
1.8994050838291,838.639721148,274.118664015069,-564.521057132932,-556.379192581535,701.580389140466,-145.201196558931
1.90156841535965,846.955411552503,267.548784705762,-579.406626846741,-557.252098129132,713.181019199622,-155.92892107049
1.90373174689021,846.652643227284,274.039741870122,-572.612901357161,-560.346192548703,709.632772292223,-149.28657974352
1.90589507842077,839.525867166859,274.300092242709,-565.22577492415,-556.912979704784,702.375821045505,-145.46284134072
1.90805840995133,838.247701670505,276.813404041818,-561.434297628688,-557.530552856162,699.840999649596,-142.310446793435
1.91022174148188,844.316913270439,273.36534521193,-570.951568058509,-558.841129241185,707.634240664474,-148.793111423289
1.91238507301244,844.62051085268,266.30383801286,-578.316672839821,-555.46217443277,711.468591846251,-156.00641741348
1.914548404543,836.834168695164,254.311966703119,-582.522201992045,-545.573067699142,709.678185343605,-164.105117644463
1.91671173607355,844.200651642934,261.070987328565,-583.129664314369,-552.63581948575,713.665157978652,-161.029338492902
1.91887506760411,852.629173826145,265.05758734241,-587.571586483736,-558.843380584277,720.100380154941,-161.256999570663
1.92103839913467,847.344125074789,273.166854680001,-574.177270394788,-560.255489877395,710.760697734789,-150.505207857394
1.92320173066522,842.06325889622,280.654946505098,-561.408312391121,-561.359102700659,701.735785643671,-140.376682943012
1.92536506219578,844.148191090959,295.3169643682,-548.831226722759,-569.73257772958,696.489708906859,-126.75713117728
1.92752839372634,849.879004739075,281.553267006442,-568.325737732633,-565.716135872759,709.102371235854,-143.386235363095
1.9296917252569,842.276923894368,271.617456910051,-570.659466984317,-556.94719040221,706.468195439343,-149.521005037133
1.93185505678745,838.781612973665,263.385128143444,-575.396484830221,-551.083370558555,707.089048901943,-156.005678343388
1.93401838831801,847.170036616881,276.135584370614,-571.034452246268,-561.652810493748,709.102244431575,-147.449433937827
1.93618171984857,854.008677179149,297.288509591433,-556.720167587716,-575.648593385291,705.364422383432,-129.715828998141
1.93834505137912,848.603561741324,302.071086405019,-546.532475336305,-575.337324073172,697.568018538815,-122.230694465643
1.94050838290968,845.751123607231,313.263751792016,-532.487371815215,-579.507437699624,689.119247711223,-109.611810011599
1.94267171444024,849.289962926459,314.133991292808,-535.155971633651,-581.711977109634,692.222967280055,-110.510990170421
1.9448350459708,851.350270524601,312.770528766165,-538.579741758437,-582.060399645383,694.965006141519,-112.904606496136
1.94699837750135,845.040681609812,295.090347562317,-549.950334047494,-570.065514586064,697.495507828653,-127.429993242589
1.94916170903191,842.950135366154,300.857562055831,-542.092573310323,-571.903848710993,692.521354338239,-120.617505627246
1.95132504056247,852.955542253568,306.208682974238,-546.74685927933,-579.582112613903,699.851200766449,-120.269088152546
1.95348837209302,854.075800179515,313.041904967064,-541.033895212451,-583.55885257329,697.554847695983,-113.995995122694
1.95565170362358,849.071326135141,315.097877093145,-533.973449041996,-582.084601614143,691.522387588569,-109.437785974426
1.95781503515414,846.619511179167,326.504050167161,-520.115461012006,-586.561780673164,683.367486095587,-96.8057054224224
1.95997836668469,853.08757479649,340.852964325869,-512.234610470621,-596.97026956118,682.661092633556,-85.6908230723762
1.96214169821525,852.761605540438,343.196420613445,-509.565184926993,-597.979013076942,681.163395233716,-83.1843821567741
1.96430502974581,843.382773977452,329.295224978562,-514.08754899889,-586.338999478007,678.735161488171,-92.3961620101642
1.96646836127637,849.162793572657,317.645014632513,-531.517778940144,-583.403904102585,690.3402862564,-106.936382153816
1.96863169280692,857.992804620666,314.367665788729,-543.625138831937,-586.180235204697,700.808971726301,-114.628736521604
1.97079502433748,857.052334471868,311.868154289447,-545.184180182421,-584.460244380658,701.118257327144,-116.658012946487
1.97295835586804,851.248636777843,309.82609091336,-541.422545864483,-580.537363845601,696.335591321163,-115.798227475561
1.97512168739859,852.387075471621,309.110336859791,-543.27673861183,-580.748706165706,697.831907041725,-117.08320087602
1.97728501892915,857.107891705652,306.718057392881,-550.389834312771,-581.912974549267,703.748863009212,-121.835888459945
1.97944835045971,851.537425809221,298.937300813082,-552.60012499614,-575.237363311152,702.06877540268,-126.831412091529
1.98161168199026,847.816592315983,293.16520664248,-554.651385673503,-570.490899479232,701.233988994743,-130.743089515511
1.98377501352082,854.996469661615,284.796810451012,-570.199659210603,-569.896640056314,712.598064436109,-142.701424379795
1.98593834505138,861.83926197634,281.60563200365,-580.233629972689,-571.722446989995,721.036445974515,-149.31399898452
1.98810167658194,858.372513297205,283.942505057954,-574.430008239251,-571.157509177579,716.401260768228,-145.243751590649
1.99026500811249,852.528248304996,292.610220047047,-559.918028257949,-572.569234176022,706.223138281473,-133.653904105451
1.99242833964305,857.605802166378,307.63676642357,-549.969035742807,-582.621284294974,703.787418954593,-121.166134659619
1.99459167117361,862.043488502314,308.228950363885,-553.814538138428,-585.1362194331,707.929013320371,-122.792793887272
1.99675500270416,854.133875114277,310.708447956144,-543.425427158134,-582.421161535211,698.779651136206,-116.358489600995
1.99891833423472,851.44986418495,309.296709790116,-542.153154394834,-580.373286987533,696.801509289892,-116.428222302359
2.00108166576528,859.889197780541,303.189716337308,-556.699481443232,-581.539457058924,708.294339611886,-126.754882552962
2.00324499729584,862.385642179674,289.061146676915,-573.324495502758,-575.723394428295,717.855068841216,-142.131674412921
2.00540832882639,854.722974383844,286.429132156101,-568.293842227743,-570.576053269973,711.508408305793,-140.932355035821
2.00757166035695,852.069136522235,291.729592285781,-560.339544236454,-571.899364404008,706.204340379344,-134.304975975336
2.00973499188751,859.653859973175,300.897915419788,-558.755944553386,-580.275887696481,709.20490226328,-128.929014566799
2.01189832341806,858.771367667685,310.257222445164,-548.51414522252,-584.514295056424,703.642756445102,-119.128461388678
2.01406165494862,851.113405339744,312.705391344317,-538.408013995427,-581.909398342031,694.760709667586,-112.851311325555
2.01622498647918,853.251564362839,318.111674041642,-535.139890321197,-585.68161920224,694.195727342018,-108.514108139778
2.01838831800973,860.231000089949,319.558242005105,-540.672758084844,-589.894621047527,700.451879087396,-110.55725803987
2.02055164954029,860.725807497197,315.933180780881,-544.792626716317,-588.329494139039,702.759217106757,-114.429722967718
2.02271498107085,851.638100939262,310.617588517918,-541.020512421344,-581.12784472859,696.329306680303,-115.201461951713
2.02487831260141,853.62134752211,315.929241233054,-537.692106289056,-584.775294377582,695.656726905583,-110.881432528001
2.02704164413196,862.018445027789,330.174583474469,-531.843861553319,-596.096514251129,696.931153290554,-100.834639039425
2.02920497566252,859.649230125625,340.390202769159,-519.259027356466,-600.019716447392,689.454128741045,-89.4344122936535
2.03136830719308,848.987123694349,346.291445121765,-502.695678572584,-597.639284408057,675.841401133466,-78.2021167254097
2.03353163872363,852.872055472458,362.474313362838,-490.397742109619,-607.673184417648,671.634898791038,-63.9617143733905
2.03569497025419,861.580055199728,349.725585447278,-511.85446975245,-605.652820323503,686.717262476089,-81.0644421525861
2.03785830178475,855.302336956116,336.330783055061,-518.971553901055,-595.816560005588,687.136945428585,-91.3203854229969
2.04002163331531,849.597901660054,317.016697224881,-532.581204435173,-583.307299442467,691.089553047613,-107.782253605146
2.04218496484586,848.761124974373,308.352128927546,-540.408996046827,-578.556626950959,694.5850605106,-116.02843355964
2.04434829637642,853.289716909721,302.029509374942,-551.260207534779,-577.659613142331,702.27496222225,-124.615349079919
2.04651162790698,847.186417034842,309.69949491107,-537.486922123772,-578.442955972956,692.336669579307,-113.893713606351
2.04867495943753,842.166129961993,317.920846691294,-524.245283270699,-580.043488326643,683.205706616346,-103.162218289703
2.05083829096809,846.741270172816,329.822304418503,-516.918965754313,-588.28178729566,681.830117963565,-93.5483306679049
2.05300162249865,849.513397831632,322.379098819812,-527.13429901182,-585.946248325722,688.323848421726,-102.377600096004
2.0551649540292,842.597135168263,307.786095609803,-534.811039558461,-575.191615389033,688.704087363362,-113.512471974329
2.05732828555976,838.736642916715,300.65157922059,-538.085063696125,-569.694111068653,688.41085330642,-118.716742237768
2.05949161709032,841.899883274229,301.868689551449,-540.03119372278,-571.884286412839,690.965538498504,-119.081252085665
2.06165494862088,846.375992781079,308.738267148709,-537.637725632369,-577.557129964894,692.006859206724,-114.44972924183
2.06381828015143,837.910512216501,310.106006753795,-527.804505462706,-574.008259485148,682.857508839603,-108.849249354455
2.06598161168199,835.511781330408,313.753512603893,-521.758268726515,-574.63264696715,678.635025028461,-104.002378061311
2.06814494321255,843.281351973563,328.005115569706,-515.276236403857,-585.643233771635,679.27879418871,-93.6355604170756
2.0703082747431,841.271502827153,330.870009976188,-510.401492850965,-586.070756401671,675.836497839059,-89.7657414373885
2.07247160627366,830.321601434058,305.573122484825,-524.748478949232,-567.947361959442,677.535040191645,-109.587678232203
2.07463493780422,827.957152074669,274.754670522437,-553.202481552231,-551.355911298553,690.57981681345,-139.223905514897
2.07679826933478,835.479892623023,261.357958531788,-574.121934091235,-548.418925577406,704.800913357129,-156.381987779723
2.07896160086533,831.48686976072,252.524405520266,-578.962464240455,-542.005637640493,705.224667000587,-163.219029360094
2.08112493239589,824.455074081872,248.526823926371,-575.928250155502,-536.490949004121,700.191662118687,-163.700713114566
2.08328826392645,827.814966103496,256.934929354353,-570.880036749143,-542.374947728924,699.347501426319,-156.972553697395
2.085451595457,836.902435210435,255.774879580173,-581.127555630263,-546.338657395304,709.014995420349,-162.676338025045
2.08761492698756,833.031502069958,251.039427535332,-581.992074534626,-542.035464802645,707.511788302292,-165.476323499647
2.08977825851812,823.853134886568,237.695115780194,-586.158019106374,-530.774125333381,705.005576996471,-174.23145166309
2.09194159004868,827.896813574751,227.208935721363,-600.687877853387,-527.552874648057,714.292345714069,-186.739471066012
2.09410492157923,834.211324794088,241.418847775752,-592.792477018337,-537.81508628492,713.501900906213,-175.686814621292
2.09626825310979,829.16307122189,252.866701395069,-576.296369826821,-541.01488630848,702.729720524356,-161.714834215876
2.09843158464035,824.097176979957,264.534052922631,-559.563124057326,-544.315614951294,691.830150518642,-147.514535567348
2.1005949161709,830.578814646784,276.912837788323,-553.665976858461,-553.745826217554,692.122395752623,-138.376569535069
2.10275824770146,837.405922561712,279.008271798891,-558.397650762821,-558.207097180302,697.901786662266,-139.694689481965
2.10492157923202,829.425256684418,267.039082514767,-562.38617416965,-548.232169599592,695.905715427034,-147.673545827442
2.10708491076257,825.536022843883,240.32872223771,-585.207300606173,-532.932372540796,705.371661725028,-172.439289184231
2.10924824229313,831.102942973305,253.869001391518,-577.233941581788,-542.485972182412,704.168442277546,-161.682470095135
2.11141157382369,833.838588531349,261.569679166279,-572.26890936507,-547.704133848814,703.053748948209,-155.349615099395
2.11357490535425,826.824492358383,257.368826128446,-569.455666229937,-542.096659243414,698.14007929416,-156.043420050746
2.1157382368848,824.955769576227,260.953431999392,-564.002337576835,-542.95460078781,694.479053576531,-151.524452788721
2.11790156841536,834.255204658408,270.771797614669,-563.483407043739,-552.513501136538,698.869305851073,-146.355804714535
2.12006489994592,836.629735938952,273.617537158979,-563.012198779973,-555.123636548965,699.820967359462,-144.697330810497
2.12222823147647,829.951383186722,274.09443215151,-555.856951035212,-552.022907669116,692.904167110967,-140.881259441851
2.12439156300703,829.355123860546,271.485819703506,-557.869304157039,-550.420471782026,693.612214008793,-143.191742226767
2.12655489453759,835.045082392071,261.59245511606,-573.452627276011,-548.318768754065,704.248854834041,-155.930086079975
2.12871822606814,835.436580996603,261.411210824565,-574.025370172038,-548.423895910584,704.730975584321,-156.307079673737
2.1308815575987,829.019115458496,268.085884610781,-560.933230847715,-548.552500034639,694.976173153105,-146.423673118467
