t,leadI,leadII,leadIII,aVR,aVL,aVF
0,677.219461785087,189.362434089947,-487.85702769514,-433.290947937517,582.538244740113,-149.247296802596
0.00216333153055706,675.785261891758,234.543035112406,-441.242226779352,-455.164148502082,558.513744335555,-103.349595833473
0.00432666306111412,675.270087455652,255.446117726981,-419.823969728671,-465.358102591317,547.547028592161,-82.1889260008448
0.00648999459167117,676.290096770372,275.764769941074,-400.525326829298,-476.027433355723,538.407711799835,-62.3802784441121
0.00865332612222823,674.725561807266,288.890812438162,-385.834749369104,-481.808187122714,530.280155588185,-48.4719684654708
0.0108166576527853,673.735070693183,281.884410414279,-391.850660278903,-477.809740553731,532.792865486043,-54.983124932312
0.0129799891833423,671.854192588702,256.27260395102,-415.581588637682,-464.063398269861,543.717890613192,-79.6544923433308
0.0151433207138994,670.859363471135,243.944777247425,-426.914586223711,-457.40207035928,548.886974847423,-91.484904488143
0.0173066522444565,670.880608129044,237.940315018497,-432.940293110547,-454.41046157377,551.910450619795,-97.4999890460251
0.0194699837750135,668.729734597152,236.051504839221,-432.678229757931,-452.390619718187,550.703982177541,-98.3133624593546
0.0216333153055706,668.233229024746,232.843635191438,-435.389593833308,-450.538432108092,551.811411429027,-101.272979320935
0.0237966468361276,668.405408290787,229.154558544134,-439.250849746652,-448.77998341746,553.82812901872,-105.048145601259
0.0259599783666847,665.16064518449,235.226867420542,-429.933777763948,-450.193756302516,547.547211474219,-97.3534551717033
0.0281233098972418,665.687403066548,243.688282585632,-421.999120480916,-454.68784282609,543.843261773732,-89.1554189476421
0.0302866414277988,663.004932721253,254.258928792265,-408.746003928988,-458.631930756759,535.875468325121,-77.2435375683612
0.0324499729583559,663.659831922092,261.197182972438,-402.462648949655,-462.428507447265,533.061240435873,-70.6327329886084
0.0346133044889129,662.184835747923,254.236476166098,-407.948359581825,-458.210655957011,535.066597664874,-76.8559417078632
0.03677663601947,660.896686152847,245.606426141767,-415.29026001108,-453.251556147307,538.093473081964,-84.8419169346567
0.038939967550027,661.990048771757,232.535022649107,-429.45502612265,-447.262535710432,545.722537447204,-98.4600017367714
0.0411032990805841,660.504749902953,218.452327618655,-442.052422284298,-439.478538760804,551.278586093625,-111.800047332822
0.0432666306111412,660.339956391064,221.542840941883,-438.797115449181,-440.941398666474,549.568535920122,-108.627137253649
0.0454299621416982,659.211684255421,231.064467031721,-428.1472172237,-445.138075643571,543.67945073956,-98.5413750959895
0.0475932936722553,658.125651349581,243.341477746521,-414.78417360306,-450.733564548051,536.454912476321,-85.7213479282698
0.0497566252028123,658.86041915322,247.798976605334,-411.061442547886,-453.329697879277,534.960930850553,-81.6312329712759
0.0519199567333694,658.283435332043,244.61931696314,-413.664118368904,-451.451376147592,535.973776850474,-84.5224007028819
0.0540832882639264,659.439856422593,234.311807921473,-425.12804850112,-446.875832172033,542.283952461856,-95.4081202898234
0.0562466197944835,658.923241083986,232.469067028367,-426.454174055619,-445.696154056176,542.688707569802,-96.9925535136257
0.0584099513250406,658.935491880426,236.86134627655,-422.074145603877,-447.898419078488,540.504818742151,-92.6063996636634
0.0605732828555976,656.284853904216,237.673058412669,-418.611795491547,-446.978956158442,537.448324697881,-90.4693685394391
0.0627366143861547,655.902381016502,240.740646004875,-415.161735011627,-448.321513510689,535.532058014065,-87.2105445033758
0.0648999459167117,655.645877331716,239.290229275777,-416.355648055939,-447.468053303747,536.000762693827,-88.5327093900807
0.0670632774472688,657.268406558938,236.435631271772,-420.832775287165,-446.852018915355,539.050590923051,-92.1985720076964
0.0692266089778259,655.195524517574,235.666598466936,-419.528926050639,-445.431061492255,537.362225284107,-91.9311637918515
0.0713899405083829,656.389226411626,231.105903921565,-425.283322490061,-443.747565166595,540.836274450843,-97.0887092842483
0.07355327203894,658.214977302467,216.754194166802,-441.460783135665,-437.484585734634,549.837880219066,-112.353294484431
0.075716603569497,658.925454237748,223.604260261109,-435.321193976639,-441.264857249428,547.123324107194,-105.858466857765
0.0778799351000541,657.769964833338,237.806452020067,-419.963512813271,-447.788208426703,538.866738823304,-91.0785303966017
0.0800432666306111,658.944045866862,250.955431888154,-407.988613978708,-454.949738877508,533.466329922785,-78.5165910452766
0.0822065981611682,657.946134865534,257.239051941378,-400.707082924155,-457.592593403456,529.326608894845,-71.7340154913884
0.0843699296917253,658.091801297959,260.737159311548,-397.354641986411,-459.414480304754,527.723221642185,-68.3087413374319
0.0865332612222823,658.505158388965,262.599330911432,-395.905827477533,-460.552244650199,527.20549293325,-66.6532482830507
0.0886965927528394,660.516302007345,246.492133437716,-414.024168569629,-453.50421772253,537.270235288487,-83.7660175659566
0.0908599242833964,659.086363088778,238.741090531477,-420.345272557301,-448.913726810127,539.71581782304,-90.802091012912
0.0930232558139535,661.253212140177,232.005596504759,-429.247615635418,-446.629404322468,545.250413887798,-98.6210095653296
0.0951865873445105,659.200137697584,246.590345207848,-412.609792489736,-452.895241452716,535.90496509366,-83.0097236409442
0.0973499188750676,658.780171848923,239.37864777886,-419.401524070062,-449.079409813892,539.090847959493,-90.011438145601
0.0995132504056247,658.678620381484,244.613936318811,-414.064684062674,-451.646278350147,536.371652222079,-84.7253738719315
0.101676581936182,659.765039339367,242.744923167832,-417.020116171535,-451.254981253599,538.392577755451,-87.1375965018517
0.103839913466739,661.067694848129,231.659753588562,-429.407941259567,-446.363724218346,545.237818053848,-98.8740938355025
0.106003244997296,663.851977993121,230.42936387949,-433.42261411363,-447.140670936306,548.637296053376,-101.49662511707
0.108166576527853,665.470766023665,226.051132837447,-439.419633186219,-445.760949430556,552.445199604942,-106.684250174386
0.11032990805841,664.306389387162,220.546171122839,-443.760218264323,-442.426280255001,554.033303825742,-111.607023570742
0.112493239588967,663.768298946071,209.824032017519,-453.944266928552,-436.796165481795,558.856282937312,-122.060117455516
0.114656571119524,661.820142191931,213.987378936617,-447.832763255315,-437.903760564274,554.826452723623,-116.922692159349
0.116819902650081,662.670628494002,217.59379503221,-445.076833461792,-440.132211763106,553.873730977897,-113.741519214791
0.118983234180638,663.11285202957,228.910390736874,-434.202461292697,-446.011621383222,548.657656661134,-102.646035277912
0.121146565711195,662.073089952692,235.967785966908,-426.105303985785,-449.0204379598,544.089196969238,-95.0687590094385
0.123309897241752,663.170332041753,238.332695621554,-424.837636420199,-450.751513831654,544.003984230976,-93.2524703993227
0.125473228772309,663.024879365808,233.086403256117,-429.938476109691,-448.055641310963,546.481677737749,-98.4260364267867
0.127636560302866,663.308232393271,226.313258130936,-436.994974262335,-444.810745262103,550.151603327803,-105.3408580657
0.129799891833423,663.548100800418,225.364693462323,-438.183407338095,-444.456397131371,550.865754069257,-106.409356937886
0.131963223363981,663.309384454455,227.639848693214,-435.669535761241,-445.474616573834,549.489460107848,-104.014843534013
0.134126554894538,663.551744990841,229.768819719061,-433.78292527178,-446.660282354951,548.667335131311,-102.00705277636
0.136289886425095,664.92663752254,235.952624757291,-428.974012765249,-450.439631139915,546.950325143894,-96.510694003979
0.138453217955652,667.065165606815,245.855873549249,-421.209292057566,-456.460519578032,544.137228832191,-87.6767092541584
0.140616549486209,666.430441513028,246.048920241581,-420.381521271446,-456.239680877304,543.405981392237,-87.1663005149326
0.142779881016766,666.085816630876,239.063066370226,-427.02275026065,-452.574441500551,546.554283445763,-93.9798419452125
0.144943212547323,665.447270360557,226.342094320311,-439.105176040247,-445.894682340434,552.276223200402,-106.381540859968
0.14710654407788,664.920460928807,213.120924999605,-451.799535929202,-439.020692964206,558.359998429005,-119.339305464799
0.149269875608437,665.643503688979,212.112813711358,-453.530689977621,-438.878158700168,559.5870968333,-120.708938133132
0.151433207138994,664.498267846332,220.76435372413,-443.733914122202,-442.631310785231,554.116090984267,-111.484780199036
0.153596538669551,666.773414352907,230.40159828587,-436.371816067036,-448.587506319389,551.572615209972,-102.985108890583
0.155759870200108,665.676885212392,229.37916164478,-436.297723567612,-447.528023428586,550.987304390002,-103.459280961416
0.157923201730665,665.651137559677,227.226533008265,-438.424604551412,-446.438835283971,552.037871055544,-105.599035771573
0.160086533261222,665.108955377706,227.303393489584,-437.805561888121,-446.206174433645,551.457258632914,-105.251084199268
0.162249864791779,665.178020042812,231.125198469114,-434.052821573698,-448.151609255963,549.615420808255,-101.463811552292
0.164413196322336,663.937512185478,235.246777153502,-428.690735031976,-449.59214466949,546.314123608727,-96.7219789392374
0.166576527852893,664.862103664417,230.189463787471,-434.672639876946,-447.525783725944,549.767371770682,-102.241588044738
0.168739859383451,667.09072443278,230.1342894722,-436.95643496058,-448.61250695249,552.02357969668,-103.41107274419
0.170903190914008,667.048521741745,228.803628310456,-438.244893431289,-447.9260750261,552.646707586517,-104.720632560417
0.173066522444565,666.639667874261,231.154592962071,-435.485074912191,-448.897130418166,551.062371393226,-102.16524097506
0.175229853975122,665.607608372245,232.274274111059,-433.333334261186,-448.940941241652,549.470471316715,-100.529530075063
0.177393185505679,664.880578552704,234.629307283387,-430.251271269317,-449.754942918045,547.56592491101,-97.8109819929651
0.179556517036236,664.90769841287,230.25181301438,-434.65588539849,-447.579755713625,549.78179190568,-102.202036192055
0.181719848566793,663.794162225287,225.410478217684,-438.383684007603,-444.602320221485,551.088923116445,-106.48660289496
0.18388318009735,664.141235242914,224.303569950224,-439.837665292689,-444.222402596569,551.989450267801,-107.767047671233
0.186046511627907,664.953729548885,226.83669185967,-438.117037689216,-445.895210704278,551.53538361905,-105.640172914773
0.188209843158464,666.520255509836,240.088983110835,-426.431272399002,-453.304619310336,546.475763954419,-93.1711446440834
0.190373174689021,667.550485919182,250.539244208975,-417.011241710207,-459.044865064079,542.280863814695,-83.2359987506159
0.192536506219578,667.083145709741,254.755622390211,-412.327523319529,-460.919384049976,539.705334514635,-78.7859504646588
0.194699837750135,665.398507475635,248.930203155146,-416.468304320489,-457.164355315391,540.933405898062,-83.7690505826716
0.196863169280692,665.438495892736,241.971105302833,-423.467390589903,-453.704800597785,544.45294324132,-90.7481426435351
0.199026500811249,664.511602488865,236.319453099564,-428.1921493893,-450.415527794215,546.351875939082,-95.936348144868
0.201189832341806,664.307885487983,231.395288156579,-432.912597331404,-447.851586822281,548.610241409693,-100.758654587413
0.203353163872363,665.262995464499,227.759536537231,-437.503458927268,-446.511266000865,551.383227195883,-104.871961195018
0.20551649540292,667.567588564748,233.135541363004,-434.432047201745,-450.351564963876,550.999817883247,-100.648252919371
0.207679826933478,665.990068028619,241.893686587734,-424.096381440885,-453.941877308177,545.043224734752,-91.1013474265753
0.209843158464035,666.861560986707,248.295953097384,-418.565607889323,-457.578757042045,542.713584438015,-85.1348273959698
0.212006489994592,665.858054771618,242.331260833247,-423.526793938371,-454.094657802432,544.692424354994,-90.5977665525619
0.214169821525149,666.791996790221,234.6177404961,-432.174256294121,-450.704868643161,549.483126542171,-98.7782578990105
0.216333153055706,666.913189293967,234.736281078025,-432.176908215942,-450.824735185996,549.545048754955,-98.7203135689582
0.218496484586263,667.751838356253,228.457673688584,-439.294164667669,-448.104756022419,553.523001511961,-105.418245489542
0.22065981611682,670.377105576193,228.080747917908,-442.296357658285,-449.228926747051,556.336731617239,-107.107804870188
0.222823147647377,670.158202665169,224.573869479109,-445.58433318606,-447.366036072139,557.871267925614,-110.505231853476
0.224986479177934,670.68884731726,232.256868296755,-438.431979020504,-451.472857807007,554.560413168882,-103.087555361874
0.227149810708491,671.324164817521,237.638800333268,-433.685364484253,-454.481482575395,552.504764650887,-98.0232820754927
0.229313142239048,669.48051815275,238.805629541282,-430.674888611468,-454.143073847016,550.077703382109,-95.9346295350929
0.231476473769605,669.005563033804,240.032618792681,-428.972944241123,-454.519090913243,548.989253637464,-94.4701627242211
0.233639805300162,669.421887371466,242.032625501113,-427.389261870352,-455.72725643629,548.405574620909,-92.6783181846196
0.235803136830719,668.893173606168,231.989573505964,-436.903600100204,-450.441373556066,552.898386853186,-102.45701329712
0.237966468361276,669.931853730913,229.234782449425,-440.697071281488,-449.583318090169,555.314462506201,-105.731144416032
0.240129799891833,670.282788315009,227.909932847023,-442.372855467986,-449.096360581016,556.327821891498,-107.231461310482
0.24229313142239,668.912207303567,235.293956612711,-433.618250690856,-452.103081958139,551.265228997212,-99.1621470390726
0.244456462952948,667.760122196571,241.241885619896,-426.518236576675,-454.501003908233,547.139179386623,-92.6381754783895
0.246619794483505,668.346909868593,240.799942085732,-427.546967782861,-454.573425977162,547.946938825727,-93.3735128485647
0.248783126014062,668.931592165115,241.444018702087,-427.487573463028,-455.187805433601,548.209582814071,-93.0217773804705
0.250946457544619,671.250146992964,239.803136337637,-431.447010655327,-455.526641665301,551.348578824145,-95.8219371588447
0.253109789075176,671.676548726222,234.781506456329,-436.895042269893,-453.229027591276,554.285795498057,-101.056767906782
0.255273120605733,675.001899448081,230.452468328739,-444.549431119342,-452.72718388841,559.775665283712,-107.048481395301
0.25743645213629,673.472692689545,228.084393989721,-445.388298699824,-450.778543339633,559.430495694684,-108.651952355051
0.259599783666847,673.393750063277,232.718986349752,-440.674763713525,-453.056368206514,557.034256888401,-103.977888681887
0.261763115197404,671.336898437071,239.20182060882,-432.135077828251,-455.269359522946,551.735988132661,-96.4666286097156
0.263926446727961,669.688799571222,241.946542760922,-427.7422568103,-455.817671166072,548.715528190761,-92.8978570246887
0.266089778258518,671.378446618947,244.455610767482,-426.922835851465,-457.917028693215,549.150641235206,-91.2336125419912
0.268253109789075,672.376586495598,237.639413518369,-434.737172977229,-455.008000006984,553.556879736414,-98.5488797294298
0.270416441319632,672.057638038083,232.094024251627,-439.963613786456,-452.075831144855,556.010625912269,-103.934794767414
0.272579772850189,672.004905046503,227.753220883264,-444.251684163239,-449.879062964883,558.128294604871,-108.249231639987
0.274743104380746,671.746807748793,225.874691976673,-445.87211577212,-448.810749862733,558.809461760457,-109.998711897724
0.276906435911303,669.851727403845,230.873514432558,-438.978212971287,-450.362620918202,554.414970187566,-104.052349269365
0.27906976744186,667.011884769958,231.50108573347,-435.510799036487,-449.256485251714,551.261341903223,-102.004856651508
0.281233098972418,666.400728435007,229.519338344474,-436.881390090533,-447.960033389741,551.64105926277,-103.68102587303
0.283396430502975,665.227600427607,217.315988961849,-447.911611465758,-441.271794694728,556.569605946682,-115.297811251954
0.285559762033532,665.613505213209,219.735250451645,-445.878254761564,-442.674377832427,555.745879987387,-113.07150215496
0.287723093564089,668.3998853559,209.706721239753,-458.693164116148,-439.053303297827,563.546524736024,-124.493221438197
0.289886425094646,667.268537474772,201.256413304339,-466.012124170433,-434.262475389555,566.640330822602,-132.377855433047
0.292049756625203,665.907405027204,192.54066277342,-473.366742253784,-429.224033900312,569.637073640494,-140.413039740182
0.29421308815576,663.888812170384,185.110993059299,-478.777819111084,-424.499902614842,571.333315640734,-146.833413025893
0.296376419686317,661.197010724687,188.712290012411,-472.484720712276,-424.954650368549,566.840865718481,-141.886215349932
0.298539751216874,660.114687990824,186.96710011661,-473.147587874214,-423.540894053717,566.631137932519,-143.090243878802
0.300703082747431,660.811075840923,192.748759648397,-468.062316192527,-426.77991774466,564.436696016725,-137.656778272065
0.302866414277988,661.24195153391,201.96135913687,-459.280592397039,-431.60165533539,560.261271965475,-128.659616630084
0.305029745808545,662.214978928035,197.586549806888,-464.628429121147,-429.900764367462,563.421704024591,-133.520939657129
0.307193077339102,662.328952915391,200.767285368585,-461.561667546806,-431.548119141988,561.945310231098,-130.397191089111
0.309356408869659,663.119619074577,182.867911128626,-480.251707945951,-422.993765101602,571.685663510264,-148.691898408663
0.311519740400216,661.933541673483,175.14474508769,-486.788796585794,-418.539143380587,574.361169129638,-155.822025749052
0.313683071930773,661.1174040441,178.785628240725,-482.331775803375,-419.951516142413,571.724589923737,-151.773073781325
0.31584640346133,661.176365134677,189.248664428045,-471.927700706632,-425.212514781361,566.552032920654,-141.339518139294
0.318009734991888,661.252864051704,202.471893179686,-458.780970872018,-431.862378615695,560.016917461861,-128.154538846166
0.320173066522445,660.77185160541,195.888591660428,-464.883259944982,-428.330221632919,562.827555775196,-134.497334142277
0.322336398053002,660.615239929868,183.462390389763,-477.152849540105,-422.038815159816,568.884044734987,-146.845229575171
0.324499729583559,658.808892285381,175.364068037523,-483.444824247858,-417.086480161452,571.126858266619,-154.040378105167
0.326663061114116,659.493902425049,170.093335982891,-489.400566442158,-414.79361920397,574.447234433604,-159.653615229633
0.328826392644673,660.88247519776,167.929613553358,-492.952861644402,-414.406044375559,576.917668421081,-162.511624045522
0.33098972417523,661.221006265256,170.780347250336,-490.440659014921,-416.000676757796,575.830832640088,-159.830155882292
0.333153055705787,662.363347929178,175.651700949767,-486.711646979411,-419.007524439472,574.537497454294,-155.529973014822
0.335316387236344,664.054305984094,177.728396234443,-486.325909749651,-420.891351109269,575.190107866872,-154.298756757604
0.337479718766901,663.319314130368,175.961493396223,-487.357820734145,-419.640403763295,575.338567432257,-155.698163668961
0.339643050297458,664.388631291764,179.54850724413,-484.840124047634,-421.968569267947,574.614377669699,-152.645808401752
0.341806381828015,663.148746738739,170.777755339616,-492.370991399123,-416.963251039178,577.759869068931,-160.796618029754
0.343969713358572,661.513217412612,167.127668653086,-494.385548759526,-414.320443032849,577.949383086069,-163.62894005322
0.346133044889129,662.422602729441,165.664913526816,-496.757689202626,-414.043758128128,579.590145966033,-165.546387837905
0.348296376419686,662.322104061676,173.891686907113,-488.430417154563,-418.106895484394,575.37626060812,-157.269365123725
0.350459707950243,662.81931042023,178.587062351305,-484.232248068925,-420.703186385767,573.525779244578,-152.82259285881
0.3526230394808,663.54963493649,175.057350963552,-488.492283972939,-419.303492950021,576.020959454714,-156.717466504694
0.354786371011358,664.027209029526,169.465910349217,-494.561298680308,-416.746559689371,579.294253854917,-162.547694165546
0.356949702541915,663.177197174749,177.296602125275,-485.880595049474,-420.236899650012,574.528896112112,-154.291996462099
0.359113034072472,661.093445993868,182.241220002338,-478.852225991531,-421.667332998103,569.9728359927,-148.305502994597
0.361276365603029,659.737980861724,183.336641793345,-476.401339068379,-421.537311327535,568.069659965051,-146.532348637517
0.363439697133586,657.898344912373,183.99448931997,-473.903855592403,-420.946417116171,565.901100252388,-144.954683136217
0.365603028664143,659.668113099524,172.840472208758,-486.827640890766,-416.254292654141,573.247876995145,-156.993584341004
0.3677663601947,660.883620916385,178.999465060808,-481.884155855577,-419.941542988597,571.383888385981,-151.442345397385
0.369929691725257,661.209992273286,181.982796155495,-479.22719611779,-421.596394214391,570.218594195538,-148.622199981148
0.372093023255814,662.016835518968,186.231615622694,-475.785219896273,-424.124225570831,568.901027707621,-144.77680213679
0.374256354786371,664.937994324927,189.523720289231,-475.414274035697,-427.230857307079,570.176134180312,-142.945276873233
0.376419686316928,664.665366270895,184.939236282735,-479.72612998816,-424.802301276815,572.195748129527,-147.393446852712
0.378583017847485,667.799449484192,185.836943301779,-481.962506182414,-426.818196392985,574.880977833303,-148.062781440318
0.380746349378042,674.370695499985,200.528026980457,-473.842668519527,-437.449361240221,574.106682009756,-136.657320769535
0.382909680908599,681.782263940999,205.86919136336,-475.913072577639,-443.825727652179,578.847668259319,-135.02194060714
0.385073012439156,688.17062077837,220.756637850878,-467.413982927493,-454.463629314624,577.792301852932,-123.328672538308
0.387236343969713,680.743629160322,232.6605880296,-448.083041130722,-456.702108594961,564.413335145522,-107.711226550561
0.38939967550027,680.361758431936,251.493937270401,-428.867821161535,-465.927847851169,554.614789796736,-88.6869419455673
0.391563007030827,674.658856114483,270.106236886682,-404.5526192278,-472.382546500583,539.605737671142,-67.2231911705591
0.393726338561385,714.645203920516,294.929714452661,-419.715489467855,-504.787459186589,567.180346694186,-62.3928875075968
0.395889670091942,744.538604122278,309.896309446111,-434.642294676167,-527.217456784194,589.590449399222,-62.3729926150277
0.398053001622499,770.308695009341,317.904471593681,-452.40422341566,-544.106583301511,611.356459212501,-67.2498759109897
0.400216333153056,768.648810178241,317.506169941508,-451.142640236733,-543.077490059874,609.895725207487,-66.8182351476123
0.402379664683613,713.427988790775,303.926761956524,-409.501226834251,-508.67737537365,561.464607812513,-52.7872324388636
0.40454299621417,678.087733787702,297.141256872892,-380.946476914809,-487.614495330297,529.517105351256,-41.9026100209585
0.406706327744727,678.788102257869,296.461297291034,-382.326804966836,-487.624699774452,530.557453612353,-42.9327538379009
0.408869659275284,684.504585097856,288.882534828196,-395.622050269659,-486.693559963026,540.063317683758,-53.3697577207315
0.411032990805841,679.913870086275,264.893354039983,-415.020516046292,-472.403612063129,547.467193066283,-75.0635810031547
0.413196322336398,672.0076393661,230.124114229781,-441.883525136319,-451.06587679794,556.945582251209,-105.879705453269
0.415359653866955,664.795289324165,197.368694459189,-467.426594864976,-431.081991891677,566.11094209457,-135.028950202893
0.417522985397512,660.021248975877,190.768881591662,-469.252367384215,-425.39506528377,564.636808180046,-139.241742896276
0.419686316928069,657.782927993241,188.70678402388,-469.076143969361,-423.24485600856,563.429535981301,-140.18467997274
0.421849648458626,659.589771489551,197.314841335406,-462.274930154145,-428.452306412478,560.932350821848,-132.48004440937
0.424012979989183,660.468556003884,203.777411596871,-456.691144407012,-432.122983800378,558.579850205448,-126.456866405071
0.42617631151974,663.442679647394,208.670132826831,-454.772546820563,-436.056406237112,559.107613233978,-123.051206996866
0.428339643050297,666.189736617129,221.001941700952,-445.187794916177,-443.59583915904,555.688765766653,-112.092926607613
0.430502974580855,669.78045236899,217.204213459327,-452.576238909663,-443.492332914159,561.178345639326,-117.686012725168
0.432666306111412,670.555865053764,218.804854409961,-451.751010643804,-444.680359731862,561.153437848784,-116.473078116921
0.434829637641969,670.210891570375,218.008257263335,-452.20263430704,-444.109574416855,561.206762938708,-117.097188521852
0.436992969172526,668.519824196128,217.641849917933,-450.877974278195,-443.08083705703,559.698899237161,-116.618062180131
0.439156300703083,667.415256956977,216.618490105912,-450.796766851065,-442.016873531445,559.106011904021,-117.089138372576
0.44131963223364,665.722828137556,217.283527224054,-448.439300913503,-441.503177680805,557.081064525529,-115.577886844724
0.443482963764197,664.215569799441,220.359537737973,-443.856032061467,-442.287553768707,554.035800930454,-111.748247161747
0.445646295294754,660.122210416527,219.897165164238,-440.225045252289,-440.009687790383,550.173627834408,-110.163940044025
0.447809626825311,659.604069689961,214.616275046314,-444.987794643647,-437.110172368138,552.295932166804,-115.185759798666
0.449972958355868,658.291390106336,204.52774258823,-453.763647518106,-431.409566347283,556.027518812221,-124.617952464938
0.452136289886425,660.845460739958,196.790542631198,-464.054918108759,-428.818001685578,562.450189424358,-133.632187738781
0.454299621416982,663.506058695435,198.074906266197,-465.431152429238,-430.790482480816,564.468605562336,-133.67812308152
0.456462952947539,663.18641145771,206.44562813805,-456.740783319661,-434.81601979788,559.963597388685,-125.147577590805
0.458626284478096,662.707071971163,215.578752357031,-447.128319614132,-439.142912164097,554.917695792648,-115.774783628551
0.460789616008653,661.524634593264,227.160696132835,-434.363938460429,-444.342665363049,547.944286526847,-103.601621163797
0.46295294753921,660.369258787115,229.853521191052,-430.515737596063,-445.111389989083,545.442498191589,-100.331108202506
0.465116279069767,660.790459159361,222.432850164322,-438.357608995039,-441.611654661841,549.5740340772,-107.962379415358
0.467279610600325,661.483601101721,209.554399435339,-451.929201666382,-435.51900026853,556.706401384052,-121.187401115521
0.469442942130882,663.63994610504,204.480273634241,-459.159672470799,-434.06010986964,561.399809287919,-127.339699418279
0.471606273661439,664.02558600425,201.743658642334,-462.281927361916,-432.884622323292,563.153756683083,-130.269134359791
0.473769605191996,664.254447552569,200.98353422842,-463.27091332415,-432.618990890495,563.76268043836,-131.143689547865
0.475932936722553,663.347483573549,192.936819564284,-470.410664009265,-428.142151568917,566.879073791407,-138.736922222491
0.47809626825311,661.052409141674,202.66122405877,-458.391185082904,-431.856816600222,559.721797112289,-127.864980512067
0.480259599783667,662.283761438249,207.093499718484,-455.190261719766,-434.688630578366,558.737011579008,-124.048381000641
0.482422931314224,663.81621678043,208.096431281076,-455.719785499355,-435.956324030753,559.768001139893,-123.81167710914
0.484586262844781,663.33481446038,201.280530930736,-462.054283529645,-432.307672695558,562.694548995013,-130.386876299455
0.486749594375338,665.727986395805,201.176003062789,-464.551983333016,-433.451994729297,565.139984864411,-131.687990135114
0.488912925905895,668.400083785681,195.045741223685,-473.354342561997,-431.722912504683,570.877213173839,-139.154300669156
0.491076257436452,667.469207923804,193.006451533548,-474.462756390256,-430.237829728676,570.96598215703,-140.728152428354
0.493239588967009,666.966843679306,193.250924781988,-473.715918897318,-430.108884230647,570.341381288312,-140.232497057665
0.495402920497566,665.311424249166,201.244021875777,-464.067402373389,-433.277723062472,564.689413311278,-131.411690248806
0.497566252028123,664.343120746881,204.328940342034,-460.014180404846,-434.336030544458,562.178650575863,-127.842620031406
0.49972958355868,665.483291601321,211.363088445391,-454.120203155931,-438.423190023356,559.801747378626,-121.37855735527
0.501892915089237,666.943832055077,215.27015618715,-451.673675867927,-441.106994121113,559.308753961502,-118.201759840389
0.504056246619795,668.608594026267,206.505969955027,-462.102624071241,-437.557281990647,565.355609048754,-127.798327058107
0.506219578150352,669.425545506712,201.701543349026,-467.724002157686,-435.563544427869,568.574773832199,-133.01122940433
0.508382909680909,668.867629904566,194.479035474323,-474.388594430244,-431.673332689444,571.628112167405,-139.954779477961
0.510546241211466,666.479846495406,205.525745091023,-460.954101404383,-436.002795793214,563.716973949894,-127.71417815668
0.512709572742023,664.849821446237,212.671815824146,-452.178005622092,-438.760818635192,558.513913534164,-119.753094898973
0.51487290427258,665.006603933029,217.566286823951,-447.440317109078,-441.28644537849,556.223460521054,-114.937015142564
0.517036235803137,665.769133844183,226.54441274874,-439.224721095443,-446.156773296461,552.496927469813,-106.340154173351
0.519199567333694,669.045720159706,228.35619565933,-440.689524500376,-448.700957909518,554.867622330041,-106.166664420523
0.521362898864251,669.010599844195,224.42624366716,-444.584356177035,-446.718421755678,556.797478010615,-110.079056254937
0.523526230394808,668.659556283584,221.823946685596,-446.835609597988,-445.24175148459,557.747582940786,-112.505831456196
0.525689561925365,669.30100595028,224.599107793146,-444.701898157134,-446.950056871713,557.001452053707,-110.051395181994
0.527852893455922,668.348266764032,229.79336583124,-438.554900932792,-449.070816297636,553.451583848412,-104.380767550776
0.530016224986479,667.690505353361,241.621719444712,-426.068785908649,-454.656112399036,546.879645631005,-92.2235332319688
0.532179556517036,667.446234655893,248.279465934431,-419.166768721462,-457.862850295162,543.306501688678,-85.4436513935157
0.534342888047593,668.565477932841,254.412728002085,-414.152749930756,-461.489102967463,541.359113931798,-79.8700109643354
0.53650621957815,670.346807692802,255.732825893922,-414.61398179888,-463.039816793362,542.480394745841,-79.4405779524791
0.538669551108707,672.465460605912,245.547957337388,-426.917503268524,-459.00670897165,549.691481937218,-90.684772965568
0.540832882639264,671.706602550488,231.666116286288,-440.040486264199,-451.686359418388,555.873544407343,-104.187184988956
0.542996214169822,671.226963224196,222.202473876007,-449.02448934819,-446.714718550101,560.125726286193,-113.411007736092
0.545159545700379,668.651384052073,211.999885152179,-456.651498899894,-440.325634602126,562.651441475983,-122.325806873858
0.547322877230936,668.276165083277,218.14637328634,-450.129791796937,-443.211269184809,559.202978440107,-115.991709255298
0.549486208761493,668.449527320493,223.324146254738,-445.125381065755,-445.886836787616,556.787454193124,-110.900617405508
0.55164954029205,670.645618850717,228.128576991697,-442.51704185902,-449.387097921207,556.581330354869,-107.194232433661
0.553812871822607,672.391540960899,231.305818805359,-441.08572215554,-451.848679883129,556.73863155822,-104.889951675091
0.555976203353164,673.386688255584,230.796406552961,-442.590281702623,-452.091547404273,557.988484979104,-105.896937574831
0.558139534883721,672.219252074264,227.986947439911,-444.232304634353,-450.103099757087,558.225778354309,-108.122678597221
0.560302866414278,672.308735071119,215.941549128616,-456.367185942503,-444.125142099868,564.337960506811,-120.212818406943
0.562466197944835,669.833363818083,215.838344318714,-453.995019499369,-442.835854068398,561.914191658726,-119.078337590327
0.564629529475392,670.610906480324,217.086240778818,-453.524665701505,-443.848573629571,562.067786090915,-118.219212461344
0.566792861005949,671.169753283917,227.052650947429,-444.117102336488,-449.111202115673,557.643427810203,-108.532225694529
0.568956192536506,674.326923438987,233.593953982562,-440.732969456425,-453.960438710775,557.529946447706,-103.569507736932
0.571119524067063,674.3295992935,238.540366112478,-435.789233181023,-456.434982702989,555.059416237262,-98.6244335342724
0.57328285559762,674.952816211495,236.563000345507,-438.389815865988,-455.757908278501,556.671316038741,-100.913407760241
0.575446187128177,674.22861276917,240.117701693057,-434.110911076113,-457.173157231113,554.169761922641,-96.996604691528
0.577609518658734,673.413079940508,236.706088699152,-436.706991241356,-455.05958431983,555.060035590932,-100.000451271102
0.579772850189291,672.720630625438,231.675027875811,-441.045602749627,-452.197829250624,556.883116687532,-104.685287436908
0.581936181719849,672.281035054654,230.417124050159,-441.863911004495,-451.349079552407,557.072473029575,-105.723393477168
0.584099513250406,673.94810929134,234.814086924216,-439.134022367123,-454.381098107778,556.541065829232,-102.159967721453
0.586262844780963,674.785258115422,240.664943159605,-434.120314955818,-457.725100637513,554.45278653562,-96.7276858981066
0.58842617631152,676.948757086301,242.577914959735,-434.370842126566,-459.763336023018,555.659799606433,-95.8964635834153
0.590589507842077,677.205585785335,239.896570250902,-437.309015534433,-458.551078018118,557.257300659884,-98.7062226417653
0.592752839372634,676.199521573547,228.351200339013,-447.848321234534,-452.27536095628,562.023921404041,-109.748560447761
0.594916170903191,674.567868239146,222.47588770995,-452.091980529196,-448.521877974548,563.329924384171,-114.808046409623
0.597079502433748,672.537603150114,220.516397689754,-452.02120546036,-446.527000419934,562.279404305237,-115.752403885303
0.599242833964305,674.050828880223,220.754953148978,-453.295875731245,-447.402891014601,563.673352305734,-116.270461291133
0.601406165494862,675.963696532074,229.872054953392,-446.091641578682,-452.917875742733,561.027669055378,-108.109793312645
0.603569497025419,677.567959557503,237.33708984237,-440.230869715133,-457.452524699936,558.899414636318,-101.446889936382
0.605732828555976,680.245681226163,241.736563509795,-438.509117716367,-460.991122367979,559.377399471265,-98.3862771032861
0.607896160086533,679.355787845132,236.826217376226,-442.529570468906,-458.091002610679,560.942679157019,-102.85167654634
0.61005949161709,678.150522043371,239.706383468149,-438.444138575222,-458.92845275576,558.297330309296,-99.3688775535367
0.612222823147647,676.597471669977,236.219236609121,-440.378235060856,-456.408354139549,558.487853365416,-102.079499225868
0.614386154678204,675.662869035663,231.73147527212,-443.931393763543,-453.697172153891,559.797131399603,-106.099959245712
0.616549486208761,677.504251877372,225.400915910875,-452.103335966496,-451.452583894123,564.803793921934,-113.351210027811
0.618712817739319,678.769856548067,228.017963539608,-450.751893008459,-453.393910043838,564.760874778263,-111.366964734425
0.620876149269876,680.251919271515,232.328715615107,-447.923203656408,-456.290317443311,564.087561463961,-107.79724402065
0.623039480800433,681.827081566794,242.463766731511,-439.363314835283,-462.145424149153,560.595198201038,-98.4497740518858
0.62520281233099,681.434897007803,252.049739668668,-429.385157339135,-466.742318338236,555.410027173469,-88.6677088352338
0.627366143861547,680.129399407389,253.425170036099,-426.70422937129,-466.777284721744,553.416814389339,-86.6395296675953
0.629529475392104,678.730292580233,249.080980778936,-429.649311801297,-463.905636679585,554.189802190765,-90.2841655111804
0.631692806922661,677.308310150206,238.901878504355,-438.406431645852,-458.10509432728,557.857370898029,-99.7522765707484
0.633856138453218,677.827840646813,232.477330494634,-445.350510152179,-455.152585570724,561.589175399496,-106.436589828772
0.636019469983775,678.361776798579,228.732888073055,-449.628888725524,-453.547332435817,563.995332762051,-110.448000326234
0.638182801514332,678.872449412402,229.918313636146,-448.954135776256,-454.395381524274,563.913292594329,-109.517911070055
0.640346133044889,678.555360798804,237.710215502106,-440.845145296698,-458.132788150455,559.700253047751,-101.567464897296
0.642509464575446,678.7164057379,241.718101339008,-436.998304398893,-460.217253538454,557.857355068396,-97.6401015299425
0.644672796106003,675.790313995977,247.009594339627,-428.78071965635,-461.399954167802,552.285516826163,-90.8855626583615
0.64683612763656,676.966653146289,248.984934913295,-427.981718232994,-462.975794029792,552.474185689641,-89.4983916598493
0.648999459167117,676.631786279131,249.956560292019,-426.675225987113,-463.294173285575,551.653506133122,-88.3593328475471
0.651162790697674,675.775786916389,242.833470443169,-432.94231647322,-459.304628679779,554.359051694805,-95.0544230150255
0.653326122228231,676.319813593358,242.380776513265,-433.939037080093,-459.350295053311,555.129425336726,-95.7791302834141
0.655489453758789,678.225908347164,246.002995237538,-432.222913109626,-462.114451792351,555.224410728395,-93.1099589360439
0.657652785289346,678.424698831049,252.934344463934,-425.490354367116,-465.679521647491,551.957526599082,-86.278004951591
0.659816116819903,677.595449169978,254.391678737613,-423.203770432365,-465.993563953796,550.399609801171,-84.4060458473756
0.66197944835046,674.673341496825,254.747629553624,-419.925711943202,-464.710485525224,547.299526720014,-82.5890411947891
0.664142779881017,671.285688724503,245.554404323341,-425.731284401163,-458.420046523922,548.508486562833,-90.088440038911
0.666306111411574,670.436060357096,238.715339372632,-431.720720984464,-454.575699864864,551.07839067078,-96.5026908059162
0.668469442942131,668.176956119673,229.45096925627,-438.725986863403,-448.813962687972,553.451471491538,-104.637508803566
0.670632774472688,671.075504803322,228.384117196824,-442.691387606498,-449.729811000073,556.88344620491,-107.153635204837
0.672796106003245,669.573759064284,233.565748473057,-436.008010591226,-451.569753768671,552.790884827755,-101.221131059085
0.674959437533802,667.895698405566,239.458077521097,-428.437620884469,-453.676887963331,548.166659645017,-94.4897716816862
0.677122769064359,666.110253334829,242.201309923509,-423.90894341132,-454.155781629169,545.009598373074,-90.8538167439051
0.679286100594916,664.049305139968,242.415612064323,-421.633693075645,-453.232458602145,542.841499107807,-89.6090405056612
0.681449432125473,664.089631810109,240.512505694729,-423.57712611538,-452.301068752419,543.833378962745,-91.5323102103257
0.68361276365603,661.926682285735,234.818923551567,-427.107758734168,-448.372802918651,544.517220509952,-96.1444175913009
0.685776095186587,663.768695297456,232.242519775895,-431.526175521561,-448.005607536675,547.647435409508,-99.6418278728328
0.687939426717144,663.396669703472,224.112288039341,-439.28438166413,-443.754478871406,551.340525683801,-107.586046812394
0.690102758247702,664.025540402021,224.297251863505,-439.728288538516,-444.161396132763,551.876914470269,-107.715518337505
0.692266089778259,662.094090996951,231.366426132965,-430.727664863986,-446.730258564958,546.410877930468,-99.6806193655102
0.694429421308816,660.208304168296,229.004219714109,-431.204084454187,-444.606261941202,545.706194311241,-101.099932370039
0.696592752839373,658.258570535264,222.822916741342,-435.435653793921,-440.540743638303,546.847112164592,-106.306368526289
0.69875608436993,657.755478869225,222.810856554288,-434.944622314938,-440.283167711756,546.350050592081,-106.066882880325
0.700919415900487,657.41497698646,222.340704849002,-435.074272137458,-439.877840917731,546.244624561959,-106.366783644228
0.703082747431044,658.535002757991,221.664911024536,-436.870091733455,-440.099956891264,547.702547245723,-107.60259035446
0.705246078961601,660.414464700305,215.082535794389,-445.331928905917,-437.748500247347,552.873196803111,-115.124696555764
0.707409410492158,659.204045233539,216.485913797375,-442.718131436164,-437.844979515457,550.961088334851,-113.116108819394
0.709572742022715,659.443598176865,217.538345207591,-441.905252969274,-438.490971692228,550.674425573069,-112.183453880841
0.711736073553272,657.51466602761,218.907604940189,-438.607061087421,-438.211135483899,548.060863557515,-109.849728073616
0.713899405083829,656.508681903889,225.558189300116,-430.950492603773,-441.033435602002,543.729587253831,-102.696151651829
0.716062736614386,655.459206087421,222.761344436383,-432.697861651038,-439.110275261902,544.07853386923,-104.968258607328
0.718226068144943,656.899686915485,222.708241046587,-434.191445868898,-439.803963981036,545.545566392192,-105.741602411156
0.7203893996755,654.861546114698,219.047643974261,-435.813902140438,-436.95459504448,545.337724127568,-108.383129083089
0.722552731206057,658.166859403836,210.733238783,-447.433620620836,-434.450049093418,552.800240012337,-118.350190918918
0.724716062736614,659.093322687416,204.601141559837,-454.492181127579,-431.847232123627,556.792751907497,-124.945519783871
0.726879394267171,659.150907758565,203.671366409933,-455.479541348632,-431.411137084249,557.315224553599,-125.90408746935
0.729042725797729,657.217182219779,202.487369999771,-454.729812220008,-429.852276109775,555.973497219893,-126.121221110118
0.731206057328286,657.184961910619,187.846763636283,-469.338198274336,-422.515862773451,563.261580092478,-140.745717319027
0.733369388858843,657.979463615313,199.735369863492,-458.244093751821,-428.857416739403,558.111778683567,-129.254361944165
0.7355327203894,660.387428345866,211.156135680499,-449.231292665367,-435.771782013183,554.809360505617,-119.037578492434
0.737696051919957,659.91984088162,209.957952246317,-449.961888635303,-434.938896563969,554.940864758462,-120.001968194493
0.739859383450514,659.849435914561,214.919581496347,-444.929854418214,-437.384508705454,552.389645166387,-115.005136460933
0.742022714981071,660.522588609168,210.018562040758,-450.50402656841,-435.270575324963,555.513307588789,-120.242732263826
0.744186046511628,660.428313265876,214.422460031635,-446.005853234241,-437.425386648756,553.217083250059,-115.791696601303
0.746349378042185,660.121849841322,213.301657547317,-446.820192294005,-436.71175369432,553.471021067664,-116.759267373344
0.748512709572742,660.290437078579,212.45451601327,-447.835921065309,-436.372476545924,554.063179071944,-117.690702526019
0.750676041103299,660.530703760324,219.070873017022,-441.459830743301,-439.800788388673,550.995267251813,-111.19447886314
0.752839372633856,661.487852526481,225.012568291985,-436.475284234496,-443.250210409233,548.981568380488,-105.731357971256
0.755002704164413,663.358271430117,220.469013270348,-442.889258159769,-441.913642350232,553.123764794943,-111.210122444711
0.75716603569497,663.879196288945,218.789059027494,-445.090137261451,-441.33412765822,554.484666775198,-113.150539116978
0.759329367225527,663.51770216506,218.450766364047,-445.066935801013,-440.984234264553,554.292318983036,-113.308084718483
0.761492698756084,662.499063164179,223.65833232244,-438.840730841739,-443.07869774331,550.669897002959,-107.591199259649
0.763656030286641,660.666727633317,227.503644721326,-433.163082911991,-444.085186177322,546.914905272654,-102.829719095332
0.765819361817198,661.848400709438,238.017155062618,-423.83124564682,-449.932777886028,542.839823178129,-92.9070452921012
0.767982693347756,661.533298358484,243.159027855928,-418.374270502555,-452.346163107206,539.953784430519,-87.6076213233134
0.770146024878313,662.600490262415,240.302535153809,-422.297955108605,-451.451512708112,542.44922268551,-90.997709977398
0.77230935640887,664.382547059958,219.726434760152,-444.656112299806,-442.054490910055,554.519329679882,-112.464838769827
0.774472687939427,664.670264591698,205.235619253244,-459.434645338454,-434.952941922471,562.052454965076,-127.099513042605
0.776636019469984,663.281653147041,212.825103485877,-450.456549661163,-438.053378316459,556.869101404102,-118.815723087643
0.778799351000541,662.971101611971,220.415987795167,-442.555113816804,-441.693544703569,552.763107714388,-111.069563010819
0.780962682531098,662.841118697457,221.033382091262,-441.807736606195,-441.937250394359,552.324427651826,-110.387177257467
0.783126014061655,663.471100117532,223.537841308383,-439.933258809148,-443.504470712958,551.70217946334,-108.197708750382
0.785289345592212,663.378817513045,227.909586741106,-435.469230771939,-445.644202127076,549.424024142492,-103.779822015416
0.787452677122769,664.512073523407,231.575434117019,-432.936639406387,-448.043753820213,548.724356464897,-100.680602644684
0.789616008653326,664.573745404092,229.495288381225,-435.078457022867,-447.034516892659,549.82610121348,-102.791584320821
0.791779340183883,664.612848515657,221.470138597081,-443.142709918576,-443.041493556369,553.877779217117,-110.836285660748
0.79394267171444,666.18549693072,214.654689393516,-451.530807537203,-440.420093162118,558.858152233962,-118.438059071843
0.796106003244997,663.438357519686,209.276438541306,-454.16191897838,-436.357398030496,558.800138249033,-122.442740218537
0.798269334775554,663.454466280331,205.676600548084,-457.777865732247,-434.565533414207,560.616166006289,-126.050632592081
0.800432666306111,664.346208609231,205.710577876826,-458.635630732405,-435.028393243028,561.490919670818,-126.46252642779
0.802595997836668,664.471913494665,215.750641752137,-448.721271742528,-440.111277623401,556.596592618596,-116.485314995196
0.804759329367225,667.230596526525,222.819101041054,-444.411495485471,-445.02484878379,555.821046005998,-110.796197222209
0.806922660897783,667.912888627713,234.448028880927,-433.464859746785,-451.18045875432,550.688874187249,-99.508415432929
0.80908599242834,666.877168648646,237.615052368191,-429.262116280455,-452.246110508419,548.06964246455,-95.8235319561317
0.811249323958897,665.857016285499,228.339650090573,-437.517366194926,-447.098333188036,551.687191240213,-104.588858052177
0.813412655489454,666.283226494279,227.585211299242,-438.698015195036,-446.934218896761,552.490620844657,-105.556401947897
0.815575987020011,666.503660559014,220.698320114981,-445.805340444033,-443.600990336998,556.154500501524,-112.553510164526
0.817739318550568,666.092757565404,222.287050725771,-443.805706839633,-444.189904145588,554.949232202518,-110.759328056931
0.819902650081125,667.204113461633,229.169482467469,-438.034630994165,-448.186797964551,552.619372227899,-104.432574263348
0.822065981611682,668.350403339551,237.057815260649,-431.292588078902,-452.7041093001,549.821495709226,-97.1173864091268
0.824229313142239,667.21859876851,212.972415580056,-454.246183188454,-440.095507174283,560.732390978482,-120.636883804199
0.826392644672796,665.894570927921,217.79938456003,-448.095186367891,-441.846977743976,556.994878647906,-115.147900903931
0.828555976203353,664.699793465994,218.929996712417,-445.769796753577,-441.814895089205,555.234795109785,-113.41990002058
0.83071930773391,663.584585888796,218.970566173462,-444.614019715334,-441.277576031129,554.099302802065,-112.821726770936
0.832882639264467,664.8416557291,213.562898401847,-451.278757327253,-439.202277065474,558.060206528177,-118.857929462703
0.835045970795024,663.925466730107,211.820910933145,-452.104555796962,-437.873188831626,558.015011263534,-120.141822431909
0.837209302325581,666.78202925818,209.099174709009,-457.68285454917,-437.940601983595,562.232441903675,-124.29183992008
0.839372633856138,667.853379988834,200.409168010235,-467.444211978599,-434.131273999534,567.648795983717,-133.517521984182
0.841535965386696,668.04822745073,206.727787316268,-461.320440134461,-437.388007383499,564.684333792595,-127.296326409096
0.843699296917253,665.643509591886,209.31422001987,-456.329289572016,-437.478864805878,560.986399581951,-123.507534776073
0.84586262844781,665.906703550867,208.791497788767,-457.1152057621,-437.349100669817,561.510954656483,-124.161853986667
0.848025959978367,664.899651662092,199.082237988097,-465.817413673995,-431.990944825095,565.358532668044,-133.367587842949
0.850189291508924,664.850241170244,197.447965300116,-467.402275870128,-431.14910323518,566.126258520186,-134.977155285006
0.852352623039481,665.804241224045,206.791882230245,-459.0123589938,-436.298061727145,562.408300108922,-126.110238381777
0.854515954570038,666.380797477567,211.362151306767,-455.018646170799,-438.871474392167,560.699721824183,-121.828247432016
0.856679286100595,668.103696178966,214.006670209189,-454.097025969777,-441.055183194078,561.100361074372,-120.045177880294
0.858842617631152,666.407832708775,218.084731077501,-448.323101631274,-442.246281893138,557.365467170025,-115.119185276886
0.861005949161709,665.317462023027,223.046701493399,-442.270760529627,-444.182081758213,553.794111276327,-109.612029518114
0.863169280692266,663.917715247874,220.799305682631,-443.118409565243,-442.358510465252,553.518062406558,-111.159551941306
0.865332612222823,663.087080896906,213.300088113569,-449.786992783337,-438.193584505238,556.437036840121,-118.243452334884
0.86749594375338,663.35837599317,204.411424005837,-458.946951987333,-433.884899999503,561.152663990251,-127.267763990748
0.869659275283937,665.370713537187,209.010280511125,-456.360433026062,-437.190497024156,560.865573281625,-123.675076257469
0.871822606814494,666.779819777269,209.732050416292,-457.047769360977,-438.25593509678,561.913794569123,-123.657859472342
0.873985938345051,668.287327805656,220.44826699521,-447.839060810446,-444.367797400433,558.063194308051,-113.695396907618
0.876149269875608,668.638455014104,230.119816690741,-438.518638323363,-449.379135852423,553.578546668733,-104.199410816311
0.878312601406166,665.71513009001,232.622149474335,-433.092980615675,-449.168639782172,549.404055352842,-100.23541557067
0.880475932936723,663.528736875707,227.09839307122,-436.430343804487,-445.313564973463,549.979540340097,-104.665975366634
0.88263926446728,663.752787260556,206.878287375474,-456.874499885082,-435.315537318015,560.313643572819,-124.998106254804
0.884802595997837,663.577871545846,201.266849873026,-462.311021672819,-432.422360709436,562.944446609332,-130.522085899897
0.886965927528394,665.008046530205,202.800606466807,-462.207440063399,-433.904326498506,563.607743296802,-129.703416798296
0.889129259058951,667.94186941369,208.278475733367,-459.663393680323,-438.110172573529,563.802631547007,-125.692458973478
0.891292590589508,669.14386971695,211.67709782204,-457.46677189491,-440.410483769495,563.30532080593,-122.894837036435
0.893455922120065,669.141592696042,220.342294095029,-448.799298601013,-444.741943395535,558.970445648527,-114.228502252992
0.895619253650622,667.635205652494,225.946905732863,-441.688299919631,-446.791055692678,554.661752786062,-107.870697093384
0.897782585181179,666.36800614523,230.903648438109,-435.464357707121,-448.63582729167,550.916181926175,-102.280354634506
0.899945916711736,666.938807230987,230.839175543739,-436.099631687247,-448.888991387363,551.519219459117,-102.630228071754
0.902109248242293,668.701282308725,227.051828075843,-441.649454232882,-447.876555192284,555.175368270804,-107.29881307852
0.90427257977285,671.049411382119,228.597232118161,-442.452179263958,-449.82332175014,556.750795323038,-106.927473572899
0.906435911303407,673.002985309115,225.912068413075,-447.09091689604,-449.457526861095,560.046951102578,-110.589424241483
0.908599242833964,671.444747569953,228.999064231577,-442.445683338376,-450.221905900765,556.945215454164,-106.723309553399
0.910762574364521,670.323980471753,235.860692146046,-434.463288325707,-453.0923363089,552.39363439873,-99.3012980898307
0.912925905895078,668.755482619886,239.089442563535,-429.666040056351,-453.922462591711,549.210761338119,-95.288298746408
0.915089237425636,668.520194201232,237.123125485371,-431.397068715861,-452.821659843302,549.958631458547,-97.1369716152453
0.917252568956193,666.297583808609,232.606710297454,-433.690873511155,-449.452147053032,549.994228659882,-100.542081606851
0.91941590048675,668.346154331044,232.205955140067,-436.140199190977,-450.276054735556,552.243176761011,-101.967122025455
0.921579232017307,671.49304297062,221.806960270838,-449.686082699782,-446.650001620729,560.589562835201,-113.939561214472
0.923742563547864,670.782205729531,217.284661907156,-453.497543822375,-444.033433818343,562.139874775953,-118.106440957609
0.925905895078421,670.426571184368,227.19760839661,-443.228962787758,-448.812089790489,556.827766986063,-108.015677195574
0.928069226608978,668.268467513449,226.699193652785,-441.569273860665,-447.483830583117,554.918870687057,-107.43504010394
0.930232558139535,668.344206426078,232.34808938921,-435.996117036868,-450.346147907644,552.170161731473,-101.824013823829
0.932395889670092,667.633226999937,233.039299693942,-434.593927305994,-450.33626334694,551.113577152966,-100.777313806026
0.934559221200649,669.758306500523,238.400306361993,-431.35800013853,-454.079306431258,550.558153319526,-96.4788468882687
0.936722552731206,671.996722028936,228.675602209913,-443.321119819023,-450.336162119425,557.65892092398,-107.322758804555
0.938885884261763,673.439831547457,228.552126273274,-444.887705274183,-450.995978910365,559.16376841082,-108.167789500455
0.94104921579232,673.977891849856,222.949575262102,-451.028316587755,-448.463733555979,562.503104218805,-114.039370662827
0.943212547322877,673.277708690112,219.011737641077,-454.265971049035,-446.144723165594,563.771839869573,-117.627116703979
0.945375878853434,672.577028125293,217.534651542618,-455.042376582675,-445.055839833955,563.809702353984,-118.753862520029
0.947539210383991,670.432184602715,217.712438702114,-452.719745900601,-444.072311652414,561.575965251658,-117.503653599244
0.949702541914548,667.689622361152,225.047593524833,-442.642028836319,-446.368607942993,555.165825598735,-108.797217655743
0.951865873445105,670.12977150504,225.141992262469,-444.987779242571,-447.635881883755,557.558775373806,-109.922893490051
0.954029204975663,670.060116018717,225.063140850541,-444.996975168176,-447.561628434629,557.528545593446,-109.966917158817
0.95619253650622,672.08319546535,220.050120643249,-452.033074822102,-446.066658054299,562.058135143726,-115.991477089426
0.958355868036777,670.666698396293,217.365904849002,-453.300793547291,-444.016301622648,561.983745971792,-117.967444349144
0.960519199567334,669.686311570932,217.976889055081,-451.709422515852,-443.831600313007,560.697867043392,-116.866266730385
0.962682531097891,669.767274772478,224.393096548376,-445.374178224102,-447.080185660427,557.57072649829,-110.490540837863
0.964845862628448,669.472456918827,231.843102310535,-437.629354608292,-450.657779614681,553.55090576356,-102.893126148878
0.967009194159005,668.682517875962,230.649082541839,-438.033435334123,-449.665800208901,553.357976605043,-103.692176396142
0.969172525689562,668.972393025745,222.190197990432,-446.782195035313,-445.581295508088,557.877294030529,-112.29599852244
0.971335857220119,668.859970299975,219.005137105017,-449.854833194958,-443.932553702496,559.357401747466,-115.42484804497
0.973499188750676,669.008636805916,208.348320486557,-460.660316319359,-438.678478646236,564.834476562638,-126.155997916401
0.975662520281233,667.248113358102,203.076267918847,-464.171845439254,-435.162190638474,565.709979398678,-130.547788760203
0.97782585181179,665.28868983407,198.695713111624,-466.592976722445,-431.992201472847,565.940833278258,-133.94863180541
0.979989183342347,663.868902992187,201.811836521858,-462.05706647033,-432.840369757023,562.962984731259,-130.122614974236
0.982152514872904,661.491971081643,210.907426100681,-450.584544980962,-436.199698591162,556.038258031303,-119.838559440141
0.984315846403461,661.021226405541,226.60044674309,-434.420779662451,-443.810836574315,547.721003033996,-103.91016645968
0.986479177934018,661.442563535227,225.524253902826,-435.918309632401,-443.483408719027,548.680436583814,-105.197027864787
0.988642509464575,663.572446617112,226.450573104421,-437.121873512691,-445.011509860767,550.347160064902,-105.335650204135
0.990805840995132,663.401826825313,223.724612414284,-439.677214411029,-443.563219619799,551.539520618171,-107.976300998373
0.99296917252569,663.737602814984,219.099688786768,-444.637914028216,-441.418645800876,554.1877584216,-112.769112620724
0.995132504056247,662.507152897661,216.106187384268,-446.400965513393,-439.306670140965,554.454059205527,-115.147389064562
0.997295835586804,660.492493193634,215.889941396817,-444.602551796817,-438.191217295226,552.547522495226,-114.3563052
0.999459167117361,660.037201837407,219.39146319449,-440.645738642917,-439.714332515949,550.341470240162,-110.627137724214
1.00162249864792,662.192091896755,228.038876825525,-434.153215071231,-445.11548436114,548.172653483993,-103.057169122853
1.00378583017847,661.807202706103,234.290426536267,-427.516776169836,-448.048814621185,544.66198943797,-96.6131748167847
1.00594916170903,664.474666018648,227.42334747008,-437.051318548568,-445.949006744364,550.762992283608,-104.813985539244
1.00811249323959,664.771132831501,214.424031934999,-450.347100896502,-439.59758238325,557.559116864002,-117.961534480752
1.01027582477015,662.54849721526,203.393527657139,-459.154969558121,-432.9710124362,560.851733386691,-127.880720950491
1.0124391563007,662.209240288174,196.30102108421,-465.908219203964,-429.255130686192,564.058729746069,-134.803599059877
1.01460248783126,661.289832505637,190.368473655988,-470.921358849649,-425.829153080813,566.105595677643,-140.27644259683
1.01676581936182,661.129961562963,196.126586681664,-465.003374881299,-428.628274122313,563.066668222131,-134.438394099818
1.01892915089237,661.783214225934,203.937642332872,-457.845571893062,-432.860428279403,559.814393059498,-126.953964780095
1.02109248242293,662.806979701684,215.032449436099,-447.774530265585,-438.919714568891,555.290754983634,-116.371040414743
1.02325581395349,664.357055147318,220.260121162839,-444.096933984479,-442.308588155079,554.226994565899,-111.91840641082
1.02541914548405,663.617855001675,221.758916477014,-441.858938524661,-442.688385739345,552.738396763168,-110.050011023824
1.0275824770146,664.581424199564,223.550109466304,-441.031314733259,-444.065766832934,552.806369466411,-108.740602633478
1.02974580854516,663.700412830138,218.006946644813,-445.693466185325,-440.853679737476,554.696939507732,-113.843259770256
1.03190914007572,662.309922787397,212.701240167829,-449.608682619568,-437.505581477613,555.959302703483,-118.45372122587
1.03407247160627,663.115134748474,212.696905001172,-450.418229747301,-437.906019874823,556.766682247887,-118.860662373064
1.03623580313683,663.66365593412,214.025773814801,-449.637882119319,-438.844714874461,556.650769026719,-117.806054152259
1.03839913466739,665.167806287535,218.776941203935,-446.390865083599,-441.972373745735,555.779335685567,-113.806961939832
1.04056246619794,664.822072232695,223.341083787856,-441.48098844484,-444.081578010275,553.151530338767,-109.069952328492
1.0427257977285,664.001513035974,216.271800573289,-447.729712462684,-440.136656804631,555.865612749329,-115.728955944697
1.04488912925906,662.793526812488,207.06704753582,-455.726479276668,-434.930287174154,559.260003044578,-124.329715870424
1.04705246078962,659.102694894949,197.579328795812,-461.523366099137,-428.341011845381,560.313030497043,-131.972018651662
1.04921579232017,657.980820814875,200.123431859958,-457.857388954917,-429.052126337416,557.919104884896,-128.866978547479
1.05137912385073,658.753913574552,198.342575265554,-460.411338308998,-428.548244420053,559.582625941775,-131.034381521722
1.05354245538129,660.558320393572,194.722013972521,-465.83630642105,-427.640167183047,563.197313407311,-135.557146224265
1.05570578691184,660.852914661233,202.591797258708,-458.261117402525,-431.72235595997,559.557016031879,-127.834660071908
1.0578691184424,663.48113689005,209.656409522204,-453.824727367845,-436.568773206127,558.652932128948,-122.08415892282
1.06003244997296,665.214132806533,217.909893499852,-447.30423930668,-441.562013153193,556.259186056606,-114.697172903414
1.06219578150352,667.634407777064,218.435758946289,-449.198648830775,-443.035083361677,558.41652830392,-115.381444942243
1.06435911303407,673.904254870556,218.52144166553,-455.382813205025,-446.212848268043,564.64353403779,-118.430685769747
1.06652244456463,681.612995346784,216.169730308781,-465.443265038003,-448.891362827782,573.528130192393,-124.636767364611
1.06868577609519,687.610935125081,222.920806289126,-464.690128835955,-455.265870707103,576.150531980518,-120.884661273415
1.07084910762574,684.899906164362,238.195937339262,-446.7039688251,-461.547921751812,565.801937494731,-104.254015742919
1.0730124391563,683.245665801858,253.154846105276,-430.090819696582,-468.200255953567,556.66824274922,-88.467986795653
1.07517577068686,686.767540998023,273.795578674393,-412.97196232363,-480.281559836208,549.869751660826,-69.5881918246184
1.07733910221741,721.556505128449,295.723458546164,-425.833046582285,-508.639981837306,573.694775855367,-65.0547940180606
1.07950243374797,746.716869480062,298.826596764258,-447.890272715805,-522.77173312216,597.303571097934,-74.5318379757734
1.08166576527853,769.802006369606,305.403527024217,-464.398479345389,-537.602766696911,617.100242857497,-79.4974761605858
1.08382909680909,769.271619922027,301.475164002451,-467.796455919576,-535.373391962239,618.534037920802,-83.1606459585625
1.08599242833964,718.454740156821,287.450450758453,-431.004289398369,-502.952595457637,574.729514777595,-71.776919319958
1.0881557598702,678.28390772419,285.847391573038,-392.436516151153,-482.065649648614,535.360211937671,-53.2945622890573
1.09031909140076,679.261281391468,295.054229840083,-384.207051551384,-487.157755615776,531.734166471426,-44.5764108556506
1.09248242293131,684.653151818132,289.368686735986,-395.284465082146,-487.010919277059,539.968808450139,-52.9578891730798
1.09464575446187,683.632705460138,276.388501625606,-407.244203834532,-480.010603542872,545.438454647335,-65.4278511044627
1.09680908599243,674.220196410894,256.676070101915,-417.544126308979,-465.448133256404,545.882161359937,-80.4340281035323
1.09897241752299,666.724606953881,251.625339413181,-415.0992675407,-459.174973183531,540.911937247291,-81.7369640637596
1.10113574905354,661.461281089983,250.230116330162,-411.231164759821,-455.845698710073,536.346222924902,-80.500524214829
1.1032990805841,658.811485044554,240.039156472512,-418.772328572041,-449.425320758533,538.791906808297,-89.3665860497644
1.10546241211466,658.942335713442,227.74014863881,-431.202187074632,-443.341242176126,545.072261394037,-101.731019217911
1.10762574364521,659.325196503499,229.460530146023,-429.864666357476,-444.392863324761,544.594931430487,-100.202068105726
1.10978907517577,663.608735867264,233.268105561464,-430.3406303058,-448.438420714364,546.974683086532,-98.5362623721682
1.11195240670633,665.193601278112,232.511885587356,-432.681715690755,-448.852743432734,548.937658484434,-100.0849150517
1.11411573823688,668.06926864683,232.311706204297,-435.757562442533,-450.190487425564,551.913415544682,-101.722928119118
1.11627906976744,668.520644786067,228.334737878861,-440.185906907206,-448.427691332464,554.353275846637,-105.925584514173
1.118442401298,669.220623701375,229.25089562762,-439.969728073754,-449.235759664498,554.595175887565,-105.359416223067
1.12060573282856,669.469407381118,221.868881658462,-447.600525722656,-445.66914451979,558.534966551887,-112.865822032097
1.12276906435911,669.087275462421,219.467001428093,-449.620274034328,-444.277138445257,559.353774748374,-115.076636303117
1.12493239588967,668.546284583323,220.174031188287,-448.372253395036,-444.360157885805,558.45926898918,-114.099111103374
1.12709572742023,665.243793727182,225.70664082875,-439.537152898432,-445.475217277966,552.390473312807,-106.915256034841
1.12925905895078,663.20976358743,232.507510618449,-430.702252968982,-447.858637102939,546.956008278206,-99.0973711752666
1.13142239048134,662.750014886029,239.072035902825,-423.677978983205,-450.911025394427,543.213996934617,-92.3029715401898
1.1335857220119,660.23404700339,234.443952267228,-425.790094736162,-447.338999635309,543.012070869776,-95.673071234467
1.13574905354246,660.557164537297,232.769518878823,-427.787645658474,-446.66334170806,544.172405097886,-97.5090633898254
1.13791238507301,660.349158098144,226.561368279821,-433.787789818322,-443.455263188982,547.068473958233,-103.613210769251
1.14007571660357,660.00775867103,215.071451026692,-444.936307644338,-437.539604848861,552.472033157684,-114.932428308823
1.14223904813413,661.585374478233,213.335647272266,-448.249727205967,-437.46051087525,554.9175508421,-117.45703996685
1.14440237966468,661.876635797717,220.712607440482,-441.164028357235,-441.2946216191,551.520332077476,-110.225710458377
1.14656571119524,661.990521934919,226.309009298791,-435.681512636129,-444.149765616855,548.836017285524,-104.686251668669
1.1487290427258,662.38544802422,237.891275933227,-424.494172090994,-450.138361978723,543.439810057607,-93.3014480788836
1.15089237425635,663.352809628415,237.986297688898,-425.366511939517,-450.669553658657,544.359660783966,-93.6901071253098
1.15305570578691,664.013771516627,218.555493166326,-445.458278350301,-441.284632341477,554.736024933464,-113.451392591987
1.15521903731747,663.154509706841,202.529750047776,-460.624759659065,-432.842129877308,561.889634682953,-129.047504805645
1.15738236884803,664.260372588649,195.717267816088,-468.543104772561,-429.988820202369,566.401738680605,-136.412918478237
1.15954570037858,663.92410923783,198.073759080491,-465.850350157339,-430.99893415916,564.887229697585,-133.888295538424
1.16170903190914,663.927679283731,208.814565099948,-455.113114183783,-436.371122191839,559.520396733757,-123.149274541918
1.1638723634397,663.188058630687,213.713721193725,-449.474337436962,-438.450889912206,556.331198033825,-117.880308121619
1.16603569497025,663.785931537752,225.258670885763,-438.527260651989,-444.522301211758,551.15659609487,-106.634294883113
1.16819902650081,663.488914907424,230.025340676221,-433.463574231204,-446.757127791823,548.476244569314,-101.719116777492
1.17036235803137,665.171717874443,224.847923119828,-440.323794754615,-445.009820497136,552.747756314529,-107.737935817393
1.17252568956193,666.674135089511,213.636206355279,-453.037928734232,-440.155170722395,559.856031911872,-119.700861189476
1.17468902109248,667.525597348687,209.305801277214,-458.219796071473,-438.415699312951,562.87269671008,-124.45699739713
1.17685235262304,665.289324599584,208.547043242018,-456.742281357566,-436.918183920801,561.015802978575,-124.097619057774
1.1790156841536,665.932952062532,209.717618163366,-456.215333899166,-437.825285112949,561.074142980849,-123.2488578679
1.18117901568415,663.710898912626,219.250834435806,-444.46006447682,-441.480866674216,554.085481694723,-112.604615020507
1.18334234721471,663.806905754873,229.847031415166,-433.959874339707,-446.826968585019,548.88339004729,-102.056421462271
1.18550567874527,666.169390612605,236.13076680198,-430.038623810625,-451.150078707292,548.104007211615,-96.9539285043226
1.18766901027582,666.332634326019,231.831762612939,-434.50087171308,-449.082198469479,550.41675301955,-101.334554550071
1.18983234180638,666.857362821283,223.21744999666,-443.639912824623,-445.037406408971,555.248637822953,-110.211231413981
1.19199567333694,667.401695788137,212.757273636442,-454.644422151695,-440.079484712289,561.023058969916,-120.943574257627
1.1941590048675,666.532190208107,210.499117160131,-456.033073047976,-438.515653684119,561.282631628042,-122.766977943923
1.19632233639805,665.600000528269,214.712763306456,-450.887237221813,-440.156381917363,558.243618875041,-118.087236957679
1.19848566792861,666.793192897518,219.167304911881,-447.625887985638,-442.980248904699,557.209540441578,-114.229291536878
1.20064899945917,667.189150940623,216.753381961892,-450.43576897873,-441.971266451257,558.812459959676,-116.841193508419
1.20281233098972,668.917745776505,211.84987864254,-457.067867133964,-440.383812209522,562.992806455234,-122.608994245712
1.20497566252028,669.791827099438,214.939773011312,-454.852054088126,-442.365800055375,562.321940593782,-119.956140538407
1.20713899405084,669.252725181279,212.275809819251,-456.976915362028,-440.764267500265,563.114820271653,-122.350552771388
1.2093023255814,669.522380305419,206.851293217166,-462.671087088254,-438.186836761293,566.096733696836,-127.909896935544
1.21146565711195,666.967238741753,206.144511629795,-460.822727111958,-436.555875185774,563.894982926855,-127.339107741081
1.21362898864251,667.766371262856,205.277345877883,-462.489025384974,-436.521858570369,565.127698323915,-128.605839753546
1.21579232017307,668.448333292838,207.773874780492,-460.674458512345,-438.111104036665,564.561395902592,-126.450291865927
1.21795565170362,669.872106688915,212.333357375219,-457.538749313696,-441.102732032067,563.705428001306,-122.602695969238
1.22011898323418,670.043490074428,216.285435302619,-453.758054771809,-443.164462688524,561.900772423119,-118.736309734595
1.22228231476474,672.31927808041,219.693586806728,-452.625691273682,-446.006432443569,562.472484677046,-116.466052233477
1.22444564629529,671.500921214916,218.931383654247,-452.569537560668,-445.216152434581,562.035229387792,-116.81907695321
1.22660897782585,670.790025141888,217.59385780847,-453.196167333419,-444.191941475179,561.993096237653,-117.801154762475
1.22877230935641,669.851942230823,210.388719114118,-459.463223116705,-440.12033067247,564.657582673764,-124.537252001293
1.23093564088697,670.076906271782,206.843591090537,-463.233315181245,-438.46024868116,566.655110726514,-128.194862045354
1.23309897241752,670.229403254697,206.702466274005,-463.526936980692,-438.465934764351,566.878170117694,-128.412235353343
1.23526230394808,670.201637288432,211.987817411341,-458.213819877091,-441.094727349887,564.207728582762,-123.113001232875
1.23742563547864,671.088853692231,211.313330530174,-459.775523162057,-441.201092111203,565.432188427144,-124.231096315941
1.23958896700919,670.740477657547,216.555867384073,-454.184610273474,-443.64817252081,562.462543965511,-118.814371444701
1.24175229853975,670.471417889579,211.225503155038,-459.245914734542,-440.848460522309,564.858666312061,-124.010205789752
1.24391563007031,671.257381241801,209.928565856872,-461.328815384928,-440.592973549337,566.293098313364,-125.700124764028
1.24607896160087,671.229564496832,201.804748175869,-469.424816320963,-436.51715633635,570.327190408898,-133.810034072547
1.24824229313142,670.907528917818,200.438768330744,-470.468760587074,-435.673148624281,570.688144752446,-135.014996128165
1.25040562466198,671.282529564809,202.518768715656,-468.763760849153,-436.900649140233,570.023145206981,-133.122496066748
1.25256895619254,673.694932564436,202.216060734625,-471.478871829811,-437.955496649531,572.586902197124,-134.631405547593
1.25473228772309,675.231412249871,214.363799936836,-460.867612313035,-444.797606093354,568.049512281453,-123.251906188099
1.25689561925365,676.217100616865,217.393641721419,-458.823458895446,-446.805371169142,567.520279756155,-120.714908587013
1.25905895078421,674.953864877794,224.098682809597,-450.855182068197,-449.526273843695,562.904523472995,-113.3782496293
1.26122228231476,673.34332778341,219.633662330598,-453.709665452812,-446.488495057004,563.526496618111,-117.038001561107
1.26338561384532,674.293128570287,220.954681208666,-453.33844736162,-447.623904889477,563.815787965954,-116.191883076477
1.26554894537588,674.229033980734,219.472247983889,-454.756785996845,-446.850640982311,564.492909988789,-117.642269006478
1.26771227690644,674.764705520376,229.419095433451,-445.345610086925,-452.091900476914,560.05515780365,-107.963257326737
1.26987560843699,675.546971344422,233.875817882585,-441.671153461837,-454.711394613504,558.60906240313,-103.897667789626
1.27203893996755,676.076007806407,242.89820733749,-433.177800468918,-459.487107571949,554.626904137663,-95.1397965657141
1.27420227149811,675.23108985677,242.832611514593,-432.398478342177,-459.031850685682,553.814784099474,-94.7829334137918
1.27636560302866,675.443340522429,251.991379248301,-423.451961274127,-463.717359885365,549.447650898278,-85.7302910129131
1.27852893455922,675.504895106029,238.812511511274,-436.692383594755,-457.158703308651,556.098639350392,-98.9399360417407
1.28069226608978,674.293140507913,227.400413437879,-446.892727070034,-450.846776972896,560.592933788974,-109.746156816078
1.28285559762034,674.447203831285,223.482797818808,-450.964406012477,-448.965000825047,562.705804921881,-113.740804096834
1.28501892915089,675.85410510772,227.800134797612,-448.053970310108,-451.827119952666,561.954037708914,-110.126917756248
1.28718226068145,677.31753933135,233.770475771046,-443.547063560304,-455.544007551198,560.432301445827,-104.888293894629
1.28934559221201,676.823204538694,237.179985491679,-439.643219047016,-457.001595015187,558.233211792855,-101.231616777669
1.29150892374256,677.370480862437,237.126581571261,-440.243899291176,-457.248531216849,558.807190076807,-101.558658859958
1.29367225527312,678.337714664461,237.650280277886,-440.687434386574,-457.993997471174,559.512574525517,-101.518577054344
1.29583558680368,678.540128722364,223.047650565251,-455.492478157113,-450.793889643808,567.016303439739,-116.222413795931
1.29799891833423,678.352973949403,218.913722234783,-459.43925171462,-448.633348092093,568.896112832012,-120.262764739919
1.30016224986479,679.473546001742,223.710467869649,-455.763078132093,-451.592006935696,567.618312066918,-116.026305131222
1.30232558139535,680.091506354347,223.857228711071,-456.234277643276,-451.974367532709,568.162891998812,-116.188524466102
1.30448891292591,680.599377374893,224.809954808929,-455.789422565964,-452.704666091911,568.194399970429,-115.489733878518
1.30665224445646,679.882348251814,230.480210954152,-449.402137297662,-455.181279602983,564.642242774738,-109.460963171755
1.30881557598702,678.697876891044,241.648106034055,-437.049770856989,-460.17299146255,557.873823874017,-97.7008324114673
1.31097890751758,678.895817514671,231.322570580095,-447.573246934576,-455.109194047383,563.234532224624,-108.12533817724
1.31314223904813,677.683515271575,229.708029783651,-447.975485487923,-453.695772527613,562.829500379749,-109.133727852136
1.31530557057869,677.705633869193,226.463531161352,-451.242102707841,-452.084582515273,564.473868288517,-112.389285773244
1.31746890210925,678.14221328898,219.1838751092,-458.95833817978,-448.66304419909,568.55027573438,-119.88723153529
1.31963223363981,677.909376636156,222.988990807678,-454.920385828478,-450.449183721917,566.414881232317,-115.9656975104
1.32179556517036,678.234191256504,234.782375533836,-443.451815722668,-456.50828339517,560.843003489586,-104.334720094416
1.32395889670092,678.120372359279,228.458894681834,-449.661477677445,-453.289633520556,563.890925018362,-110.601291497805
1.32612222823148,677.651151853854,228.705956237924,-448.94519561593,-453.178554045889,563.298173734892,-110.119619689003
1.32828555976203,679.517402429455,232.258283611592,-447.259118817863,-455.887843020523,563.388260623659,-107.500417603136
1.33044889129259,680.078021552335,232.526643136444,-447.551378415891,-456.302332344389,563.814699984113,-107.512367639723
1.33261222282315,678.684476521487,218.173583921436,-460.510892600051,-448.429030221462,569.597684560769,-121.168654339307
1.3347755543537,678.385641879224,213.002170366061,-465.383471513163,-445.693906122642,571.884556696193,-126.190650573551
1.33693888588426,679.653568707834,206.891680304212,-472.761888403622,-443.272624506023,576.207728555728,-132.935104049705
1.33910221741482,677.415367317646,200.974675433378,-476.440691884268,-439.195021375512,576.928029600957,-137.733008225445
1.34126554894538,677.140286902311,220.921261666391,-456.219025235921,-449.030774284351,566.679656069116,-117.648881784765
1.34342888047593,675.037313169484,214.293029129777,-460.744284039706,-444.66517114963,567.890798604595,-123.225627454964
1.34559221200649,673.823492603257,223.707356566662,-450.116136036595,-448.765424584959,561.969814319926,-113.204389734966
1.34775554353705,672.975457379667,226.517260076405,-446.458197303261,-449.746358728036,559.716827341464,-109.970468613428
1.3499188750676,672.525844831847,217.669663962607,-454.856180869239,-445.097754397227,563.691012850543,-118.593258453316
1.35208220659816,672.249628363394,204.355138118709,-467.894490244685,-438.302383241052,570.07205930404,-131.769676062988
1.35424553812872,671.810624240198,198.839407600566,-472.971216639632,-435.325015920382,572.390920439915,-137.065904519533
1.35640886965928,669.391476006792,198.386866038174,-471.004609968619,-433.889171022483,570.198042987705,-136.308871965222
1.35857220118983,668.19524382112,201.678338677546,-466.516905143574,-434.936791249333,567.356074482347,-132.419283233014
1.36073553272039,667.687341526893,205.476846859169,-462.210494667724,-436.582094193031,564.948918097309,-128.366823904278
1.36289886425095,667.399178632734,219.746188881381,-447.652989751354,-443.572683757058,557.526084192044,-113.953400434986
1.3650621957815,666.721537322428,224.968235615185,-441.753301707243,-445.844886468807,554.237419514835,-108.392533046029
1.36722552731206,665.581640257015,222.471870356261,-443.109769900755,-444.026755306638,554.345705078885,-110.318949772247
1.36938885884262,666.076152993312,207.587412475196,-458.488740518115,-436.831782734254,562.282446755714,-125.45066402146
1.37155219037317,665.503157843933,207.688341621448,-457.814816222485,-436.59574973269,561.658987033209,-125.063237300519
1.37371552190373,662.923986407979,213.626000693489,-449.29798571449,-438.274993550734,556.110986061234,-117.835992510501
1.37587885343429,661.64056490226,219.235183103807,-442.405381798453,-440.437874003034,552.022973350357,-111.585099347323
1.37804218496485,661.96405279904,219.685990955113,-442.278061843927,-440.825021877076,552.121057321483,-111.296035444407
1.3802055164954,661.017210226883,209.967338643842,-451.049871583042,-435.492274435363,556.033540904962,-120.5412664696
1.38236884802596,660.489668032432,208.844453068824,-451.645214963609,-434.667060550628,556.06744149802,-121.400380947393
1.38453217955652,661.01056951222,191.473143174781,-469.537426337439,-426.241856343501,565.273997924829,-139.032141581329
1.38669551108707,659.867195991764,189.579056066799,-470.288139924966,-424.723126029282,565.077667958365,-140.354541929084
1.38885884261763,659.951444265283,199.313999984427,-460.637444280857,-429.632722124855,560.29444427307,-130.661722148215
1.39102217414819,659.614692533772,206.633262308016,-452.981430225755,-433.123977420894,556.298061379763,-123.174083958869
1.39318550567875,658.270609868787,207.883570455063,-450.387039413724,-433.077090161925,554.328824641255,-121.25173447933
1.3953488372093,657.85655478747,208.863269690288,-448.993285097182,-433.359912238879,553.424919942326,-120.065007703447
1.39751216873986,657.051994742807,215.116541381538,-441.935453361269,-436.084268062172,549.493724052038,-113.409455989866
1.39967550027042,658.253786588501,216.784991689085,-441.468794899416,-437.519389138793,549.861290743958,-112.341901605165
1.40183883180097,658.824712058696,218.935568093079,-439.889143965616,-438.880140075887,549.356928012156,-110.476787936268
1.40400216333153,659.196087385054,218.008045747135,-441.18804163792,-438.602066566095,550.192064511487,-111.589997945393
1.40616549486209,657.539317889643,213.989877317861,-443.549440571782,-435.764597603752,550.544379230713,-114.779781626961
1.40832882639264,658.656701620367,203.33865709757,-455.318044522797,-430.997679358969,556.987373071582,-125.989693712613
1.4104921579232,658.074199116489,193.865651501224,-464.208547615265,-425.969925308856,561.141373365877,-135.171448057021
1.41265548945376,655.367901648689,186.068494732837,-469.299406915853,-420.718198190763,562.333654282271,-141.615456091508
1.41481882098432,656.312369335404,181.528737190466,-474.783632144937,-418.920553262935,565.54800074017,-146.627447477235
1.41698215251487,657.642660986719,188.417494297156,-469.225166689563,-423.030077641938,563.433913838141,-140.403836196204
1.41914548404543,659.020498858971,192.41240334095,-466.608095518021,-425.71645109996,562.814297188496,-137.097846088535
1.42130881557599,658.484353002552,189.783251687164,-468.701101315388,-424.133802344858,563.59272715897,-139.458924814112
1.42347214710654,660.629574953383,186.977343643412,-473.652231309971,-423.803459298397,567.140903131677,-143.337443833279
1.4256354786371,659.244509288722,180.737310528706,-478.507198760016,-419.990909908714,568.875854024369,-148.884944115655
1.42779881016766,658.67412231122,174.363282420348,-484.310839890872,-416.518702365784,571.492481101046,-154.973778735262
1.42996214169822,658.491743853648,177.930018923482,-480.561724930166,-418.210881388565,569.526734391907,-151.315853003342
1.43212547322877,660.409143977927,183.294329981547,-477.11481399638,-421.851736979737,568.761978987153,-146.910242007417
1.43428880475933,661.045474264506,191.997659415295,-469.047814849211,-426.5215668399,565.046644556858,-138.525077716958
1.43645213628989,662.380763449092,200.685862381244,-461.694901067849,-431.533312915168,562.037832258471,-130.504519343303
1.43861546782044,664.066420653271,200.134150990358,-463.932269662914,-432.100285821815,563.999345158093,-131.899059336278
1.440778799351,663.649385218342,203.370311094918,-460.279074123424,-433.50984815663,561.964229670883,-128.454381514253
1.44294213088156,662.184550436298,201.798784052803,-460.385766383495,-431.991667244551,561.285158409897,-129.293491165346
1.44510546241211,661.688763029498,202.7550025979,-458.933760431599,-432.221882813699,560.311261730549,-128.089378916849
1.44726879394267,660.894770078486,206.650237685441,-454.244532393045,-433.772503881963,557.569651235765,-123.797147353802
1.44943212547323,662.191823918015,210.674389275536,-451.517434642479,-436.433106596775,556.854629280247,-120.421522683472
1.45159545700379,660.498028933938,213.81900873256,-446.679020201378,-437.158518833249,553.588524567658,-116.430005734409
1.45375878853434,661.728598580903,218.290955622122,-443.437642958781,-440.009777101512,552.583120769842,-112.57334366833
1.4559221200649,663.213963792305,225.346678666965,-437.86728512534,-444.280321229635,550.540624458823,-106.260303229188
1.45808545159546,662.625544825831,222.806171030484,-439.819373795346,-442.715857928157,551.222459310588,-108.506601382431
1.46024878312601,662.717119257497,208.583924210436,-454.133195047061,-435.650521733966,558.425157152279,-122.774635418312
1.46241211465657,662.353427148093,209.859843031439,-452.493584116654,-436.106635089766,557.423505632373,-121.316870542607
1.46457544618713,664.160553321184,214.126992860832,-450.033560460352,-439.143773091008,557.097056890768,-117.95328379976
1.46673877771769,664.832245450869,220.692124197522,-444.140121253347,-442.762184824196,554.486183352108,-111.723998527912
1.46890210924824,665.533250536466,227.621668043321,-437.911582493145,-446.577459289893,551.722416514805,-105.144957224912
1.4710654407788,665.017988244435,218.176016357617,-446.841971886818,-441.597002301026,555.929980065627,-114.332977764601
1.47322877230936,663.097824924318,206.628702888357,-456.469122035961,-434.863263906337,559.783473480139,-124.920209573802
1.47539210383991,664.737077873088,201.711057227385,-463.026020645703,-433.224067550236,563.881549259395,-130.657481709159
1.47755543537047,664.840210461911,201.321250123294,-463.518960338617,-433.080730292602,564.179585400264,-131.098855107662
1.47971876690103,664.646082851872,196.63039261133,-468.015690240542,-430.638237731601,566.330886546207,-135.692648814606
1.48188209843158,665.08982986305,201.855719672706,-463.234110190345,-433.472774767878,564.161970026697,-130.689195258819
1.48404542996214,666.700650372279,207.460749870391,-459.239900501888,-437.080700121335,562.970275437084,-125.889575315748
1.4862087614927,668.169894162281,221.171884969781,-446.9980091925,-444.670889566031,557.583951677391,-112.91306211136
1.48837209302326,668.264260628328,228.891184108322,-439.373076520006,-448.577722368325,553.818668574167,-105.240946205842
1.49053542455381,667.700337803448,224.453188598462,-443.247149204986,-446.076763200955,555.473743504217,-109.396980303262
1.49269875608437,666.821611545756,219.017291165438,-447.804320380319,-442.919451355597,557.312965963037,-114.393514607441
1.49486208761493,666.977466288317,211.120768180038,-455.856698108278,-439.049117234178,561.417082198298,-122.36796496412
1.49702541914548,665.407976706502,204.364013473855,-461.043963232647,-434.885995090178,563.225969969575,-128.339974879396
1.49918875067604,666.093234486135,211.928743659851,-454.164490826284,-439.010989072993,560.128862656209,-121.117873583216
1.5013520822066,667.023873122536,217.102346911185,-449.921526211351,-442.063110016861,558.472699666944,-116.409589650083
1.50351541373716,666.019649711605,230.240325071015,-435.77932464059,-448.12998739131,550.899487176098,-102.769499784787
1.50567874526771,669.04740151344,214.605692176448,-454.441709336992,-441.826546844944,561.744555425216,-119.918008580272
1.50784207679827,665.852824373822,222.285710621514,-443.567113752308,-444.069267497668,554.709969063065,-110.640701565397
1.51000540832883,666.471248990954,217.47408777449,-448.997161216463,-441.972668382722,557.734205103709,-115.761536720986
1.51216873985938,665.16961190192,222.917133069421,-442.252478832499,-444.04337248567,553.711045367209,-109.667672881539
1.51433207138994,666.261088606597,212.38604863018,-453.875039976418,-439.323568618388,560.068064291508,-120.744495673119
1.5164954029205,667.989701850417,210.830348624922,-457.159353225495,-439.41002523767,562.574527537956,-123.164502300286
1.51865873445105,667.38999129372,211.318716121893,-456.071275171827,-439.354353707806,561.730633232773,-122.376279524967
1.52082206598161,667.800166471583,214.352046508953,-453.44811996263,-441.076106490268,560.624143217106,-119.548036726838
1.52298539751217,667.350059676572,223.276177578505,-444.073882098066,-445.313118627539,555.711970887319,-110.39885225978
1.52514872904273,665.507564853749,231.419115782065,-434.088449071683,-448.463340317907,549.798006962716,-101.334666644809
1.52731206057328,664.516692872544,240.801358103435,-423.71533476911,-452.659025487989,544.116013820827,-91.4569883328374
1.52947539210384,663.427401302445,248.327289737066,-415.10011156538,-455.877345519756,539.263756433913,-83.386410914157
1.5316387236344,665.626807488666,242.571773583655,-423.055033905011,-454.09929053616,544.340920696839,-90.2416301606783
1.53380205516495,667.570379733206,234.99947881519,-432.570900918016,-451.284929274198,550.070640325611,-98.7857110514132
1.53596538669551,667.742035848034,229.305352682717,-438.436683165316,-448.523694265376,553.089359506675,-104.565665241299
1.53812871822607,667.109038086151,222.401914605161,-444.707123480989,-444.755476345656,555.90808078357,-111.152604437914
1.54029204975663,667.135948003413,221.040207740104,-446.095740263309,-444.088077871758,556.615844133361,-112.527766261603
1.54245538128718,665.110036777164,227.225247205287,-437.884789571877,-446.167641991226,551.49741317452,-105.329771183295
1.54461871281774,664.188422161527,230.767939513677,-433.42048264785,-447.478180837602,548.804452404688,-101.326271567087
1.5467820443483,662.585951360456,229.048653119513,-433.537298240943,-445.817302239984,548.0616248007,-102.244322560715
1.54894537587885,663.51365452885,220.822611326829,-442.691043202021,-442.168132927839,553.102348865435,-110.934215937596
1.55110870740941,665.607829618991,208.111986624599,-457.495842994392,-436.859908121795,561.551836306691,-124.691928184896
1.55327203893997,665.66252127351,192.483026542489,-473.179494731021,-429.072773907999,569.421008002265,-140.348234094266
1.55543537047052,667.094594300643,181.424255098911,-485.670339201731,-424.259424699777,576.382466751187,-152.12304205141
1.55759870200108,666.006810113929,181.766423199879,-484.24038691405,-423.886616656904,575.12359851399,-151.236981857086
1.55976203353164,664.661319546459,193.008569891974,-471.652749654485,-428.834944719216,568.157034600472,-139.322089881256
1.5619253650622,663.120643929467,202.365705821056,-460.75493810841,-432.743174875261,561.937791018938,-129.194616143677
1.56408869659275,665.054907184385,202.308632818117,-462.746274366267,-433.681770001251,563.900590775326,-130.218820774075
1.56625202812331,665.501751404079,193.987007158287,-471.514744245792,-429.744379281183,568.508247824936,-138.763868543752
1.56841535965387,666.071198541754,181.927980319367,-484.143218222387,-423.999589430561,575.107208382071,-151.10761895151
1.57057869118442,667.482615124332,184.481820510306,-483.000794614026,-425.982217817319,575.241704869179,-149.25948705186
1.57274202271498,666.939432319739,190.074498613424,-476.864933706314,-428.506965466582,571.902183013027,-143.395217546445
1.57490535424554,665.555744759631,190.398808091295,-475.156936668336,-427.977276425463,570.356340713984,-142.379064288521
1.5770686857761,662.610180698292,188.134933683458,-474.475247014834,-425.372557190875,568.542713856563,-143.170156665688
1.57923201730665,662.944646787464,195.167426575881,-467.777220211583,-429.056036681673,565.360933499524,-136.304896817851
1.58139534883721,662.901303383855,196.027326157078,-466.873977226777,-429.464314770467,564.887640305316,-135.423325534849
1.58355868036777,665.996226095208,198.144163691825,-467.852062403383,-432.070194893516,566.924144249295,-134.853949355779
1.58572201189832,668.102641756865,198.790622508689,-469.312019248176,-433.446632132777,568.707330502521,-135.260698369744
1.58788534342888,669.17104806533,190.871295755056,-478.299752310273,-430.021171910193,573.735400187801,-143.714228277608
1.59004867495944,670.594463429178,189.925115699501,-480.669347729678,-430.25978956434,575.631905579428,-145.372116015088
1.59221200648999,668.197720060691,195.729445839701,-472.468274220991,-431.963582950196,570.332997140841,-138.369414190645
1.59437533802055,666.174626120192,204.65901297481,-461.515613145382,-435.416819547501,563.845119632787,-128.428300085286
1.59653866955111,666.909121690227,212.650855743446,-454.258265946781,-439.779988716837,560.583693818504,-120.803705101668
1.59870200108167,668.075340615529,207.311299206721,-460.764041408808,-437.693319911125,564.419691012168,-126.726371101043
1.60086533261222,670.533606508173,187.263736765396,-483.269869742777,-428.898671636785,576.901738125475,-148.00306648869
1.60302866414278,672.430822201238,181.533773771739,-490.897048429498,-426.982297986489,581.663935315368,-154.68163732888
1.60519199567334,670.670203724532,180.634695972537,-490.035507751995,-425.652449848534,580.352855738263,-154.700405889729
1.60735532720389,670.905127049688,180.265401240745,-490.639725808943,-425.585264145217,580.772426429316,-155.187162284099
1.60951865873445,669.218120307621,190.62097739488,-478.597142912741,-429.919548851251,573.907631610181,-143.988082758931
1.61168199026501,667.477208629999,212.973846145655,-454.503362484344,-440.225527387827,560.990285557172,-120.764758169345
1.61384532179557,667.887146180057,220.31850058043,-447.568645599627,-444.102823380243,557.727895889842,-113.625072509599
1.61600865332612,669.409287822854,224.864973205078,-444.544314617776,-447.137130513966,556.976801220315,-109.839670706349
1.61817198485668,671.877999242282,226.642707707461,-445.235291534821,-449.260353474871,558.556645388551,-109.29629191368
1.62033531638724,671.047740989422,226.621194666086,-444.426546323336,-448.834467827754,557.737143656379,-108.902675828625
1.62249864791779,670.396658141079,223.128925172577,-447.267732968503,-446.762791656828,558.832195554791,-112.069403897963
1.62466197944835,668.736511790244,216.735558668273,-452.000953121971,-442.736035229259,560.368732456108,-117.632697226849
1.62682531097891,667.908626290279,216.326205283359,-451.58242100692,-442.117415786819,559.7455236486,-117.628107861781
1.62898864250946,668.945535673861,217.900533170572,-451.045002503289,-443.423034422217,559.995269088575,-116.572234666358
1.63115197404002,670.619228403517,224.735317848534,-445.883910554983,-447.677273126025,558.25156947925,-110.574296353225
1.63331530557058,672.384684352153,233.759705310307,-438.624979041846,-453.07219483123,555.504831696999,-102.432636865769
1.63547863710114,673.924198123208,240.684195671779,-433.240002451429,-457.304196897493,553.582100287318,-96.2779033898252
1.63764196863169,674.25919078522,240.66624160847,-433.59294917675,-457.462716196845,553.926069980985,-96.4633537841399
1.63980530016225,673.166920382416,227.290008341535,-445.876912040881,-450.228464361975,559.521916211648,-109.293451849673
1.64196863169281,672.122208186607,218.864712251263,-453.257495935344,-445.493460218935,562.689852060976,-117.196391842041
1.64413196322336,670.695509885529,217.425708391823,-453.269801493706,-444.060609138676,561.982655689617,-117.922046550941
1.64629529475392,669.000369432935,219.103584381608,-449.896785051327,-444.051976907272,559.448577242131,-115.396600334859
1.64845862628448,671.085959245631,225.483107065121,-445.60285218051,-448.284533155376,558.344405713071,-110.059872557694
1.65062195781504,674.551981646413,230.865858637281,-443.686123009132,-452.708920141847,559.119052327773,-106.410132185926
1.65278528934559,673.445233358324,226.785290433963,-446.659942924361,-450.115261896143,560.052588141342,-109.937326245199
1.65494862087615,672.518809891234,227.419231241504,-445.09957864973,-449.969020566369,558.809194270482,-108.840173704113
1.65711195240671,670.265515422172,211.37511847588,-458.890396946292,-440.820316949026,564.577956184232,-123.757639235206
1.65927528393726,666.809789446113,205.886110119961,-460.923679326152,-436.347949783037,563.866734386133,-127.518784603096
1.66143861546782,665.711258863387,199.625574480752,-466.085684382635,-432.668416672069,565.898471623011,-133.230054950942
1.66360194699838,666.864954814204,192.718343126066,-474.146611688138,-429.791648970135,570.505783251171,-140.714134281036
1.66576527852893,667.657379872466,195.382428896785,-472.274950975681,-431.519904384626,569.966165424074,-138.446261039448
1.66792861005949,668.677493777404,209.685198522905,-458.992295254499,-439.181346150155,563.834894515952,-124.653548365797
1.67009194159005,668.787470134778,222.253971319298,-446.53349881548,-445.520720727038,557.660484475129,-112.139763748091
1.67225527312061,667.425806340432,220.278226428686,-447.147579911745,-443.852016384559,557.286693126088,-113.43467674153
1.67441860465116,664.162922333239,211.145706224197,-453.017216109042,-437.654314278718,558.590069221141,-120.935754942423
1.67658193618172,660.055556885083,196.875212528335,-463.180344356748,-428.465384706709,561.617950620916,-133.152565914206
1.67874526771228,659.359229018854,186.853960207842,-472.505268811011,-423.106594613348,565.932248914932,-142.825654301584
1.68090859924283,659.318164354593,183.437295299276,-475.880869055316,-421.377729826935,567.599516704955,-146.22178687802
1.68307193077339,661.825237157448,187.838018965937,-473.987218191511,-424.831628061692,567.90622767448,-143.074599612787
1.68523526230395,664.209826064805,203.55101909301,-460.658806971795,-433.880422578908,562.4343165183,-128.553893939393
1.68739859383451,664.690710423045,204.595509433671,-460.095200989375,-434.643109928358,562.39295570621,-127.749845777852
1.68956192536506,663.786340718746,200.710022130616,-463.076318588129,-432.248181424681,563.431329653438,-131.183148228757
1.69172525689562,662.088560894325,197.168060243363,-464.920500650961,-429.628310568844,563.504530772643,-133.876220203799
1.69388858842618,660.667981425629,195.201834512391,-465.466146913237,-427.93490796901,563.067064169433,-135.132156200423
1.69605191995673,660.395999004765,199.956144527583,-460.439854477182,-430.176071766174,560.417926740974,-130.2418549748
1.69821525148729,661.408436747937,203.108802999725,-458.299633748212,-432.258619873831,559.854035248075,-127.595415374243
1.70037858301785,661.45456420292,211.266091960878,-450.188472242043,-436.360328081899,555.821518222482,-119.461190140583
1.7025419145484,662.686317233398,213.776560047649,-448.90975718575,-438.231438640523,555.798037209574,-117.566598569051
1.70470524607896,663.564624635923,220.761536622283,-442.80308801364,-442.163080629103,553.183856324781,-111.020775695678
1.70686857760952,662.488392267754,220.005971174924,-442.48242109283,-441.247181721339,552.485406680292,-111.238224958953
1.70903190914008,660.161901261248,231.8910585784,-428.270842682848,-446.026479919824,544.216371972048,-98.1898920522237
1.71119524067063,659.925648656171,234.364328447121,-425.56132020905,-447.144988551646,542.743484432611,-95.5984958809645
1.71335857220119,660.004071122428,225.905176659583,-434.098894462846,-442.954623891005,547.051482792637,-104.096858901631
1.71552190373175,661.091445386001,216.305125879426,-444.786319506575,-438.698285632713,552.938882446288,-114.240596813575
1.7176852352623,661.68267592532,212.233264131604,-449.449411793716,-436.957970028462,555.566043859518,-118.608073831056
1.71984856679286,662.51177315065,211.186102970988,-451.325670179662,-436.848938060819,556.918721665156,-120.069783604337
1.72201189832342,662.315615115289,213.963057069673,-448.352558045616,-438.139336092481,555.334086580453,-117.194750487972
1.72417522985398,660.480812593326,217.189443201858,-443.291369391468,-438.835127897592,551.886090992397,-113.050963094805
1.72633856138453,660.069447152558,219.766637050999,-440.30281010156,-439.918042101778,550.186128627059,-110.26808652528
1.72850189291509,661.809768959135,217.789208018267,-444.020560940868,-439.799488488701,552.915164950001,-113.1156764613
1.73066522444565,662.859360423421,217.51897983103,-445.340380592391,-440.189170127226,554.099870507906,-113.910700380681
1.7328285559762,664.582985908985,222.254870411505,-442.32811549748,-443.418928160245,553.455550703232,-110.036622542987
1.73499188750676,666.380864372888,227.517229904443,-438.863634468446,-446.949047138666,552.622249420667,-105.673202282001
1.73715521903732,666.873840503324,231.716572984706,-435.157267518617,-449.295206744015,551.015554010971,-101.720347266956
1.73931855056787,665.041734225188,231.090289461276,-433.951444763912,-448.066011843232,549.49658949455,-101.430577651318
1.74148188209843,661.902837756608,229.568825589204,-432.334012167404,-445.735831672906,547.118424962006,-101.3825932891
1.74364521362899,661.11744699552,227.635887032901,-433.481559962618,-444.376667014211,547.299503479069,-102.922836464858
1.74580854515955,659.934369213166,218.82956873092,-441.104800482245,-439.381968972043,550.519584847706,-111.137615875662
1.7479718766901,660.083337729986,209.190042421648,-450.893295308337,-434.636690075817,555.488316519162,-120.851626443345
1.75013520822066,660.602684246976,199.51921245815,-461.083471788826,-430.060948352563,560.843078017901,-130.782129665338
1.75229853975122,662.759620602895,198.909283313643,-463.850337289253,-430.834451958269,563.304978946074,-132.470526987805
1.75446187128177,663.899861101754,209.93328705142,-453.966574050334,-436.916574076587,558.933217576044,-122.016643499457
1.75662520281233,665.511934411162,221.867563251224,-443.644371159938,-443.689748831193,554.57815278555,-110.888403954357
1.75878853434289,668.448829524154,228.404914419646,-440.043915104508,-448.4268719719,554.246372314331,-105.819500342431
1.76095186587345,672.83855317124,233.157169317424,-439.681383853816,-452.997861244332,556.259968512528,-103.262107268196
1.763115197404,677.218725533174,238.225963647001,-438.992761886173,-457.722344590088,558.105743709674,-100.383399119586
1.76527852893456,682.496426231355,237.52084798249,-444.975578248865,-460.008637106923,563.73600224011,-103.727365133187
1.76744186046512,683.226079176676,246.803803242433,-436.422275934243,-465.014941209554,559.824177555459,-94.8092363459052
1.76960519199567,684.266391967428,252.968737636346,-431.297654331082,-468.617564801887,557.782023149255,-89.1644583473681
1.77176852352623,707.034269474652,272.30961705359,-434.724652421061,-489.671943264121,570.879460947856,-81.2075176837354
1.77393185505679,742.558868408016,288.808873687919,-453.749994720097,-515.683871047968,598.154431564057,-82.4705605160889
1.77609518658734,790.484071981037,311.3869071024,-479.097164878638,-550.935489541718,634.790618429838,-83.8551288881192
1.7782585181179,798.15739966734,326.882814640958,-471.274585026382,-562.520107154149,634.715992346861,-72.1958851927118
1.78042184964846,793.504219777587,334.763326533109,-458.740893244478,-564.133773155348,626.122556511032,-61.9887833556842
1.78258518117902,720.5832096653,313.608338309573,-406.974871355727,-517.095773987436,563.779040510513,-46.683266523077
1.78474851270957,685.514750105886,296.571155167887,-388.943594937999,-491.042952636887,537.229172521943,-46.1862198850558
1.78691184424013,685.97768806796,279.361358106527,-406.616329961433,-482.669523087244,546.297009014696,-63.6274859274528
1.78907517577069,684.223019118813,267.321889236375,-416.901129882438,-475.772454177594,550.562074500625,-74.7896203230313
1.79123850730124,680.538981820808,254.150730179334,-426.388251641474,-467.344856000071,553.463616731141,-86.1187607310703
1.7934018388318,671.559520468431,245.712807503933,-425.846712964498,-458.636163986182,548.703116716464,-90.0669527302825
1.79556517036236,662.297262858776,241.564234639866,-420.73302821891,-451.930748749321,541.515145538843,-89.5843967895219
1.79772850189291,657.974444840061,236.29425192284,-421.680192917221,-447.13434838145,539.827318878641,-92.6929704971907
1.79989183342347,655.706396818957,228.946637151026,-426.759759667931,-442.326516984991,541.233078243444,-98.9065612584526
1.80205516495403,656.191960939865,215.174310264917,-441.017650674947,-435.683135602391,548.604805807406,-112.921670205015
1.80421849648459,660.616573434755,206.541203391688,-454.075370043067,-433.578888413222,557.345971738911,-123.767083325689
1.80638182801514,663.822600176706,206.119838186925,-457.702761989781,-434.971219181816,560.762681083244,-125.791461901428
1.8085451595457,664.953787230379,208.57372039047,-456.380066839909,-436.763753810424,560.666927035144,-123.90317322472
1.81070849107626,668.313180592527,207.198016214646,-461.115164377881,-437.755598403587,564.714172485204,-126.958574081617
1.81287182260681,668.823013420547,210.332036612307,-458.49097680824,-439.577525016427,563.656995114393,-124.079470097966
1.81503515413737,668.341262168526,214.079313625418,-454.261948543108,-441.210287896972,561.301605355817,-120.091317458845
1.81719848566793,669.081981777159,213.354518254783,-455.727463522376,-441.218250015971,562.404722649768,-121.186472633797
1.81936181719849,667.352045963651,208.424884038039,-458.927161925612,-437.888465000845,563.139603944631,-125.251138943786
1.82152514872904,665.827219772161,206.820209791017,-459.007009981143,-436.323714781589,562.417114876652,-126.093400095063
1.8236884802596,662.8053852745,208.502292766851,-454.30309250765,-435.653839020675,558.554238891075,-122.900399870399
1.82585181179016,661.852351409692,205.917987234464,-455.934364175228,-433.885169322078,558.89335779246,-125.008188470382
1.82801514332071,661.233776145819,198.091310914197,-463.142465231622,-429.662543530008,562.188120688721,-132.525577158713
1.83017847485127,661.416191696531,191.041715676105,-470.374476020426,-426.228953686318,565.895333858479,-139.666380172161
1.83234180638183,661.547912662345,190.315870479486,-471.232042182859,-425.931891570916,566.389977422602,-140.458085851686
1.83450513791239,664.226066319409,187.458354788735,-476.767711530674,-425.842210554072,570.496888925041,-144.654678370969
1.83666846944294,663.155059353182,179.389106599223,-483.765952753959,-421.272082976203,573.46050605357,-152.188423077368
1.8388318009735,662.710057953783,176.786015242315,-485.924042711469,-419.748036598049,574.317050332626,-154.569013734577
1.84099513250406,661.542413654749,177.359706258068,-484.182707396681,-419.451059956408,572.862560525715,-153.411500569306
1.84315846403461,662.775347175162,184.085014878492,-478.69033229667,-423.430181026827,570.732839735916,-147.302658709089
1.84532179556517,661.617240143647,192.941653457675,-468.675586685972,-427.279446800661,565.146413414809,-137.866966614149
1.84748512709573,663.118465314526,201.993976134931,-461.124489179595,-432.556220724728,562.121477247061,-129.565256522332
1.84964845862628,662.893251419847,212.689347011684,-450.203904408163,-437.791299215766,556.548577914005,-118.757278698239
1.85181179015684,665.63153883029,221.177587530449,-444.453951299841,-443.40456318037,555.042745065065,-111.638181884696
1.8539751216874,665.798471639444,220.295282636786,-445.503189002658,-443.046877138115,555.650830321051,-112.603953182936
1.85613845321796,664.831729413127,208.802407844964,-456.029321568163,-436.817068629046,560.430525490645,-123.6134568616
1.85830178474851,661.735353899429,192.458363532133,-469.276990367296,-427.096858715781,565.506172133362,-138.409313417582
1.86046511627907,660.656426169368,180.72730070008,-479.929125469288,-420.691863434724,570.292775819328,-149.600912384604
1.86262844780963,662.312128384774,178.397170878151,-483.914957506624,-420.354649631462,573.113542945699,-152.758893314237
1.86479177934018,665.100046638402,185.891964825139,-479.208081813263,-425.49600573177,572.154064225833,-146.658058494062
1.86695511087074,667.474757502334,190.300815893385,-477.173941608949,-428.887786697859,572.324349555641,-143.436562857782
1.8691184424013,667.628792859584,195.694604467339,-471.934188392245,-431.661698663462,569.781490625915,-138.119791962453
1.87128177393186,667.32214391547,194.925445696196,-472.396698219274,-431.123794805833,569.859421067372,-138.735626261539
1.87344510546241,665.141932077749,207.388494687329,-457.75343739042,-436.265213382539,561.447684734085,-125.182471351546
1.87560843699297,664.344233206261,210.95935892034,-453.38487428592,-437.651796063301,558.86455374609,-121.21275768279
1.87777176852353,664.357403709993,218.204863787902,-446.15253992209,-441.281133748948,555.254971816042,-113.973838067094
1.87993510005408,664.896949259082,218.84786621191,-446.049083047171,-441.872407735496,555.473016153126,-113.60060841763
1.88209843158464,667.221711097942,215.840621952126,-451.381089145816,-441.531166525034,559.301400121879,-117.770233596845
1.8842617631152,668.775420398946,214.699349366535,-454.076071032411,-441.737384882741,561.425745715678,-119.688360832938
1.88642509464575,667.773787479686,234.595731938601,-433.178055541085,-451.184759709143,550.475921510386,-99.2911618012422
1.88858842617631,667.808464645915,239.618172758869,-428.190291887046,-453.713318702392,547.999378266481,-94.2860595640889
1.89075175770687,666.176223369586,240.239908413692,-425.936314955894,-453.208065891639,546.05626916274,-92.8482032711013
1.89291508923743,664.703637772692,237.324883006534,-427.378754766159,-451.014260389613,546.041196269426,-95.0269358798127
1.89507842076798,665.121086102247,227.660509096907,-437.46057700534,-446.390797599577,551.290831553794,-104.900033954216
1.89724175229854,667.670274787981,217.031300404715,-450.638974383265,-442.350787596348,559.154624585623,-116.803836989275
1.8994050838291,668.567330200602,216.432711299425,-452.134618901178,-442.500020750013,560.35097455089,-117.850953800877
1.90156841535965,669.126947464855,209.887409936968,-459.239537527887,-439.507178700911,564.183242496371,-124.67606379546
1.90373174689021,668.494706205972,216.443339560336,-452.051366645636,-442.469022883154,560.273036425804,-117.80401354265
1.90589507842077,668.156886504073,219.940237820566,-448.216648683506,-444.048562162319,558.186767593789,-114.13820543147
1.90805840995133,665.650651150806,222.073914011919,-443.576737138887,-443.862282581363,554.613694144846,-110.751411563484
1.91022174148188,664.439767069439,216.614300632699,-447.82546643674,-440.527033851069,556.13261675309,-115.605582902021
1.91238507301244,666.874130676053,210.000337603309,-456.873793072744,-438.437234139681,561.873961874398,-123.436727734717
1.914548404543,667.355505329881,200.963300162361,-466.392205167521,-434.159402746121,566.873855248701,-132.71445250258
1.91671173607355,671.430790980931,205.266977910021,-466.16381307091,-438.348884445476,568.79730202592,-130.448417580444
1.91887506760411,672.47367646816,207.631169112768,-464.842507355392,-440.052422790464,568.658091911776,-128.605669121312
1.92103839913467,670.629447590939,216.650957795046,-453.978489795893,-443.640202692993,562.303968693416,-118.663766000423
1.92320173066522,670.836186321709,225.638709652167,-445.197476669542,-448.237447986938,558.016831495625,-109.779383508687
1.92536506219578,668.408351819764,236.334981700007,-432.073370119757,-452.371666759886,550.240860969761,-97.8691942098752
1.92752839372634,668.341746205125,222.777914518517,-445.563831686607,-445.559830361821,556.952788945866,-111.392958584045
1.9296917252569,667.19605128914,214.571110012661,-452.624941276478,-440.883580650901,559.910496282809,-119.026915631909
1.93185505678745,669.446929582679,208.079547162598,-461.367382420081,-438.763238372638,565.40715600138,-126.643917628742
1.93401838831801,671.787790505344,216.559558963942,-455.228231541401,-444.173674734643,563.508011023373,-119.33433628873
1.93618171984857,673.248230345566,233.293864575909,-439.954365769658,-453.271047460737,556.601298057612,-103.330250596875
1.93834505137912,673.422246323765,240.584564121282,-432.837682202483,-457.003405222523,553.129964263124,-96.1265590406008
1.94050838290968,673.509609426148,251.702767616218,-421.80684180993,-462.606188521183,547.658225618039,-85.0520370968557
1.94267171444024,670.492035092532,250.332710508634,-420.159324583899,-460.412372800583,545.325679838215,-84.9133070376324
1.9448350459708,670.032124472883,247.197755735319,-422.834368737564,-458.614940104101,546.433246605223,-87.8183065011226
1.94699837750135,671.609300652909,233.719441190561,-437.889859462348,-452.664370921735,554.749580057628,-102.085209135893
1.94916170903191,672.328386135668,237.816681110762,-434.511705024906,-455.072533623215,553.420045580287,-98.3475119570721
1.95132504056247,674.404968732358,239.95978526934,-434.445183463018,-457.182377000849,554.425076097688,-97.242699096839
1.95348837209302,673.861667186566,246.105721249097,-427.755945937469,-459.983694217832,550.808806562018,-90.825112344186
1.95565170362358,675.324692712568,251.44747544662,-423.877217265947,-463.386084079594,549.600954989258,-86.2148709096635
1.95781503515414,673.036523731537,261.567977190881,-411.468546540656,-467.302250461209,542.252535136097,-74.9502846748879
1.95997836668469,671.917683395106,270.624106050087,-401.293577345019,-471.270894722596,536.605630370062,-65.334735647466
1.96214169821525,672.664754631418,271.80156857273,-400.863186058688,-472.233161602074,536.763970345053,-64.5308087429787
1.96430502974581,672.110296713237,261.861930777369,-410.248365935868,-466.986113745303,541.179331324552,-74.1932175792491
1.96646836127637,675.938386390178,251.02734604144,-424.911040348738,-463.482866215809,550.424713369458,-86.9418471536493
1.96863169280692,676.876125477273,245.895169458577,-430.980956018696,-461.385647467925,553.928540747984,-92.5428932800591
1.97079502433748,677.520505807561,245.350282598321,-432.17022320924,-461.435394202941,554.8453645084,-93.4099703054596
1.97295835586804,677.98835837227,247.152529665377,-430.835828706893,-462.570444018823,554.412093539581,-91.8416495207579
1.97512168739859,675.828671331156,246.759223887476,-429.06944744368,-461.293947609316,552.449059387418,-91.1551117781021
1.97728501892915,674.292197759443,243.210459115086,-431.081738644357,-458.751328437265,552.6869682019,-93.9356397646352
1.97944835045971,673.835575156198,237.592064562825,-436.243510593372,-455.713819859511,555.039542874785,-99.3257230152737
1.98161168199026,676.603487996087,233.60721488721,-442.996273108877,-455.105351441648,559.799880552482,-104.694529110834
1.98377501352082,678.650609811954,224.542871431881,-454.107738380073,-451.596740621917,566.379174096013,-114.782433474096
1.98593834505138,679.181299597887,220.049445498318,-459.131854099569,-449.615372548102,569.156576848728,-119.541204300626
1.98810167658194,680.261087318427,223.870843176622,-456.390244141804,-452.065965247525,568.325665730116,-116.259700482591
1.99026500811249,679.061865381408,233.220276280345,-445.841589101063,-456.141070830876,562.451727241236,-106.310656410359
1.99242833964305,677.951656836001,244.596548381025,-433.355108454975,-461.274102608513,555.653382645488,-94.3792800369751
1.99459167117361,678.427866766791,244.43103063623,-433.996836130561,-461.429448701511,556.212351448676,-94.7829027471654
1.99675500270416,678.288586222829,247.99913613203,-430.2894500908,-463.14386117743,554.289018156815,-91.145156979385
1.99891833423472,679.474870631385,246.824050835509,-432.650819795876,-463.149460733447,556.06284521363,-92.9133844801839
2.00108166576528,680.423196287576,238.694805650183,-441.728390637393,-459.55900096888,561.075793462485,-101.516792493605
2.00324499729584,679.740989316707,226.018176941095,-453.722812375612,-452.879583128901,566.731900846159,-113.852317717259
2.00540832882639,678.967449583641,226.176862283164,-452.790587300477,-452.572155933402,565.879018442059,-113.306862508657
2.00757166035695,677.824527690899,231.899308675093,-445.925219015807,-454.861918182996,561.874873353353,-107.012955170357
2.00973499188751,677.844789276024,238.360644652296,-439.484144623728,-458.10271696416,558.664466949876,-100.561749985716
2.01189832341806,677.130044676396,246.380434927202,-430.749609749193,-461.755239801799,553.939827212795,-92.1845874109955
2.01406165494862,677.992034346288,250.438812987128,-427.55322135916,-464.215423666708,552.772627852724,-88.5572041860159
2.01622498647918,679.860072652824,253.690503426572,-426.169569226251,-466.775288039698,553.014820939537,-86.2395328998393
2.01838831800973,678.863883111033,251.278581720324,-427.585301390709,-465.071232415679,553.224592250871,-88.1533598351925
2.02055164954029,679.401910674211,247.894463405445,-431.507447268766,-463.648187039828,555.454678971488,-91.8064919316606
2.02271498107085,677.686871068415,245.964193457423,-431.722677610992,-461.825532262919,554.704774339703,-92.8792420767848
2.02487831260141,677.501940868766,250.435205515767,-427.066735352999,-463.968573192266,552.284338110882,-88.3157649186161
2.02704164413196,678.681552089519,260.735519588651,-417.946032500868,-469.708535839085,548.313792295194,-78.6052564561085
2.02920497566252,679.885375227221,270.614122969797,-409.271252257424,-475.249749098509,544.578313742322,-69.3285646438135
2.03136830719308,677.657801858293,277.56203603448,-400.095765823813,-477.609918946386,538.876783841053,-61.2668648946663
2.03353163872363,677.737392475603,288.394092558687,-389.343299916916,-483.065742517145,533.54034619626,-50.4746036791144
2.03569497025419,678.769619548145,274.958977069001,-403.810642479143,-476.864298308573,541.290131013644,-64.425832705071
2.03785830178475,676.636771517864,264.94352646307,-411.693245054794,-470.790148990467,544.165008286329,-73.3748592958621
2.04002163331531,676.464931288025,251.424582176415,-425.04034911161,-463.94475673222,550.752640199818,-86.8078834675976
2.04218496484586,671.734944469882,243.602474803421,-428.132469666461,-457.668709636651,549.933707068171,-92.2649974315199
2.04434829637642,671.674713058591,237.942819065309,-433.731893993282,-454.80876606195,552.703303525936,-97.8945374639865
2.04651162790698,672.342986965873,246.482564441127,-425.860422524745,-459.4127757035,549.101704745309,-89.688929041809
2.04867495943753,672.501463872479,254.612027974035,-417.889435898444,-463.556745923257,545.195449885462,-81.6387039622044
2.05083829096809,670.735137436646,261.74878522973,-408.986352206916,-466.241961333188,539.860744821781,-73.6187834885932
2.05300162249865,669.033070921731,253.894312016128,-415.138758905603,-461.46369146893,542.085914913667,-80.6222234447372
2.0551649540292,668.270915674447,243.670653640863,-424.600262033584,-455.970784657655,546.435588854016,-90.4648041963609
2.05732828555976,667.357829256531,238.611655367992,-428.746173888539,-452.984742312262,548.052001572535,-95.0672592602733
2.05949161709032,664.503698754811,237.763316266444,-426.740382488367,-451.133507510628,545.622040621589,-94.4885331109617
2.06165494862088,667.160738557101,243.230834068212,-423.929904488889,-455.195786312656,545.545321522995,-90.3495352103387
2.06381828015143,667.201953140172,247.160487301292,-420.04146583888,-457.181220220732,543.621709489526,-86.4404892687944
2.06598161168199,666.465989677501,250.733503810597,-415.732485866904,-458.599746744049,541.099237772203,-82.4994910281537
2.06814494321255,665.991283966272,259.610035210027,-406.381248756245,-462.800659588149,536.186266361259,-73.3856067731093
2.0703082747431,663.191249682187,261.29124486356,-401.900004818628,-462.241247272873,532.545627250408,-70.304379977534
2.07247160627366,659.928109411565,242.977011686799,-416.951097724766,-451.452560549182,538.439603568166,-86.9870430189836
2.07463493780422,657.567079026949,217.873623831802,-439.693455195146,-437.720351429376,548.630267111048,-110.909915681672
2.07679826933478,658.192631430616,205.02771800477,-453.164913425846,-431.610174717693,555.678772428231,-124.068597710538
2.07896160086533,657.142227871907,198.645764410219,-458.496463461687,-427.893996141063,557.819345666797,-129.925349525734
2.08112493239589,658.037656309698,197.938931802216,-460.098724507482,-427.988294055957,559.06819040859,-131.079896352633
2.08328826392645,658.712997386479,204.744703551001,-453.968293835478,-431.72885046874,556.340645610978,-124.611795142238
2.085451595457,659.528401640168,202.420092651151,-457.108308989017,-430.974247145659,558.318355314592,-127.344108168933
2.08761492698756,658.089925240628,199.203201690842,-458.886723549785,-428.646563465735,558.488324395207,-129.841760929471
2.08977825851812,655.611572218667,189.584245264117,-466.02732695455,-422.597908741392,560.819449586609,-138.221540845217
2.09194159004868,655.846787418774,179.67734501019,-476.169442408584,-417.762066214482,566.008114913679,-148.246048699197
2.09410492157923,656.769970123094,189.245125912779,-467.524844210315,-423.007548017936,562.147407166705,-139.139859148768
2.09626825310979,657.498759280862,199.639197613975,-457.859561666887,-428.568978447418,557.679160473875,-129.110182026456
2.09843158464035,658.355623258843,210.780573027524,-447.575050231319,-434.568098143184,552.965336745081,-118.397238601897
2.1005949161709,658.78924724775,219.794929169026,-438.994318078725,-439.292088208388,548.891782663237,-109.599694454849
2.10275824770146,659.316322993981,220.515662966337,-438.800660027645,-439.915992980159,549.058491510813,-109.142498530654
2.10492157923202,656.93405180585,212.565948950944,-444.368102854906,-434.750000378397,550.651077330378,-115.901076951981
2.10708491076257,656.921916831838,192.022212043541,-464.899704788297,-424.47206443769,560.910810810068,-136.438746372378
2.10924824229313,656.621599974892,200.587944719071,-456.033655255821,-428.604772346981,556.327627615357,-127.722855268375
2.11141157382369,657.018973364031,205.396894224998,-451.622079139033,-431.207933794515,554.320526251532,-123.112592457017
2.11357490535425,657.857084812555,203.642867769991,-454.214217042564,-430.749976291273,556.03565092756,-125.285674636287
2.1157382368848,658.595808054225,207.333628201883,-451.262179852341,-432.964718128054,554.928993953283,-121.964275825229
2.11790156841536,659.553141820244,213.834563724407,-445.718578095836,-436.693852772325,552.63585995804,-115.942007185715
2.12006489994592,659.034484236254,216.303967674105,-442.730516562149,-437.669225955179,550.882500399201,-113.213274444022
2.12222823147647,658.962134120751,219.030438866171,-439.93169525458,-438.996286493461,549.446914687666,-110.450628194205
2.12439156300703,659.100260209227,217.034867453437,-442.06539275579,-438.067563831332,550.582826482509,-112.515262651177
2.12655489453759,658.285257333536,206.537918306693,-451.747339026843,-432.411587820115,555.016298180189,-122.604710360075
2.12871822606814,659.711747056502,205.532279081213,-454.179467975289,-432.622013068857,556.945607515895,-124.323594447038
