t,leadI,leadII,leadIII,aVR,aVL,aVF
0,426.747747747748,467.693693693694,40.9459459459459,-447.220720720721,192.900900900901,254.31981981982
0.00216403375892664,449.987897803675,490.961004034065,40.9731062303899,-470.47445091887,204.507395786643,265.967055132228
0.00432806751785328,459.391485552852,499.246818270818,39.8553327179659,-479.319151911835,209.768076417443,269.551075494392
0.00649210127677992,465.392276626913,504.004358776586,38.6120821496728,-484.69831770175,213.39009723862,271.308220463129
0.00865613503570656,469.136773278838,506.973066447855,37.8362931690166,-488.054919863346,215.650240054911,272.404679808436
0.0108201687946332,472.223890488221,508.969983943442,36.7460934552209,-490.596937215831,217.7388985165,272.858038699331
0.0129842025535598,473.27195296442,510.366069270711,37.0941163062913,-491.819011117566,218.088918329064,273.730092788501
0.0151482363124865,473.471491723466,511.36203518053,37.8905434570638,-492.416763451998,217.790474133201,274.626289318797
0.0173122700714131,473.070897003815,512.080187216627,39.0092902128119,-492.575542110221,217.030803395501,275.544738714719
0.0194763038303398,472.780402279818,512.600961373847,39.8205590940291,-492.690681826832,216.479921592894,276.210760233938
0.0216403375892664,473.11060261347,512.979744486921,39.8691418734505,-493.045173550195,216.62073037001,276.424443180186
0.023804371348193,473.892097521054,513.255692853048,39.363595331994,-493.573895187051,217.26425109453,276.309644092521
0.0259684051071197,475.543205541596,513.456896376568,37.9136908349718,-494.500050959082,218.814757353312,275.68529360577
0.0281324388660463,476.747632740343,513.603667510374,36.8560347700305,-495.175650125359,219.945798985156,275.229851140202
0.0302964726249729,477.356230475681,513.710757974681,36.3545274990003,-495.533494225181,220.50085148834,275.032642736841
0.0324605063838996,478.610890867265,513.788905804983,35.1780149377184,-496.199898336124,221.716437964773,274.483460371351
0.0346245401428262,478.986186004065,513.845937051074,34.8597510470093,-496.41606152757,222.063217478528,274.352844049042
0.0367885739017529,479.800408159441,513.887559217043,34.087151057602,-496.843983688242,222.85662855092,273.987355137323
0.0389526076606795,480.124489922872,513.647776195449,33.523286272577,-496.886133059161,223.300601825148,273.585531234013
0.0411166414196061,480.631174431557,513.742932359915,33.1117579283578,-497.187053395736,223.7597082516,273.427345144136
0.0432806751785328,481.000972643396,513.812381057993,32.8114084145977,-497.406676850694,224.094782114399,273.311894736295
0.0454447089374594,481.811180242414,513.863067588811,32.0518873463975,-497.837123915612,224.879646448008,272.957477467604
0.0476087426963861,482.132347649815,513.900060772353,31.7677131225377,-498.016204211084,225.182317263639,272.833886947445
0.0497727764553127,481.826436712982,513.92705999186,32.1006232788781,-497.876748352421,224.862906717052,273.013841635369
0.0519368102142393,481.062857031218,513.946765194509,32.8839081632916,-497.504811112863,224.089474433963,273.4153366789
0.054100843973166,481.045875810857,513.961146910371,32.9152710995145,-497.503511360614,224.065302355671,273.438209004943
0.0562648777320926,481.843950884233,513.971643314845,32.1276924306121,-497.907797099539,224.858129226811,273.049667872729
0.0584289114910193,482.966733424437,513.979304049862,31.0125706254247,-498.473018737149,225.977081399506,272.495937337643
0.0605929452499459,483.51603303448,513.984895189497,30.468862155017,-498.750464111989,226.523585439732,272.226878672257
0.0627569790088725,483.106467287148,513.98897584794,30.8825085607926,-498.547721567544,226.111979363177,272.435742204366
0.0649210127677992,483.888173129538,513.991954091122,30.1037809615836,-498.94006361033,226.892196083977,272.047867526353
0.0670850465267258,485.269164918026,513.723971530462,28.4548066124361,-499.496568224244,228.407179152795,271.089389071449
0.0692490802856525,488.168166680052,513.798542336317,25.630375656265,-500.983354508184,231.268895511894,269.714458996291
0.0714131140445791,490.554141316308,513.582811163478,23.0286698471702,-502.068476239893,233.762735734569,268.305740505324
0.0735771478035057,493.105998717683,513.695517319255,20.5895186015722,-503.400758018469,236.258240058055,267.142517960414
0.0757411815624324,494.698299777383,513.777775206892,19.0794754295082,-504.238037492137,237.809412173938,266.4286253182
0.077905215321359,495.320118390494,513.837810615192,18.5176922246976,-504.578964502843,238.401213082898,266.177751419945
0.0800692490802856,494.693323994968,513.881627085001,19.1883030900329,-504.287475539985,237.752510452468,266.534965087517
0.0822332828392123,493.425393363341,513.913606263307,20.4882128999662,-503.669499813324,236.468590231687,267.200909581637
0.0843973165981389,491.419377220593,513.936946067942,22.5175688473493,-502.678161644267,234.450904186622,268.227257457646
0.0865613503570656,489.955298799954,513.953980479371,23.9986816794165,-501.954639639662,232.978308560269,268.976331079394
0.0887253841159922,488.346437835583,513.696256726863,25.3498188912794,-501.021347281223,231.498309472152,269.523037809071
0.0908894178749188,487.172220654782,513.778314858915,26.6060942041333,-500.475267756849,230.283063225324,270.192204531524
0.0930534516338455,486.585381751335,513.838204476859,27.2528227255235,-500.211793114097,229.666279512906,270.545513601191
0.0952174853927721,485.886924811152,513.881914542489,27.9949897313368,-499.88441967682,228.945967539908,270.938452136913
0.0973815191516988,485.377160352084,513.913816062367,28.5366557102828,-499.645488207226,228.420252320901,271.225235886325
0.0995455529106254,484.19464329261,513.937099188482,29.7424558958721,-499.065871240546,227.226093698369,271.839777542177
0.101709586669552,483.061434350526,513.954092233445,30.8926578829199,-498.507763291985,226.084388233803,272.423375058183
0.103873620428479,481.423900207879,513.696338289882,32.2724380820029,-497.56011924888,224.575731062938,272.984388185942
0.106037654187405,478.60781881479,513.778374387178,35.1705555723876,-496.193096600984,221.718631621201,274.474464979783
0.108201687946332,475.742050667566,513.56809171132,37.8260410437543,-494.655071189443,218.958004811906,275.697066377537
0.110365721705259,474.460956222713,513.684774418466,39.223818195753,-494.072865320589,217.61856901348,276.454296307109
0.112529755464185,472.985644976388,513.499778355586,40.5141333791987,-493.242711665987,216.235755798595,277.006955867393
0.114693789223112,471.908898227702,513.634916340137,41.7260181124358,-492.771907283919,215.091440057633,277.680467226287
0.116857822982039,471.663353725529,513.733545958702,42.0701922331732,-492.698449842115,214.796580746178,277.901869095938
0.119021856740965,473.375238079011,513.805530173137,40.4302920941264,-493.590384126074,216.472472992442,277.117911133632
0.121185890499892,476.245583511623,513.858067404886,37.6124838932624,-495.051825458254,219.31654980918,275.735275649074
0.123349924258818,478.340487295398,513.896411377123,35.5559240817248,-496.11844933626,221.392281606837,274.726167729424
0.125513958017745,479.599283596841,513.924396487072,34.3251128902312,-496.761840041957,222.637085353305,274.124754688652
0.127677991776672,479.16722719861,513.944821245729,34.777594047119,-496.55602422217,222.194816575746,274.361207646424
0.129842025535598,478.041424884625,513.959728128959,35.9183032443336,-496.000576506792,221.061560820146,274.939015686646
0.132006059294525,475.598827787873,513.970607825084,38.3717800372114,-494.784717806478,218.613523875331,276.171193931148
0.134170093053452,473.816113469908,513.978548303718,40.1624348338103,-493.897330886813,216.826839318049,277.070491568764
0.136334126812378,472.244854287062,513.714187400852,41.4693331137904,-492.979520843957,215.387760586636,277.591760257321
0.138498160571305,470.557768109179,513.791401449943,43.2336333407643,-492.174584779561,213.662067384207,278.512517395354
0.140662194330232,470.136927377829,513.847755644028,43.7108282661998,-491.992341510929,213.213049555814,278.779291955114
0.142826228089158,470.640248019876,513.618729190645,42.9784811707687,-492.129488605261,213.830883424554,278.298605180707
0.144990261848085,471.007593463911,513.721731868197,42.7141384042861,-492.364662666054,214.146727529813,278.217935136242
0.147154295607011,472.086166889953,513.79690773257,41.7107408426172,-492.941537311261,215.187713023668,277.753824287593
0.149318329365938,473.143513216861,513.851774370199,40.7082611533384,-493.49764379353,216.217626031761,277.280017761769
0.151482363124865,473.645054653583,513.891818444848,40.246763791265,-493.768436549216,216.699145431159,277.069291118057
0.153646396883791,473.20063292005,513.921044363983,40.720411443933,-493.560838642016,216.240110738058,277.320727903958
0.155810430642718,472.335962054777,513.942374719515,41.6064126647377,-493.139168387146,215.36477469502,277.774393692126
0.157974464401645,471.975043606854,513.687786335127,41.7127427282729,-492.831414970991,215.131150439291,277.7002645317
0.160138498160571,472.25194194336,513.772132796124,41.5201908527636,-493.012037369742,215.365875545298,277.646161824444
0.162302531919498,472.994346897945,513.833692536733,40.8393456387874,-493.414019717339,216.077500629579,277.33651908776
0.164466565678425,472.995874118582,513.878621531015,40.8827474124333,-493.437247824798,216.056563353074,277.380684471724
0.166630599437351,471.91636390359,513.641256466527,41.7248925629374,-492.778810185058,215.095735670326,277.683074514732
0.168794633196278,470.858333867085,513.738173260564,42.8798393934785,-492.298253563824,213.989247236803,278.309006327021
0.170958666955204,469.545824793546,513.808907380656,44.2630825871108,-491.677366087101,212.641371103217,279.035994983884
0.173122700714131,468.858054411233,513.860532238815,45.0024778275824,-491.359293325024,211.927788291825,279.431505033199
0.175286734473058,468.626245681914,513.898210320855,45.2719646389407,-491.262228001385,211.677140521487,279.585087479898
0.177450768231984,467.646592885172,513.92570943498,46.2791165498081,-490.786151160076,210.683738167682,280.102412992394
0.179614801990911,466.931599376948,513.945779492604,47.0141801156561,-490.438689434776,209.958709630646,280.47997980413
0.181778835749838,465.869453382675,513.960427499488,48.0909741168132,-489.914940441081,208.889239632931,281.02570080815
0.183942869508764,465.094252726669,513.700962044449,48.6067093177799,-489.397607385559,208.243771704445,281.153835681114
0.186106903267691,464.52847734333,513.781749005726,49.2532716623962,-489.155113174528,207.637602840467,281.517510334061
0.188270937026618,465.196174541811,513.570554655705,48.3743801138938,-489.383364598758,208.410897213959,280.972467384799
0.190434970785544,467.304426465703,513.686571983126,46.3821455174227,-490.495499224414,210.46114047414,280.034358750274
0.192599004544471,471.814839366753,513.771246508859,41.9564071421057,-492.793042937806,214.929216112324,277.863826825482
0.194763038303398,480.509860441911,513.833045685478,33.3231852435666,-497.171453063695,223.593337599172,273.578115464522
0.196927072062324,494.96055391741,513.878149430645,18.9175955132347,-504.419351674027,238.021479202088,266.39787247194
0.199091105821251,514.422457776414,514.181224330748,-0.241233445666126,-514.301841053581,257.33184561104,256.969995442541
0.201255139580177,537.00144998108,514.672577875797,-22.3288721052828,-525.837013928439,279.665161043182,246.171852885257
0.203419173339104,562.125585963747,515.301345420298,-46.8242405434488,-538.713465692023,304.474913253598,234.238552438425
0.205583207098031,587.486342051451,515.760247506829,-71.7260945446224,-551.62329477914,329.606218298037,222.017076481103
0.207747240856957,611.128700369862,516.365330555914,-94.7633698139477,-563.747015462888,352.946035091905,210.800980370983
0.209911274615884,631.355647055847,517.077102872462,-114.278544183384,-574.216374964155,372.817095619615,201.399279344539
0.212075308374811,644.497221176186,517.326429264385,-127.170791911801,-580.911825220286,385.834006543994,195.077818676292
0.214239342133737,649.495861812327,517.508398582746,-131.98746322958,-583.502130197537,390.741662520953,192.760467676583
0.216403375892664,645.309558485422,517.371051547511,-127.938506937911,-581.340305016466,386.624032711667,194.7162723048
0.218567409651591,633.339056015295,517.000653455154,-116.338402560141,-575.169854735225,374.838729287718,200.331125447507
0.220731443410517,616.767929002421,516.460164496442,-100.307764505979,-566.614046749431,358.5378467542,208.076199995232
0.222895477169444,597.649533381125,515.795535775502,-81.8539976056232,-556.722534578314,339.751765493374,216.970769084939
0.22505951092837,575.591404741793,515.310460632112,-60.2809441096808,-545.450932686953,317.936174425737,227.514758261216
0.227223544687297,554.089292339208,514.956431551934,-39.1328607872737,-534.522861945571,296.611076563241,237.91178538233
0.229387578446224,533.263141144982,514.698045626949,-18.5650955180328,-523.980593385965,275.914118331507,248.066475054458
0.23155161220515,515.902054370281,514.509464264659,-1.39259010562193,-515.20575931747,258.647322237951,256.558437079518
0.233715645964077,502.420704396993,514.371829328835,11.9511249318417,-508.396266862914,245.234789732576,263.161477130338
0.235879679723004,492.041112439661,514.271377325894,22.2302648862328,-503.156244882778,234.905423776714,268.250821106063
0.23804371348193,484.735787938167,513.927906843671,29.1921189055038,-499.331847390919,227.771834516332,271.560012874587
0.240207747240857,480.214510866105,513.947383257687,33.7328723915819,-497.080947061896,223.240819237261,273.840127824634
0.242371780999784,477.995309728139,513.961597997471,35.9662882693315,-495.978453862805,221.014510729404,274.963943133401
0.24453581475871,476.375639562988,513.971972537003,37.5963329740144,-495.173806049995,219.389653294487,275.784152755509
0.246699848517637,474.383064718521,513.979544330234,39.5964796117137,-494.181304524378,217.393292553403,276.788011970974
0.248863882276564,471.307859074675,513.714914344618,42.4070552699425,-492.511386709647,214.450401902366,278.06098480728
0.25102791603549,469.063439338298,513.791932005335,44.7284926670372,-491.427685671816,212.16747333563,279.260212336186
0.253191949794417,467.695519747621,513.848142866585,46.1526231189641,-490.771831307103,210.771448314329,280.000382992775
0.255355983553343,465.886683496092,513.889168014494,48.0024845184022,-489.887925755293,208.942099488845,280.945826266448
0.25752001731227,463.756046958557,513.648953751981,49.8929067934238,-488.702500355269,206.931570082567,281.770930272702
0.259684051071197,462.201015116878,513.743791076538,51.5427759596595,-487.972403096708,205.329119578609,282.643283518099
0.261848084830123,461.066084786887,513.813007508748,52.7469227218612,-487.439546147817,204.159581032513,283.279965115305
0.26401211858905,460.507919147456,513.863524691833,53.3556055443772,-487.185721919644,203.576156801539,283.609565118105
0.266176152347977,460.10054542277,513.900394344101,53.7998489213309,-487.000469883436,203.15034825072,283.850121632716
0.268340186106903,459.803226240362,513.92730343078,54.1240771904178,-486.865264835571,202.839574524972,284.025690310599
0.27050421986583,460.396698317605,513.946942860537,53.5502445429316,-487.171820589071,203.423226887337,283.748593701734
0.272668253624757,461.09999643848,513.961276576347,52.8612801378668,-487.530636507413,204.119358150307,283.411278357107
0.274832287383683,461.883450415074,513.70158173792,51.8181313228455,-487.792516076497,205.032659546114,282.759856530383
0.27699632114261,461.914937009433,513.782201285157,51.8672642757237,-487.848569147295,205.023836366855,282.82473278044
0.279160354901536,461.667761092863,513.841040960909,52.1732798680459,-487.754401026886,204.747240612409,283.007160414478
0.281324388660463,462.027673709323,513.883984732753,51.8563110234294,-487.955829221038,205.085681342947,282.870147878091
0.28348842241939,461.479885061101,513.645170766,52.165285704899,-487.56252791355,204.657299678101,282.905228235449
0.285652456178316,461.890553554603,513.741030087719,51.8504765331153,-487.815791821161,205.020038510744,282.795753310417
0.287816489937243,461.920121191695,513.810992418209,51.8908712265148,-487.865556804952,205.01462498259,282.850931822362
0.28998052369617,461.671544736083,513.591897778649,51.9203530425659,-487.631721257366,204.875595846759,282.756125410608
0.292144557455096,462.300591389696,513.431992916954,51.1314015272584,-487.866292153325,205.584594931219,282.281697222106
0.294308591214023,462.219384758534,513.585443558826,51.3660588002918,-487.90241415868,205.426662979121,282.475751179559
0.29647262497295,462.430272815098,513.427282344709,50.997009529611,-487.928777579903,205.716631642743,282.21214593716
0.298636658731876,463.124500576915,513.311849365063,50.187348788148,-488.218174970989,206.468575894383,281.749599076605
0.300800692490803,464.441647032038,513.497757533794,49.0561105017567,-488.969702282916,207.692768265141,281.276934017776
0.302964726249729,465.943270614108,513.633441455906,47.6901708417977,-489.788356035007,209.126549886155,280.661806148852
0.305128760008656,466.498908833846,513.462313311736,46.96340447789,-489.980611072791,209.767752177978,280.212858894813
0.307292793767583,467.17459414884,513.337416498739,46.1628223498998,-490.256005323789,210.50588589947,279.75011942432
0.309456827526509,467.937895090589,513.246261335617,45.308366245028,-490.592078213103,211.314764422781,279.277313790322
0.311620861285436,468.765141753269,513.179732306056,44.4145905527873,-490.972437029663,212.175275600241,278.797161429422
0.313784895044363,470.179371226891,513.401332718973,43.2219614920819,-491.790351972932,213.478704867404,278.311647105527
0.315948928803289,471.481694035073,513.563066403787,42.0813723687131,-492.52238021943,214.70016083318,277.82221938625
0.318112962562216,472.162030034892,513.681106728979,41.5190766940873,-492.921568381935,215.321476670402,277.600091711533
0.320276996321143,472.658569038199,513.767257727069,41.1086886888702,-493.212913382634,215.774940174665,277.43797320797
0.322441030080069,473.291121157198,513.830134497867,40.5390133406684,-493.560627827533,216.376053908265,277.184573919268
0.324605063838996,474.293097815661,513.876024718451,39.5829269027902,-494.084561267056,217.355085456435,276.72947581062
0.326769097597922,475.564696679432,513.639361199008,38.0746645195761,-494.60202893922,218.745016079928,275.857012859292
0.328933131356849,476.492765211147,513.736790011338,37.2440248001913,-495.114777611242,219.624370205478,275.490407405765
0.331097165115776,476.629797840233,513.807897824802,37.1780999845689,-495.218847832517,219.725848927832,275.492998904685
0.333261198874702,475.919341617727,513.859795420746,37.9404538030182,-494.889568519236,218.989443907355,275.900124611882
0.335425232633629,475.670975768866,513.897672558764,38.2266967898978,-494.784324163815,218.722139489484,276.062184674331
0.337589266392556,476.570332344378,513.925316952659,37.3549846082806,-495.247824648519,219.607673868049,275.64015078047
0.339753300151482,477.226722154328,513.675336829948,36.4486146756199,-495.451029492138,220.389053739354,275.061975752784
0.341917333910409,479.056565239069,513.763046602103,34.7064813630346,-496.409805920586,222.175041938017,274.234763982569
0.344081367669336,482.013002118946,513.827061034469,31.8140589155229,-497.920031576708,225.099471601712,272.820559974996
0.346245401428262,483.900582998847,513.60362535841,29.7030423595634,-498.752104178629,227.098770319642,271.653333858987
0.348409435187189,485.278222178632,513.710708430064,28.4324862514319,-499.494465304348,228.4228679636,271.071597340748
0.350573468946116,485.743371152538,513.788862344725,28.0454911921868,-499.766116748631,228.848939980175,270.917176768456
0.352737502705042,485.272388606082,513.845902493857,28.5735138877754,-499.55914554997,228.349437359153,271.209708190816
0.354901536463969,485.198801132106,513.887532892376,28.6887317602698,-499.543167012241,228.255034685918,271.288132326323
0.357065570222895,485.685406195084,513.917916580132,28.232510385048,-499.801661387608,228.726447905018,271.07521348259
0.359229603981822,486.580864301313,513.940091925901,27.3592276245877,-500.260478113607,229.610818338363,270.649659775244
0.361393637740749,486.964252625802,513.95627646426,26.9920238384578,-500.460264545031,229.986114393672,270.474150151359
0.363557671499675,486.973910001,513.968088649045,26.9941786480453,-500.470999325022,229.989865676477,270.481133648545
0.365721705258602,486.440645952554,513.976709698735,27.5360637461807,-500.208677825644,229.452291103187,270.756386722458
0.367885739017529,485.511134075621,513.712845506426,28.2017114308057,-499.611989791023,228.654711322407,270.957278468616
0.370049772776455,486.453672877479,513.790422076632,27.3367491991531,-500.122047477056,229.558461839163,270.563585637893
0.372213806535382,487.9520476027,513.847040854501,25.8949932518009,-500.899544228601,231.02852717545,269.871017053151
0.374377840294309,490.126251935678,513.88836371782,23.7621117821422,-502.007307826749,233.182070076768,268.825237749981
0.376541874053235,492.79370630971,513.918522952921,21.1248166432111,-503.356114631316,235.83444483325,267.521669798066
0.378705907812162,494.470375102842,513.940534483315,19.4701593804728,-504.205454793078,237.500107861185,266.705346931894
0.380869941571088,496.234393830001,513.686443250168,17.4520494201668,-504.960418540084,239.391172204917,265.569246335167
0.383033975330015,496.441227092673,513.771152553909,17.3299254612358,-505.106189823291,239.555650815719,265.550539007572
0.385198009088942,495.781714428998,513.832977113042,18.0512626840433,-504.80734577102,238.865225872477,265.942119898542
0.387362042847868,495.840685631966,513.878099383478,18.0374137515118,-504.859392507722,238.901635940227,265.957756567495
0.389526076606795,496.153881610003,513.911031592262,17.7571499822598,-505.032456601133,239.198365813871,265.834090787261
0.391690110365722,495.842153325296,513.935066960273,18.092913634977,-504.888610142785,238.874619845159,266.013990297625
0.393854144124648,496.965421432477,513.952609024311,16.9871875918338,-505.459015228394,239.989116920322,265.469898308072
0.396018177883575,498.325544106649,513.96541199078,15.6398678841307,-506.145478048715,241.342838111259,264.802639937455
0.398182211642502,500.128689827101,513.974756156327,13.8460663292258,-507.051722991714,243.141311748938,263.910411242776
0.400346245401428,501.985016954007,513.981575937507,11.9965589835001,-507.983296445757,244.994228985253,262.989067460503
0.402510279160355,503.069689564441,513.986553312437,10.9168637479962,-508.528121438439,246.076412908222,262.451708530217
0.404674312919282,503.86133113132,513.990186018611,10.1288548872918,-508.925758574966,246.866238122014,262.059520452952
0.406838346678208,504.43910581133,513.992837326647,9.5537315153166,-509.215971568988,247.442687148007,261.773284420982
0.409002380437135,505.130947284345,513.994772367347,8.86382508300147,-509.562859825846,248.133561100672,261.429298725174
0.411166414196061,506.716508333282,513.996184644781,7.27967631149983,-510.356346489031,249.718416010891,260.637930478141
0.413330447954988,508.143876427418,513.997215386694,5.85333895927658,-511.070545907056,251.14526873407,259.925277172985
0.415494481713915,509.455788376167,513.997967667276,4.54217929110933,-511.726878021722,252.456804542529,259.270073479193
0.417658515472841,510.143122950662,513.998516714586,3.85539376392467,-512.070819832624,253.143864593368,258.926955239255
0.419822549231768,511.455238455837,513.998917433355,2.54367897751763,-512.727077944596,254.45577973916,258.271298205436
0.421986582990695,512.683034018468,513.999209895459,1.31617587699066,-513.341121956963,255.683429070739,257.657692886225
0.424150616749621,513.308976771074,513.999423347109,0.690446576034446,-513.654200059091,256.30926509752,257.344934961572
0.426314650508548,514.306129624531,513.999579133469,-0.306550491061671,-514.152854379,257.306340057796,256.846514321204
0.428478684267475,515.304051652313,513.999692833177,-1.30435881913559,-514.651872242745,258.304205235724,256.347667007021
0.430642718026401,516.302535057197,513.999775816202,-2.30275924099476,-515.1511554367,259.302647149096,255.848508287604
0.432806751785328,516.490959544058,513.999836380848,-2.4911231632102,-515.245397962453,259.491041353634,255.754356608819
0.434970785544254,516.358323773453,513.729724371707,-2.62859940174656,-515.04402407258,259.4934615876,255.55056248498
0.437134819303181,516.801832803937,513.802741011608,-2.99909179232918,-515.302286907772,259.900462298133,255.401824609639
0.439298853062108,516.585212691071,513.856031752669,-2.72918093840144,-515.22062222187,259.657196814736,255.563425407134
0.441462886821034,516.427113847312,513.894925668998,-2.53218817831385,-515.161019758155,259.479651012813,255.681368745342
0.443626920579961,516.041570176413,513.923312152226,-2.11825802418605,-514.982441164319,259.079914100299,255.90252706402
0.445790954338888,516.030339735026,513.673873638806,-2.35646609622006,-514.852106686916,259.193402915623,255.658703771293
0.447954988097814,515.481830843399,513.761978701138,-1.71985214226129,-514.621904772268,258.60084149283,256.021063279438
0.450119021856741,515.891973671727,513.826281633583,-2.06569203814354,-514.859127652655,258.978832854935,255.88029479772
0.452283055615668,517.812251138457,513.873212729387,-3.93903840907001,-515.842731933922,260.875644773763,254.967087160158
0.454447089374594,519.213753719033,513.907465098129,-5.3062886209035,-516.560609408581,262.260021169968,254.300588238613
0.456611123133521,519.696319247769,513.932463976685,-5.76385527108414,-516.814391612227,262.730087259426,254.0843043528
0.458775156892448,518.967891853795,513.950709252908,-5.0171826008866,-516.459300553352,261.992537227341,254.466763326011
0.460939190651374,517.355628797714,513.964025454423,-3.39160334329108,-515.659827126068,260.373616070503,255.286211055566
0.463103224410301,515.36845998579,513.97374420138,-1.39471578440987,-514.671102093585,258.3815878851,256.289514208485
0.465267258169227,514.728605808059,513.980837368475,-0.747768439584434,-514.354721588267,257.738187123822,256.616534464445
0.467431291928154,514.261612211135,513.986014272417,-0.27559793871751,-514.123813241776,257.268605074926,256.85520816685
0.469595325687081,512.569998775965,513.989792603601,1.41979382763589,-513.279895689783,255.575102474165,257.704793215619
0.471759359446007,511.065229006521,513.992550195145,2.92732118862455,-512.528889600833,254.068953908948,258.459935691885
0.473923393204934,509.156513502113,513.994562806204,4.83804930409059,-511.575538154159,252.159232099011,259.416306055147
0.476087426963861,507.763449347918,513.996031697883,6.23258234996564,-510.8797405229,250.765433498976,260.114307023924
0.478251460722787,505.666105281027,513.726947547479,8.0608422664522,-509.696526414253,248.802631507287,260.893894906966
0.480415494481714,503.324903106624,513.800714363694,10.4758112570705,-508.562808735159,246.424545924777,262.138262810382
0.482579528240641,500.265410183525,513.854552616279,13.5891424327542,-507.059981399902,243.338133875385,263.721847524517
0.484743561999567,497.221989643164,513.893846130492,16.6718564873281,-505.557917886828,240.275066577918,265.28285130891
0.486907595758494,493.64998700776,513.922524257754,20.2725372499931,-503.786255632757,236.688724878884,267.097530753873
0.48907162951742,488.88173337816,513.943454810791,25.0617214326307,-501.412594094475,231.910005972765,269.502588121711
0.491235663276347,485.401653086376,513.958730844907,28.5570777585312,-499.680191965641,228.422287663922,271.257904301719
0.493399697035274,483.402050526973,513.699723751643,30.2976732246699,-498.550887139308,226.552188651151,271.998698488156
0.4955637307942,482.212809232138,513.780845245414,31.5680360132757,-497.996827238776,225.322386609431,272.674440629345
0.497727764553127,481.615005072389,513.840051263727,32.2250461913375,-497.727528168058,224.694979440526,273.032548727532
0.499891798312054,480.638388996136,513.883262408412,33.2448734122761,-497.260825702274,223.69675779193,273.564067910344
0.50205583207098,478.844986972009,513.914799793938,35.069812821929,-496.379893382974,221.88758707504,274.492306307934
0.504219865829907,476.455458797597,513.937817158859,37.4823583612614,-495.196637978228,219.486550218168,275.71008776006
0.506383899588834,474.711476502945,513.954616239665,39.2431397367199,-494.333046371305,217.734168383112,276.598877988192
0.50854793334776,472.898329434844,513.966876944437,41.0685475095937,-493.432603189641,215.914890962625,277.517712227016
0.510711967106687,471.034702886484,513.705669131782,42.6709662452985,-492.370186009133,214.181868320593,278.18831768854
0.512876000865613,469.674546626772,513.515028232305,43.8404816055332,-491.594787429539,212.917032510619,278.677754918919
0.51504003462454,469.492313665353,513.64604636793,44.1537327025778,-491.569180016641,212.669290481387,278.899889535254
0.517204068383467,468.548843434853,513.471512928477,44.9226694936235,-491.010178181665,211.813086970615,279.19709121105
0.519368102142393,468.130413759711,513.614286993743,45.4838732340316,-490.872350376727,211.32327026284,279.549080113887
0.52153213590132,468.095181672412,513.718489758383,45.6233080859712,-490.906835715397,211.23593679322,279.670898922177
0.523696169660247,468.069467752353,513.794541498861,45.725073746508,-490.932004625607,211.172197002923,279.759807622685
0.525860203419173,467.780544395659,513.850047389226,46.069502993567,-490.815295892442,210.855520701046,279.959775191396
0.5280242371781,467.299519266658,513.890558018513,46.5910387518545,-490.595038642585,210.354240257402,280.240798385184
0.530188270937027,466.948446064324,513.920124449651,46.9716783853274,-490.434285256987,209.988383839498,280.445901417489
0.532352304695953,466.962373680293,513.671547113883,46.7091734335897,-490.316960397088,210.126600123352,280.190360273736
0.53451633845488,466.432226240548,513.760280701375,47.3280544608261,-490.096253470962,209.552085889861,280.5441675811
0.536680372213806,466.045301424859,513.825042359004,47.779740934145,-489.935171891931,209.132780245357,280.802391646574
0.538844405972733,466.57337538727,513.602152040662,47.0287766533918,-490.087763713966,209.772299366939,280.315464347027
0.54100843973166,468.039411735894,513.709633138257,45.6702214023629,-490.874522437076,211.184595166766,279.68992727031
0.543172473490586,468.839233046237,513.517921337807,44.6786882915703,-491.178577192022,212.080272377333,279.098304814689
0.545336507249513,469.963290084946,513.378001671138,43.4147115861915,-491.670645878042,213.274289249377,278.396356628665
0.54750054100844,470.513519920279,513.275882171582,42.7623622513034,-491.89470104593,213.875578834488,278.019122211443
0.549664574767366,469.834476900152,513.471507101056,43.6370302009039,-491.652992000604,213.098723349624,278.55426865098
0.551828608526293,468.798569146298,513.614282740636,44.8157135943381,-491.206425943467,211.99142777598,279.214998167487
0.55399264228522,468.852986942688,513.448330442408,44.5953434997195,-491.150658692548,212.128821721484,279.021836971064
0.556156676044146,469.162859645219,513.32721118842,44.1643515432013,-491.245035416819,212.499254051009,278.745781365811
0.558320709803073,469.1188621004,513.508969265146,44.3901071647464,-491.313915682773,212.364377467827,278.949538214946
0.560484743562,468.816594553749,513.371468056515,44.5548735027662,-491.094031305132,212.130860525491,278.963170779641
0.562648777320926,468.325830250601,513.541269865407,45.2154396148059,-490.933550058004,211.555195317898,279.378354740107
0.564812811079853,468.507961396257,513.66519866084,45.1572372645828,-491.086580028549,211.675362065837,279.411217962712
0.566976844838779,468.911044893411,513.755647322357,44.8446024289464,-491.333346107884,212.033221232232,279.300124875652
0.569140878597706,469.205232879905,513.82166071611,44.6164278362046,-491.513446798008,212.29440252185,279.219044276157
0.571304912356633,469.149787942519,513.869840181473,44.720052238955,-491.509814061996,212.214867851782,279.294946210214
0.573468946115559,468.839165587512,513.905003664985,45.0658380774725,-491.372084626248,211.88666375502,279.485420871228
0.575632979874486,468.882616003128,513.930667514994,45.0480515118656,-491.406641759061,211.917282245631,279.48935951343
0.577797013633413,469.454640442801,513.949398116503,44.494757673702,-491.702019279652,212.479941384549,279.222077895102
0.579961047392339,470.412441350497,513.69291231779,43.2804709672937,-492.052676834144,213.565985191601,278.486691642542
0.582125081151266,471.921955028857,513.775873962729,41.8539189338715,-492.848914495793,215.034018047493,277.8148964483
0.584289114910193,473.293820421975,513.83642300394,40.5426025819647,-493.565121712957,216.375608920005,277.189512792952
0.586453148669119,474.565224069162,513.880614345545,39.3153902763828,-494.222919207353,217.62491689639,276.598002310964
0.588617182428046,475.493150123265,513.912867121704,38.4197169984391,-494.703008622485,218.536716562413,276.166292060072
0.590781216186972,476.440547401566,513.936406610034,37.4958592084678,-495.1884770058,219.472344096549,275.716132909251
0.592945249945899,476.321530784409,513.953586759367,37.6320559749581,-495.137558771888,219.344737404726,275.792821367163
0.595109283704826,475.154042398207,513.966125584637,38.8120831864308,-494.560083991422,218.170979605888,276.389104385534
0.597273317463752,473.761645828081,513.975276968371,40.2136311402899,-493.868461398226,216.774007343896,277.09445405433
0.599437351222679,474.096194900122,513.981956048942,39.8857611488197,-494.039075474532,217.105216875651,276.933858598881
0.601601384981606,474.610519674047,513.986830734407,39.3763110603599,-494.298675204227,217.617104306844,276.681570897383
0.603765418740532,475.796365050992,513.990388493313,38.1940234423211,-494.893376772152,218.801170804335,276.092205967817
0.605929452499459,477.47231556865,513.99298510155,36.5206695328994,-495.7326503351,220.475823017875,275.256827317225
0.608093486258386,479.235810066917,513.994880219942,34.7590701530245,-496.615345143429,222.238369956946,274.376975186483
0.610257520017312,480.252729360004,513.996263360328,33.7435340003236,-497.124496360166,223.25459767984,273.869898680326
0.612421553776239,480.184452953477,513.997272836747,33.81281988327,-497.090862895112,223.185816535103,273.905046360008
0.614585587535166,480.404778054169,513.99800959684,33.5932315426719,-497.201393825505,223.405773255748,273.795620569756
0.616749621294092,480.025268536534,513.998547316618,33.9732787800841,-497.011907926576,223.025994878225,273.985913048351
0.618913655053019,480.558754508168,513.728783556186,33.1700290480183,-497.143769032177,223.694362730075,273.449406302102
0.621077688811945,480.948115930618,513.802054363244,32.8539384326258,-497.375085146931,224.047088748996,273.327996397935
0.623241722570872,482.042757581745,513.855530606627,31.8127730248811,-497.949144094186,225.114992278432,272.834151815754
0.625405756329799,482.571518779176,513.894559910672,31.3230411314961,-498.233039344924,225.62423882384,272.608800521084
0.627569790088725,481.876807007037,513.923045205784,32.0462381987473,-497.89992610641,224.915284404145,272.984641702266
0.629733823847652,480.559307299987,513.943835021475,33.3845277214882,-497.251571160731,223.587389789249,273.664181371482
0.631897857606579,479.867894534807,513.959008339313,34.0911138045063,-496.91345143706,222.88839036515,274.02506107191
0.634061891365505,479.093115011236,513.970082491083,34.8769674798466,-496.531598751159,222.108073765695,274.423524985465
0.636225925124432,478.257490776917,513.97816489196,35.7206741150433,-496.117827834439,221.268408330937,274.849419503502
0.638389958883359,477.377459408418,513.984063782034,36.6066043736158,-495.680761595226,220.385427517401,275.295334077825
0.640553992642285,478.08595504012,513.988369050311,35.9024140101918,-496.037162045216,221.091770514964,274.945391530252
0.642718026401212,479.953827235191,513.99151122362,34.0376839884286,-496.972669229405,222.958071623381,274.014597606024
0.644882060160138,482.127550789397,513.723648307418,31.5960975180217,-497.925599548408,225.265726635687,272.65987291272
0.647046093919065,484.794654270029,513.798306433831,29.0036521638021,-499.29648035193,227.895501053113,271.400979298816
0.649210127677992,487.011379389535,513.852795203626,26.841415814091,-500.43208729658,230.084981787722,270.347105508858
0.651374161436918,488.359086236123,513.892563493784,25.5334772576607,-501.125824864953,231.412804489231,269.713020375722
0.653538195195845,489.342701706323,513.92158813332,24.5788864269965,-501.632144919821,232.381907639663,269.250237280158
0.655702228954772,488.979962499669,513.942771586188,24.9628090865185,-501.461367042929,232.008576706575,269.452790336353
0.657866262713698,488.174907119239,513.958232197675,25.7833250784357,-501.066569658457,231.195791020402,269.870778638055
0.660030296472625,485.696248967631,513.969516028929,28.2732670612979,-499.83288249828,228.711490953167,271.121391545114
0.662194330231552,484.697684348402,513.977751463077,29.280067114675,-499.337717905739,227.708808616863,271.628909288876
0.664358363990478,483.158419528397,513.983762043531,30.8253425151344,-498.571090785964,226.166538506631,272.404552279333
0.666522397749405,483.115621508719,513.988148828339,30.8725273196207,-498.551885168529,226.121547094549,272.43033807398
0.668686431508332,483.354541851784,513.991350495982,30.6368086441975,-498.672946173883,226.358866603793,272.31407957009
0.670850465267258,483.799072591899,513.993687213222,30.1946146213223,-498.896379902561,226.802228985289,272.094150917272
0.673014499026185,484.663823014948,513.995392651784,29.3315696368361,-499.329607833366,227.666126689056,271.66348114431
0.675178532785111,485.565111951363,513.996637355525,28.4315254041618,-499.780874653444,228.566793273601,271.214081379843
0.677342566544038,485.142287235428,513.997545794818,28.8552585593904,-499.569916515123,228.143514338019,271.426402177104
0.679506600302965,484.02322260742,513.728052601722,29.7048299943013,-498.875637604571,227.159196306559,271.716441298011
0.681670634061891,484.01694887577,513.801520880669,29.784572004899,-498.909234878219,227.116188435435,271.793046442784
0.683834667820818,484.012370031696,513.855141247683,29.8427712159865,-498.93375563969,227.084799407855,271.848956231835
0.685998701579745,484.819496826407,513.894275739465,29.0747789130579,-499.356886282936,227.872358956675,271.484527326262
0.688162735338671,487.029510574989,513.922837805194,26.893327230205,-500.476174190092,230.068091672392,270.4080825177
0.690326769097598,487.832006745455,513.943683651443,26.1116769059878,-500.887845198449,230.860164919734,270.027680278715
0.692490802856525,488.147547378594,513.688741650964,25.5411942723693,-500.918144514779,231.303176553113,269.614967961666
0.694654836615451,487.83753032585,513.772830027453,25.9352997016026,-500.805180176651,230.951115312124,269.854064864528
0.696818870374378,486.530641458204,513.564045194815,27.0334037366111,-500.04734332651,229.748618860797,270.298724465713
0.698982904133304,485.84697294825,513.681821093531,27.8348481452808,-499.764397020891,229.006062401485,270.758334619406
0.701146937892231,483.997220673764,513.7677791016,29.7705584278368,-498.882499887682,227.113331122963,271.769168764719
0.703310971651158,483.727815314139,513.830515019829,30.10269970569,-498.779165166985,226.812557804225,271.96660736276
0.705475005410084,484.611816333416,513.60614622817,28.9943298947538,-499.108981280793,227.808743219331,271.300238061462
0.707639039169011,486.067467621649,513.712548271199,27.6450806495498,-499.890007946424,229.21119348605,270.678814460374
0.709803072927938,487.940334307662,513.790205141348,25.8498708336859,-500.865269724505,231.045231736988,269.820037987517
0.711967106686864,490.117703060056,513.846882525631,23.7291794655757,-501.982292792844,233.19426179724,268.788030995604
0.714131140445791,491.436685906584,513.888248162478,22.4515622558945,-502.662467034531,234.492561825345,268.169905209186
0.716295174204718,492.939649767513,513.918438615573,20.9787888480597,-503.429044191543,235.980430459727,267.448613731816
0.718459207963644,493.766422393322,513.940472930225,20.1740505369024,-503.853447661773,236.79618592821,267.057261733563
0.720623241722571,493.289212410977,513.956554537899,20.6673421269219,-503.622883474438,236.310935142028,267.31194833241
0.722787275481497,492.130455034115,513.698135387492,21.5676803533769,-502.914295210803,235.281387340369,267.632907870434
0.724951309240424,491.014586948792,513.509529775833,22.4949428270412,-502.262058362313,234.259822060875,268.002236301437
0.727115342999351,491.550958617707,513.371877141758,21.8209185240514,-502.461417879733,234.865020046828,267.596397832905
0.729279376758277,492.752894784007,513.541568433731,20.7886736497235,-503.147231608869,235.982110567142,267.165121041727
0.731443410517204,494.440589064323,513.665416569076,19.224827504753,-504.0530028167,237.607880779785,266.445122036915
0.733607444276131,496.212654674815,513.75580636133,17.5431516865145,-504.984230518073,239.33475149415,265.649479023922
0.735771478035057,496.965673329045,513.821776789716,16.8561034606707,-505.393725059381,240.054784934187,265.338940125193
0.737935511793984,497.245103104308,513.869924897074,16.6248217927657,-505.557514000691,240.310140655771,265.24737334492
0.740099545552911,497.719199401874,513.905065494139,16.1858660922655,-505.812132448006,240.766666654804,265.045465793202
0.742263579311837,498.335371851498,513.660556428747,15.3251845772487,-505.997964140122,241.505093637125,264.492870502998
0.744427613070764,499.595550121887,513.752259218101,14.1567090962135,-506.673904669994,242.719420512837,263.954484157157
0.74659164682969,501.055595828208,513.819187929265,12.7635921010564,-507.437391878736,244.146001863576,263.291390015161
0.748755680588617,502.12120111735,513.597879221484,11.4766781041333,-507.859540169417,245.322261506608,262.537278662808
0.750919714347544,503.439238941971,513.706514647722,10.2672757057519,-508.572876794846,246.585981618109,261.986895176737
0.75308374810647,503.860888237045,513.785801538734,9.92491330168906,-508.823344887889,246.967987467678,261.855357420211
0.755247781865397,503.088001508336,513.843668583618,10.7556670752816,-508.465835045977,246.166167216527,262.29966782945
0.757411815624324,502.794071142334,513.885902486864,11.0918313445307,-508.339986814599,245.851119898901,262.488866915697
0.75957584938325,502.579547890564,513.916726638797,11.3371787482329,-508.248137264681,245.621184571166,262.626952693515
0.761739883142177,502.963291851594,513.939223454609,10.9759316030149,-508.451257653102,245.99368012429,262.457577528812
0.763903916901104,503.783677421527,513.955642615883,10.1719651943553,-508.869660018705,246.805856113586,262.063803905119
0.76606795066003,504.382430733613,513.967626038744,9.58519530513126,-509.175028386179,247.398617714241,261.776410671938
0.768231984418957,504.008958483445,513.976372065481,9.96741358203519,-508.992665274463,247.020772450705,261.971892823758
0.770396018177884,503.736382081622,513.982755298765,10.2463732171427,-508.859568690193,246.74500443224,262.114564257954
0.77256005193681,502.186662828603,513.987414061925,11.8007512333227,-508.087038445264,245.19295579764,262.894082647624
0.774724085695737,500.785453646572,513.990814231278,13.2053605847065,-507.388133938925,243.790046530933,263.598087407992
0.776888119454663,498.952321193583,513.993295823759,15.040974630176,-506.472808508671,241.955673281704,264.517135226968
0.77905215321359,497.884577071825,513.995106998616,16.1105299267914,-505.939842035221,240.887023572517,265.052818462704
0.781216186972517,497.375446869121,513.996428873335,16.6209820042143,-505.685937871228,240.377232432453,265.308705438775
0.783380220731443,496.733705141457,513.997393635387,17.2636884939301,-505.365549388422,239.735008323763,265.630541064658
0.78554425449037,495.725021504195,513.727941549106,18.0029200449108,-504.72648152665,238.861050729642,265.865430797008
0.787708288249297,495.258996229225,513.801439829607,18.5424436003825,-504.530218029416,238.358276314421,266.171941714995
0.789872322008223,494.108401941562,513.855082093069,19.7466801515073,-503.981742017315,237.180860895027,266.800881122288
0.79203635576715,492.188023000568,513.894232565838,21.7062095652694,-503.041127783203,235.240906717649,267.800221065554
0.794200389526077,490.246133935889,513.92280629519,23.6766723593018,-502.084470115539,233.284730788293,268.799739327246
0.796364423285003,488.288545841054,513.673504442191,25.3849586011361,-500.981025141622,231.451793619959,269.529231521663
0.79852845704393,486.589656118454,513.761709245281,27.1720531268273,-500.175682681868,229.708801495813,270.466881186054
0.800692490802857,485.619888219571,513.8260849729,28.2061967533296,-499.722986596235,228.70684573312,271.016140863115
0.802856524561783,485.722577778259,513.873069197809,28.1504914195499,-499.797823488034,228.786043179355,271.011780308679
0.80502055832071,486.607993750389,513.907360342499,27.2993665921102,-500.257677046444,229.654313579139,270.603363467304
0.807184592079636,488.334833945043,513.932387521438,25.5975535763949,-501.133610733241,231.368640184324,269.764970548917
0.809348625838563,489.325001322331,513.950653452522,24.6256521301907,-501.637827387426,232.34967459607,269.288152791356
0.81151265959749,487.886419136879,513.693828516986,25.8074093801072,-500.790123826932,231.039504878386,269.750618948547
0.813676693356416,486.836478865114,513.77654264502,26.940063779906,-500.306510755067,229.948207542604,270.358303212463
0.815840727115343,484.719405420503,513.836911037556,29.1175056170537,-499.278158229029,227.800949901724,271.477208327305
0.81800476087427,482.633960094198,513.880970533848,31.24701043965,-498.257465314023,225.693474827274,272.563990486749
0.820168794633196,481.111910777314,513.913127083525,32.8012163062112,-497.512518930419,224.155347235551,273.357171694868
0.822332828392123,480.541364961904,513.666440129682,33.1250751677786,-497.103902545793,223.708144897063,273.39575764873
0.82449686215105,481.205580490171,513.75655340068,32.5509729105091,-497.481066945425,224.327303789831,273.153763155594
0.826660895909976,481.420197855583,513.822322011745,32.4021241561621,-497.621259933664,224.509036849711,273.112223083954
0.828824929668903,480.766366370939,513.870322823985,33.1039564530462,-497.318344597462,223.831204958946,273.487139638516
0.830988963427829,481.910108794618,513.905355918624,31.9952471240051,-497.907732356621,224.957430835307,272.950301521314
0.833152997186756,482.474705885888,513.930924605124,31.4562187192361,-498.202815245506,225.509243583326,272.69357166218
0.835317030945683,483.42708598949,513.949585752137,30.5224997626474,-498.688335870814,226.452293113421,272.236042757392
0.837481064704609,484.122174692041,513.963205474364,29.8410307823235,-499.042690083203,227.140571954859,271.902118128344
0.839645098463536,484.359324651924,513.973145744028,29.6138210921036,-499.166235197976,227.37275177991,271.793483418066
0.841809132222463,484.802563288872,513.980400588094,29.1778372992223,-499.391481938483,227.812362994825,271.579118943658
0.843973165981389,485.126058254706,513.715539279098,28.5894810243917,-499.420798766902,228.268288615157,271.152510151745
0.846137199740316,485.09200283414,513.522231898011,28.4302290638718,-499.307117366075,228.330886885134,270.976230480942
0.848301233499243,484.796991485115,513.651303918598,28.8543124334824,-499.224147701857,227.971339525816,271.25280817604
0.850465267258169,483.771210648988,513.475350119172,29.7041394701845,-498.62328038408,227.033535589402,271.589744794678
0.852629301017096,483.29270708963,513.617087543535,30.3243804539051,-498.454897316583,226.484163317863,271.97073399872
0.854793334776022,482.133005603621,513.720533722252,31.5875281186311,-497.926769662937,225.272738742495,272.654030920442
0.856957368534949,480.476136042359,513.796033273195,33.3198972308351,-497.136084657777,223.578119405762,273.557965252015
0.859121402293876,478.72656766159,513.851136151456,35.124568489866,-496.288851906523,221.800999585862,274.487852320661
0.861285436052802,477.179499835108,513.891352644863,36.7118528097551,-495.535426239986,220.233823512677,275.301602727309
0.863449469811729,475.780225780266,513.920704402757,38.1404786224913,-494.850465091511,218.819873578887,276.030591512624
0.865613503570656,473.678349455963,513.942126600926,40.2637771449633,-493.810238028445,216.7072861555,277.102951872945
0.867777537329582,472.414464289128,513.957761459188,41.5432971700599,-493.186112874158,215.435583559534,277.750529314624
0.869941571088509,473.383119034308,513.969172463369,40.586053429061,-493.676145748838,216.398532802623,277.277612946215
0.872105604847436,476.521491589763,513.977500713886,37.4560091241234,-495.249496151825,219.53274123282,275.716754919005
0.874269638606362,483.674825117884,513.983579035793,30.3087539179086,-498.829202076838,226.683035599988,272.146166476851
0.876433672365289,494.83907781897,513.988015261278,19.1489374423085,-504.413546540124,237.845070188331,266.568476351793
0.878597706124216,511.632237081845,514.261409224763,2.62917214291838,-512.946823153304,254.501532469463,258.445290683841
0.880761739883142,532.263462620925,514.460944110724,-17.8025185102008,-523.362203365825,275.032990565563,248.329212800262
0.882925773642069,555.155564566376,515.146885831502,-40.0086787348744,-535.151225198939,297.582121650625,237.569103548314
0.885089807400995,578.887284477127,515.647516135429,-63.2397683416981,-547.267400306278,321.063526409412,226.203873896865
0.887253841159922,602.961638132382,516.28305426477,-86.6785838676111,-559.622346198576,344.820110999996,214.80223519858
0.889417874918849,625.665123626436,517.017054032461,-108.648069593975,-571.341088829448,367.156596610205,204.184492219243
0.891581908677775,643.31574633062,517.552759203397,-125.762987127223,-580.434252767009,384.539366728921,195.894886038087
0.893745942436702,654.577006396636,517.943740294674,-136.633266101963,-586.260373345655,395.6051362493,190.655237096355
0.895909976195629,658.47346771237,517.958939203546,-140.514528508824,-588.216203457958,399.493998110597,188.722205347361
0.898074009954555,654.56337050255,517.699875820901,-136.863494681649,-586.131623161725,395.713432592099,190.418190569626
0.900238043713482,643.875080198707,517.240643808474,-126.634436390233,-580.55786200359,385.25475829447,195.303103709121
0.902402077472409,629.320392617943,516.905476176894,-112.414916441049,-573.112934397419,370.867654529496,202.245279867923
0.904566111231335,611.403526578439,516.390699951133,-95.0128266273065,-563.897113264786,353.208176602873,210.688936661913
0.906730144990262,591.032795476246,515.744837508613,-75.2879579676325,-553.388816492429,333.160376721939,220.22843977049
0.908894178749188,569.951751048628,515.273458816955,-54.6782922316738,-542.612604932792,312.315021640151,230.29758329264
0.911058212508115,551.053850971543,514.929426006992,-36.1244249645512,-532.991638489267,293.589137968047,239.40250052122
0.913222246267042,534.559773872895,514.678335797728,-19.8814380751672,-524.619054835311,277.220605974031,247.39844886128
0.915386280025968,521.44104931405,514.495079168237,-6.94597014581348,-517.968064241143,264.193509729932,253.774554511212
0.917550313784895,510.24549241538,514.091174243698,3.84568182831725,-512.168333329539,253.199905293532,258.968428036007
0.919714347543822,501.804328546377,514.0665429554,12.2622144090229,-507.935435750889,244.771057068677,263.164378682211
0.921878381302748,494.292816472653,514.048565962642,19.7557494899891,-504.170691217648,237.268533491332,266.902157726316
0.924042415061675,489.62105468181,514.035445566149,24.4143908843393,-501.828250123979,232.603331898735,269.224918225244
0.926206448820602,485.941242147276,514.025869726271,28.084627578995,-499.983555936773,228.92830728414,271.055248652633
0.928370482579528,482.715241403726,514.018880859019,31.3036394552936,-498.367061131372,225.705800974216,272.661260157156
0.930534516338455,480.090608588677,514.01378007767,33.9231714889931,-497.052194333173,223.083718549842,273.968475783331
0.932698550097381,479.255661479982,514.010057304087,34.7543958241054,-496.632859392034,222.250632827938,274.382226564096
0.934862583856308,478.105968095542,514.007340260913,35.9013721653715,-496.056654178228,221.102297965085,274.954356213142
0.937026617615235,475.916090461298,513.735201031959,37.8191105706613,-494.825645746629,219.048489945318,275.77715580131
0.939190651374161,473.507353237569,513.536581906201,40.0292286686322,-493.521967571885,216.739062284468,276.782905287417
0.941354685133088,469.858257854495,513.391620971063,43.5333631165678,-491.624939412779,213.162447368964,278.462492043815
0.943518718892015,466.654675833127,513.285822133031,46.6311462999036,-489.970248983079,210.011764766612,279.958484216467
0.945682752650941,464.586717606944,513.478761720174,48.8920441132296,-489.032739663559,207.847336746857,281.185402916702
0.947846786409868,465.238680836429,513.619577479334,48.3808966429054,-489.429129157882,208.428892096762,281.00023706112
0.950010820168795,467.065293208914,513.452194774556,46.386901565642,-490.258743991735,210.339195821636,279.919548170099
0.952174853927721,469.208903537906,513.330031547234,44.1211280093278,-491.26946754257,212.543887764289,278.725579778281
0.954338887686648,470.773404220689,513.511027686507,42.7376234658181,-492.142215953598,214.017890377435,278.124325576163
0.956502921445574,471.645089113669,513.64312659443,41.9980374807618,-492.644107854049,214.823525816453,277.820582037596
0.958666955204501,471.740970494272,513.739538161797,41.9985676675249,-492.740254328034,214.871201413373,277.869052914661
0.960830988963428,472.351261348046,513.809903545343,41.4586421972973,-493.080582446694,215.446309575374,277.63427287132
0.962995022722354,473.607146972239,513.861259283423,40.2541123111843,-493.734203127831,216.676517330527,277.057685797304
0.965159056481281,474.253591081784,513.898740949846,39.6451498680615,-494.076166015815,217.304220606861,276.771945408954
0.967323090240208,474.99555051138,513.926096711253,38.9305461998732,-494.460823611317,218.032502155753,276.428321455563
0.969487123999134,475.537064992114,513.946062143786,38.4089971516723,-494.74156356795,218.564033920221,276.177529647729
0.971651157758061,475.662129760187,513.960633790697,38.2985040305102,-494.811381775442,218.681812864838,276.129568910604
0.973815191516988,476.563876139894,513.971268816678,37.4073926767842,-495.267572478286,219.578241731555,275.689330746731
0.975979225275914,477.22201013359,513.979030724327,36.7570205907367,-495.600520428959,220.232494771427,275.368025657532
0.978143259034841,477.972501352517,513.984695704409,36.0121943518911,-495.978598528463,220.980153500313,274.99844502815
0.980307292793767,478.790398918568,513.988830254931,35.1984313363631,-496.389614586749,221.795983791102,274.593630795647
0.982471326552694,479.927648800218,513.991847830946,34.064199030728,-496.959748315582,222.931724884745,274.028023430837
0.984635360311621,481.027819773762,513.994050190056,32.9662304162941,-497.510934981909,224.030794678734,273.480140303175
0.986799394070547,482.100928936554,513.995657568172,31.8947286316181,-498.048293252363,225.103100152468,272.945193099895
0.988963427829474,482.61397478113,513.726674491233,31.1126997101038,-498.170324636182,225.750637535513,272.419687100669
0.991127461588401,483.25857431569,513.530358863418,30.2717845477282,-498.394466589554,226.493394883981,271.901071705573
0.993291495347327,483.729031281819,513.387079121944,29.6580478401254,-498.558055201882,227.035491720847,271.522563481035
0.995455529106254,484.342547588002,513.552663504537,29.2101159165352,-498.947605546269,227.566215835733,271.381389710536
0.997619562865181,484.790318652985,513.673514237583,28.8831955845985,-499.231916445284,227.953561534193,271.278354911091
0.999783596624107,485.657434007009,513.761716394388,28.1042823873784,-499.709575200699,228.776575809816,270.932999390883
1.00194763038303,487.10076139735,513.826090190631,26.7253287932811,-500.463425793991,230.187716302034,270.275709491956
1.00411166414196,488.154164927426,513.873073005937,25.7189080785119,-501.013618966682,231.217628424457,269.795990542225
1.00627569790089,489.193141162115,513.907363121838,24.7142219597222,-501.550252141977,232.239459601197,269.31079254078
1.00843973165981,488.87080666553,513.932389549922,25.0615828843914,-501.401598107726,231.904611890569,269.496986217157
1.01060376541874,488.90570904737,513.950654932998,25.0449458856281,-501.428181990184,231.930381580871,269.497800409313
1.01276779917767,488.661026122074,513.963985809374,25.3029596872993,-501.312505965724,231.679033217388,269.633472748336
1.01493183293659,488.752602020858,513.973715266687,25.2211132458287,-501.363158643773,231.765744387515,269.597414256258
1.01709586669552,489.359750545471,513.710660038797,24.3509094933261,-501.535205292134,232.504420526073,269.030784766062
1.01925990045445,490.343186548374,513.788827026659,23.4456404782844,-502.066006787517,233.448773035045,268.617233752472
1.02142393421337,491.87140984173,513.845876717186,21.9744668754562,-502.858643279458,234.948471483137,267.910171796321
1.0235879679723,492.986774119259,513.617357867561,20.6305837483019,-503.30206599341,236.178095185478,267.123970807931
1.02575200173123,494.611284444328,513.720731016563,19.1094465722346,-504.166007730446,237.750918936047,266.415088794399
1.02791603549015,497.147704273189,513.796177267222,16.6484729940327,-505.471940770205,240.249615639578,265.222325130627
1.03008006924908,499.809363164983,513.851241244602,14.041878079619,-506.830302204793,242.883742542682,263.946559662111
1.03224410300801,501.481802161405,513.891429346443,12.4096271850388,-507.686615753924,244.536087488183,263.150528265741
1.03440813676693,501.62179652648,513.650604171057,12.0288076445774,-507.636200348768,244.796494440951,262.839705907817
1.03657217052586,501.723970544203,513.744995624648,12.0210250804454,-507.734483084425,244.851472731879,262.883010352547
1.03873620428479,501.528385404474,513.813886640704,12.2855012362297,-507.671136022589,244.621442084122,263.049693938467
1.04090023804371,502.196107440808,513.86416632083,11.6680588800219,-508.030136880819,245.264024280393,262.766112600426
1.04306427180264,502.14312779748,513.900862633039,11.7577348355597,-508.021995215259,245.19269648096,262.829298734299
1.04522830556157,502.104460933899,513.657488996681,11.5530280627817,-507.88097496529,245.275716435559,262.605258529731
1.04739233932049,502.076240163708,513.750020471862,11.6737803081535,-507.913130317785,245.201229927777,262.711900390008
1.04955637307942,502.32579962176,513.817553994229,11.4917543724691,-508.071676807994,245.417022624645,262.654654183349
1.05172040683835,503.588563889474,513.866842916019,10.278279026545,-508.727703402747,246.655142431465,262.072560971282
1.05388444059727,504.780340758008,513.902816129411,9.12247537140371,-509.34157844371,247.828932693302,261.512645750408
1.0560484743562,506.190464126085,513.929070955745,7.73860682965949,-510.059767540915,249.225928648213,260.833838892702
1.05821250811513,506.679321483028,513.948232877652,7.26891139462458,-510.31377718034,249.705205044202,260.608572136138
1.06037654187405,508.386892047631,513.962218087325,5.57532603969378,-511.174555067478,251.405783003969,259.76877206351
1.06254057563298,509.633151816998,513.972425105731,4.33927328873244,-511.802788461365,252.646939264133,259.155849197232
1.06470460939191,510.542726768065,513.979874634709,3.43714786664435,-512.261300701387,253.55278945071,258.708511250677
1.06686864315083,511.47673060781,513.985311627159,2.50858101934904,-512.731021117484,254.48407479423,258.246946323254
1.06903267690976,512.428563720207,513.989279782324,1.56071606211697,-513.208921751266,255.433923829045,257.774997922221
1.07119671066869,513.663565628369,513.72201970385,0.0584540754816771,-513.692792666109,256.802555776443,256.890236889666
1.07336074442761,515.375392734982,513.797117807633,-1.57827492734873,-514.586255271307,258.476833831165,256.109421440142
1.07552477818654,517.435227750708,513.851927692179,-3.58330005852895,-515.643577721444,260.509263904619,255.134313816825
1.07768881194547,518.938585541505,513.891930345943,-5.04665519556215,-516.415257943724,261.992620368534,254.42263757519
1.07985284570439,519.225333250838,513.921126034301,-5.30420721653661,-516.57322964257,262.264770233687,254.308459408882
1.08201687946332,519.704770497126,513.94243432609,-5.7623361710364,-516.823602411608,262.733553334081,254.090049077527
1.08418091322225,519.244216157512,513.957986050487,-5.28623010702483,-516.601101104,262.265223132268,254.335877971731
1.08634494698117,519.988708281136,513.969336379933,-6.01937190120236,-516.979022330534,263.004040091169,253.974982239365
1.0885089807401,521.072383656616,513.977620347373,-7.09476330924326,-517.525002001994,264.08357348293,253.441428519065
1.09067301449903,522.943922245245,513.713510137678,-9.23041210756685,-518.328716191461,266.087167176406,252.241549015056
1.09283704825795,526.200946541499,513.790907153623,-12.4100393878769,-519.995926847561,269.305492964688,250.690433882873
1.09500108201688,528.037753068161,513.847394884929,-14.1903581832314,-520.942573976545,271.114055625696,249.828518350849
1.09716511577581,529.108178689767,513.888622104729,-15.2195565850375,-521.498400397248,272.163867637402,249.334532759846
1.09932914953473,529.619265968477,513.918711535002,-15.7005544334756,-521.768988751739,272.659910200976,249.109078550763
1.10149318329366,530.262436055907,513.940672118775,-16.3217639371329,-522.101554087341,273.29209999652,248.809454090821
1.10365721705259,529.651224901442,513.956699914425,-15.6945249870168,-521.803962407933,272.672874944229,249.131087463704
1.10582125081151,529.475292448992,513.968397701517,-15.5068947474742,-521.721845075255,272.491093598233,249.230751477022
1.10798528457044,529.617045453313,513.976935258762,-15.6401101945506,-521.796990356037,272.628577823932,249.168412532106
1.11014931832937,531.071284062323,513.983166341883,-17.0881177204402,-522.527225202103,274.079700891382,248.447524310721
1.11231335208829,532.672963501309,513.987714059192,-18.6852494421172,-523.33033878025,275.679106471713,247.651232308537
1.11447738584722,534.65240792604,513.99103318242,-20.6613747436209,-524.32172055423,277.656891334831,246.664829219399
1.11664141960615,537.447874202734,513.99345562389,-23.4544185788448,-525.720664913312,280.45114639079,245.269518522522
1.11880545336507,538.947815475958,513.995223627749,-24.9525918482097,-526.471519551854,281.950203662084,244.521315889769
1.120969487124,539.232069661163,513.996513994383,-25.2355556667808,-526.614291827773,282.233812663972,244.380479163801
1.12313352088293,539.169374600613,513.997455760455,-25.1719188401584,-526.583415180534,282.170646720386,244.412768460148
1.12529755464185,538.583304576381,513.998143102572,-24.5851614738085,-526.290723839477,281.584233025095,244.706490814382
1.12746158840078,538.155565009787,513.998644754947,-24.1569202548395,-526.077104882367,281.156242632313,244.920862250054
1.12962562215971,538.383694367915,513.999010882817,-24.3846834850978,-526.191352625366,281.384188926506,244.80716369886
1.13178965591863,538.280036950962,513.999278098968,-24.2807588519942,-526.139657524965,281.280397901478,244.859259623487
1.13395368967756,538.474539440978,513.729316913145,-24.7452225278333,-526.101928177061,281.609880984406,244.492047192656
1.13611772343649,539.156808298835,513.802443630507,-25.3543646683273,-526.479625964671,282.255586483581,244.22403948109
1.13828175719541,539.114445562831,513.855814710921,-25.2586308519109,-526.485130136876,282.186538207371,244.298591929505
1.14044579095434,537.732746323753,513.894767262426,-23.8379790613274,-525.81375679309,280.78536269254,245.028394100549
1.14260982471327,535.373540657692,513.923196540174,-21.4503441175183,-524.648368598933,278.411942387605,246.236426211328
1.14477385847219,532.571064209914,513.943945471939,-18.6271187379745,-523.257504840926,275.599091473944,247.658413366982
1.14693789223112,530.525694183126,513.959088950898,-16.5666052322281,-522.242391567012,273.546149707677,248.696241859335
1.14910192599005,528.492581150908,513.970141324947,-14.5224398259612,-521.231361237928,271.507510488435,249.723850749493
1.15126595974897,526.73857002191,513.978207831491,-12.7603621904188,-520.3583889267,269.749466106164,250.608922820536
1.1534299935079,525.458415895102,513.984095121184,-11.4743207739183,-519.721255508143,268.46636833451,251.254887173633
1.15559402726683,524.794259569676,513.988391922995,-10.8058676466812,-519.391325746336,267.800063608179,251.591262138157
1.15775806102575,524.039372989346,513.991527917106,-10.0478450722406,-519.015450453226,267.043609030794,251.971841422433
1.15992209478468,522.677955072336,513.993816702927,-8.68413836940908,-518.335885887632,265.681046720873,252.654839166759
1.16208612854361,520.333551603202,513.72533094717,-6.60822065603202,-517.029441275186,263.470886129617,253.558555145569
1.16425016230253,517.812034658772,513.799534498001,-4.01250016077154,-515.805784578386,260.912267409772,254.893517168615
1.16641419606146,515.161252544605,513.853691498632,-1.30756104597333,-514.507472021618,258.234406795289,256.273065226329
1.16857822982039,513.49675189677,513.893217649126,0.39646575235588,-513.694984772948,256.550143072207,257.144841700741
1.17074226357931,511.471457802997,513.922065564533,2.45060776153576,-512.696761683765,254.510425020731,258.186336663034
1.17290629733824,508.642528430166,513.943120036393,5.30059160622733,-511.292824233279,251.670968411969,259.62185582131
1.17507033109717,505.497227052864,513.958486511892,8.46125945902827,-509.727856782378,248.517983796918,261.20987298546
1.17723436485609,502.391179745234,513.969701638581,11.578521893347,-508.180440691908,245.406328925944,262.774111765964
1.17939839861502,500.124250412128,513.977886929128,13.8536365170004,-507.051068670628,243.135306947564,263.915761723064
1.18156243237394,497.929433696491,513.983860912588,16.0544272160971,-505.956647304539,240.937503240197,265.019144064342
1.18372646613287,496.867872774246,513.988220987306,17.1203482130602,-505.428046880776,239.873762280593,265.554284600183
1.1858904998918,494.742318070068,513.991403160755,19.2490850906875,-504.366860615411,237.74661648969,266.620244125721
1.18805453365072,493.190995172896,513.99372565028,20.8027304773834,-503.592360411588,236.194132347756,267.398228063831
1.19021856740965,492.058771793014,513.995420704832,21.9366489118178,-503.027096248923,235.061061440598,267.966034808325
1.19238260116858,490.962269380562,513.996657829868,23.0343884493057,-502.479463605215,233.963940465628,268.515523139587
1.1945466349275,489.621681482423,513.99756073789,24.3758792554673,-501.809621110156,232.622901113478,269.186719996679
1.19671066868643,488.373105520654,513.998219719701,25.6251141990473,-501.185662620178,231.373995660803,269.811666959374
1.19887470244536,487.461840110951,513.998700673483,26.5368605625321,-500.730270392217,230.462489774209,270.267780618008
1.20103873620428,487.066914924214,513.999051694613,26.9321367703985,-500.532983309414,230.067389076908,270.465594232506
1.20320276996321,486.778681229899,513.729151673332,26.9504704434329,-500.253916451616,229.914105393233,270.339811058383
1.20536680372214,487.378784294189,513.802323031257,26.4235387370675,-500.590553662723,230.477622778561,270.112930884162
1.20753083748106,488.086921999769,513.855726692307,25.7688046925372,-500.971324346038,231.159058653616,269.812265692422
1.20969487123999,488.333595693455,513.894703022587,25.5611073291322,-501.114149358021,231.386244182161,269.72790517586
1.21185890499892,487.703160320871,513.923149655127,26.2199893342554,-500.813154987999,230.741585493308,270.071569494691
1.21402293875784,486.702728556631,513.673755041307,26.9710264846757,-500.188241798969,229.865851035978,270.322390762991
1.21618697251677,485.972569648055,513.76189214349,27.7893224954352,-499.867230895772,229.09162357631,270.775607319462
1.2183510062757,484.89935528054,513.826218460021,28.9268631794816,-499.362786870281,227.986246050529,271.376540819752
1.22051504003462,484.116076441079,513.873166622555,29.7570901814761,-498.994621531817,227.179493129802,271.815128402016
1.22267907379355,483.274249033855,513.907431447345,30.6331824134899,-498.5908402406,226.320533310182,272.270306930417
1.22484310755248,482.119534106273,513.932439416868,31.8129053105959,-498.02598676157,225.153314397838,272.872672363732
1.2270071413114,481.817085013061,513.950691328079,32.1336063150183,-497.88388817057,224.841739349021,273.042148821549
1.22917117507033,481.326188209284,513.693856160226,32.3676679509424,-497.510022184755,224.479260129171,273.030762055584
1.23133520882926,482.048535073921,513.776562820267,31.7280277463458,-497.912548947094,225.160253663788,272.752295283306
1.23349924258818,482.305579234079,513.836925762335,31.5313465282557,-498.071252498207,225.387116352912,272.684136145295
1.23566327634711,482.763337529517,513.610825068765,30.8474875392477,-498.187081299141,225.957924995135,272.229156304006
1.23782731010604,483.097429577907,513.715963093943,30.6185335160361,-498.406696335925,226.239448030935,272.167248304989
1.23999134386496,482.800952160344,513.792697428515,30.9917452681714,-498.296824794429,225.904603446086,272.392221348343
1.24215537762389,482.314413746943,513.848701505939,31.5342877589956,-498.081557626441,225.390062993974,272.691494632467
1.24431941138282,482.229472920109,513.889575733956,31.6601028138476,-498.059524327032,225.28468505313,272.774839273902
1.24648344514174,482.437635597157,513.919407535369,31.4817719382127,-498.178521566263,225.477931829472,272.700589736791
1.24864747890067,483.670186681407,513.941180090319,30.2709934089126,-498.805683385863,226.699596636247,272.106086749616
1.2508115126596,485.380225069413,513.957070654301,28.5768455848888,-499.668647861857,228.401689742262,271.266958119595
1.25297554641852,487.168598388103,513.968668283713,26.8000698956105,-500.568633335908,230.184264246246,270.384369089662
1.25513958017745,488.743987757475,513.977132741497,25.2331449840215,-501.360560249486,231.755421386727,269.605138862759
1.25730361393638,489.08330726698,513.98331047343,24.9000032064498,-501.533308870205,232.091652030265,269.44165683994
1.2594676476953,489.871269926926,513.987819252706,24.1165493257797,-501.929544589816,232.877360300573,269.052184289243
1.26163168145423,490.446359579565,513.991109957253,23.5447503776875,-502.218734768409,233.450804600939,268.76793016747
1.26379571521316,490.055616554546,513.993511657525,23.9378951029791,-502.024564106035,233.058860725783,268.965703380252
1.26595974897208,488.689810337494,513.725108311677,25.0352979741835,-501.207459324586,231.827256181655,269.38020314293
1.26812378273101,488.503453789807,513.79937200887,25.295918219063,-501.151412899338,231.603767785372,269.547645113966
1.27028781648994,488.3674426211,513.853572906949,25.4861302858488,-501.110507764025,231.440656167626,269.669851596399
1.27245185024886,488.538331926375,513.893131095723,25.3547991693478,-501.215731511049,231.591766378514,269.623965132535
1.27461588400779,488.933210636159,513.922002394069,24.9887917579099,-501.427606515114,231.972209439125,269.45539707599
1.27677991776672,488.951254197688,513.672917719951,24.7216635222631,-501.312085958819,232.114795337712,269.197290621107
1.27894395152564,490.315204238343,513.761281029699,23.446076791356,-502.038242634021,233.434563723494,268.603678910528
1.28110798528457,491.310674702833,513.825772442418,22.5150977395845,-502.568223572625,234.397788481624,268.170435091001
1.2832720190435,492.307368849478,513.872841099378,21.5654722498998,-503.090104974428,235.370948299789,267.719156674639
1.28543605280242,493.304956092942,513.907193866276,20.6022377733334,-503.606074979609,236.351359159804,267.254715819805
1.28760008656135,494.303195157572,513.662109807929,19.358914650357,-503.982652482751,237.472140253608,266.510512229143
1.28976412032028,493.951128890473,513.483236730376,19.5321078399029,-503.717182810425,237.209510525285,266.50767228514
1.2919281540792,493.964331724293,513.622843537732,19.6585118134392,-503.793587631013,237.152909955427,266.640677675586
1.29409218783813,493.70381151867,513.724734698861,20.0209231801911,-503.714273108766,236.84144416924,266.872828939526
1.29625622159706,492.7032038293,513.528943118005,20.8257392887053,-503.116073473652,235.938732270297,267.177341203355
1.29842025535598,492.243072734731,513.656202060821,21.41312932609,-502.949637397776,235.41497170432,267.534665693455
1.30058428911491,491.907248913635,513.749081209719,21.8418322960838,-502.828165061677,235.032708308776,267.795456752901
1.30274832287384,492.742774831389,513.816868479589,21.0740936481993,-503.279821655489,235.834340591595,267.445481063894
1.30491235663276,494.163046867897,513.866342597417,19.7032957295198,-504.014694732657,237.229875569189,266.784819163468
1.30707639039169,495.739936014939,513.632294763116,17.8923587481774,-504.686115389027,238.923788633381,265.762326755647
1.30924042415062,496.620662551602,513.731632616998,17.110970065396,-505.1761475843,239.754846243103,265.421301341197
1.31140445790954,496.993299131554,513.80413373258,16.8108346010258,-505.398716432067,240.091232265264,265.307484166803
1.31356849166847,496.99510941279,513.857048221419,16.8619388086299,-505.426078817104,240.06658530208,265.359493515025
1.3157325254274,496.726274423432,513.895667532401,17.1693931089686,-505.310970977917,239.778440657232,265.532530320685
1.31789655918632,495.989754452675,513.653697384751,17.6639429320757,-504.821725918713,239.1629057603,265.658820158413
1.32006059294525,495.452209927186,513.747253187448,18.2950432602621,-504.599731557317,238.578583333462,266.021148223855
1.32222462670418,495.600198818158,513.545378097018,17.9451792788598,-504.572788457588,238.827509769649,265.745278687939
1.3243886604631,497.329144862176,513.668197028161,16.3390521659852,-505.498670945169,240.495046348096,265.003624597073
1.32655269422203,498.591005392412,513.757835662121,15.1668302697092,-506.174420527267,241.712087561351,264.462332965915
1.32871672798096,499.511966461889,513.823257862293,14.3112914004041,-506.667612162091,242.600337530742,264.067274631348
1.33088076173988,499.913967965683,513.871005848694,13.9570378830111,-506.892486907188,242.978465041336,263.914021865853
1.33304479549881,500.207366266045,513.905854419964,13.6984881539192,-507.056610343005,243.254439056063,263.802171286942
1.33520882925774,499.611032557397,513.66113222136,14.0500996639624,-506.636082389378,242.780466446717,263.855615942661
1.33737286301666,499.716114528232,513.752679456762,14.0365649285303,-506.734396992497,242.839774799851,263.894622192646
1.33953689677559,499.522651740019,513.819494637842,14.2968428978228,-506.67107318893,242.612904421098,264.058168767832
1.34170093053452,498.841141702064,513.868259282705,15.0271175806409,-506.354700492384,241.907012060711,264.447688431673
1.34386496429344,498.613902046187,513.903849855839,15.2899478096515,-506.258875951013,241.661977118268,264.596898832745
1.34602899805237,498.718208806801,513.929825414556,15.2116166077556,-506.324017110678,241.753296099522,264.570721011156
1.3481930318113,499.064492659966,513.948783514729,14.8842908547637,-506.506638087348,242.090100902601,264.416537184747
1.35035706557022,499.047069567256,513.962619966375,14.9155503991196,-506.504844766816,242.065759584068,264.439085182747
1.35252109932915,499.034353431272,513.972718414659,14.9383649833875,-506.503535922965,242.047994223942,264.455541699023
1.35468513308808,499.025072638414,513.980088704409,14.9550160659942,-506.502580671412,242.03502828621,264.467552385201
1.356849166847,499.558611533142,513.985467864599,14.426856331457,-506.772039698871,242.565877600843,264.206162098028
1.35901320060593,499.677855369312,513.989393811249,14.3115384419371,-506.833624590281,242.683158463688,264.150466126593
1.36117723436486,499.764884742414,513.992259139025,14.2273743966109,-506.878571940719,242.768755172901,264.109816767818
1.36334126812378,500.638871225371,513.994350380702,13.355479155331,-507.316610803037,243.64169603502,263.674914768017
1.36550530188271,501.006588618994,513.99587666045,12.9892880414557,-507.501232639722,244.008650288769,263.492582350953
1.36766933564164,501.004808662645,513.996990606243,12.9921819435978,-507.500899634444,244.006313359524,263.49458627492
1.36983336940056,500.463197148818,513.997803612661,13.5346064638429,-507.230500380739,243.464295342487,263.766205038252
1.37199740315949,499.527592926128,513.998396980344,14.4708040542156,-506.762994953236,242.528394435956,264.23460051728
1.37416143691842,498.844747996052,513.998830046062,15.1540820500099,-506.421789021057,241.845332973021,264.576456048036
1.37632547067734,498.616534077452,513.999146116386,15.3826120389335,-506.307840096919,241.616961019259,264.69087907766
1.37848950443627,497.909661142855,513.999376798348,16.0897156554936,-505.954518970602,240.909972743681,265.044546226921
1.3806535381952,497.123598110671,513.999545160146,16.8759470494749,-505.561571635408,240.123825530598,265.43774610481
1.38281757195412,495.469270042068,513.999668037958,18.5303979958901,-504.734469040013,238.469436023089,266.265033016924
1.38498160571305,494.532025189543,513.999757719566,19.4677325300227,-504.265891454554,237.53214632976,266.733745124794
1.38714563947198,493.577826644101,513.729666961258,20.1518403171575,-503.65374680268,236.712993163472,266.940753639208
1.3893096732309,493.15156697494,513.802699110949,20.6511321360081,-503.477133042945,236.250217419466,267.226915623478
1.39147370698983,494.461401274504,513.856001171734,19.3945998972297,-504.158701223119,237.533400688637,266.625300534482
1.39363774074876,496.227844337133,513.894903349692,17.6670590125594,-505.061373843412,239.280392662287,265.780981181126
1.39580177450768,497.517071833475,513.92329586262,16.4062240291449,-505.720183848047,240.555423902165,265.164759945882
1.39796580826661,497.917694089421,513.944017961809,16.0263238723883,-505.930856025615,240.945685108516,264.985170917099
1.40012984202554,498.210085754309,513.95914185718,15.7490561028704,-506.084613805744,241.230514825719,264.854098980025
1.40229387578446,497.342861147142,513.970179938268,16.6273187911262,-505.656520542705,240.357771178008,265.298749364697
1.40445790954339,497.520391290304,513.978236013183,16.4578447228797,-505.749313651744,240.531273283712,265.218040368032
1.40662194330232,497.649960562496,513.984115689417,16.334155126921,-505.817038125956,240.657902717787,265.159135408169
1.40878597706124,497.744525890938,513.988406934592,16.2438810436545,-505.866466412765,240.750322423642,265.116143989123
1.41095001082017,497.813543808473,513.991538873227,16.1779950647535,-505.90254134085,240.81777437186,265.08476696899
1.4131140445791,498.674384742471,513.993824699184,15.3194399567129,-506.334104720828,241.677472392879,264.656632327948
1.41527807833802,499.302664150716,513.725336783188,14.4226726324719,-506.514000466952,242.439995759122,264.07400470783
1.41744211209695,499.220897550289,513.799538757382,14.5786412070931,-506.510218153836,242.321128171598,264.189089982238
1.41960614585588,499.431376916763,513.853694607315,14.422317690552,-506.642535762039,242.504529613105,264.138006148934
1.4217701796148,499.855150186785,513.893219917979,14.0380697311945,-506.874185052382,242.908540227795,263.965644824587
1.42393421337373,500.164438475485,513.922067220441,13.7576287449563,-507.043252847963,243.203404865264,263.839847982699
1.42609824713266,499.039389552375,513.943121244948,14.9037316925721,-506.491255398661,242.067828929902,264.42342646876
1.42826228089158,499.028748220118,513.958487393948,14.9297391738301,-506.493617807033,242.049504523144,264.444113283889
1.43042631465051,499.561294133616,513.969702282344,14.4084081487278,-506.76549820798,242.576442992444,264.189055215536
1.43259034840944,499.679813248604,513.977887398974,14.29807415037,-506.828850323789,242.690869549117,264.137980774672
1.43475438216836,500.576782324068,513.983861255502,13.4070789314342,-507.280321789785,243.584851696317,263.695470093468
1.43691841592729,502.582210691296,513.98822123758,11.4060105462837,-508.285215964438,245.588100072506,262.697115891932
1.43908244968622,504.045860127654,513.991403343416,9.94554321576146,-509.018631735535,247.050158455946,261.968473279589
1.44124648344514,505.114095576778,513.993725783593,8.87963020681548,-509.553910680186,248.117232684981,261.436677995204
1.44341051720407,505.353428159836,513.725264590259,8.37183643042266,-509.539346375047,248.490795864707,261.048550510341
1.44557455096299,505.528103558878,513.799486067821,8.27138250894382,-509.663794813349,248.628360524967,261.035434288383
1.44773858472192,505.115276890064,513.853656152166,8.73837926210257,-509.484466521115,248.188448813981,261.296017707134
1.44990261848085,505.084134122128,513.623035639856,8.53890151772839,-509.353584880992,248.2726163022,261.080968578792
1.45206665223977,506.142029613891,513.724874903403,7.58284528951202,-509.933452258647,249.27959216219,260.653860096458
1.4542306859987,507.454440490787,513.529045445419,6.07460495463198,-510.491742968103,250.689917768077,259.801825200025
1.45639471975763,509.76307647612,513.386120531977,3.62304405585689,-511.574598504048,253.070016210131,258.504582293917
1.45855875351655,510.367395261578,513.551963883604,3.18456862202584,-511.959679572591,253.591413319776,258.368266252815
1.46072278727548,511.348765996937,513.673003623591,2.32423762665411,-512.510884810264,254.512264185141,257.998620625122
1.46288682103441,512.335169543861,513.761343725937,1.42617418207612,-513.048256634899,255.454497680893,257.593758954007
1.46505085479333,513.055090045172,513.825818200878,0.770728155705683,-513.440454123025,256.142180944733,257.298273178292
1.46721488855226,512.770050915385,513.872874495906,1.10282358052075,-513.321462705645,255.833613667432,257.487849038213
1.46937892231119,512.021704453393,513.907218240524,1.88551378713112,-512.964461346958,255.068095333131,257.896366013828
1.47154295607011,512.556153284227,513.662127597323,1.10597431309645,-513.109140440775,255.725089485565,257.38405095521
1.47370698982904,513.216373655355,513.753405925726,0.537032270371355,-513.484889790541,256.339670692492,257.145219098049
1.47587102358797,514.238543815762,513.820024846702,-0.41851896905996,-514.029284331232,257.328531392411,256.700752938821
1.47803505734689,513.903943510259,513.868646252348,-0.0352972579106563,-513.886294881303,256.969620384085,256.916674497219
1.48019909110582,513.929893767653,513.904132283229,-0.0257614844241516,-513.917013025441,256.977827626039,256.939185399402
1.48236312486475,513.408520978069,513.930031542433,0.521510564363325,-513.669276260251,256.443505206853,257.225771053398
1.48452715862367,513.028000286292,513.948933955879,0.920933669587157,-513.488467121086,256.053533308353,257.434933812733
1.4866911923826,511.93981098753,513.962729764914,2.02291877738469,-512.951270376222,254.958446105072,257.99282427115
1.48885522614153,511.14560278752,513.972798550441,2.82719576292061,-512.55920066898,254.1592035123,258.399997156681
1.49101925990045,510.295798654391,513.980147191011,3.68434853662029,-512.137972922701,253.305725058885,258.832247863816
1.49318329365938,509.135261962957,513.985510550683,4.85024858772528,-511.56038625682,252.142506687616,259.417879569204
1.49534732741831,507.747939044076,513.989424965422,6.24148592134605,-510.868682004749,250.753226561365,260.115455443384
1.49751136117723,506.735410029603,513.992281876704,7.25687184710142,-510.363845953153,249.739269091251,260.624576861903
1.49967539493616,505.99642201809,513.994366975656,7.99794495756692,-509.995394496873,248.999238530261,260.996155966612
1.50183942869509,504.916763784642,513.725732560303,8.80896877566079,-509.321248172472,248.053897504491,261.267350667982
1.50400346245401,502.778000870301,513.52967140098,10.751670530679,-508.15383613564,246.013165169811,262.140670965829
1.50616749621294,501.757350466732,513.656733593626,11.8993831268933,-507.707042030179,244.92898366992,262.77805836026
1.50833152997187,500.201966474223,513.479312933763,13.2773464595404,-506.840639703993,243.462310007341,263.378329696652
1.51049556373079,499.066779129135,513.619979779148,14.5532006500132,-506.343379454142,242.256789239561,264.086590214581
1.51265959748972,497.427801061346,513.722644602448,16.2948435411022,-505.575222831897,240.566478760122,265.008744071775
1.51482363124865,495.421134464077,513.527417674121,18.1062832100447,-504.474276069099,238.657425627016,265.816850442083
1.51698766500757,494.496893736958,513.655088725078,19.15819498812,-504.075991231018,237.669349374419,266.406641856599
1.5191516987665,494.362654807279,513.748268648543,19.3856138412641,-504.055461727911,237.488520483007,266.566941244903
1.52131573252543,494.264681358327,513.816275436862,19.5515940785345,-504.040478397595,237.356543639896,266.683934757698
1.52347976628435,494.193176045209,513.865909768867,19.6727337236584,-504.029542907038,237.260221160775,266.769321746263
1.52564380004328,494.411144548482,513.902135077759,19.4909905292765,-504.156639813121,237.460077009603,266.696562803518
1.52780783380221,494.300071294733,513.928573894427,19.628502599694,-504.11432259458,237.335784347519,266.77853824706
1.52997186756113,494.219005170456,513.947870100537,19.7288649300808,-504.083437635497,237.245070120188,266.838367515309
1.53213590132006,493.349370927611,513.961953316701,20.6125823890907,-503.655662122156,236.36839426926,267.287267852896
1.53429993507899,492.174361353783,513.702075652664,21.5277142988812,-502.938218503223,235.323323527451,267.614894975773
1.53646396883791,490.77647549159,513.782561765765,23.0060862741748,-502.279518628677,233.885194608707,268.39432401997
1.53862800259684,489.215924754812,513.841304055442,24.6253793006291,-501.528614405127,232.295272727092,269.233341678035
1.54079203635577,488.887435129131,513.884176750663,24.9967416215314,-501.385805939897,231.9453467538,269.440459186097
1.54295607011469,489.458157651978,513.91546712095,24.4573094689721,-501.686812386464,232.500424091503,269.186388294961
1.54512010387362,490.415008363766,513.938304203333,23.5232958395666,-502.17665628355,233.4458562621,268.73080002145
1.54728413763255,491.923828547546,513.954971706049,22.0311431585028,-502.939400126798,234.946342694522,267.993057432276
1.54944817139147,493.295187797952,513.96713637937,20.6719485814177,-503.631162088661,236.311619608267,267.319542480394
1.5516122051504,494.296065828153,513.976014690628,19.6799488624744,-504.13604025939,237.308058482839,266.827981776551
1.55377623890933,494.486238017426,513.982494470948,19.4962564535219,-504.234366244187,237.494990781952,266.739375462235
1.55594027266825,493.814565372827,513.987223698364,20.1726583255365,-503.900894535595,236.820953523645,267.07994101195
1.55810430642718,492.513880629896,513.990675295615,21.4767946657196,-503.252277962756,235.518542982088,267.733734980668
1.56026834018611,490.213802890596,513.723038210557,23.5092353199614,-501.968420550577,233.352283785317,268.616136765259
1.56243237394503,488.264949228484,513.797861158426,25.5329119299425,-501.031405193455,231.366018649271,269.665386544184
1.56459640770396,485.761965641733,513.852470222138,28.0905045804045,-499.807217931936,228.835730530664,270.971487401271
1.56676044146289,483.665022407285,513.892326308064,30.2273039007786,-498.778674357674,226.718859253253,272.059815104421
1.56892447522181,481.32411277795,513.651258812924,32.3271460349737,-497.487685795437,224.498483371488,272.989202423949
1.57108850898074,480.696239273897,513.745473410948,33.0492341370513,-497.220856342422,223.823502568423,273.397353774
1.57325254273967,480.237989697233,513.273922926324,33.0359332290907,-496.755956311778,223.601028234071,273.154928077707
1.57541657649859,480.714007725907,513.199920946203,32.485913220296,-496.956964336055,224.114047252806,272.84291708325
1.57758061025752,480.791270315301,513.416067272575,32.6247969572742,-497.103668793938,224.083236679013,273.020432114924
1.57974464401645,480.307347512481,513.573820326204,33.266472813723,-496.940583919342,223.520437349379,273.420146569963
1.58190867777537,480.224315672781,513.418799200582,33.1944835278009,-496.821557436681,223.51491607249,273.306641364191
1.5840727115343,482.05480888346,513.305657995018,31.2508491115572,-497.680233439239,225.401979885952,272.278253553287
1.58623674529323,487.172969948689,513.493238800827,26.320268852138,-500.333104374758,230.426350548276,269.906753826482
1.58840077905215,496.041396034348,513.630143486719,17.5887474523714,-504.835769760533,239.226324290988,265.609445469545
1.59056481281108,510.348491867719,513.730062521283,3.38157065356421,-512.039277194501,253.483460607077,258.555816587424
1.59272884657001,528.62496703214,513.802987807975,-14.8219792241641,-521.213977420058,271.723473128152,249.490504291906
1.59489288032893,550.338781467795,514.396524299209,-35.9422571685865,-532.367652883502,293.140519318191,239.227133565311
1.59705691408786,573.750847982636,515.099869432234,-58.6509785504019,-544.425358707435,316.200913266519,228.224445440916
1.59922094784679,598.132217016275,515.883357720355,-82.2488592959201,-557.007787368315,340.190538156098,216.817249212218
1.60138498160571,620.789619565231,516.725337992383,-104.064281572848,-568.757478778807,362.42695056904,206.330528209767
1.60354901536464,640.297702401298,517.339852063649,-122.957850337649,-578.818777232474,381.627776369474,197.191000863
1.60571304912357,652.644461994394,517.78835134128,-134.856110653114,-585.216406667837,393.750286323754,191.466120344083
1.60787708288249,658.683949456341,517.845529541168,-140.838419915174,-588.264739498754,399.761184685757,188.503554812997
1.61004111664142,657.418551414618,517.887260695172,-139.531290719446,-587.652906054895,398.474921067032,189.177984987863
1.61220515040035,649.741103217565,517.647561706822,-132.093541510744,-583.694332462193,390.917322364154,192.777010098039
1.61436918415927,636.573391409863,517.202462677282,-119.370928732581,-576.887927043572,377.972160071222,198.91576697235
1.6165332179182,619.398644810741,516.607453703599,-102.791191107142,-568.00304925717,361.094917958942,206.908131298228
1.61869725167713,600.380013607774,515.903033888404,-84.4769797193703,-558.141523748089,342.428496663572,215.713027084517
1.62086128543605,579.745478468793,515.388917462049,-64.3565610067442,-547.567197965421,322.051019737769,225.516178227653
1.62302531919498,559.822679363002,514.743536570028,-45.0791427929744,-537.283107966515,302.450911077988,234.832196888527
1.62518935295391,542.310429862924,514.27250933501,-28.037920527914,-528.291469598967,285.174175195419,243.117294403548
1.62735338671283,527.908286077907,514.198889245364,-13.7093968325436,-521.053587661635,270.808841455225,250.24474620641
1.62951742047176,516.856658476938,514.145158080254,-2.71150039668419,-515.500908278596,259.784079436811,255.716828841785
1.63168145423069,509.060852935535,513.835786511298,4.7749335757635,-511.448319723417,252.142959679886,259.305360043531
1.63384548798961,503.911445111428,513.880149805344,9.96870469391598,-508.895797458386,246.971370208756,261.92442724963
1.63600952174854,499.883025586593,513.912528079925,14.0295024933317,-506.897776833259,242.926761546631,263.971015286628
1.63817355550747,496.402596196674,513.666002950626,17.2634067539522,-505.03429957365,239.569594721361,265.464704852289
1.64033758926639,493.322114002678,513.756234328261,20.4341203255828,-503.53917416547,236.443996838548,267.095177326922
1.64250162302532,489.452905937721,513.822089138722,24.3691832010015,-501.637497538222,232.54186136836,269.095636169862
1.64466565678425,486.088676042792,513.599996651184,27.5113206083921,-499.844336346988,229.2886777172,270.555658629788
1.64682969054317,483.633313752143,513.437903828765,29.8045900766218,-498.535608790454,226.914361837761,271.621246952693
1.6489937243021,481.300970412965,513.589757601093,32.2887871881285,-497.445364007029,224.506091612418,272.939272394611
1.65115775806103,479.05841169134,513.700587133531,34.6421754421914,-496.379499412435,222.208118124574,274.171381287861
1.65332179181995,477.962006562592,513.781475379322,35.8194688167303,-495.871740970957,221.071268872931,274.800472098026
1.65548582557888,476.891645878231,513.840511163045,36.9488652848137,-495.366078520638,219.971390296709,275.394688223929
1.65764985933781,476.110449781694,513.883598063073,37.7731482813784,-494.997023922383,219.168650750158,275.828373172225
1.65981389309673,475.270142451455,513.915044769407,38.6449023179527,-494.592593610431,218.312620066751,276.27997354368
1.66197792685566,473.846380730746,513.937995952683,40.0916152219372,-493.892188341714,216.877382754404,277.01480558731
1.66414196061459,471.996788447496,513.954746731227,41.9579582837303,-492.975767589362,215.019415081883,277.956352507479
1.66630599437351,470.376718797125,513.966972182893,43.5902533857682,-492.171845490009,213.393232705678,278.778612784331
1.66847002813244,470.274945873953,513.975894852849,43.7009489788963,-492.125420363401,213.286998447528,278.838421915873
1.67063406189137,471.551448597534,513.712250796219,42.1608021986842,-492.631849696876,214.695323199425,277.936526497451
1.67279809565029,473.023408604612,513.789988031081,40.7665794264688,-493.406698317847,216.128414589072,277.278283728775
1.67496212940922,474.638021895895,513.846724069052,39.2087021731571,-494.242372982474,217.714659861369,276.527713121105
1.67712616316815,475.276124953024,513.617976302056,38.3418513490327,-494.44705062754,218.467136801996,275.979913825544
1.67929019692707,476.011996717327,513.451026165266,37.4390294479398,-494.731511441296,219.286483634693,275.445027806603
1.681454230686,476.27891194149,513.329178645003,37.0502667035126,-494.804045293247,219.614322618989,275.189722674258
1.68361826444493,475.122937300445,513.24024898924,38.1173116887949,-494.181593144843,218.502812805825,275.678780339017
1.68578229820385,474.009100177573,513.175344232401,39.1662440548284,-493.592222204987,217.421428061372,276.170794143615
1.68794633196278,473.736485496201,513.127973898802,39.3914884026013,-493.432229697501,217.1724985468,276.259731150702
1.69011036572171,473.80767557632,513.363557166955,39.5558815906346,-493.585616371638,217.125896992843,276.459719378795
1.69227439948063,474.399945637815,513.265339939932,38.8653943021163,-493.832642788873,217.76727566785,276.065367121024
1.69443843323956,474.832210263092,513.463812918773,38.6316026556812,-494.148011590932,218.100303803705,276.047707787227
1.69660246699849,474.607383490934,513.608667189492,39.0012836985576,-494.108025340213,217.803049896188,276.304975444025
1.69876650075741,476.0642323391,513.71438817916,37.6501558400599,-494.88931025913,219.20703824952,275.68227200961
1.70093053451634,477.667816844919,513.791547986744,36.1237311418249,-495.729682415831,220.772042851547,274.957639564284
1.70309456827526,478.83818303523,513.847862593002,35.0096795577723,-496.343022814116,221.914251738729,274.428771075387
1.70525860203419,479.422211317192,513.888963458561,34.4667521413686,-496.655587387876,222.477729587912,274.177857799965
1.70742263579312,479.30814830713,513.918960669975,34.6108123628451,-496.613554488553,222.348667972142,274.26488651641
1.70958666955204,478.954743915909,513.940853948387,34.9861100324778,-496.447798932148,221.984316941716,274.463481990433
1.71175070331097,478.966970128152,513.956832621638,34.9898624934866,-496.461901374895,221.988553817332,274.473347557562
1.7139147370699,478.435580929465,513.968494557053,35.5329136275873,-496.202037743259,221.451333650939,274.75070409232
1.71607877082882,478.588062247469,513.977005948173,35.3889437007036,-496.282534097821,221.599559273383,274.682974824438
1.71824280458775,478.969506002091,513.713061722238,34.7435557201468,-496.341283862165,222.112975140972,274.228308721193
1.72040683834668,480.328525204409,513.790579880399,33.4620546759899,-497.059552542404,223.43323526421,273.626317278195
1.7225708721056,480.239772079682,513.8471560266,33.6073839469185,-497.043464053141,223.316194066382,273.727269986759
1.72473490586453,479.634683739179,513.61829156359,33.9836078244106,-496.626487651384,222.825537957384,273.800949694
1.72689893962346,479.463219984466,513.72141246881,34.2581924843439,-496.592316226638,222.602513750061,273.989802476577
1.72906297338238,480.148546863814,513.796674620911,33.6481277570965,-496.972610742363,223.250209553359,273.722401189004
1.73122700714131,481.999509488902,513.581448023231,31.5819385343289,-497.790478756067,225.208785477287,272.58169327878
1.73339104090024,484.431047910367,513.694522439746,29.2634745293793,-499.062785175057,227.583786690494,271.478998484563
1.73555507465916,487.556472182227,513.777049100236,26.2205769180094,-500.666760641232,230.667947632109,269.998813009123
1.73771910841809,489.567387460438,513.83728067075,24.2698932103123,-501.702334065594,232.648747125063,269.053586940531
1.73988314217702,490.494729060949,513.881240308338,23.3865112473895,-502.187984684644,233.55410890678,268.633875777864
1.74204717593594,491.441699779427,513.913323976761,22.4716241973341,-502.677511878094,234.485037791046,268.192474087047
1.74421120969487,490.782059416489,513.666583830988,22.8845244144985,-502.224321623738,233.948767500995,268.275554122743
1.7463752434538,488.949843935842,513.756658280185,24.8068143443427,-501.353251108013,232.07151479575,269.281736312264
1.74853927721272,488.152925272522,513.8223985574,25.669473284878,-500.987661914961,231.241725993822,269.745935921139
1.75070331097165,488.111611560198,513.870378690356,25.7587671301578,-500.990995125277,231.17642221502,269.814572910257
1.75286734473058,488.621771427637,513.905396692347,25.28362526471,-501.263584059992,231.669073081464,269.594510978529
1.7550313784895,490.074733285327,513.930954363573,23.8562210782467,-502.00284382445,233.10925610354,268.89358772091
1.75719541224843,491.675480895292,513.949607471157,22.2741265758647,-502.812544183224,234.700677159714,268.111867023511
1.75935944600736,493.38408901853,513.963221325856,20.5791323073259,-503.673655172193,236.402478355602,267.271176816591
1.76152347976628,494.090793619877,513.97315731314,19.882363693263,-504.031975466509,237.104214963307,266.927760503202
1.76368751352521,494.876733795084,513.980409031739,19.1036752366547,-504.428571413411,237.886529279215,266.542042134197
1.76585154728414,495.450347349799,513.985701653511,18.5353543037119,-504.718024501655,238.457496523044,266.260527978611
1.76801558104306,496.139151851366,513.989564440634,17.8504125892686,-505.064358146,239.144369631049,265.919988514952
1.77017961480199,496.371715326198,513.992383671821,17.6206683456239,-505.18204949901,239.375523490287,265.806526008723
1.77234364856092,497.351918969264,513.994441270191,16.6425223009266,-505.673180119727,240.354698334169,265.318481785559
1.77450768231984,498.607626933,513.725786783707,15.1181598507071,-506.166706858354,241.744733541147,264.421973317207
1.77667171607877,499.794253801908,513.799867187466,14.0056133855581,-506.797060494687,242.894320208175,263.902740286512
1.7788357498377,500.390149839135,513.853934309971,13.4637844708367,-507.122042074553,243.463182684149,263.658859390404
1.78099978359662,501.63552949589,513.893394863474,12.257865367584,-507.764462179682,244.688832064153,263.075630115529
1.78316381735555,502.814618314106,513.922194903324,11.1075765892181,-508.368406608715,245.853520862444,262.514885746271
1.78532785111448,503.945325175604,513.943214433506,9.99788925790227,-508.944269804555,246.973717958851,261.970551845704
1.7874918848734,506.121345614021,513.958555407039,7.83720979301847,-510.03995051053,249.142067910501,260.897882600029
1.78965591863233,507.979656825711,513.969751921276,5.99009509556493,-510.974704373494,250.994780865073,259.97992350842
1.79181995239126,509.876246143716,513.977923627641,4.10167748392456,-511.927084885678,252.887284329896,259.039800555783
1.79398398615018,511.260460076092,513.983887696769,2.7234276206766,-512.622173886431,254.268516227708,258.353657658723
1.79614801990911,512.270720016078,513.988240535574,1.71752051949636,-513.129480275826,255.276599748291,257.852880527535
1.79831205366804,512.467739533928,513.991417427937,1.52367789400898,-513.229578480933,255.47203081996,257.757547660973
1.80047608742696,512.071220581428,513.993736063094,1.92251548166587,-513.032478322261,255.074352549881,257.95812577238
1.80264012118589,512.051979898942,513.99542830456,1.94344840561769,-513.023704101751,255.054265746662,257.969438355089
1.80480415494482,512.848405841965,513.996663376482,1.14825753451646,-513.422534609224,255.850074153724,257.572460455499
1.80696818870374,514.510297216672,513.997564786052,-0.512732430619735,-514.253931001362,257.511514823646,256.742416177716
1.80913222246267,515.723218313045,513.998222674227,-1.72499563881797,-514.860720493636,258.724106975932,256.136613517705
1.8112962562216,517.959242300082,513.998702829825,-3.96053947025632,-515.978972564953,260.959890885169,255.019081679784
1.81346028998052,520.401659152741,513.999053268406,-6.40260588433512,-517.200356210573,263.402132518538,253.798223692035
1.81562432373945,521.914085708803,513.999309033827,-7.91477667497577,-517.956697371315,264.914431191889,253.042266179426
1.81778835749838,522.477608412001,513.999495702631,-8.47811270937075,-518.238552057316,265.477860560686,252.76069149663
1.8199523912573,521.808267108914,513.729475729826,-8.07879137908776,-517.76887141937,264.943529244001,252.825342175369
1.82211642501623,521.589908728589,513.802559541876,-7.78734918671364,-517.696234135232,264.688628957651,253.007605177581
1.82428045877516,521.970853644867,513.855899308113,-8.11495433675418,-517.91337647649,265.04290399081,252.870472485679
1.82644449253408,522.248883925631,513.894829005161,-8.35405492047005,-518.071856465396,265.301469423051,252.770387042345
1.82860852629301,522.992115022702,513.923241602726,-9.06887341997628,-518.457678312714,266.030494221339,252.427184091375
1.83077256005194,524.345026257658,513.943978360562,-10.4010478970951,-519.14450230911,267.373037077376,251.771465231734
1.83293659381086,526.413064965866,513.959112954456,-12.4539520114099,-520.186088960161,269.433508488638,250.752580471523
1.83510062756979,527.382097746917,513.970158843795,-13.4119389031225,-520.676128295356,270.39701832502,250.279109970336
1.83726466132872,528.629652726403,513.978220617513,-14.6514321088906,-521.303936671958,271.640542417647,249.663394254311
1.83942869508764,530.080485402274,513.984104452982,-16.0963809492911,-522.032294927628,273.088433175782,248.943861751846
1.84159272884657,531.139366618371,513.98839873375,-17.1509678846205,-522.563882676061,274.145167251496,248.418715424565
1.8437567626055,531.10171586069,513.991532887893,-17.1101829727971,-522.546624374292,274.105949416744,248.440674957548
1.84592079636442,531.344392900951,513.723664118954,-17.6207287819967,-522.534028509952,274.482560841474,248.051467668479
1.84808483012335,531.251353019434,513.798317973782,-17.4530350456528,-522.524835496608,274.352194032544,248.172641464064
1.85024886388228,530.643136016118,513.852803625987,-16.7903323901309,-522.247969821053,273.716734203125,248.531235617928
1.8524128976412,529.658920190671,513.62241342892,-16.0365067617503,-521.640666809795,272.84771347621,248.792953333585
1.85457693140013,528.670440172418,513.724420786617,-14.9460193858016,-521.197430479518,271.80822977911,249.389200700408
1.85674096515906,527.138535535793,513.798870222975,-13.3396653128181,-520.468702879384,270.239100424306,250.229602455078
1.85890499891798,527.101109300234,513.853206681631,-13.2479026186029,-520.477157990932,270.174505959418,250.302652031514
1.86106903267691,527.073793994697,513.892863808449,-13.180930186248,-520.483328901573,270.127362090473,250.355966811101
1.86323306643584,526.243389453016,513.921807316113,-12.3215821369031,-520.082598384565,269.28248579496,250.800112589605
1.86539710019476,525.367167644765,513.942931555388,-11.4242360893768,-519.655049600076,268.395701867071,251.259347733006
1.86756113395369,524.457506389118,513.958348950202,-10.4991574389165,-519.20792766966,267.478331914017,251.729595755643
1.86972516771262,522.442814713026,513.969601240036,-8.47321347298987,-518.206207976531,265.458014093008,252.748193883523
1.87188920147154,520.16193587262,513.707657442002,-6.45427843061884,-516.934796657311,263.30810715162,253.626689505691
1.87405323523047,518.227094407606,513.786635600039,-4.44045880756642,-516.006865003822,261.333776607586,254.673088396236
1.8762172689894,516.274649959608,513.844277318081,-2.43037264152736,-515.059463638845,259.352511300568,255.706952338277
1.87838130274832,513.769045660085,513.886346767931,0.117301107845719,-513.827696214008,256.82587227612,257.001823937888
1.88054533650725,511.400033502827,513.917050894574,2.51701739174661,-512.6585421987,254.44150805554,258.21703414316
1.88270937026618,508.860556060237,513.939460110674,5.07890405043702,-511.400008085455,251.8908260049,259.509182080555
1.8848734040251,507.00713422367,513.955815337841,6.94868111417117,-510.481474780756,250.029226554749,260.452248226006
1.88703743778403,505.654425809471,513.967752098793,8.31332628932233,-509.811088954132,248.670549760074,261.140539194058
1.88920147154296,503.856691340603,513.976464069624,10.1197727290207,-508.916577705113,246.868459305791,262.048118399322
1.89136550530188,503.084938429539,513.982822447417,10.8978840178779,-508.533880438478,246.093527205831,262.440353232647
1.89352953906081,501.711210725814,513.987463069952,12.2762523441377,-507.849336897883,244.717479190838,263.131857707045
1.89569357281974,500.168291670928,513.990849999482,13.8225583285547,-507.079570835205,243.172866671186,263.906704164019
1.89785760657866,497.961576935647,513.993321928961,16.0317449933137,-505.977449432304,240.964915971167,265.012533461137
1.90002164033759,495.000238834573,513.995126051335,18.9948872167623,-504.497682442954,238.002675808905,266.495006634049
1.90218567409652,492.838924616956,513.996442778844,21.157518161887,-503.4176836979,235.840703227535,267.576980470365
1.90434970785544,491.261502861035,513.997403784236,22.7359009232005,-502.629453322636,234.262800968917,268.366652353718
1.90651374161437,490.38038760309,513.998105168052,23.6177175649624,-502.189246385571,233.381335019064,268.807911366507
1.9086777753733,490.007467317324,513.728460856802,23.7209935394772,-501.867964087063,233.143236888924,268.724727198139
1.91084180913222,489.194981339548,513.801818843103,24.6068375035547,-501.498400091326,232.294071917997,269.204328173329
1.91300584289115,488.601993495727,513.855358713715,25.2533652179877,-501.228676104721,231.67431413887,269.554361965851
1.91516987665008,488.43936121335,513.894434455698,25.4550732423477,-501.166897834524,231.492143985501,269.674753849023
1.917333910409,488.050508840436,513.922953643251,25.8724448028142,-500.986731241843,231.089032018811,269.897699223032
1.91949794416793,486.68608250408,513.673611983257,26.9875294791771,-500.179847243668,229.849276512451,270.330570731217
1.92166197792686,485.960420630003,513.761787733461,27.8013671034576,-499.861104181732,229.079526763273,270.781577418459
1.92382601168578,485.700957030798,513.555986045139,27.8550290143406,-499.628471537968,228.922964008229,270.70550752974
1.92599004544471,485.511589134673,513.675939173202,28.1643500385293,-499.593764153937,228.673619548072,270.920144605866
1.92815407920364,485.643536363887,513.763486218586,28.1199498546993,-499.703511291236,228.761793254594,270.941718036643
1.93031811296256,487.090618288847,513.557225673957,26.4666073851093,-500.323921981402,230.312005451869,270.011916529533
1.93248214672149,487.876605830821,513.676843908594,25.8002380777737,-500.776724869708,231.038183876524,269.738540993184
1.93464618048042,487.099472896518,513.49399032222,26.3945174257017,-500.296731609369,230.352477735408,269.944253873961
1.93681021423934,486.262131039996,513.63069197994,27.3685609399434,-499.946411509968,229.446785050026,270.499626459942
1.93897424799827,486.461470923088,513.730462835653,27.2689919125644,-500.095966879371,229.596239505262,270.499727374109
1.9411382817572,485.526333051003,513.53312376306,28.0067907120569,-499.529728407031,228.759771169473,270.769957237558
1.94330231551612,485.11398469589,513.389097066773,28.2751123708833,-499.251540881331,228.419436162503,270.832104718828
1.94546634927505,485.083191022237,513.554136289035,28.4709452667981,-499.318663655636,228.306122877719,271.012540777917
1.94763038303398,486.141341298294,513.6745891402,27.5332478419062,-499.907965219247,229.304046728194,270.603918491053
1.9497944167929,487.183781916053,513.762500905386,26.5787189893331,-500.473141410719,230.30253146336,270.170609947359
1.95195845055183,488.214756937288,513.82666276111,25.6119058238218,-501.020709849199,231.301425556733,269.719284292466
1.95412248431076,489.507520075995,513.873490892944,24.3659708169493,-501.69050548447,232.570774629523,269.119730854947
1.95628651806968,490.991347646045,513.907668114074,22.9163204680285,-502.44950788006,234.037513589008,268.411994291051
1.95845055182861,491.804153768828,513.932612146611,22.1284583777822,-502.86838295772,234.837847695523,268.030535262196
1.96061458558753,492.397375268494,513.680661181937,21.2832859134424,-503.039018225216,235.557044677526,267.48197354769
1.96277861934646,492.290021871266,513.766932547328,21.4769106760619,-503.028477209297,235.406555597602,267.621921611695
1.96494265310539,492.481826873037,513.829897167453,21.3480702944159,-503.155862020245,235.56687828931,267.588983730934
1.96710668686432,492.351658350239,513.875851504322,21.5241931540831,-503.113754927281,235.413732598078,267.700022329203
1.96927072062324,492.256655662466,513.909390991624,21.6527353291586,-503.083023327045,235.301960166653,267.781063160391
1.97143475438217,492.187318540938,513.933869578088,21.74655103715,-503.060594059513,235.220383751894,267.840210307619
1.97359878814109,491.32624463789,513.951735122362,22.6254904844713,-502.638989880126,234.350377076709,268.288612803416
1.97576282190002,491.778420046118,513.694617966999,21.9161979208815,-502.736519006558,234.931111062618,267.80540794394
1.97792685565895,493.189062306443,513.777118820208,20.5880565137649,-503.483090563326,236.300502896339,267.182587666987
1.98009088941787,494.758923221157,513.837331555438,19.0784083342816,-504.298127388298,237.840257443438,266.45786994486
1.9822549231768,495.364364034243,513.881277446212,18.5169134119695,-504.622820740227,238.423725311137,266.199095429091
1.98441895693573,496.076397462624,513.913351081607,17.8369536189829,-504.994874272116,239.119721921821,265.875152350295
1.98658299069465,496.596070637268,513.936759825163,17.3406891878946,-505.266415231216,239.627690724687,265.638724506529
1.98874702445358,497.245507087511,513.683688339363,16.4381812518525,-505.464597713437,240.403662917829,265.060934795608
1.99091105821251,497.719494246505,513.769141899372,16.0496476528672,-505.744318072938,240.834923296819,264.90939477612
1.99307509197143,497.525118406406,513.831509649317,16.306391242912,-505.678314027861,240.609363581747,265.068950446115
1.99523912573036,496.842941983204,513.877028364195,17.0340863809911,-505.359985173699,239.904427801106,265.455557372593
1.99740315948929,495.534591122707,513.910249915492,18.3756587927844,-504.722420519099,238.579466164961,266.142954354138
1.99956719324821,494.849855586353,513.934496458338,19.0846408719844,-504.392176022345,237.882607357184,266.509568665161
2.00173122700714,494.890418032378,513.952192647017,19.0617746146396,-504.421305339697,237.914321708869,266.506983630828
2.00389526076607,495.460334705383,513.965108100399,18.5047733950154,-504.712721402891,238.477780655184,266.234940747707
2.00605929452499,496.146441060799,513.97453436382,17.8280933030212,-505.060487712309,239.159173878889,265.901313833421
2.00822332828392,496.647191522294,513.981414063623,17.3342225413291,-505.314302792959,239.656484490483,265.657818302476
2.01038736204285,497.823129771634,513.986435169789,16.1633053981549,-505.904782470711,240.82991218674,265.074870283972
2.01255139580177,499.491849633752,513.990099792933,14.4982501591813,-506.740974713343,242.496799737285,264.244174976057
2.0147154295607,500.709754459245,513.992774395371,13.2830199361259,-507.351264427308,243.71336726156,263.637897165749
2.01687946331963,501.598634730663,513.994726437346,12.396091706683,-507.796680584005,244.60127151199,263.195409072015
2.01904349707855,502.517534687019,513.996151123056,11.4786164360368,-508.256842905037,245.519459125491,262.737383779546
2.02120753083748,502.377719476462,513.997190921071,11.6194714446092,-508.187455198766,245.379124015926,262.80833118284
2.02337156459641,501.465207577936,513.997949811193,12.5327422332575,-507.731578694565,244.466232672339,263.265346022225
2.02553559835533,500.529060225332,513.998503682435,13.4694434571032,-507.263781953883,243.529808384114,263.733973569769
2.02769963211426,500.926443742747,513.99890792192,13.0724641791726,-507.462675832334,243.926989781787,263.535686050546
2.02986366587319,500.946315422566,513.729046741725,12.7827313191592,-507.337681082146,244.081792051704,263.255889030442
2.03202769963211,500.69066243277,513.802246447575,13.1115840148051,-507.246454440173,243.789539208982,263.45691523119
2.03419173339104,501.044388109994,513.855670798182,12.8112826881882,-507.450029454088,244.116552710903,263.333476743185
2.03635576714997,501.032396386346,513.894662228608,12.8622658422619,-507.463529307477,244.085065272042,263.378464035435
2.03851980090889,502.104269148819,513.923119881894,11.8188507330752,-508.013694515357,245.142709207872,262.870985307485
2.04068383466782,503.426881249917,513.94388952337,10.5170082734527,-508.685385386644,246.454936488232,262.230448898411
2.04284786842675,503.851869052264,513.959048117183,10.1071790649187,-508.905458584723,246.872344993673,262.033113591051
2.04501190218567,504.432199971708,513.699955310842,9.26775533913349,-509.066077641275,247.582222316287,261.483855324988
2.0471759359446,504.855750888324,513.781014247457,8.92526335913311,-509.31838256789,247.965243764595,261.353138803295
2.04933996970353,504.624564470029,513.840174608818,9.21561013878943,-509.232369539423,247.70447716562,261.527892373804
2.05150400346245,504.725990710608,513.883352431061,9.15736172045303,-509.304671570834,247.784314495077,261.520357075757
2.05366803722138,504.259703598504,513.914865496409,9.65516189790509,-509.087284547457,247.3022708503,261.785013697157
2.05583207098031,503.919386846251,513.667708899527,9.74832205327601,-508.793547872889,247.085532396488,261.708015476402
2.05799610473923,503.400852566752,513.75747940447,10.3566268377179,-508.579165985611,246.522112864517,262.057053121094
2.06016013849816,503.562715967671,513.822997849859,10.2602818821883,-508.692856908765,246.651217042741,262.041639866024
2.06232417225709,503.951007177228,513.870816080234,9.91980890300584,-508.910911628731,247.015599137111,261.89531249162
2.06448820601601,505.315023951995,513.635559706761,8.32053575476573,-509.475291829378,248.497244098615,260.978047730763
2.06665223977494,507.121011757577,513.463859303964,6.3428475463873,-510.292435530771,250.389082105595,259.903353425176
2.06881627353387,507.898788315173,513.608701043436,5.70991272826251,-510.753744679304,251.094437793455,259.659306885849
2.07098030729279,508.466443704286,513.71441288725,5.24796918296403,-511.090428295768,251.609237260661,259.481191035107
2.07314434105172,508.340431040085,513.79156601979,5.45113497970522,-511.065998529938,251.44464803019,259.621350499748
2.07530837481065,507.708149056149,513.847875754309,6.13972669816013,-510.778012405229,250.784211178994,259.993801226234
2.07747240856957,507.246681977828,513.888973064259,6.6422910864311,-510.567827521043,250.302195445698,260.265632075345
2.0796364423285,506.639726885417,513.918967680634,7.27924079521682,-510.279347283026,249.6802430451,260.599104237926
2.08180047608743,506.737056905292,513.940859065073,7.20380215978105,-510.338957985183,249.766627372756,260.572330612427
2.08396450984635,506.808092615696,513.95683635602,7.14874374032331,-510.382464485858,249.829674437686,260.552790048171
2.08612854360528,507.130093799542,513.968497282568,6.8384034830263,-510.549295541055,250.145845158258,260.403450382797
2.08829257736421,506.014323303983,513.977007937373,7.96268463339015,-509.995665620678,249.025819335296,260.969846285382
2.09045661112313,505.199985138822,513.983219385916,8.78323424709305,-509.591602262369,248.208375445865,261.383226816504
2.09262064488206,504.335489275673,513.987752773049,9.65226349737685,-509.161621024361,247.341612889148,261.820008135213
2.09478467864099,503.434386128218,513.991061437488,10.55667530927,-508.712723782853,246.438855409474,262.273868373379
2.09694871239991,502.506565381714,513.993476245676,11.4869108639617,-508.250020813695,245.509827258876,262.740193554819
2.09911274615884,502.910026020868,513.995238678431,11.085212657563,-508.45263234965,245.912406681653,262.540225667997
2.10127677991777,502.934333050238,513.99652497903,11.0621919287923,-508.465429014634,245.936070560723,262.529358453911
2.10344081367669,502.952073384631,513.72730756566,10.7752341810292,-508.339690475145,246.088419601801,262.251270873344
2.10560484743562,503.50533348123,513.800977120727,10.2956436394973,-508.653155300979,246.604844920866,262.048310380112
2.10776888119455,504.179283137824,513.854744387867,9.67546125004344,-509.017013762846,247.25191094389,261.765102818955
2.10993291495347,504.6711611082,513.893986093794,9.222824985594,-509.282573600997,247.724168061303,261.558405539694
2.1120969487124,505.030155189397,513.9226264091,8.89247121970391,-509.476390799248,248.068841984846,261.407548814402
2.11426098247133,505.022008577661,513.943529365317,8.92152078765588,-509.482768971489,248.050243895002,261.432525076486
2.11642501623025,505.556375247435,513.958785258065,8.40241001063009,-509.75758025275,248.576982618402,261.180597634347
2.11858904998918,505.67622323008,513.969919676619,8.29369644653906,-509.82307145335,248.691263391771,261.131808061579
2.12075308374811,505.763693535734,513.978046062836,8.21435252710194,-509.870869799285,248.774670504316,261.096199294969
2.12291711750703,505.287220771217,513.983977055336,8.69675628411829,-509.635598913277,248.29523224355,261.340366669727
2.12508115126596,506.290251143181,513.988305753369,7.69805461018819,-510.139278448275,249.296098266496,260.843180181779
2.12724518502489,508.102931476949,513.99146502674,5.88853354979034,-511.047198251845,251.107198963579,259.939999288265
2.12940921878381,508.885592534669,513.993770802784,5.10817826811478,-511.439681668727,251.888707133277,259.550974535449
2.13157325254274,509.997125269599,513.995453659107,3.99832838950749,-511.996289464353,252.999398440046,258.996891024307
2.13373728630167,510.268058107746,513.99668188134,3.72862377359422,-512.132369994543,253.269717167076,258.862652827467
2.13590132006059,510.195640544796,513.997578291708,3.80193774691196,-512.096609418252,253.196851398942,258.89975801931
2.13806535381952,509.332318400711,513.728076319375,4.39575791866423,-511.530197360043,252.468280241023,259.061917119019
2.14022938757845,508.702228096696,513.801538190851,5.09931009415465,-511.251883143773,251.801459001271,259.450424142503
2.14239342133737,507.702048178608,513.855153881412,6.15310570280377,-510.77860103001,250.774471237902,260.004129792108
2.1445574550963,506.701916866509,513.894284960114,7.1923680936049,-510.298100913311,249.754774386452,260.543326526859
2.14672148885523,506.512289664804,513.922844534827,7.4105548700233,-510.217567099816,249.55086739739,260.666699702425
2.14888552261415,507.454516277066,513.943688563024,6.48917228595747,-510.699102420045,250.482671995554,260.216430424491
2.15104955637308,508.95266315265,513.688745235651,4.73608208300078,-511.32070419415,252.108290534825,259.212413659326
2.15321359013201,509.775920131627,513.772832643714,3.99691251208742,-511.77437638767,252.88950380977,258.884872577901
2.15537762389093,510.376769123766,513.834203316149,3.45743419238278,-512.105486219958,253.459667465692,258.645818754266
2.15754165764986,510.815295028283,513.878994320199,3.06369929191646,-512.347144674241,253.875797868183,258.471346806058
2.15970569140879,510.324881800012,513.911684756269,3.58680295625675,-512.118283278141,253.369039421878,258.749243856263
2.16186972516771,509.696800539872,513.935543667966,4.23874312809426,-511.816172103919,252.729028705889,259.08714339803
