t,leadI,leadII,leadIII,aVR,aVL,aVF
0,469,514,45,-491.5,212,279.5
0.00216403375892664,473,514,41,-493.5,216,277.5
0.00432806751785328,475,513,38,-494,218.5,275.5
0.00649210127677992,478,514,36,-496,221,275
0.00865613503570656,478,514,36,-496,221,275
0.0108201687946332,480,514,34,-497,223,274
0.0129842025535598,476,514,38,-495,219,276
0.0151482363124865,474,514,40,-494,217,277
0.0173122700714131,472,514,42,-493,215,278
0.0194763038303398,472,514,42,-493,215,278
0.0216403375892664,474,514,40,-494,217,277
0.023804371348193,476,514,38,-495,219,276
0.0259684051071197,480,514,34,-497,223,274
0.0281324388660463,480,514,34,-497,223,274
0.0302964726249729,479,514,35,-496.5,222,274.5
0.0324605063838996,482,514,32,-498,225,273
0.0346245401428262,480,514,34,-497,223,274
0.0367885739017529,482,514,32,-498,225,273
0.0389526076606795,481,513,32,-497,224.5,272.5
0.0411166414196061,482,514,32,-498,225,273
0.0432806751785328,482,514,32,-498,225,273
0.0454447089374594,484,514,30,-499,227,272
0.0476087426963861,483,514,31,-498.5,226,272.5
0.0497727764553127,481,514,33,-497.5,224,273.5
0.0519368102142393,479,514,35,-496.5,222,274.5
0.054100843973166,481,514,33,-497.5,224,273.5
0.0562648777320926,484,514,30,-499,227,272
0.0584289114910193,486,514,28,-500,229,271
0.0605929452499459,485,514,29,-499.5,228,271.5
0.0627569790088725,482,514,32,-498,225,273
0.0649210127677992,486,514,28,-500,229,271
0.0670850465267258,489,513,24,-501,232.5,268.5
0.0692490802856525,496,514,18,-505,239,266
0.0714131140445791,497,513,16,-505,240.5,264.5
0.0735771478035057,500,514,14,-507,243,264
0.0757411815624324,499,514,15,-506.5,242,264.5
0.077905215321359,497,514,17,-505.5,240,265.5
0.0800692490802856,493,514,21,-503.5,236,267.5
0.0822332828392123,490,514,24,-502,233,269
0.0843973165981389,486,514,28,-500,229,271
0.0865613503570656,486,514,28,-500,229,271
0.0887253841159922,484,513,29,-498.5,227.5,271
0.0908894178749188,484,514,30,-499,227,272
0.0930534516338455,485,514,29,-499.5,228,271.5
0.0952174853927721,484,514,30,-499,227,272
0.0973815191516988,484,514,30,-499,227,272
0.0995455529106254,481,514,33,-497.5,224,273.5
0.101709586669552,480,514,34,-497,223,274
0.103873620428479,477,513,36,-495,220.5,274.5
0.106037654187405,471,514,43,-492.5,214,278.5
0.108201687946332,468,513,45,-490.5,211.5,279
0.110365721705259,471,514,43,-492.5,214,278.5
0.112529755464185,469,513,44,-491,212.5,278.5
0.114693789223112,469,514,45,-491.5,212,279.5
0.116857822982039,471,514,43,-492.5,214,278.5
0.119021856740965,478,514,36,-496,221,275
0.121185890499892,484,514,30,-499,227,272
0.123349924258818,484,514,30,-499,227,272
0.125513958017745,483,514,31,-498.5,226,272.5
0.127677991776672,478,514,36,-496,221,275
0.129842025535598,475,514,39,-494.5,218,276.5
0.132006059294525,469,514,45,-491.5,212,279.5
0.134170093053452,469,514,45,-491.5,212,279.5
0.136334126812378,468,513,45,-490.5,211.5,279
0.138498160571305,466,514,48,-490,209,281
0.140662194330232,469,514,45,-491.5,212,279.5
0.142826228089158,472,513,41,-492.5,215.5,277
0.144990261848085,472,514,42,-493,215,278
0.147154295607011,475,514,39,-494.5,218,276.5
0.149318329365938,476,514,38,-495,219,276
0.151482363124865,475,514,39,-494.5,218,276.5
0.153646396883791,472,514,42,-493,215,278
0.155810430642718,470,514,44,-492,213,279
0.157974464401645,471,513,42,-492,214.5,277.5
0.160138498160571,473,514,41,-493.5,216,277.5
0.162302531919498,475,514,39,-494.5,218,276.5
0.164466565678425,473,514,41,-493.5,216,277.5
0.166630599437351,469,513,44,-491,212.5,278.5
0.168794633196278,468,514,46,-491,211,280
0.170958666955204,466,514,48,-490,209,281
0.173122700714131,467,514,47,-490.5,210,280.5
0.175286734473058,468,514,46,-491,211,280
0.177450768231984,465,514,49,-489.5,208,281.5
0.179614801990911,465,514,49,-489.5,208,281.5
0.181778835749838,463,514,51,-488.5,206,282.5
0.183942869508764,463,513,50,-488,206.5,281.5
0.186106903267691,463,514,51,-488.5,206,282.5
0.188270937026618,467,513,46,-490,210.5,279.5
0.190434970785544,473,514,41,-493.5,216,277.5
0.192599004544471,484,514,30,-499,227,272
0.194763038303398,504,514,10,-509,247,262
0.196927072062324,534,514,-20,-524,277,247
0.199091105821251,567,515,-52,-541,309.5,231.5
0.201255139580177,598,516,-82,-557,340,217
0.203419173339104,630,517,-113,-573.5,371.5,202
0.205583207098031,656,517,-139,-586.5,397.5,189
0.207747240856957,675,518,-157,-596.5,416,180.5
0.209911274615884,686,519,-167,-602.5,426.5,176
0.212075308374811,680,518,-162,-599,421,178
0.214239342133737,663,518,-145,-590.5,404,186.5
0.216403375892664,634,517,-117,-575.5,375.5,200
0.218567409651591,601,516,-85,-558.5,343,215.5
0.220731443410517,572,515,-57,-543.5,314.5,229
0.222895477169444,546,514,-32,-530,289,241
0.22505951092837,516,514,-2,-515,259,256
0.227223544687297,496,514,18,-505,239,266
0.229387578446224,477,514,37,-495.5,220,275.5
0.23155161220515,469,514,45,-491.5,212,279.5
0.233715645964077,466,514,48,-490,209,281
0.235879679723004,464,514,50,-489,207,282
0.23804371348193,465,513,48,-489,208.5,280.5
0.240207747240857,468,514,46,-491,211,280
0.242371780999784,472,514,42,-493,215,278
0.24453581475871,472,514,42,-493,215,278
0.246699848517637,469,514,45,-491.5,212,279.5
0.248863882276564,463,513,50,-488,206.5,281.5
0.25102791603549,463,514,51,-488.5,206,282.5
0.253191949794417,464,514,50,-489,207,282
0.255355983553343,461,514,53,-487.5,204,283.5
0.25752001731227,458,513,55,-485.5,201.5,284
0.259684051071197,458,514,56,-486,201,285
0.261848084830123,458,514,56,-486,201,285
0.26401211858905,459,514,55,-486.5,202,284.5
0.266176152347977,459,514,55,-486.5,202,284.5
0.268340186106903,459,514,55,-486.5,202,284.5
0.27050421986583,462,514,52,-488,205,283
0.272668253624757,463,514,51,-488.5,206,282.5
0.274832287383683,464,513,49,-488.5,207.5,281
0.27699632114261,462,514,52,-488,205,283
0.279160354901536,461,514,53,-487.5,204,283.5
0.281324388660463,463,514,51,-488.5,206,282.5
0.28348842241939,460,513,53,-486.5,203.5,283
0.285652456178316,463,514,51,-488.5,206,282.5
0.287816489937243,462,514,52,-488,205,283
0.28998052369617,461,513,52,-487,204.5,282.5
0.292144557455096,464,513,49,-488.5,207.5,281
0.294308591214023,462,514,52,-488,205,283
0.29647262497295,463,513,50,-488,206.5,281.5
0.298636658731876,465,513,48,-489,208.5,280.5
0.300800692490803,468,514,46,-491,211,280
0.302964726249729,470,514,44,-492,213,279
0.305128760008656,468,513,45,-490.5,211.5,279
0.307292793767583,469,513,44,-491,212.5,278.5
0.309456827526509,470,513,43,-491.5,213.5,278
0.311620861285436,471,513,42,-492,214.5,277.5
0.313784895044363,474,514,40,-494,217,277
0.315948928803289,475,514,39,-494.5,218,276.5
0.318112962562216,474,514,40,-494,217,277
0.320276996321143,474,514,40,-494,217,277
0.322441030080069,475,514,39,-494.5,218,276.5
0.324605063838996,477,514,37,-495.5,220,275.5
0.326769097597922,479,513,34,-496,222.5,273.5
0.328933131356849,479,514,35,-496.5,222,274.5
0.331097165115776,477,514,37,-495.5,220,275.5
0.333261198874702,474,514,40,-494,217,277
0.335425232633629,475,514,39,-494.5,218,276.5
0.337589266392556,479,514,35,-496.5,222,274.5
0.339753300151482,479,513,34,-496,222.5,273.5
0.341917333910409,484,514,30,-499,227,272
0.344081367669336,490,514,24,-502,233,269
0.346245401428262,489,513,24,-501,232.5,268.5
0.348409435187189,489,514,25,-501.5,232,269.5
0.350573468946116,487,514,27,-500.5,230,270.5
0.352737502705042,484,514,30,-499,227,272
0.354901536463969,485,514,29,-499.5,228,271.5
0.357065570222895,487,514,27,-500.5,230,270.5
0.359229603981822,489,514,25,-501.5,232,269.5
0.361393637740749,488,514,26,-501,231,270
0.363557671499675,487,514,27,-500.5,230,270.5
0.365721705258602,485,514,29,-499.5,228,271.5
0.367885739017529,483,513,30,-498,226.5,271.5
0.370049772776455,489,514,25,-501.5,232,269.5
0.372213806535382,492,514,22,-503,235,268
0.374377840294309,496,514,18,-505,239,266
0.376541874053235,500,514,14,-507,243,264
0.378705907812162,499,514,15,-506.5,242,264.5
0.380869941571088,501,513,12,-507,244.5,262.5
0.383033975330015,497,514,17,-505.5,240,265.5
0.385198009088942,494,514,20,-504,237,267
0.387362042847868,496,514,18,-505,239,266
0.389526076606795,497,514,17,-505.5,240,265.5
0.391690110365722,495,514,19,-504.5,238,266.5
0.393854144124648,500,514,14,-507,243,264
0.396018177883575,502,514,12,-508,245,263
0.398182211642502,505,514,9,-509.5,248,261.5
0.400346245401428,507,514,7,-510.5,250,260.5
0.402510279160355,506,514,8,-510,249,261
0.404674312919282,506,514,8,-510,249,261
0.406838346678208,506,514,8,-510,249,261
0.409002380437135,507,514,7,-510.5,250,260.5
0.411166414196061,511,514,3,-512.5,254,258.5
0.413330447954988,512,514,2,-513,255,258
0.415494481713915,513,514,1,-513.5,256,257.5
0.417658515472841,512,514,2,-513,255,258
0.419822549231768,515,514,-1,-514.5,258,256.5
0.421986582990695,516,514,-2,-515,259,256
0.424150616749621,515,514,-1,-514.5,258,256.5
0.426314650508548,517,514,-3,-515.5,260,255.5
0.428478684267475,518,514,-4,-516,261,255
0.430642718026401,519,514,-5,-516.5,262,254.5
0.432806751785328,517,514,-3,-515.5,260,255.5
0.434970785544254,516,513,-3,-514.5,259.5,255
0.437134819303181,518,514,-4,-516,261,255
0.439298853062108,516,514,-2,-515,259,256
0.441462886821034,516,514,-2,-515,259,256
0.443626920579961,515,514,-1,-514.5,258,256.5
0.445790954338888,516,513,-3,-514.5,259.5,255
0.447954988097814,514,514,0,-514,257,257
0.450119021856741,517,514,-3,-515.5,260,255.5
0.452283055615668,523,514,-9,-518.5,266,252.5
0.454447089374594,523,514,-9,-518.5,266,252.5
0.456611123133521,521,514,-7,-517.5,264,253.5
0.458775156892448,517,514,-3,-515.5,260,255.5
0.460939190651374,513,514,1,-513.5,256,257.5
0.463103224410301,510,514,4,-512,253,259
0.465267258169227,513,514,1,-513.5,256,257.5
0.467431291928154,513,514,1,-513.5,256,257.5
0.469595325687081,508,514,6,-511,251,260
0.471759359446007,507,514,7,-510.5,250,260.5
0.473923393204934,504,514,10,-509,247,262
0.476087426963861,504,514,10,-509,247,262
0.478251460722787,500,513,13,-506.5,243.5,263
0.480415494481714,497,514,17,-505.5,240,265.5
0.482579528240641,492,514,22,-503,235,268
0.484743561999567,489,514,25,-501.5,232,269.5
0.486907595758494,484,514,30,-499,227,272
0.48907162951742,476,514,38,-495,219,276
0.491235663276347,476,514,38,-495,219,276
0.493399697035274,478,513,35,-495.5,221.5,274
0.4955637307942,479,514,35,-496.5,222,274.5
0.497727764553127,480,514,34,-497,223,274
0.499891798312054,478,514,36,-496,221,275
0.50205583207098,474,514,40,-494,217,277
0.504219865829907,470,514,44,-492,213,279
0.506383899588834,470,514,44,-492,213,279
0.50854793334776,468,514,46,-491,211,280
0.510711967106687,466,513,47,-489.5,209.5,280
0.512876000865613,466,513,47,-489.5,209.5,280
0.51504003462454,469,514,45,-491.5,212,279.5
0.517204068383467,466,513,47,-489.5,209.5,280
0.519368102142393,467,514,47,-490.5,210,280.5
0.52153213590132,468,514,46,-491,211,280
0.523696169660247,468,514,46,-491,211,280
0.525860203419173,467,514,47,-490.5,210,280.5
0.5280242371781,466,514,48,-490,209,281
0.530188270937027,466,514,48,-490,209,281
0.532352304695953,467,513,46,-490,210.5,279.5
0.53451633845488,465,514,49,-489.5,208,281.5
0.536680372213806,465,514,49,-489.5,208,281.5
0.538844405972733,468,513,45,-490.5,211.5,279
0.54100843973166,472,514,42,-493,215,278
0.543172473490586,471,513,42,-492,214.5,277.5
0.545336507249513,473,513,40,-493,216.5,276.5
0.54750054100844,472,513,41,-492.5,215.5,277
0.549664574767366,468,514,46,-491,211,280
0.551828608526293,466,514,48,-490,209,281
0.55399264228522,469,513,44,-491,212.5,278.5
0.556156676044146,470,513,43,-491.5,213.5,278
0.558320709803073,469,514,45,-491.5,212,279.5
0.560484743562,468,513,45,-490.5,211.5,279
0.562648777320926,467,514,47,-490.5,210,280.5
0.564812811079853,469,514,45,-491.5,212,279.5
0.566976844838779,470,514,44,-492,213,279
0.569140878597706,470,514,44,-492,213,279
0.571304912356633,469,514,45,-491.5,212,279.5
0.573468946115559,468,514,46,-491,211,280
0.575632979874486,469,514,45,-491.5,212,279.5
0.577797013633413,471,514,43,-492.5,214,278.5
0.579961047392339,473,513,40,-493,216.5,276.5
0.582125081151266,476,514,38,-495,219,276
0.584289114910193,477,514,37,-495.5,220,275.5
0.586453148669119,478,514,36,-496,221,275
0.588617182428046,478,514,36,-496,221,275
0.590781216186972,479,514,35,-496.5,222,274.5
0.592945249945899,476,514,38,-495,219,276
0.595109283704826,472,514,42,-493,215,278
0.597273317463752,470,514,44,-492,213,279
0.599437351222679,475,514,39,-494.5,218,276.5
0.601601384981606,476,514,38,-495,219,276
0.603765418740532,479,514,35,-496.5,222,274.5
0.605929452499459,482,514,32,-498,225,273
0.608093486258386,484,514,30,-499,227,272
0.610257520017312,483,514,31,-498.5,226,272.5
0.612421553776239,480,514,34,-497,223,274
0.614585587535166,481,514,33,-497.5,224,273.5
0.616749621294092,479,514,35,-496.5,222,274.5
0.618913655053019,482,513,31,-497.5,225.5,272
0.621077688811945,482,514,32,-498,225,273
0.623241722570872,485,514,29,-499.5,228,271.5
0.625405756329799,484,514,30,-499,227,272
0.627569790088725,480,514,34,-497,223,274
0.629733823847652,477,514,37,-495.5,220,275.5
0.631897857606579,478,514,36,-496,221,275
0.634061891365505,477,514,37,-495.5,220,275.5
0.636225925124432,476,514,38,-495,219,276
0.638389958883359,475,514,39,-494.5,218,276.5
0.640553992642285,480,514,34,-497,223,274
0.642718026401212,485,514,29,-499.5,228,271.5
0.644882060160138,488,513,25,-500.5,231.5,269
0.647046093919065,492,514,22,-503,235,268
0.649210127677992,493,514,21,-503.5,236,267.5
0.651374161436918,492,514,22,-503,235,268
0.653538195195845,492,514,22,-503,235,268
0.655702228954772,488,514,26,-501,231,270
0.657866262713698,486,514,28,-500,229,271
0.660030296472625,479,514,35,-496.5,222,274.5
0.662194330231552,482,514,32,-498,225,273
0.664358363990478,479,514,35,-496.5,222,274.5
0.666522397749405,483,514,31,-498.5,226,272.5
0.668686431508332,484,514,30,-499,227,272
0.670850465267258,485,514,29,-499.5,228,271.5
0.673014499026185,487,514,27,-500.5,230,270.5
0.675178532785111,488,514,26,-501,231,270
0.677342566544038,484,514,30,-499,227,272
0.679506600302965,481,513,32,-497,224.5,272.5
0.681670634061891,484,514,30,-499,227,272
0.683834667820818,484,514,30,-499,227,272
0.685998701579745,487,514,27,-500.5,230,270.5
0.688162735338671,493,514,21,-503.5,236,267.5
0.690326769097598,490,514,24,-502,233,269
0.692490802856525,489,513,24,-501,232.5,268.5
0.694654836615451,487,514,27,-500.5,230,270.5
0.696818870374378,483,513,30,-498,226.5,271.5
0.698982904133304,484,514,30,-499,227,272
0.701146937892231,479,514,35,-496.5,222,274.5
0.703310971651158,483,514,31,-498.5,226,272.5
0.705475005410084,487,513,26,-500,230.5,269.5
0.707639039169011,490,514,24,-502,233,269
0.709803072927938,493,514,21,-503.5,236,267.5
0.711967106686864,496,514,18,-505,239,266
0.714131140445791,495,514,19,-504.5,238,266.5
0.716295174204718,497,514,17,-505.5,240,265.5
0.718459207963644,496,514,18,-505,239,266
0.720623241722571,492,514,22,-503,235,268
0.722787275481497,489,513,24,-501,232.5,268.5
0.724951309240424,488,513,25,-500.5,231.5,269
0.727115342999351,493,513,20,-503,236.5,266.5
0.729279376758277,496,514,18,-505,239,266
0.731443410517204,499,514,15,-506.5,242,264.5
0.733607444276131,501,514,13,-507.5,244,263.5
0.735771478035057,499,514,15,-506.5,242,264.5
0.737935511793984,498,514,16,-506,241,265
0.740099545552911,499,514,15,-506.5,242,264.5
0.742263579311837,500,513,13,-506.5,243.5,263
0.744427613070764,503,514,11,-508.5,246,262.5
0.74659164682969,505,514,9,-509.5,248,261.5
0.748755680588617,505,513,8,-509,248.5,260.5
0.750919714347544,507,514,7,-510.5,250,260.5
0.75308374810647,505,514,9,-509.5,248,261.5
0.755247781865397,501,514,13,-507.5,244,263.5
0.757411815624324,502,514,12,-508,245,263
0.75957584938325,502,514,12,-508,245,263
0.761739883142177,504,514,10,-509,247,262
0.763903916901104,506,514,8,-510,249,261
0.76606795066003,506,514,8,-510,249,261
0.768231984418957,503,514,11,-508.5,246,262.5
0.770396018177884,503,514,11,-508.5,246,262.5
0.77256005193681,498,514,16,-506,241,265
0.774724085695737,497,514,17,-505.5,240,265.5
0.776888119454663,494,514,20,-504,237,267
0.77905215321359,495,514,19,-504.5,238,266.5
0.781216186972517,496,514,18,-505,239,266
0.783380220731443,495,514,19,-504.5,238,266.5
0.78554425449037,493,513,20,-503,236.5,266.5
0.787708288249297,494,514,20,-504,237,267
0.789872322008223,491,514,23,-502.5,234,268.5
0.79203635576715,487,514,27,-500.5,230,270.5
0.794200389526077,485,514,29,-499.5,228,271.5
0.796364423285003,483,513,30,-498,226.5,271.5
0.79852845704393,482,514,32,-498,225,273
0.800692490802857,483,514,31,-498.5,226,272.5
0.802856524561783,486,514,28,-500,229,271
0.80502055832071,489,514,25,-501.5,232,269.5
0.807184592079636,493,514,21,-503.5,236,267.5
0.809348625838563,492,514,22,-503,235,268
0.81151265959749,484,513,29,-498.5,227.5,271
0.813676693356416,484,514,30,-499,227,272
0.815840727115343,479,514,35,-496.5,222,274.5
0.81800476087427,477,514,37,-495.5,220,275.5
0.820168794633196,477,514,37,-495.5,220,275.5
0.822332828392123,479,513,34,-496,222.5,273.5
0.82449686215105,483,514,31,-498.5,226,272.5
0.826660895909976,482,514,32,-498,225,273
0.828824929668903,479,514,35,-496.5,222,274.5
0.830988963427829,485,514,29,-499.5,228,271.5
0.833152997186756,484,514,30,-499,227,272
0.835317030945683,486,514,28,-500,229,271
0.837481064704609,486,514,28,-500,229,271
0.839645098463536,485,514,29,-499.5,228,271.5
0.841809132222463,486,514,28,-500,229,271
0.843973165981389,486,513,27,-499.5,229.5,270
0.846137199740316,485,513,28,-499,228.5,270.5
0.848301233499243,484,514,30,-499,227,272
0.850465267258169,481,513,32,-497,224.5,272.5
0.852629301017096,482,514,32,-498,225,273
0.854793334776022,479,514,35,-496.5,222,274.5
0.856957368534949,476,514,38,-495,219,276
0.859121402293876,474,514,40,-494,217,277
0.861285436052802,473,514,41,-493.5,216,277.5
0.863449469811729,472,514,42,-493,215,278
0.865613503570656,468,514,46,-491,211,280
0.867777537329582,469,514,45,-491.5,212,279.5
0.869941571088509,476,514,38,-495,219,276
0.872105604847436,485,514,29,-499.5,228,271.5
0.874269638606362,503,514,11,-508.5,246,262.5
0.876433672365289,525,514,-11,-519.5,268,251.5
0.878597706124216,557,515,-42,-536,299.5,236.5
0.880761739883142,588,515,-73,-551.5,330.5,221
0.882925773642069,617,517,-100,-567,358.5,208.5
0.885089807400995,643,517,-126,-580,384.5,195.5
0.887253841159922,668,518,-150,-593,409,184
0.889417874918849,687,519,-168,-603,427.5,175.5
0.891581908677775,691,519,-172,-605,431.5,173.5
0.893745942436702,685,519,-166,-602,425.5,176.5
0.895909976195629,669,518,-151,-593.5,410,183.5
0.898074009954555,644,517,-127,-580.5,385.5,195
0.900238043713482,615,516,-99,-565.5,357,208.5
0.902402077472409,590,516,-74,-553,332,221
0.904566111231335,563,515,-48,-539,305.5,233.5
0.906730144990262,536,514,-22,-525,279,246
0.908894178749188,513,514,1,-513.5,256,257.5
0.911058212508115,500,514,14,-507,243,264
0.913222246267042,490,514,24,-502,233,269
0.915386280025968,486,514,28,-500,229,271
0.917550313784895,480,513,33,-496.5,223.5,273
0.919714347543822,479,514,35,-496.5,222,274.5
0.921878381302748,474,514,40,-494,217,277
0.924042415061675,477,514,37,-495.5,220,275.5
0.926206448820602,476,514,38,-495,219,276
0.928370482579528,474,514,40,-494,217,277
0.930534516338455,473,514,41,-493.5,216,277.5
0.932698550097381,477,514,37,-495.5,220,275.5
0.934862583856308,475,514,39,-494.5,218,276.5
0.937026617615235,470,513,43,-491.5,213.5,278
0.939190651374161,467,513,46,-490,210.5,279.5
0.941354685133088,460,513,53,-486.5,203.5,283
0.943518718892015,458,513,55,-485.5,201.5,284
0.945682752650941,459,514,55,-486.5,202,284.5
0.947846786409868,467,514,47,-490.5,210,280.5
0.950010820168795,472,513,41,-492.5,215.5,277
0.952174853927721,475,513,38,-494,218.5,275.5
0.954338887686648,475,514,39,-494.5,218,276.5
0.956502921445574,474,514,40,-494,217,277
0.958666955204501,472,514,42,-493,215,278
0.960830988963428,474,514,40,-494,217,277
0.962995022722354,477,514,37,-495.5,220,275.5
0.965159056481281,476,514,38,-495,219,276
0.967323090240208,477,514,37,-495.5,220,275.5
0.969487123999134,477,514,37,-495.5,220,275.5
0.971651157758061,476,514,38,-495,219,276
0.973815191516988,479,514,35,-496.5,222,274.5
0.975979225275914,479,514,35,-496.5,222,274.5
0.978143259034841,480,514,34,-497,223,274
0.980307292793767,481,514,33,-497.5,224,273.5
0.982471326552694,483,514,31,-498.5,226,272.5
0.984635360311621,484,514,30,-499,227,272
0.986799394070547,485,514,29,-499.5,228,271.5
0.988963427829474,484,513,29,-498.5,227.5,271
0.991127461588401,485,513,28,-499,228.5,270.5
0.993291495347327,485,513,28,-499,228.5,270.5
0.995455529106254,486,514,28,-500,229,271
0.997619562865181,486,514,28,-500,229,271
0.999783596624107,488,514,26,-501,231,270
1.00194763038303,491,514,23,-502.5,234,268.5
1.00411166414196,491,514,23,-502.5,234,268.5
1.00627569790089,492,514,22,-503,235,268
1.00843973165981,488,514,26,-501,231,270
1.01060376541874,489,514,25,-501.5,232,269.5
1.01276779917767,488,514,26,-501,231,270
1.01493183293659,489,514,25,-501.5,232,269.5
1.01709586669552,491,513,22,-502,234.5,267.5
1.01925990045445,493,514,21,-503.5,236,267.5
1.02142393421337,496,514,18,-505,239,266
1.0235879679723,496,513,17,-504.5,239.5,265
1.02575200173123,499,514,15,-506.5,242,264.5
1.02791603549015,504,514,10,-509,247,262
1.03008006924908,507,514,7,-510.5,250,260.5
1.03224410300801,506,514,8,-510,249,261
1.03440813676693,502,513,11,-507.5,245.5,262
1.03657217052586,502,514,12,-508,245,263
1.03873620428479,501,514,13,-507.5,244,263.5
1.04090023804371,504,514,10,-509,247,262
1.04306427180264,502,514,12,-508,245,263
1.04522830556157,502,513,11,-507.5,245.5,262
1.04739233932049,502,514,12,-508,245,263
1.04955637307942,503,514,11,-508.5,246,262.5
1.05172040683835,507,514,7,-510.5,250,260.5
1.05388444059727,508,514,6,-511,251,260
1.0560484743562,510,514,4,-512,253,259
1.05821250811513,508,514,6,-511,251,260
1.06037654187405,513,514,1,-513.5,256,257.5
1.06254057563298,513,514,1,-513.5,256,257.5
1.06470460939191,513,514,1,-513.5,256,257.5
1.06686864315083,514,514,0,-514,257,257
1.06903267690976,515,514,-1,-514.5,258,256.5
1.07119671066869,517,513,-4,-515,260.5,254.5
1.07336074442761,520,514,-6,-517,263,254
1.07552477818654,523,514,-9,-518.5,266,252.5
1.07768881194547,523,514,-9,-518.5,266,252.5
1.07985284570439,520,514,-6,-517,263,254
1.08201687946332,521,514,-7,-517.5,264,253.5
1.08418091322225,518,514,-4,-516,261,255
1.08634494698117,522,514,-8,-518,265,253
1.0885089807401,524,514,-10,-519,267,252
1.09067301449903,528,513,-15,-520.5,271.5,249
1.09283704825795,535,514,-21,-524.5,278,246.5
1.09500108201688,533,514,-19,-523.5,276,247.5
1.09716511577581,532,514,-18,-523,275,248
1.09932914953473,531,514,-17,-522.5,274,248.5
1.10149318329366,532,514,-18,-523,275,248
1.10365721705259,528,514,-14,-521,271,250
1.10582125081151,529,514,-15,-521.5,272,249.5
1.10798528457044,530,514,-16,-522,273,249
1.11014931832937,535,514,-21,-524.5,278,246.5
1.11231335208829,537,514,-23,-525.5,280,245.5
1.11447738584722,540,514,-26,-527,283,244
1.11664141960615,545,514,-31,-529.5,288,241.5
1.11880545336507,543,514,-29,-528.5,286,242.5
1.120969487124,540,514,-26,-527,283,244
1.12313352088293,539,514,-25,-526.5,282,244.5
1.12529755464185,537,514,-23,-525.5,280,245.5
1.12746158840078,537,514,-23,-525.5,280,245.5
1.12962562215971,539,514,-25,-526.5,282,244.5
1.13178965591863,538,514,-24,-526,281,245
1.13395368967756,539,513,-26,-526,282.5,243.5
1.13611772343649,541,514,-27,-527.5,284,243.5
1.13828175719541,539,514,-25,-526.5,282,244.5
1.14044579095434,534,514,-20,-524,277,247
1.14260982471327,529,514,-15,-521.5,272,249.5
1.14477385847219,525,514,-11,-519.5,268,251.5
1.14693789223112,525,514,-11,-519.5,268,251.5
1.14910192599005,523,514,-9,-518.5,266,252.5
1.15126595974897,522,514,-8,-518,265,253
1.1534299935079,522,514,-8,-518,265,253
1.15559402726683,523,514,-9,-518.5,266,252.5
1.15775806102575,522,514,-8,-518,265,253
1.15992209478468,519,514,-5,-516.5,262,254.5
1.16208612854361,514,513,-1,-513.5,257.5,256
1.16425016230253,511,514,3,-512.5,254,258.5
1.16641419606146,508,514,6,-511,251,260
1.16857822982039,509,514,5,-511.5,252,259.5
1.17074226357931,506,514,8,-510,249,261
1.17290629733824,501,514,13,-507.5,244,263.5
1.17507033109717,497,514,17,-505.5,240,265.5
1.17723436485609,494,514,20,-504,237,267
1.17939839861502,494,514,20,-504,237,267
1.18156243237394,492,514,22,-503,235,268
1.18372646613287,494,514,20,-504,237,267
1.1858904998918,489,514,25,-501.5,232,269.5
1.18805453365072,489,514,25,-501.5,232,269.5
1.19021856740965,489,514,25,-501.5,232,269.5
1.19238260116858,488,514,26,-501,231,270
1.1945466349275,486,514,28,-500,229,271
1.19671066868643,485,514,29,-499.5,228,271.5
1.19887470244536,485,514,29,-499.5,228,271.5
1.20103873620428,486,514,28,-500,229,271
1.20320276996321,486,513,27,-499.5,229.5,270
1.20536680372214,489,514,25,-501.5,232,269.5
1.20753083748106,490,514,24,-502,233,269
1.20969487123999,489,514,25,-501.5,232,269.5
1.21185890499892,486,514,28,-500,229,271
1.21402293875784,484,513,29,-498.5,227.5,271
1.21618697251677,484,514,30,-499,227,272
1.2183510062757,482,514,32,-498,225,273
1.22051504003462,482,514,32,-498,225,273
1.22267907379355,481,514,33,-497.5,224,273.5
1.22484310755248,479,514,35,-496.5,222,274.5
1.2270071413114,481,514,33,-497.5,224,273.5
1.22917117507033,480,513,33,-496.5,223.5,273
1.23133520882926,484,514,30,-499,227,272
1.23349924258818,483,514,31,-498.5,226,272.5
1.23566327634711,484,513,29,-498.5,227.5,271
1.23782731010604,484,514,30,-499,227,272
1.23999134386496,482,514,32,-498,225,273
1.24215537762389,481,514,33,-497.5,224,273.5
1.24431941138282,482,514,32,-498,225,273
1.24648344514174,483,514,31,-498.5,226,272.5
1.24864747890067,487,514,27,-500.5,230,270.5
1.2508115126596,490,514,24,-502,233,269
1.25297554641852,492,514,22,-503,235,268
1.25513958017745,493,514,21,-503.5,236,267.5
1.25730361393638,490,514,24,-502,233,269
1.2594676476953,492,514,22,-503,235,268
1.26163168145423,492,514,22,-503,235,268
1.26379571521316,489,514,25,-501.5,232,269.5
1.26595974897208,485,513,28,-499,228.5,270.5
1.26812378273101,488,514,26,-501,231,270
1.27028781648994,488,514,26,-501,231,270
1.27245185024886,489,514,25,-501.5,232,269.5
1.27461588400779,490,514,24,-502,233,269
1.27677991776672,489,513,24,-501,232.5,268.5
1.27894395152564,494,514,20,-504,237,267
1.28110798528457,494,514,20,-504,237,267
1.2832720190435,495,514,19,-504.5,238,266.5
1.28543605280242,496,514,18,-505,239,266
1.28760008656135,497,513,16,-505,240.5,264.5
1.28976412032028,493,513,20,-503,236.5,266.5
1.2919281540792,494,514,20,-504,237,267
1.29409218783813,493,514,21,-503.5,236,267.5
1.29625622159706,490,513,23,-501.5,233.5,268
1.29842025535598,491,514,23,-502.5,234,268.5
1.30058428911491,491,514,23,-502.5,234,268.5
1.30274832287384,495,514,19,-504.5,238,266.5
1.30491235663276,498,514,16,-506,241,265
1.30707639039169,500,513,13,-506.5,243.5,263
1.30924042415062,499,514,15,-506.5,242,264.5
1.31140445790954,498,514,16,-506,241,265
1.31356849166847,497,514,17,-505.5,240,265.5
1.3157325254274,496,514,18,-505,239,266
1.31789655918632,494,513,19,-503.5,237.5,266
1.32006059294525,494,514,20,-504,237,267
1.32222462670418,496,513,17,-504.5,239.5,265
1.3243886604631,502,514,12,-508,245,263
1.32655269422203,502,514,12,-508,245,263
1.32871672798096,502,514,12,-508,245,263
1.33088076173988,501,514,13,-507.5,244,263.5
1.33304479549881,501,514,13,-507.5,244,263.5
1.33520882925774,498,513,15,-505.5,241.5,264
1.33737286301666,500,514,14,-507,243,264
1.33953689677559,499,514,15,-506.5,242,264.5
1.34170093053452,497,514,17,-505.5,240,265.5
1.34386496429344,498,514,16,-506,241,265
1.34602899805237,499,514,15,-506.5,242,264.5
1.3481930318113,500,514,14,-507,243,264
1.35035706557022,499,514,15,-506.5,242,264.5
1.35252109932915,499,514,15,-506.5,242,264.5
1.35468513308808,499,514,15,-506.5,242,264.5
1.356849166847,501,514,13,-507.5,244,263.5
1.35901320060593,500,514,14,-507,243,264
1.36117723436486,500,514,14,-507,243,264
1.36334126812378,503,514,11,-508.5,246,262.5
1.36550530188271,502,514,12,-508,245,263
1.36766933564164,501,514,13,-507.5,244,263.5
1.36983336940056,499,514,15,-506.5,242,264.5
1.37199740315949,497,514,17,-505.5,240,265.5
1.37416143691842,497,514,17,-505.5,240,265.5
1.37632547067734,498,514,16,-506,241,265
1.37848950443627,496,514,18,-505,239,266
1.3806535381952,495,514,19,-504.5,238,266.5
1.38281757195412,491,514,23,-502.5,234,268.5
1.38498160571305,492,514,22,-503,235,268
1.38714563947198,491,513,22,-502,234.5,267.5
1.3893096732309,492,514,22,-503,235,268
1.39147370698983,498,514,16,-506,241,265
1.39363774074876,501,514,13,-507.5,244,263.5
1.39580177450768,501,514,13,-507.5,244,263.5
1.39796580826661,499,514,15,-506.5,242,264.5
1.40012984202554,499,514,15,-506.5,242,264.5
1.40229387578446,495,514,19,-504.5,238,266.5
1.40445790954339,498,514,16,-506,241,265
1.40662194330232,498,514,16,-506,241,265
1.40878597706124,498,514,16,-506,241,265
1.41095001082017,498,514,16,-506,241,265
1.4131140445791,501,514,13,-507.5,244,263.5
1.41527807833802,501,513,12,-507,244.5,262.5
1.41744211209695,499,514,15,-506.5,242,264.5
1.41960614585588,500,514,14,-507,243,264
1.4217701796148,501,514,13,-507.5,244,263.5
1.42393421337373,501,514,13,-507.5,244,263.5
1.42609824713266,496,514,18,-505,239,266
1.42826228089158,499,514,15,-506.5,242,264.5
1.43042631465051,501,514,13,-507.5,244,263.5
1.43259034840944,500,514,14,-507,243,264
1.43475438216836,503,514,11,-508.5,246,262.5
1.43691841592729,508,514,6,-511,251,260
1.43908244968622,508,514,6,-511,251,260
1.44124648344514,508,514,6,-511,251,260
1.44341051720407,506,513,7,-509.5,249.5,260
1.44557455096299,506,514,8,-510,249,261
1.44773858472192,504,514,10,-509,247,262
1.44990261848085,505,513,8,-509,248.5,260.5
1.45206665223977,509,514,5,-511.5,252,259.5
1.4542306859987,511,513,2,-512,254.5,257.5
1.45639471975763,516,513,-3,-514.5,259.5,255
1.45855875351655,512,514,2,-513,255,258
1.46072278727548,514,514,0,-514,257,257
1.46288682103441,515,514,-1,-514.5,258,256.5
1.46505085479333,515,514,-1,-514.5,258,256.5
1.46721488855226,512,514,2,-513,255,258
1.46937892231119,510,514,4,-512,253,259
1.47154295607011,514,513,-1,-513.5,257.5,256
1.47370698982904,515,514,-1,-514.5,258,256.5
1.47587102358797,517,514,-3,-515.5,260,255.5
1.47803505734689,513,514,1,-513.5,256,257.5
1.48019909110582,514,514,0,-514,257,257
1.48236312486475,512,514,2,-513,255,258
1.48452715862367,512,514,2,-513,255,258
1.4866911923826,509,514,5,-511.5,252,259.5
1.48885522614153,509,514,5,-511.5,252,259.5
1.49101925990045,508,514,6,-511,251,260
1.49318329365938,506,514,8,-510,249,261
1.49534732741831,504,514,10,-509,247,262
1.49751136117723,504,514,10,-509,247,262
1.49967539493616,504,514,10,-509,247,262
1.50183942869509,502,513,11,-507.5,245.5,262
1.50400346245401,497,513,16,-505,240.5,264.5
1.50616749621294,499,514,15,-506.5,242,264.5
1.50833152997187,496,513,17,-504.5,239.5,265
1.51049556373079,496,514,18,-505,239,266
1.51265959748972,493,514,21,-503.5,236,267.5
1.51482363124865,490,513,23,-501.5,233.5,268
1.51698766500757,492,514,22,-503,235,268
1.5191516987665,494,514,20,-504,237,267
1.52131573252543,494,514,20,-504,237,267
1.52347976628435,494,514,20,-504,237,267
1.52564380004328,495,514,19,-504.5,238,266.5
1.52780783380221,494,514,20,-504,237,267
1.52997186756113,494,514,20,-504,237,267
1.53213590132006,491,514,23,-502.5,234,268.5
1.53429993507899,489,513,24,-501,232.5,268.5
1.53646396883791,487,514,27,-500.5,230,270.5
1.53862800259684,485,514,29,-499.5,228,271.5
1.54079203635577,488,514,26,-501,231,270
1.54295607011469,491,514,23,-502.5,234,268.5
1.54512010387362,493,514,21,-503.5,236,267.5
1.54728413763255,496,514,18,-505,239,266
1.54944817139147,497,514,17,-505.5,240,265.5
1.5516122051504,497,514,17,-505.5,240,265.5
1.55377623890933,495,514,19,-504.5,238,266.5
1.55594027266825,492,514,22,-503,235,268
1.55810430642718,489,514,25,-501.5,232,269.5
1.56026834018611,484,513,29,-498.5,227.5,271
1.56243237394503,483,514,31,-498.5,226,272.5
1.56459640770396,479,514,35,-496.5,222,274.5
1.56676044146289,478,514,36,-496,221,275
1.56892447522181,475,513,38,-494,218.5,275.5
1.57108850898074,479,514,35,-496.5,222,274.5
1.57325254273967,479,512,33,-495.5,223,272.5
1.57541657649859,482,513,31,-497.5,225.5,272
1.57758061025752,481,514,33,-497.5,224,273.5
1.57974464401645,479,514,35,-496.5,222,274.5
1.58190867777537,480,513,33,-496.5,223.5,273
1.5840727115343,487,513,26,-500,230.5,269.5
1.58623674529323,501,514,13,-507.5,244,263.5
1.58840077905215,520,514,-6,-517,263,254
1.59056481281108,549,514,-35,-531.5,292,239.5
1.59272884657001,578,514,-64,-546,321,225
1.59489288032893,609,516,-93,-562.5,351,211.5
1.59705691408786,637,517,-120,-577,378.5,198.5
1.59922094784679,664,518,-146,-591,405,186
1.60138498160571,682,519,-163,-600.5,422.5,178
1.60354901536464,693,519,-174,-606,433.5,172.5
1.60571304912357,686,519,-167,-602.5,426.5,176
1.60787708288249,675,518,-157,-596.5,416,180.5
1.61004111664142,654,518,-136,-586,395,191
1.61220515040035,629,517,-112,-573,370.5,202.5
1.61436918415927,601,516,-85,-558.5,343,215.5
1.6165332179182,573,515,-58,-544,315.5,228.5
1.61869725167713,549,514,-35,-531.5,292,239.5
1.62086128543605,524,514,-10,-519,267,252
1.62302531919498,506,513,7,-509.5,249.5,260
1.62518935295391,495,513,18,-504,238.5,265.5
1.62735338671283,489,514,25,-501.5,232,269.5
1.62951742047176,487,514,27,-500.5,230,270.5
1.63168145423069,488,513,25,-500.5,231.5,269
1.63384548798961,490,514,24,-502,233,269
1.63600952174854,489,514,25,-501.5,232,269.5
1.63817355550747,487,513,26,-500,230.5,269.5
1.64033758926639,485,514,29,-499.5,228,271.5
1.64250162302532,479,514,35,-496.5,222,274.5
1.64466565678425,477,513,36,-495,220.5,274.5
1.64682969054317,477,513,36,-495,220.5,274.5
1.6489937243021,475,514,39,-494.5,218,276.5
1.65115775806103,473,514,41,-493.5,216,277.5
1.65332179181995,475,514,39,-494.5,218,276.5
1.65548582557888,474,514,40,-494,217,277
1.65764985933781,474,514,40,-494,217,277
1.65981389309673,473,514,41,-493.5,216,277.5
1.66197792685566,470,514,44,-492,213,279
1.66414196061459,467,514,47,-490.5,210,280.5
1.66630599437351,466,514,48,-490,209,281
1.66847002813244,470,514,44,-492,213,279
1.67063406189137,475,513,38,-494,218.5,275.5
1.67279809565029,477,514,37,-495.5,220,275.5
1.67496212940922,479,514,35,-496.5,222,274.5
1.67712616316815,477,513,36,-495,220.5,274.5
1.67929019692707,478,513,35,-495.5,221.5,274
1.681454230686,477,513,36,-495,220.5,274.5
1.68361826444493,472,513,41,-492.5,215.5,277
1.68578229820385,471,513,42,-492,214.5,277.5
1.68794633196278,473,513,40,-493,216.5,276.5
1.69011036572171,474,514,40,-494,217,277
1.69227439948063,476,513,37,-494.5,219.5,275
1.69443843323956,476,514,38,-495,219,276
1.69660246699849,474,514,40,-494,217,277
1.69876650075741,480,514,34,-497,223,274
1.70093053451634,482,514,32,-498,225,273
1.70309456827526,482,514,32,-498,225,273
1.70525860203419,481,514,33,-497.5,224,273.5
1.70742263579312,479,514,35,-496.5,222,274.5
1.70958666955204,478,514,36,-496,221,275
1.71175070331097,479,514,35,-496.5,222,274.5
1.7139147370699,477,514,37,-495.5,220,275.5
1.71607877082882,479,514,35,-496.5,222,274.5
1.71824280458775,480,513,33,-496.5,223.5,273
1.72040683834668,484,514,30,-499,227,272
1.7225708721056,480,514,34,-497,223,274
1.72473490586453,478,513,35,-495.5,221.5,274
1.72689893962346,479,514,35,-496.5,222,274.5
1.72906297338238,482,514,32,-498,225,273
1.73122700714131,487,513,26,-500,230.5,269.5
1.73339104090024,491,514,23,-502.5,234,268.5
1.73555507465916,496,514,18,-505,239,266
1.73771910841809,495,514,19,-504.5,238,266.5
1.73988314217702,493,514,21,-503.5,236,267.5
1.74204717593594,494,514,20,-504,237,267
1.74421120969487,489,513,24,-501,232.5,268.5
1.7463752434538,484,514,30,-499,227,272
1.74853927721272,486,514,28,-500,229,271
1.75070331097165,488,514,26,-501,231,270
1.75286734473058,490,514,24,-502,233,269
1.7550313784895,494,514,20,-504,237,267
1.75719541224843,496,514,18,-505,239,266
1.75935944600736,498,514,16,-506,241,265
1.76152347976628,496,514,18,-505,239,266
1.76368751352521,497,514,17,-505.5,240,265.5
1.76585154728414,497,514,17,-505.5,240,265.5
1.76801558104306,498,514,16,-506,241,265
1.77017961480199,497,514,17,-505.5,240,265.5
1.77234364856092,500,514,14,-507,243,264
1.77450768231984,502,513,11,-507.5,245.5,262
1.77667171607877,503,514,11,-508.5,246,262.5
1.7788357498377,502,514,12,-508,245,263
1.78099978359662,505,514,9,-509.5,248,261.5
1.78316381735555,506,514,8,-510,249,261
1.78532785111448,507,514,7,-510.5,250,260.5
1.7874918848734,512,514,2,-513,255,258
1.78965591863233,513,514,1,-513.5,256,257.5
1.79181995239126,515,514,-1,-514.5,258,256.5
1.79398398615018,515,514,-1,-514.5,258,256.5
1.79614801990911,515,514,-1,-514.5,258,256.5
1.79831205366804,513,514,1,-513.5,256,257.5
1.80047608742696,511,514,3,-512.5,254,258.5
1.80264012118589,512,514,2,-513,255,258
1.80480415494482,515,514,-1,-514.5,258,256.5
1.80696818870374,519,514,-5,-516.5,262,254.5
1.80913222246267,519,514,-5,-516.5,262,254.5
1.8112962562216,524,514,-10,-519,267,252
1.81346028998052,527,514,-13,-520.5,270,250.5
1.81562432373945,526,514,-12,-520,269,251
1.81778835749838,524,514,-10,-519,267,252
1.8199523912573,520,513,-7,-516.5,263.5,253
1.82211642501623,521,514,-7,-517.5,264,253.5
1.82428045877516,523,514,-9,-518.5,266,252.5
1.82644449253408,523,514,-9,-518.5,266,252.5
1.82860852629301,525,514,-11,-519.5,268,251.5
1.83077256005194,528,514,-14,-521,271,250
1.83293659381086,532,514,-18,-523,275,248
1.83510062756979,530,514,-16,-522,273,249
1.83726466132872,532,514,-18,-523,275,248
1.83942869508764,534,514,-20,-524,277,247
1.84159272884657,534,514,-20,-524,277,247
1.8437567626055,531,514,-17,-522.5,274,248.5
1.84592079636442,532,513,-19,-522.5,275.5,247
1.84808483012335,531,514,-17,-522.5,274,248.5
1.85024886388228,529,514,-15,-521.5,272,249.5
1.8524128976412,527,513,-14,-520,270.5,249.5
1.85457693140013,526,514,-12,-520,269,251
1.85674096515906,523,514,-9,-518.5,266,252.5
1.85890499891798,527,514,-13,-520.5,270,250.5
1.86106903267691,527,514,-13,-520.5,270,250.5
1.86323306643584,524,514,-10,-519,267,252
1.86539710019476,523,514,-9,-518.5,266,252.5
1.86756113395369,522,514,-8,-518,265,253
1.86972516771262,517,514,-3,-515.5,260,255.5
1.87188920147154,514,513,-1,-513.5,257.5,256
1.87405323523047,513,514,1,-513.5,256,257.5
1.8762172689894,511,514,3,-512.5,254,258.5
1.87838130274832,507,514,7,-510.5,250,260.5
1.88054533650725,505,514,9,-509.5,248,261.5
1.88270937026618,502,514,12,-508,245,263
1.8848734040251,502,514,12,-508,245,263
1.88703743778403,502,514,12,-508,245,263
1.88920147154296,499,514,15,-506.5,242,264.5
1.89136550530188,501,514,13,-507.5,244,263.5
1.89352953906081,498,514,16,-506,241,265
1.89569357281974,496,514,18,-505,239,266
1.89785760657866,492,514,22,-503,235,268
1.90002164033759,487,514,27,-500.5,230,270.5
1.90218567409652,487,514,27,-500.5,230,270.5
1.90434970785544,487,514,27,-500.5,230,270.5
1.90651374161437,488,514,26,-501,231,270
1.9086777753733,489,513,24,-501,232.5,268.5
1.91084180913222,487,514,27,-500.5,230,270.5
1.91300584289115,487,514,27,-500.5,230,270.5
1.91516987665008,488,514,26,-501,231,270
1.917333910409,487,514,27,-500.5,230,270.5
1.91949794416793,483,513,30,-498,226.5,271.5
1.92166197792686,484,514,30,-499,227,272
1.92382601168578,485,513,28,-499,228.5,270.5
1.92599004544471,485,514,29,-499.5,228,271.5
1.92815407920364,486,514,28,-500,229,271
1.93031811296256,491,513,22,-502,234.5,267.5
1.93248214672149,490,514,24,-502,233,269
1.93464618048042,485,513,28,-499,228.5,270.5
1.93681021423934,484,514,30,-499,227,272
1.93897424799827,487,514,27,-500.5,230,270.5
1.9411382817572,483,513,30,-498,226.5,271.5
1.94330231551612,484,513,29,-498.5,227.5,271
1.94546634927505,485,514,29,-499.5,228,271.5
1.94763038303398,489,514,25,-501.5,232,269.5
1.9497944167929,490,514,24,-502,233,269
1.95195845055183,491,514,23,-502.5,234,268.5
1.95412248431076,493,514,21,-503.5,236,267.5
1.95628651806968,495,514,19,-504.5,238,266.5
1.95845055182861,494,514,20,-504,237,267
1.96061458558753,494,513,19,-503.5,237.5,266
1.96277861934646,492,514,22,-503,235,268
1.96494265310539,493,514,21,-503.5,236,267.5
1.96710668686432,492,514,22,-503,235,268
1.96927072062324,492,514,22,-503,235,268
1.97143475438217,492,514,22,-503,235,268
1.97359878814109,489,514,25,-501.5,232,269.5
1.97576282190002,493,513,20,-503,236.5,266.5
1.97792685565895,497,514,17,-505.5,240,265.5
1.98009088941787,499,514,15,-506.5,242,264.5
1.9822549231768,497,514,17,-505.5,240,265.5
1.98441895693573,498,514,16,-506,241,265
1.98658299069465,498,514,16,-506,241,265
1.98874702445358,499,513,14,-506,242.5,263.5
1.99091105821251,499,514,15,-506.5,242,264.5
1.99307509197143,497,514,17,-505.5,240,265.5
1.99523912573036,495,514,19,-504.5,238,266.5
1.99740315948929,492,514,22,-503,235,268
1.99956719324821,493,514,21,-503.5,236,267.5
2.00173122700714,495,514,19,-504.5,238,266.5
2.00389526076607,497,514,17,-505.5,240,265.5
2.00605929452499,498,514,16,-506,241,265
2.00822332828392,498,514,16,-506,241,265
2.01038736204285,501,514,13,-507.5,244,263.5
2.01255139580177,504,514,10,-509,247,262
2.0147154295607,504,514,10,-509,247,262
2.01687946331963,504,514,10,-509,247,262
2.01904349707855,505,514,9,-509.5,248,261.5
2.02120753083748,502,514,12,-508,245,263
2.02337156459641,499,514,15,-506.5,242,264.5
2.02553559835533,498,514,16,-506,241,265
2.02769963211426,502,514,12,-508,245,263
2.02986366587319,501,513,12,-507,244.5,262.5
2.03202769963211,500,514,14,-507,243,264
2.03419173339104,502,514,12,-508,245,263
2.03635576714997,501,514,13,-507.5,244,263.5
2.03851980090889,505,514,9,-509.5,248,261.5
2.04068383466782,507,514,7,-510.5,250,260.5
2.04284786842675,505,514,9,-509.5,248,261.5
2.04501190218567,506,513,7,-509.5,249.5,260
2.0471759359446,506,514,8,-510,249,261
2.04933996970353,504,514,10,-509,247,262
2.05150400346245,505,514,9,-509.5,248,261.5
2.05366803722138,503,514,11,-508.5,246,262.5
2.05583207098031,503,513,10,-508,246.5,261.5
2.05799610473923,502,514,12,-508,245,263
2.06016013849816,504,514,10,-509,247,262
2.06232417225709,505,514,9,-509.5,248,261.5
2.06448820601601,509,513,4,-511,252.5,258.5
2.06665223977494,512,513,1,-512.5,255.5,257
2.06881627353387,510,514,4,-512,253,259
2.07098030729279,510,514,4,-512,253,259
2.07314434105172,508,514,6,-511,251,260
2.07530837481065,506,514,8,-510,249,261
2.07747240856957,506,514,8,-510,249,261
2.0796364423285,505,514,9,-509.5,248,261.5
2.08180047608743,507,514,7,-510.5,250,260.5
2.08396450984635,507,514,7,-510.5,250,260.5
2.08612854360528,508,514,6,-511,251,260
2.08829257736421,503,514,11,-508.5,246,262.5
2.09045661112313,503,514,11,-508.5,246,262.5
2.09262064488206,502,514,12,-508,245,263
2.09478467864099,501,514,13,-507.5,244,263.5
2.09694871239991,500,514,14,-507,243,264
2.09911274615884,504,514,10,-509,247,262
2.10127677991777,503,514,11,-508.5,246,262.5
2.10344081367669,503,513,10,-508,246.5,261.5
2.10560484743562,505,514,9,-509.5,248,261.5
2.10776888119455,506,514,8,-510,249,261
2.10993291495347,506,514,8,-510,249,261
2.1120969487124,506,514,8,-510,249,261
2.11426098247133,505,514,9,-509.5,248,261.5
2.11642501623025,507,514,7,-510.5,250,260.5
2.11858904998918,506,514,8,-510,249,261
2.12075308374811,506,514,8,-510,249,261
2.12291711750703,504,514,10,-509,247,262
2.12508115126596,509,514,5,-511.5,252,259.5
2.12724518502489,513,514,1,-513.5,256,257.5
2.12940921878381,511,514,3,-512.5,254,258.5
2.13157325254274,513,514,1,-513.5,256,257.5
2.13373728630167,511,514,3,-512.5,254,258.5
2.13590132006059,510,514,4,-512,253,259
2.13806535381952,507,513,6,-510,250.5,259.5
2.14022938757845,507,514,7,-510.5,250,260.5
2.14239342133737,505,514,9,-509.5,248,261.5
2.1445574550963,504,514,10,-509,247,262
2.14672148885523,506,514,8,-510,249,261
2.14888552261415,510,514,4,-512,253,259
2.15104955637308,513,513,0,-513,256.5,256.5
2.15321359013201,512,514,2,-513,255,258
2.15537762389093,512,514,2,-513,255,258
2.15754165764986,512,514,2,-513,255,258
2.15970569140879,509,514,5,-511.5,252,259.5
2.16186972516771,508,514,6,-511,251,260
2.16403375892664,508,514,6,-511,251,260
2.16619779268557,509,514,5,-511.5,252,259.5
2.16836182644449,512,514,2,-513,255,258
2.17052586020342,513,513,0,-513,256.5,256.5
2.17268989396235,515,513,-2,-514,258.5,255.5
2.17485392772127,513,514,1,-513.5,256,257.5
2.1770179614802,514,514,0,-514,257,257
2.17918199523913,516,514,-2,-515,259,256
2.18134602899805,517,514,-3,-515.5,260,255.5
2.18351006275698,521,514,-7,-517.5,264,253.5
2.18567409651591,521,514,-7,-517.5,264,253.5
2.18783813027483,522,514,-8,-518,265,253
2.19000216403376,522,514,-8,-518,265,253
2.19216619779269,519,514,-5,-516.5,262,254.5
2.19433023155161,515,514,-1,-514.5,258,256.5
2.19649426531054,513,514,1,-513.5,256,257.5
2.19865829906947,516,514,-2,-515,259,256
2.20082233282839,518,513,-5,-515.5,261.5,254
2.20298636658732,522,514,-8,-518,265,253
2.20515040034625,527,514,-13,-520.5,270,250.5
2.20731443410517,531,514,-17,-522.5,274,248.5
2.2094784678641,533,514,-19,-523.5,276,247.5
2.21164250162303,533,514,-19,-523.5,276,247.5
2.21380653538195,529,514,-15,-521.5,272,249.5
2.21597056914088,524,514,-10,-519,267,252
2.21813460289981,521,514,-7,-517.5,264,253.5
2.22029863665873,522,514,-8,-518,265,253
2.22246267041766,520,514,-6,-517,263,254
2.22462670417659,520,514,-6,-517,263,254
2.22679073793551,519,514,-5,-516.5,262,254.5
2.22895477169444,518,514,-4,-516,261,255
2.23111880545336,517,514,-3,-515.5,260,255.5
2.23328283921229,518,513,-5,-515.5,261.5,254
2.23544687297122,518,514,-4,-516,261,255
2.23761090673014,515,514,-1,-514.5,258,256.5
2.23977494048907,513,514,1,-513.5,256,257.5
2.241938974248,511,514,3,-512.5,254,258.5
2.24410300800692,507,514,7,-510.5,250,260.5
2.24626704176585,506,514,8,-510,249,261
2.24843107552478,504,514,10,-509,247,262
2.2505951092837,502,514,12,-508,245,263
2.25275914304263,501,514,13,-507.5,244,263.5
2.25492317680156,503,514,11,-508.5,246,262.5
2.25708721056048,501,513,12,-507,244.5,262.5
2.25925124431941,503,514,11,-508.5,246,262.5
2.26141527807834,502,514,12,-508,245,263
2.26357931183726,501,514,13,-507.5,244,263.5
2.26574334559619,500,514,14,-507,243,264
2.26790737935512,500,514,14,-507,243,264
2.27007141311404,503,514,11,-508.5,246,262.5
2.27223544687297,501,514,13,-507.5,244,263.5
2.2743994806319,501,513,12,-507,244.5,262.5
2.27656351439082,500,514,14,-507,243,264
2.27872754814975,499,514,15,-506.5,242,264.5
2.28089158190868,500,514,14,-507,243,264
2.2830556156676,500,514,14,-507,243,264
2.28521964942653,500,514,14,-507,243,264
2.28738368318546,502,514,12,-508,245,263
2.28954771694438,503,514,11,-508.5,246,262.5
2.29171175070331,506,514,8,-510,249,261
2.29387578446224,505,514,9,-509.5,248,261.5
2.29603981822116,504,514,10,-509,247,262
2.29820385198009,502,513,11,-507.5,245.5,262
2.30036788573902,499,514,15,-506.5,242,264.5
2.30253191949794,496,514,18,-505,239,266
2.30469595325687,494,514,20,-504,237,267
2.3068599870158,492,514,22,-503,235,268
2.30902402077472,488,514,26,-501,231,270
2.31118805453365,487,514,27,-500.5,230,270.5
2.31335208829258,486,514,28,-500,229,271
2.3155161220515,485,513,28,-499,228.5,270.5
2.31768015581043,483,514,31,-498.5,226,272.5
2.31984418956936,488,514,26,-501,231,270
2.32200822332828,496,514,18,-505,239,266
2.32417225708721,512,514,2,-513,255,258
2.32633629084614,534,514,-20,-524,277,247
2.32850032460506,565,514,-51,-539.5,308,231.5
2.33066435836399,594,515,-79,-554.5,336.5,218
2.33282839212292,621,516,-105,-568.5,363,205.5
2.33499242588184,650,517,-133,-583.5,391.5,192
2.33715645964077,675,518,-157,-596.5,416,180.5
2.3393204933997,697,519,-178,-608,437.5,170.5
2.34148452715862,706,519,-187,-612.5,446.5,166
2.34364856091755,704,519,-185,-611.5,444.5,167
2.34581259467648,688,518,-170,-603,429,174
2.3479766284354,662,518,-144,-590,403,187
2.35014066219433,634,517,-117,-575.5,375.5,200
2.35230469595326,607,516,-91,-561.5,349,212.5
2.35446872971218,577,515,-62,-546,319.5,226.5
2.35663276347111,552,514,-38,-533,295,238
2.35879679723004,529,514,-15,-521.5,272,249.5
2.36096083098896,513,514,1,-513.5,256,257.5
2.36312486474789,504,514,10,-509,247,262
2.36528889850682,499,513,14,-506,242.5,263.5
2.36745293226574,497,513,16,-505,240.5,264.5
2.36961696602467,494,514,20,-504,237,267
2.3717809997836,495,514,19,-504.5,238,266.5
2.37394503354252,495,514,19,-504.5,238,266.5
2.37610906730145,495,513,18,-504,238.5,265.5
2.37827310106038,493,514,21,-503.5,236,267.5
2.3804371348193,492,514,22,-503,235,268
2.38260116857823,490,514,24,-502,233,269
2.38476520233716,488,514,26,-501,231,270
2.38692923609608,484,514,30,-499,227,272
2.38909326985501,480,514,34,-497,223,274
2.39125730361394,479,513,34,-496,222.5,273.5
2.39342133737286,480,513,33,-496.5,223.5,273
2.39558537113179,481,514,33,-497.5,224,273.5
2.39774940489072,480,514,34,-497,223,274
2.39991343864964,480,514,34,-497,223,274
2.40207747240857,477,514,37,-495.5,220,275.5
2.4042415061675,479,514,35,-496.5,222,274.5
2.40640553992642,478,514,36,-496,221,275
2.40856957368535,483,514,31,-498.5,226,272.5
2.41073360744428,485,514,29,-499.5,228,271.5
2.4128976412032,486,514,28,-500,229,271
2.41506167496213,486,513,27,-499.5,229.5,270
2.41722570872106,489,514,25,-501.5,232,269.5
2.41938974247998,487,513,26,-500,230.5,269.5
2.42155377623891,489,514,25,-501.5,232,269.5
2.42371780999784,486,513,27,-499.5,229.5,270
2.42588184375676,485,513,28,-499,228.5,270.5
2.42804587751569,483,513,30,-498,226.5,271.5
2.43020991127462,484,514,30,-499,227,272
2.43237394503354,488,514,26,-501,231,270
2.43453797879247,492,514,22,-503,235,268
2.4367020125514,494,514,20,-504,237,267
2.43886604631032,496,513,17,-504.5,239.5,265
2.44103008006925,495,514,19,-504.5,238,266.5
2.44319411382818,492,514,22,-503,235,268
2.4453581475871,487,514,27,-500.5,230,270.5
2.44752218134603,487,514,27,-500.5,230,270.5
2.44968621510496,491,514,23,-502.5,234,268.5
2.45185024886388,490,514,24,-502,233,269
2.45401428262281,494,513,19,-503.5,237.5,266
2.45617831638174,494,514,20,-504,237,267
2.45834235014066,495,514,19,-504.5,238,266.5
2.46050638389959,498,514,16,-506,241,265
2.46267041765852,497,513,16,-505,240.5,264.5
2.46483445141744,498,513,15,-505.5,241.5,264
2.46699848517637,497,514,17,-505.5,240,265.5
2.4691625189353,499,513,14,-506,242.5,263.5
2.47132655269422,498,514,16,-506,241,265
2.47349058645315,501,514,13,-507.5,244,263.5
2.47565462021208,504,513,9,-508.5,247.5,261
2.477818653971,504,514,10,-509,247,262
2.47998268772993,506,514,8,-510,249,261
2.48214672148886,505,513,8,-509,248.5,260.5
2.48431075524778,506,514,8,-510,249,261
2.48647478900671,505,514,9,-509.5,248,261.5
2.48863882276564,505,514,9,-509.5,248,261.5
2.49080285652456,506,513,7,-509.5,249.5,260
2.49296689028349,507,513,6,-510,250.5,259.5
2.49513092404242,511,514,3,-512.5,254,258.5
2.49729495780134,511,514,3,-512.5,254,258.5
2.49945899156027,511,514,3,-512.5,254,258.5
2.50162302531919,508,514,6,-511,251,260
2.50378705907812,511,513,2,-512,254.5,257.5
2.50595109283705,510,514,4,-512,253,259
2.50811512659597,507,514,7,-510.5,250,260.5
2.5102791603549,511,514,3,-512.5,254,258.5
2.51244319411383,511,514,3,-512.5,254,258.5
2.51460722787275,517,514,-3,-515.5,260,255.5
2.51677126163168,523,513,-10,-518,266.5,251.5
2.51893529539061,526,514,-12,-520,269,251
2.52109932914953,527,514,-13,-520.5,270,250.5
2.52326336290846,527,514,-13,-520.5,270,250.5
2.52542739666739,527,514,-13,-520.5,270,250.5
2.52759143042631,523,514,-9,-518.5,266,252.5
2.52975546418524,525,514,-11,-519.5,268,251.5
2.53191949794417,527,514,-13,-520.5,270,250.5
2.53408353170309,524,514,-10,-519,267,252
2.53624756546202,527,514,-13,-520.5,270,250.5
2.53841159922095,528,514,-14,-521,271,250
2.54057563297987,528,514,-14,-521,271,250
2.5427396667388,529,514,-15,-521.5,272,249.5
2.54490370049773,529,514,-15,-521.5,272,249.5
2.54706773425665,527,514,-13,-520.5,270,250.5
2.54923176801558,526,514,-12,-520,269,251
2.55139580177451,531,514,-17,-522.5,274,248.5
2.55355983553343,533,514,-19,-523.5,276,247.5
2.55572386929236,538,514,-24,-526,281,245
2.55788790305129,539,514,-25,-526.5,282,244.5
2.56005193681021,541,514,-27,-527.5,284,243.5
2.56221597056914,544,514,-30,-529,287,242
2.56438000432807,543,514,-29,-528.5,286,242.5
2.56654403808699,545,514,-31,-529.5,288,241.5
2.56870807184592,543,514,-29,-528.5,286,242.5
2.57087210560485,542,514,-28,-528,285,243
2.57303613936377,542,513,-29,-527.5,285.5,242
2.5752001731227,540,514,-26,-527,283,244
2.57736420688163,539,514,-25,-526.5,282,244.5
2.57952824064055,540,514,-26,-527,283,244
2.58169227439948,541,514,-27,-527.5,284,243.5
2.58385630815841,542,514,-28,-528,285,243
2.58602034191733,541,514,-27,-527.5,284,243.5
2.58818437567626,541,514,-27,-527.5,284,243.5
2.59034840943519,539,514,-25,-526.5,282,244.5
2.59251244319411,539,513,-26,-526,282.5,243.5
2.59467647695304,538,514,-24,-526,281,245
2.59684051071197,537,514,-23,-525.5,280,245.5
2.59900454447089,534,513,-21,-523.5,277.5,246
2.60116857822982,537,514,-23,-525.5,280,245.5
2.60333261198875,535,514,-21,-524.5,278,246.5
2.60549664574767,529,514,-15,-521.5,272,249.5
2.6076606795066,525,514,-11,-519.5,268,251.5
2.60982471326553,523,513,-10,-518,266.5,251.5
2.61198874702445,522,514,-8,-518,265,253
2.61415278078338,518,513,-5,-515.5,261.5,254
2.61631681454231,520,514,-6,-517,263,254
2.61848084830123,516,514,-2,-515,259,256
2.62064488206016,512,513,1,-512.5,255.5,257
2.62280891581909,508,514,6,-511,251,260
2.62497294957801,506,514,8,-510,249,261
2.62713698333694,503,514,11,-508.5,246,262.5
2.62930101709587,499,514,15,-506.5,242,264.5
2.63146505085479,494,514,20,-504,237,267
2.63362908461372,495,514,19,-504.5,238,266.5
2.63579311837265,491,513,22,-502,234.5,267.5
2.63795715213157,491,514,23,-502.5,234,268.5
2.6401211858905,494,514,20,-504,237,267
2.64228521964943,495,514,19,-504.5,238,266.5
2.64444925340835,498,514,16,-506,241,265
2.64661328716728,501,514,13,-507.5,244,263.5
2.64877732092621,497,514,17,-505.5,240,265.5
2.65094135468513,491,513,22,-502,234.5,267.5
2.65310538844406,488,514,26,-501,231,270
2.65526942220299,487,514,27,-500.5,230,270.5
2.65743345596191,484,514,30,-499,227,272
2.65959748972084,481,514,33,-497.5,224,273.5
2.66176152347977,482,513,31,-497.5,225.5,272
2.66392555723869,479,514,35,-496.5,222,274.5
2.66608959099762,481,514,33,-497.5,224,273.5
2.66825362475655,486,513,27,-499.5,229.5,270
2.67041765851547,489,514,25,-501.5,232,269.5
2.6725816922744,488,512,24,-500,232,268
2.67474572603333,492,514,22,-503,235,268
2.67690975979225,492,514,22,-503,235,268
2.67907379355118,493,514,21,-503.5,236,267.5
2.68123782731011,491,514,23,-502.5,234,268.5
2.68340186106903,488,514,26,-501,231,270
2.68556589482796,485,514,29,-499.5,228,271.5
2.68772992858689,482,514,32,-498,225,273
2.68989396234581,483,514,31,-498.5,226,272.5
2.69205799610474,484,514,30,-499,227,272
2.69422202986367,484,513,29,-498.5,227.5,271
2.69638606362259,487,514,27,-500.5,230,270.5
2.69855009738152,485,514,29,-499.5,228,271.5
2.70071413114045,488,514,26,-501,231,270
2.70287816489937,487,513,26,-500,230.5,269.5
2.7050421986583,487,514,27,-500.5,230,270.5
2.70720623241723,488,514,26,-501,231,270
2.70937026617615,490,514,24,-502,233,269
2.71153429993508,493,514,21,-503.5,236,267.5
2.71369833369401,496,514,18,-505,239,266
2.71586236745293,497,513,16,-505,240.5,264.5
2.71802640121186,500,514,14,-507,243,264
2.72019043497079,500,513,13,-506.5,243.5,263
2.72235446872971,497,514,17,-505.5,240,265.5
2.72451850248864,495,514,19,-504.5,238,266.5
2.72668253624757,496,514,18,-505,239,266
2.72884657000649,494,514,20,-504,237,267
2.73101060376542,490,514,24,-502,233,269
2.73317463752435,495,514,19,-504.5,238,266.5
2.73533867128327,499,514,15,-506.5,242,264.5
2.7375027050422,499,514,15,-506.5,242,264.5
2.73966673880113,497,513,16,-505,240.5,264.5
2.74183077256005,496,514,18,-505,239,266
2.74399480631898,498,514,16,-506,241,265
2.7461588400779,501,514,13,-507.5,244,263.5
2.74832287383683,499,514,15,-506.5,242,264.5
2.75048690759576,501,514,13,-507.5,244,263.5
2.75265094135468,503,513,10,-508,246.5,261.5
2.75481497511361,504,514,10,-509,247,262
2.75697900887254,502,514,12,-508,245,263
2.75914304263146,501,514,13,-507.5,244,263.5
2.76130707639039,501,514,13,-507.5,244,263.5
2.76347111014932,503,514,11,-508.5,246,262.5
2.76563514390824,500,513,13,-506.5,243.5,263
2.76779917766717,501,514,13,-507.5,244,263.5
2.7699632114261,504,514,10,-509,247,262
2.77212724518502,502,513,11,-507.5,245.5,262
2.77429127894395,503,513,10,-508,246.5,261.5
2.77645531270288,500,513,13,-506.5,243.5,263
2.7786193464618,495,514,19,-504.5,238,266.5
2.78078338022073,496,514,18,-505,239,266
2.78294741397966,496,513,17,-504.5,239.5,265
2.78511144773858,497,514,17,-505.5,240,265.5
2.78727548149751,495,514,19,-504.5,238,266.5
2.78943951525644,496,513,17,-504.5,239.5,265
2.79160354901536,499,514,15,-506.5,242,264.5
2.79376758277429,502,514,12,-508,245,263
2.79593161653322,503,514,11,-508.5,246,262.5
2.79809565029214,503,514,11,-508.5,246,262.5
2.80025968405107,502,513,11,-507.5,245.5,262
2.80242371781,503,514,11,-508.5,246,262.5
2.80458775156892,501,514,13,-507.5,244,263.5
2.80675178532785,501,514,13,-507.5,244,263.5
2.80891581908678,501,513,12,-507,244.5,262.5
2.8110798528457,504,514,10,-509,247,262
2.81324388660463,505,514,9,-509.5,248,261.5
2.81540792036356,507,514,7,-510.5,250,260.5
2.81757195412248,505,514,9,-509.5,248,261.5
2.81973598788141,503,514,11,-508.5,246,262.5
2.82190002164034,503,513,10,-508,246.5,261.5
2.82406405539926,502,513,11,-507.5,245.5,262
2.82622808915819,503,514,11,-508.5,246,262.5
2.82839212291712,500,514,14,-507,243,264
2.83055615667604,501,514,13,-507.5,244,263.5
2.83272019043497,504,514,10,-509,247,262
2.8348842241939,503,514,11,-508.5,246,262.5
2.83704825795282,502,514,12,-508,245,263
2.83921229171175,504,514,10,-509,247,262
2.84137632547068,507,514,7,-510.5,250,260.5
2.8435403592296,508,514,6,-511,251,260
2.84570439298853,507,514,7,-510.5,250,260.5
2.84786842674746,507,513,6,-510,250.5,259.5
2.85003246050638,504,514,10,-509,247,262
2.85219649426531,501,514,13,-507.5,244,263.5
2.85436052802424,499,514,15,-506.5,242,264.5
2.85652456178316,504,514,10,-509,247,262
2.85868859554209,509,514,5,-511.5,252,259.5
2.86085262930102,508,513,5,-510.5,251.5,259
2.86301666305994,504,514,10,-509,247,262
2.86518069681887,499,514,15,-506.5,242,264.5
2.8673447305778,502,514,12,-508,245,263
2.86950876433672,506,514,8,-510,249,261
2.87167279809565,508,514,6,-511,251,260
2.87383683185458,507,514,7,-510.5,250,260.5
2.8760008656135,507,514,7,-510.5,250,260.5
2.87816489937243,506,514,8,-510,249,261
2.88032893313136,506,514,8,-510,249,261
2.88249296689028,507,513,6,-510,250.5,259.5
2.88465700064921,507,513,6,-510,250.5,259.5
2.88682103440814,507,514,7,-510.5,250,260.5
2.88898506816706,505,514,9,-509.5,248,261.5
2.89114910192599,506,514,8,-510,249,261
2.89331313568492,505,514,9,-509.5,248,261.5
2.89547716944384,504,514,10,-509,247,262
2.89764120320277,504,514,10,-509,247,262
2.8998052369617,507,514,7,-510.5,250,260.5
2.90196927072062,508,514,6,-511,251,260
2.90413330447955,510,514,4,-512,253,259
2.90629733823848,508,513,5,-510.5,251.5,259
2.9084613719974,508,514,6,-511,251,260
2.91062540575633,512,514,2,-513,255,258
2.91278943951526,514,514,0,-514,257,257
2.91495347327418,516,513,-3,-514.5,259.5,255
2.91711750703311,520,514,-6,-517,263,254
2.91928154079204,519,514,-5,-516.5,262,254.5
2.92144557455096,519,514,-5,-516.5,262,254.5
2.92360960830989,519,513,-6,-516,262.5,253.5
2.92577364206882,515,514,-1,-514.5,258,256.5
2.92793767582774,513,514,1,-513.5,256,257.5
2.93010170958667,516,514,-2,-515,259,256
2.9322657433456,516,514,-2,-515,259,256
2.93442977710452,514,513,-1,-513.5,257.5,256
2.93659381086345,518,514,-4,-516,261,255
2.93875784462238,520,514,-6,-517,263,254
2.9409218783813,518,514,-4,-516,261,255
2.94308591214023,524,514,-10,-519,267,252
2.94524994589916,526,514,-12,-520,269,251
2.94741397965808,526,514,-12,-520,269,251
2.94957801341701,525,514,-11,-519.5,268,251.5
2.95174204717594,518,513,-5,-515.5,261.5,254
2.95390608093486,518,514,-4,-516,261,255
2.95607011469379,522,514,-8,-518,265,253
2.95823414845272,523,514,-9,-518.5,266,252.5
2.96039818221164,522,514,-8,-518,265,253
2.96256221597057,526,514,-12,-520,269,251
2.9647262497295,525,514,-11,-519.5,268,251.5
2.96689028348842,524,514,-10,-519,267,252
2.96905431724735,522,514,-8,-518,265,253
2.97121835100628,520,514,-6,-517,263,254
2.9733823847652,518,514,-4,-516,261,255
2.97554641852413,519,514,-5,-516.5,262,254.5
2.97771045228306,518,514,-4,-516,261,255
2.97987448604198,516,514,-2,-515,259,256
2.98203851980091,512,514,2,-513,255,258
2.98420255355984,509,514,5,-511.5,252,259.5
2.98636658731876,508,514,6,-511,251,260
2.98853062107769,508,514,6,-511,251,260
2.99069465483662,506,514,8,-510,249,261
2.99285868859554,505,513,8,-509,248.5,260.5
2.99502272235447,507,514,7,-510.5,250,260.5
2.9971867561134,509,514,5,-511.5,252,259.5
2.99935078987232,508,514,6,-511,251,260
3.00151482363125,509,514,5,-511.5,252,259.5
3.00367885739018,507,514,7,-510.5,250,260.5
3.0058428911491,506,514,8,-510,249,261
3.00800692490803,503,514,11,-508.5,246,262.5
3.01017095866696,501,514,13,-507.5,244,263.5
3.01233499242588,503,514,11,-508.5,246,262.5
3.01449902618481,503,514,11,-508.5,246,262.5
3.01666305994374,503,514,11,-508.5,246,262.5
3.01882709370266,504,513,9,-508.5,247.5,261
3.02099112746159,504,514,10,-509,247,262
3.02315516122051,503,514,11,-508.5,246,262.5
3.02531919497944,507,514,7,-510.5,250,260.5
3.02748322873837,506,514,8,-510,249,261
3.02964726249729,505,514,9,-509.5,248,261.5
3.03181129625622,504,514,10,-509,247,262
3.03397533001515,502,514,12,-508,245,263
3.03613936377407,499,514,15,-506.5,242,264.5
3.038303397533,498,514,16,-506,241,265
3.04046743129193,498,514,16,-506,241,265
3.04263146505085,499,514,15,-506.5,242,264.5
3.04479549880978,496,514,18,-505,239,266
3.04695953256871,495,514,19,-504.5,238,266.5
3.04912356632763,491,514,23,-502.5,234,268.5
3.05128760008656,490,513,23,-501.5,233.5,268
3.05345163384549,487,514,27,-500.5,230,270.5
3.05561566760441,492,513,21,-502.5,235.5,267
3.05777970136334,495,513,18,-504,238.5,265.5
3.05994373512227,494,514,20,-504,237,267
3.06210776888119,495,514,19,-504.5,238,266.5
3.06427180264012,505,514,9,-509.5,248,261.5
3.06643583639905,519,514,-5,-516.5,262,254.5
3.06859987015797,537,514,-23,-525.5,280,245.5
3.0707639039169,563,514,-49,-538.5,306,232.5
3.07292793767583,588,515,-73,-551.5,330.5,221
3.07509197143475,617,516,-101,-566.5,359,207.5
3.07725600519368,649,517,-132,-583,390.5,192.5
3.07942003895261,675,518,-157,-596.5,416,180.5
3.08158407271153,698,519,-179,-608.5,438.5,170
3.08374810647046,704,519,-185,-611.5,444.5,167
3.08591214022939,702,519,-183,-610.5,442.5,168
3.08807617398831,688,518,-170,-603,429,174
3.09024020774724,665,517,-148,-591,406.5,184.5
3.09240424150617,636,516,-120,-576,378,198
3.09456827526509,611,516,-95,-563.5,353,210.5
3.09673230902402,586,515,-71,-550.5,328.5,222
3.09889634278295,562,514,-48,-538,305,233
3.10106037654187,532,514,-18,-523,275,248
3.1032244103008,513,514,1,-513.5,256,257.5
3.10538844405973,496,514,18,-505,239,266
3.10755247781865,490,514,24,-502,233,269
3.10971651157758,489,514,25,-501.5,232,269.5
3.11188054533651,488,513,25,-500.5,231.5,269
3.11404457909543,492,514,22,-503,235,268
3.11620861285436,495,514,19,-504.5,238,266.5
3.11837264661329,495,514,19,-504.5,238,266.5
3.12053668037221,497,514,17,-505.5,240,265.5
3.12270071413114,498,514,16,-506,241,265
3.12486474789007,497,514,17,-505.5,240,265.5
3.12702878164899,493,513,20,-503,236.5,266.5
3.12919281540792,493,514,21,-503.5,236,267.5
3.13135684916685,488,514,26,-501,231,270
3.13352088292577,487,514,27,-500.5,230,270.5
3.1356849166847,490,514,24,-502,233,269
3.13784895044363,490,514,24,-502,233,269
3.14001298420255,489,513,24,-501,232.5,268.5
3.14217701796148,497,514,17,-505.5,240,265.5
3.14434105172041,497,514,17,-505.5,240,265.5
3.14650508547933,494,514,20,-504,237,267
3.14866911923826,492,513,21,-502.5,235.5,267
3.15083315299719,490,514,24,-502,233,269
3.15299718675611,491,514,23,-502.5,234,268.5
3.15516122051504,491,514,23,-502.5,234,268.5
3.15732525427397,491,514,23,-502.5,234,268.5
3.15948928803289,490,514,24,-502,233,269
3.16165332179182,493,514,21,-503.5,236,267.5
3.16381735555075,496,514,18,-505,239,266
3.16598138930967,497,514,17,-505.5,240,265.5
3.1681454230686,501,514,13,-507.5,244,263.5
3.17030945682753,502,514,12,-508,245,263
3.17247349058645,500,514,14,-507,243,264
3.17463752434538,497,513,16,-505,240.5,264.5
3.17680155810431,493,514,21,-503.5,236,267.5
3.17896559186323,494,514,20,-504,237,267
3.18112962562216,492,514,22,-503,235,268
3.18329365938109,491,514,23,-502.5,234,268.5
3.18545769314001,496,514,18,-505,239,266
3.18762172689894,503,514,11,-508.5,246,262.5
3.18978576065787,508,514,6,-511,251,260
3.19194979441679,513,514,1,-513.5,256,257.5
3.19411382817572,514,514,0,-514,257,257
3.19627786193465,511,514,3,-512.5,254,258.5
3.19844189569357,509,514,5,-511.5,252,259.5
3.2006059294525,511,513,2,-512,254.5,257.5
3.20276996321143,510,514,4,-512,253,259
3.20493399697035,507,514,7,-510.5,250,260.5
3.20709803072928,507,514,7,-510.5,250,260.5
3.20926206448821,508,514,6,-511,251,260
3.21142609824713,510,514,4,-512,253,259
3.21359013200606,511,514,3,-512.5,254,258.5
3.21575416576499,508,514,6,-511,251,260
3.21791819952391,504,514,10,-509,247,262
3.22008223328284,507,514,7,-510.5,250,260.5
3.22224626704177,507,514,7,-510.5,250,260.5
3.22441030080069,509,514,5,-511.5,252,259.5
3.22657433455962,512,514,2,-513,255,258
3.22873836831855,513,514,1,-513.5,256,257.5
3.23090240207747,517,514,-3,-515.5,260,255.5
3.2330664358364,520,514,-6,-517,263,254
3.23523046959533,522,514,-8,-518,265,253
3.23739450335425,520,514,-6,-517,263,254
3.23955853711318,522,514,-8,-518,265,253
3.24172257087211,522,514,-8,-518,265,253
3.24388660463103,521,514,-7,-517.5,264,253.5
3.24605063838996,518,514,-4,-516,261,255
3.24821467214889,519,514,-5,-516.5,262,254.5
3.25037870590781,520,513,-7,-516.5,263.5,253
3.25254273966674,518,514,-4,-516,261,255
3.25470677342567,524,514,-10,-519,267,252
3.25687080718459,527,514,-13,-520.5,270,250.5
3.25903484094352,527,514,-13,-520.5,270,250.5
3.26119887470245,528,514,-14,-521,271,250
3.26336290846137,527,514,-13,-520.5,270,250.5
3.2655269422203,528,514,-14,-521,271,250
3.26769097597922,526,514,-12,-520,269,251
3.26985500973815,530,514,-16,-522,273,249
3.27201904349708,531,514,-17,-522.5,274,248.5
3.274183077256,532,514,-18,-523,275,248
3.27634711101493,535,514,-21,-524.5,278,246.5
3.27851114477386,538,514,-24,-526,281,245
3.28067517853279,540,514,-26,-527,283,244
3.28283921229171,542,514,-28,-528,285,243
3.28500324605064,542,514,-28,-528,285,243
3.28716727980957,543,514,-29,-528.5,286,242.5
3.28933131356849,543,514,-29,-528.5,286,242.5
3.29149534732742,539,514,-25,-526.5,282,244.5
3.29365938108634,540,513,-27,-526.5,283.5,243
3.29582341484527,540,514,-26,-527,283,244
3.2979874486042,542,514,-28,-528,285,243
3.30015148236312,541,514,-27,-527.5,284,243.5
3.30231551612205,542,514,-28,-528,285,243
3.30447954988098,541,514,-27,-527.5,284,243.5
3.3066435836399,544,514,-30,-529,287,242
3.30880761739883,546,513,-33,-529.5,289.5,240
3.31097165115776,548,514,-34,-531,291,240
3.31313568491668,544,514,-30,-529,287,242
3.31529971867561,542,514,-28,-528,285,243
3.31746375243454,542,514,-28,-528,285,243
3.31962778619346,541,514,-27,-527.5,284,243.5
3.32179181995239,541,514,-27,-527.5,284,243.5
3.32395585371132,542,514,-28,-528,285,243
3.32611988747024,542,514,-28,-528,285,243
3.32828392122917,540,514,-26,-527,283,244
3.3304479549881,535,513,-22,-524,278.5,245.5
3.33261198874702,532,514,-18,-523,275,248
3.33477602250595,530,514,-16,-522,273,249
3.33694005626488,531,514,-17,-522.5,274,248.5
3.3391040900238,533,514,-19,-523.5,276,247.5
3.34126812378273,537,514,-23,-525.5,280,245.5
3.34343215754166,535,514,-21,-524.5,278,246.5
3.34559619130058,534,514,-20,-524,277,247
3.34776022505951,530,514,-16,-522,273,249
3.34992425881844,528,514,-14,-521,271,250
3.35208829257736,522,514,-8,-518,265,253
3.35425232633629,522,514,-8,-518,265,253
3.35641636009522,518,514,-4,-516,261,255
3.35858039385414,518,514,-4,-516,261,255
3.36074442761307,514,514,0,-514,257,257
3.362908461372,511,514,3,-512.5,254,258.5
3.36507249513092,505,514,9,-509.5,248,261.5
3.36723652888985,502,514,12,-508,245,263
3.36940056264878,501,514,13,-507.5,244,263.5
3.3715645964077,501,514,13,-507.5,244,263.5
3.37372863016663,499,513,14,-506,242.5,263.5
3.37589266392556,500,514,14,-507,243,264
3.37805669768448,502,514,12,-508,245,263
3.38022073144341,502,514,12,-508,245,263
3.38238476520234,500,514,14,-507,243,264
3.38454879896126,497,514,17,-505.5,240,265.5
3.38671283272019,492,514,22,-503,235,268
3.38887686647912,486,514,28,-500,229,271
3.39104090023804,484,514,30,-499,227,272
3.39320493399697,484,514,30,-499,227,272
3.3953689677559,484,514,30,-499,227,272
3.39753300151482,486,514,28,-500,229,271
3.39969703527375,486,514,28,-500,229,271
3.40186106903268,489,513,24,-501,232.5,268.5
3.4040251027916,487,514,27,-500.5,230,270.5
3.40618913655053,483,513,30,-498,226.5,271.5
3.40835317030946,479,513,34,-496,222.5,273.5
3.41051720406838,479,514,35,-496.5,222,274.5
3.41268123782731,479,514,35,-496.5,222,274.5
3.41484527158624,483,513,30,-498,226.5,271.5
3.41700930534516,485,514,29,-499.5,228,271.5
3.41917333910409,490,514,24,-502,233,269
3.42133737286302,490,514,24,-502,233,269
3.42350140662194,491,514,23,-502.5,234,268.5
3.42566544038087,490,514,24,-502,233,269
3.4278294741398,489,514,25,-501.5,232,269.5
3.42999350789872,490,513,23,-501.5,233.5,268
3.43215754165765,489,514,25,-501.5,232,269.5
3.43432157541658,489,514,25,-501.5,232,269.5
3.4364856091755,490,514,24,-502,233,269
3.43864964293443,493,514,21,-503.5,236,267.5
3.44081367669336,492,514,22,-503,235,268
3.44297771045228,490,514,24,-502,233,269
3.44514174421121,490,513,23,-501.5,233.5,268
3.44730577797014,489,513,24,-501,232.5,268.5
3.44946981172906,491,514,23,-502.5,234,268.5
3.45163384548799,493,514,21,-503.5,236,267.5
3.45379787924692,497,514,17,-505.5,240,265.5
3.45596191300584,497,514,17,-505.5,240,265.5
3.45812594676477,497,514,17,-505.5,240,265.5
3.4602899805237,501,514,13,-507.5,244,263.5
3.46245401428262,503,514,11,-508.5,246,262.5
3.46461804804155,503,513,10,-508,246.5,261.5
3.46678208180048,500,514,14,-507,243,264
3.4689461155594,498,514,16,-506,241,265
3.47111014931833,495,514,19,-504.5,238,266.5
3.47327418307726,491,514,23,-502.5,234,268.5
3.47543821683618,496,514,18,-505,239,266
3.47760225059511,499,514,15,-506.5,242,264.5
3.47976628435404,503,514,11,-508.5,246,262.5
3.48193031811296,507,513,6,-510,250.5,259.5
3.48409435187189,507,514,7,-510.5,250,260.5
3.48625838563082,509,514,5,-511.5,252,259.5
3.48842241938974,508,514,6,-511,251,260
3.49058645314867,504,514,10,-509,247,262
3.4927504869076,501,514,13,-507.5,244,263.5
3.49491452066652,502,514,12,-508,245,263
3.49707855442545,504,514,10,-509,247,262
3.49924258818438,507,514,7,-510.5,250,260.5
3.5014066219433,511,513,2,-512,254.5,257.5
3.50357065570223,512,514,2,-513,255,258
3.50573468946116,513,514,1,-513.5,256,257.5
3.50789872322008,512,514,2,-513,255,258
3.51006275697901,511,514,3,-512.5,254,258.5
3.51222679073794,508,513,5,-510.5,251.5,259
3.51439082449686,508,514,6,-511,251,260
3.51655485825579,507,514,7,-510.5,250,260.5
3.51871889201472,508,514,6,-511,251,260
3.52088292577364,507,514,7,-510.5,250,260.5
3.52304695953257,508,514,6,-511,251,260
3.5252109932915,509,514,5,-511.5,252,259.5
3.52737502705042,509,513,4,-511,252.5,258.5
3.52953906080935,512,514,2,-513,255,258
3.53170309456828,514,514,0,-514,257,257
3.5338671283272,512,513,1,-512.5,255.5,257
3.53603116208613,509,514,5,-511.5,252,259.5
3.53819519584505,509,514,5,-511.5,252,259.5
3.54035922960398,510,514,4,-512,253,259
3.54252326336291,513,514,1,-513.5,256,257.5
3.54468729712183,513,514,1,-513.5,256,257.5
3.54685133088076,513,513,0,-513,256.5,256.5
3.54901536463969,510,514,4,-512,253,259
3.55117939839861,512,514,2,-513,255,258
3.55334343215754,512,514,2,-513,255,258
3.55550746591647,513,514,1,-513.5,256,257.5
3.55767149967539,512,513,1,-512.5,255.5,257
3.55983553343432,510,514,4,-512,253,259
3.56199956719325,511,514,3,-512.5,254,258.5
3.56416360095217,509,513,4,-511,252.5,258.5
3.5663276347111,507,514,7,-510.5,250,260.5
3.56849166847003,508,514,6,-511,251,260
3.57065570222895,511,514,3,-512.5,254,258.5
3.57281973598788,511,514,3,-512.5,254,258.5
3.57498376974681,513,514,1,-513.5,256,257.5
3.57714780350573,512,514,2,-513,255,258
3.57931183726466,513,514,1,-513.5,256,257.5
3.58147587102359,514,514,0,-514,257,257
3.58363990478251,512,514,2,-513,255,258
3.58580393854144,512,513,1,-512.5,255.5,257
3.58796797230037,515,514,-1,-514.5,258,256.5
3.59013200605929,516,514,-2,-515,259,256
3.59229603981822,517,514,-3,-515.5,260,255.5
3.59446007357715,517,514,-3,-515.5,260,255.5
3.59662410733607,516,514,-2,-515,259,256
3.598788141095,517,514,-3,-515.5,260,255.5
3.60095217485393,515,513,-2,-514,258.5,255.5
3.60311620861285,514,514,0,-514,257,257
3.60528024237178,516,513,-3,-514.5,259.5,255
3.60744427613071,515,514,-1,-514.5,258,256.5
3.60960830988963,517,514,-3,-515.5,260,255.5
3.61177234364856,516,513,-3,-514.5,259.5,255
3.61393637740749,517,514,-3,-515.5,260,255.5
3.61610041116641,516,514,-2,-515,259,256
3.61826444492534,518,514,-4,-516,261,255
3.62042847868427,518,514,-4,-516,261,255
3.62259251244319,521,513,-8,-517,264.5,252.5
3.62475654620212,523,514,-9,-518.5,266,252.5
3.62692057996105,523,513,-10,-518,266.5,251.5
3.62908461371997,523,514,-9,-518.5,266,252.5
3.6312486474789,521,514,-7,-517.5,264,253.5
3.63341268123783,525,513,-12,-519,268.5,250.5
3.63557671499675,527,514,-13,-520.5,270,250.5
3.63774074875568,526,514,-12,-520,269,251
3.63990478251461,529,514,-15,-521.5,272,249.5
3.64206881627353,531,514,-17,-522.5,274,248.5
3.64423285003246,532,514,-18,-523,275,248
3.64639688379139,535,514,-21,-524.5,278,246.5
3.64856091755031,535,514,-21,-524.5,278,246.5
3.65072495130924,536,514,-22,-525,279,246
3.65288898506817,537,514,-23,-525.5,280,245.5
3.65505301882709,534,514,-20,-524,277,247
3.65721705258602,534,514,-20,-524,277,247
3.65938108634495,534,514,-20,-524,277,247
3.66154512010387,533,514,-19,-523.5,276,247.5
3.6637091538628,530,513,-17,-521.5,273.5,248
3.66587318762173,529,514,-15,-521.5,272,249.5
3.66803722138065,527,513,-14,-520,270.5,249.5
3.67020125513958,527,514,-13,-520.5,270,250.5
3.67236528889851,524,514,-10,-519,267,252
3.67452932265743,525,513,-12,-519,268.5,250.5
3.67669335641636,524,514,-10,-519,267,252
3.67885739017529,524,514,-10,-519,267,252
3.68102142393421,525,513,-12,-519,268.5,250.5
3.68318545769314,522,514,-8,-518,265,253
3.68534949145207,520,514,-6,-517,263,254
3.68751352521099,519,513,-6,-516,262.5,253.5
3.68967755896992,517,514,-3,-515.5,260,255.5
3.69184159272885,518,514,-4,-516,261,255
3.69400562648777,515,514,-1,-514.5,258,256.5
3.6961696602467,515,514,-1,-514.5,258,256.5
3.69833369400563,511,514,3,-512.5,254,258.5
3.70049772776455,513,514,1,-513.5,256,257.5
3.70266176152348,511,514,3,-512.5,254,258.5
3.70482579528241,514,514,0,-514,257,257
3.70698982904133,513,514,1,-513.5,256,257.5
3.70915386280026,512,514,2,-513,255,258
3.71131789655919,508,514,6,-511,251,260
3.71348193031811,509,514,5,-511.5,252,259.5
3.71564596407704,508,514,6,-511,251,260
3.71780999783597,506,514,8,-510,249,261
3.71997403159489,509,514,5,-511.5,252,259.5
3.72213806535382,509,514,5,-511.5,252,259.5
3.72430209911275,512,514,2,-513,255,258
3.72646613287167,514,514,0,-514,257,257
3.7286301666306,513,514,1,-513.5,256,257.5
3.73079420038953,514,514,0,-514,257,257
3.73295823414845,517,514,-3,-515.5,260,255.5
3.73512226790738,514,514,0,-514,257,257
3.73728630166631,510,514,4,-512,253,259
3.73945033542523,509,513,4,-511,252.5,258.5
3.74161436918416,509,514,5,-511.5,252,259.5
3.74377840294309,507,514,7,-510.5,250,260.5
3.74594243670201,508,513,5,-510.5,251.5,259
3.74810647046094,509,514,5,-511.5,252,259.5
3.75027050421987,505,514,9,-509.5,248,261.5
3.75243453797879,503,513,10,-508,246.5,261.5
3.75459857173772,500,514,14,-507,243,264
3.75676260549665,500,514,14,-507,243,264
3.75892663925557,500,514,14,-507,243,264
3.7610906730145,499,514,15,-506.5,242,264.5
3.76325470677343,500,514,14,-507,243,264
3.76541874053235,502,513,11,-507.5,245.5,262
3.76758277429128,503,514,11,-508.5,246,262.5
3.76974680805021,507,514,7,-510.5,250,260.5
3.77191084180913,514,514,0,-514,257,257
3.77407487556806,529,514,-15,-521.5,272,249.5
3.77623890932699,552,514,-38,-533,295,238
3.77840294308591,578,515,-63,-546.5,320.5,226
3.78056697684484,612,515,-97,-563.5,354.5,209
3.78273101060377,644,517,-127,-580.5,385.5,195
3.78489504436269,671,518,-153,-594.5,412,182.5
3.78705907812162,701,519,-182,-610,441.5,168.5
3.78922311188055,722,519,-203,-620.5,462.5,158
3.79138714563947,724,519,-205,-621.5,464.5,157
3.7935511793984,717,519,-198,-618,457.5,160.5
3.79571521315733,695,518,-177,-606.5,436,170.5
3.79787924691625,666,517,-149,-591.5,407.5,184
3.80004328067518,633,516,-117,-574.5,375,199.5
3.80220731443411,599,515,-84,-557,341.5,215.5
3.80437134819303,568,514,-54,-541,311,230
3.80653538195196,542,514,-28,-528,285,243
3.80869941571089,523,514,-9,-518.5,266,252.5
3.81086344946981,511,513,2,-512,254.5,257.5
3.81302748322874,502,514,12,-508,245,263
3.81519151698766,498,514,16,-506,241,265
3.81735555074659,497,514,17,-505.5,240,265.5
3.81951958450552,495,514,19,-504.5,238,266.5
3.82168361826444,494,514,20,-504,237,267
3.82384765202337,494,514,20,-504,237,267
3.8260116857823,493,513,20,-503,236.5,266.5
3.82817571954122,493,514,21,-503.5,236,267.5
3.83033975330015,492,512,20,-502,236,266
3.83250378705908,494,513,19,-503.5,237.5,266
3.834667820818,492,514,22,-503,235,268
3.83683185457693,490,514,24,-502,233,269
3.83899588833586,487,514,27,-500.5,230,270.5
3.84115992209478,487,514,27,-500.5,230,270.5
3.84332395585371,490,514,24,-502,233,269
3.84548798961264,491,514,23,-502.5,234,268.5
3.84765202337156,492,514,22,-503,235,268
3.84981605713049,490,514,24,-502,233,269
3.85198009088942,493,514,21,-503.5,236,267.5
3.85414412464834,496,514,18,-505,239,266
3.85630815840727,496,514,18,-505,239,266
3.8584721921662,497,514,17,-505.5,240,265.5
3.86063622592512,495,514,19,-504.5,238,266.5
3.86280025968405,494,514,20,-504,237,267
3.86496429344298,491,513,22,-502,234.5,267.5
3.8671283272019,495,514,19,-504.5,238,266.5
3.86929236096083,495,514,19,-504.5,238,266.5
3.87145639471976,495,514,19,-504.5,238,266.5
3.87362042847868,495,514,19,-504.5,238,266.5
3.87578446223761,499,514,15,-506.5,242,264.5
3.87794849599654,497,514,17,-505.5,240,265.5
3.88011252975546,498,514,16,-506,241,265
3.88227656351439,497,514,17,-505.5,240,265.5
3.88444059727332,498,513,15,-505.5,241.5,264
3.88660463103224,497,514,17,-505.5,240,265.5
3.88876866479117,494,514,20,-504,237,267
3.8909326985501,497,514,17,-505.5,240,265.5
3.89309673230902,501,513,12,-507,244.5,262.5
3.89526076606795,505,514,9,-509.5,248,261.5
3.89742479982688,508,513,5,-510.5,251.5,259
3.8995888335858,507,513,6,-510,250.5,259.5
3.90175286734473,506,514,8,-510,249,261
3.90391690110366,501,514,13,-507.5,244,263.5
3.90608093486258,499,514,15,-506.5,242,264.5
3.90824496862151,502,514,12,-508,245,263
3.91040900238044,501,514,13,-507.5,244,263.5
3.91257303613936,505,514,9,-509.5,248,261.5
3.91473706989829,506,513,7,-509.5,249.5,260
3.91690110365722,507,514,7,-510.5,250,260.5
3.91906513741614,508,514,6,-511,251,260
3.92122917117507,513,514,1,-513.5,256,257.5
3.923393204934,514,514,0,-514,257,257
3.92555723869292,516,513,-3,-514.5,259.5,255
3.92772127245185,517,514,-3,-515.5,260,255.5
3.92988530621078,518,514,-4,-516,261,255
3.9320493399697,518,514,-4,-516,261,255
3.93421337372863,519,513,-6,-516,262.5,253.5
3.93637740748756,522,514,-8,-518,265,253
3.93854144124648,523,514,-9,-518.5,266,252.5
3.94070547500541,523,514,-9,-518.5,266,252.5
3.94286950876434,523,513,-10,-518,266.5,251.5
3.94503354252326,516,514,-2,-515,259,256
3.94719757628219,513,514,1,-513.5,256,257.5
3.94936161004112,515,513,-2,-514,258.5,255.5
3.95152564380004,516,514,-2,-515,259,256
3.95368967755897,519,514,-5,-516.5,262,254.5
3.9558537113179,522,514,-8,-518,265,253
3.95801774507682,521,514,-7,-517.5,264,253.5
3.96018177883575,524,514,-10,-519,267,252
3.96234581259468,527,514,-13,-520.5,270,250.5
3.9645098463536,530,514,-16,-522,273,249
3.96667388011253,532,514,-18,-523,275,248
3.96883791387146,534,514,-20,-524,277,247
3.97100194763038,538,514,-24,-526,281,245
3.97316598138931,538,514,-24,-526,281,245
3.97533001514824,536,514,-22,-525,279,246
3.97749404890716,534,514,-20,-524,277,247
3.97965808266609,532,514,-18,-523,275,248
3.98182211642502,532,514,-18,-523,275,248
3.98398615018394,528,514,-14,-521,271,250
3.98615018394287,528,514,-14,-521,271,250
3.9883142177018,531,514,-17,-522.5,274,248.5
3.99047825146072,536,514,-22,-525,279,246
3.99264228521965,542,514,-28,-528,285,243
3.99480631897858,547,514,-33,-530.5,290,240.5
3.9969703527375,548,514,-34,-531,291,240
3.99913438649643,549,514,-35,-531.5,292,239.5
4.00129842025536,549,514,-35,-531.5,292,239.5
4.00346245401428,547,514,-33,-530.5,290,240.5
4.00562648777321,548,514,-34,-531,291,240
4.00779052153214,547,514,-33,-530.5,290,240.5
4.00995455529106,549,514,-35,-531.5,292,239.5
4.01211858904999,548,514,-34,-531,291,240
4.01428262280892,548,514,-34,-531,291,240
4.01644665656784,548,514,-34,-531,291,240
4.01861069032677,548,514,-34,-531,291,240
4.0207747240857,550,514,-36,-532,293,239
4.02293875784462,549,514,-35,-531.5,292,239.5
4.02510279160355,548,514,-34,-531,291,240
4.02726682536248,546,514,-32,-530,289,241
4.0294308591214,544,514,-30,-529,287,242
4.03159489288033,545,514,-31,-529.5,288,241.5
4.03375892663926,547,514,-33,-530.5,290,240.5
4.03592296039818,546,514,-32,-530,289,241
4.03808699415711,547,514,-33,-530.5,290,240.5
4.04025102791604,546,514,-32,-530,289,241
4.04241506167496,544,513,-31,-528.5,287.5,241
4.04457909543389,542,514,-28,-528,285,243
4.04674312919281,539,514,-25,-526.5,282,244.5
4.04890716295174,539,514,-25,-526.5,282,244.5
4.05107119671067,535,514,-21,-524.5,278,246.5
4.0532352304696,533,514,-19,-523.5,276,247.5
4.05539926422852,528,514,-14,-521,271,250
4.05756329798745,524,514,-10,-519,267,252
4.05972733174637,524,514,-10,-519,267,252
4.0618913655053,522,513,-9,-517.5,265.5,252
4.06405539926423,524,513,-11,-518.5,267.5,251
4.06621943302316,521,514,-7,-517.5,264,253.5
4.06838346678208,516,514,-2,-515,259,256
4.07054750054101,513,514,1,-513.5,256,257.5
4.07271153429993,512,514,2,-513,255,258
4.07487556805886,513,514,1,-513.5,256,257.5
4.07703960181779,511,514,3,-512.5,254,258.5
4.07920363557671,508,514,6,-511,251,260
4.08136766933564,504,514,10,-509,247,262
4.08353170309457,501,514,13,-507.5,244,263.5
4.08569573685349,499,514,15,-506.5,242,264.5
4.08785977061242,496,513,17,-504.5,239.5,265
4.09002380437135,498,514,16,-506,241,265
4.09218783813027,498,514,16,-506,241,265
4.0943518718892,498,514,16,-506,241,265
4.09651590564813,493,514,21,-503.5,236,267.5
4.09867993940705,493,513,20,-503,236.5,266.5
4.10084397316598,491,514,23,-502.5,234,268.5
4.10300800692491,491,514,23,-502.5,234,268.5
4.10517204068383,487,513,26,-500,230.5,269.5
4.10733607444276,488,514,26,-501,231,270
4.10950010820169,486,514,28,-500,229,271
4.11166414196061,486,513,27,-499.5,229.5,270
4.11382817571954,487,514,27,-500.5,230,270.5
4.11599220947847,489,514,25,-501.5,232,269.5
4.11815624323739,488,514,26,-501,231,270
4.12032027699632,491,514,23,-502.5,234,268.5
4.12248431075525,491,514,23,-502.5,234,268.5
4.12464834451417,491,514,23,-502.5,234,268.5
4.1268123782731,492,514,22,-503,235,268
4.12897641203203,491,514,23,-502.5,234,268.5
4.13114044579095,491,514,23,-502.5,234,268.5
4.13330447954988,491,514,23,-502.5,234,268.5
4.13546851330881,493,514,21,-503.5,236,267.5
4.13763254706773,493,514,21,-503.5,236,267.5
4.13979658082666,493,513,20,-503,236.5,266.5
4.14196061458559,492,513,21,-502.5,235.5,267
4.14412464834451,492,514,22,-503,235,268
4.14628868210344,491,513,22,-502,234.5,267.5
4.14845271586237,488,513,25,-500.5,231.5,269
4.15061674962129,489,514,25,-501.5,232,269.5
4.15278078338022,493,514,21,-503.5,236,267.5
4.15494481713915,496,513,17,-504.5,239.5,265
4.15710885089807,496,513,17,-504.5,239.5,265
4.159272884657,498,514,16,-506,241,265
4.16143691841593,501,513,12,-507,244.5,262.5
4.16360095217485,502,514,12,-508,245,263
4.16576498593378,499,514,15,-506.5,242,264.5
4.16792901969271,499,514,15,-506.5,242,264.5
4.17009305345163,500,514,14,-507,243,264
4.17225708721056,499,514,15,-506.5,242,264.5
4.17442112096949,497,514,17,-505.5,240,265.5
4.17658515472841,498,514,16,-506,241,265
4.17874918848734,502,514,12,-508,245,263
4.18091322224627,500,514,14,-507,243,264
4.18307725600519,498,513,15,-505.5,241.5,264
4.18524128976412,498,514,16,-506,241,265
4.18740532352305,497,514,17,-505.5,240,265.5
4.18956935728197,499,513,14,-506,242.5,263.5
4.1917333910409,501,514,13,-507.5,244,263.5
4.19389742479983,499,514,15,-506.5,242,264.5
4.19606145855875,498,514,16,-506,241,265
4.19822549231768,501,514,13,-507.5,244,263.5
4.20038952607661,502,514,12,-508,245,263
4.20255355983553,503,514,11,-508.5,246,262.5
4.20471759359446,504,514,10,-509,247,262
4.20688162735339,507,514,7,-510.5,250,260.5
4.20904566111231,506,514,8,-510,249,261
4.21120969487124,503,514,11,-508.5,246,262.5
4.21337372863017,504,514,10,-509,247,262
4.21553776238909,507,514,7,-510.5,250,260.5
4.21770179614802,502,514,12,-508,245,263
4.21986582990695,499,513,14,-506,242.5,263.5
4.22202986366587,500,514,14,-507,243,264
4.2241938974248,502,514,12,-508,245,263
4.22635793118373,505,514,9,-509.5,248,261.5
4.22852196494265,504,514,10,-509,247,262
4.23068599870158,504,514,10,-509,247,262
4.23285003246051,504,514,10,-509,247,262
4.23501406621943,503,513,10,-508,246.5,261.5
4.23717809997836,504,514,10,-509,247,262
4.23934213373729,505,514,9,-509.5,248,261.5
4.24150616749621,505,514,9,-509.5,248,261.5
4.24367020125514,503,514,11,-508.5,246,262.5
4.24583423501407,503,513,10,-508,246.5,261.5
4.24799826877299,502,514,12,-508,245,263
4.25016230253192,503,514,11,-508.5,246,262.5
4.25232633629085,502,514,12,-508,245,263
4.25449037004977,503,514,11,-508.5,246,262.5
4.2566544038087,500,513,13,-506.5,243.5,263
4.25881843756763,505,514,9,-509.5,248,261.5
4.26098247132655,505,514,9,-509.5,248,261.5
4.26314650508548,504,514,10,-509,247,262
4.26531053884441,503,514,11,-508.5,246,262.5
4.26747457260333,505,513,8,-509,248.5,260.5
4.26963860636226,502,514,12,-508,245,263
4.27180264012119,503,513,10,-508,246.5,261.5
4.27396667388011,504,514,10,-509,247,262
4.27613070763904,506,514,8,-510,249,261
4.27829474139797,506,514,8,-510,249,261
4.28045877515689,505,514,9,-509.5,248,261.5
4.28262280891582,505,513,8,-509,248.5,260.5
4.28478684267475,508,514,6,-511,251,260
4.28695087643367,508,514,6,-511,251,260
4.2891149101926,512,514,2,-513,255,258
4.29127894395153,512,514,2,-513,255,258
4.29344297771045,508,514,6,-511,251,260
4.29560701146938,507,514,7,-510.5,250,260.5
4.29777104522831,503,514,11,-508.5,246,262.5
4.29993507898723,501,514,13,-507.5,244,263.5
4.30209911274616,498,514,16,-506,241,265
4.30426314650509,498,514,16,-506,241,265
4.30642718026401,501,514,13,-507.5,244,263.5
4.30859121402294,502,514,12,-508,245,263
4.31075524778187,504,514,10,-509,247,262
4.31291928154079,503,514,11,-508.5,246,262.5
4.31508331529972,503,514,11,-508.5,246,262.5
4.31724734905865,505,514,9,-509.5,248,261.5
4.31941138281757,505,514,9,-509.5,248,261.5
4.3215754165765,505,514,9,-509.5,248,261.5
4.32373945033542,505,514,9,-509.5,248,261.5
4.32590348409435,506,514,8,-510,249,261
4.32806751785328,510,513,3,-511.5,253.5,258
4.33023155161221,509,514,5,-511.5,252,259.5
4.33239558537113,511,514,3,-512.5,254,258.5
4.33455961913006,511,514,3,-512.5,254,258.5
4.33672365288898,508,514,6,-511,251,260
4.33888768664791,508,514,6,-511,251,260
4.34105172040684,509,514,5,-511.5,252,259.5
4.34321575416576,510,514,4,-512,253,259
4.34537978792469,511,513,2,-512,254.5,257.5
4.34754382168362,517,514,-3,-515.5,260,255.5
4.34970785544254,519,514,-5,-516.5,262,254.5
4.35187188920147,518,514,-4,-516,261,255
4.3540359229604,515,514,-1,-514.5,258,256.5
4.35619995671932,514,514,0,-514,257,257
4.35836399047825,518,514,-4,-516,261,255
4.36052802423718,519,514,-5,-516.5,262,254.5
4.3626920579961,518,513,-5,-515.5,261.5,254
4.36485609175503,519,514,-5,-516.5,262,254.5
4.36702012551396,518,514,-4,-516,261,255
4.36918415927288,517,514,-3,-515.5,260,255.5
4.37134819303181,521,514,-7,-517.5,264,253.5
4.37351222679074,522,514,-8,-518,265,253
4.37567626054966,519,514,-5,-516.5,262,254.5
4.37784029430859,521,514,-7,-517.5,264,253.5
4.38000432806752,522,514,-8,-518,265,253
4.38216836182644,524,514,-10,-519,267,252
4.38433239558537,523,514,-9,-518.5,266,252.5
4.3864964293443,521,514,-7,-517.5,264,253.5
4.38866046310322,523,514,-9,-518.5,266,252.5
4.39082449686215,522,514,-8,-518,265,253
4.39298853062108,523,514,-9,-518.5,266,252.5
4.39515256438,521,514,-7,-517.5,264,253.5
4.39731659813893,521,514,-7,-517.5,264,253.5
4.39948063189786,520,514,-6,-517,263,254
4.40164466565678,519,514,-5,-516.5,262,254.5
4.40380869941571,517,514,-3,-515.5,260,255.5
4.40597273317464,516,514,-2,-515,259,256
4.40813676693356,512,514,2,-513,255,258
4.41030080069249,508,514,6,-511,251,260
4.41246483445142,507,514,7,-510.5,250,260.5
4.41462886821034,505,514,9,-509.5,248,261.5
4.41679290196927,505,513,8,-509,248.5,260.5
4.4189569357282,508,514,6,-511,251,260
4.42112096948712,504,514,10,-509,247,262
4.42328500324605,505,514,9,-509.5,248,261.5
4.42544903700498,506,514,8,-510,249,261
4.4276130707639,504,514,10,-509,247,262
4.42977710452283,505,513,8,-509,248.5,260.5
4.43194113828176,502,513,11,-507.5,245.5,262
4.43410517204068,501,514,13,-507.5,244,263.5
4.43626920579961,502,513,11,-507.5,245.5,262
4.43843323955854,504,514,10,-509,247,262
4.44059727331746,502,514,12,-508,245,263
4.44276130707639,498,514,16,-506,241,265
4.44492534083532,497,514,17,-505.5,240,265.5
4.44708937459424,497,514,17,-505.5,240,265.5
4.44925340835317,496,514,18,-505,239,266
4.4514174421121,501,514,13,-507.5,244,263.5
4.45358147587102,501,514,13,-507.5,244,263.5
4.45574550962995,502,514,12,-508,245,263
4.45790954338888,503,513,10,-508,246.5,261.5
4.4600735771478,507,514,7,-510.5,250,260.5
4.46223761090673,502,514,12,-508,245,263
4.46440164466566,501,514,13,-507.5,244,263.5
4.46656567842458,498,514,16,-506,241,265
4.46872971218351,493,513,20,-503,236.5,266.5
4.47089374594244,494,514,20,-504,237,267
4.47305777970136,493,514,21,-503.5,236,267.5
4.47522181346029,491,514,23,-502.5,234,268.5
4.47738584721922,491,514,23,-502.5,234,268.5
4.47954988097814,493,514,21,-503.5,236,267.5
4.48171391473707,494,514,20,-504,237,267
4.483877948496,494,514,20,-504,237,267
4.48604198225492,492,514,22,-503,235,268
4.48820601601385,497,514,17,-505.5,240,265.5
4.49037004977278,498,514,16,-506,241,265
4.4925340835317,503,514,11,-508.5,246,262.5
4.49469811729063,514,514,0,-514,257,257
4.49686215104956,536,514,-22,-525,279,246
4.49902618480848,564,514,-50,-539,307,232
4.50119021856741,593,515,-78,-554,335.5,218.5
4.50335425232634,624,516,-108,-570,366,204
4.50551828608526,654,517,-137,-585.5,395.5,190
4.50768231984419,681,518,-163,-599.5,422,177.5
4.50984635360312,708,519,-189,-613.5,448.5,165
4.51201038736204,714,519,-195,-616.5,454.5,162
4.51417442112097,710,519,-191,-614.5,450.5,164
4.5163384548799,693,519,-174,-606,433.5,172.5
4.51850248863882,667,518,-149,-592.5,408,184.5
4.52066652239775,636,517,-119,-576.5,377.5,199
4.52283055615668,608,516,-92,-562,350,212
4.5249945899156,579,515,-64,-547,321.5,225.5
4.52715862367453,551,514,-37,-532.5,294,238.5
4.52932265743346,536,514,-22,-525,279,246
4.53148669119238,522,513,-9,-517.5,265.5,252
4.53365072495131,514,514,0,-514,257,257
4.53581475871024,508,514,6,-511,251,260
4.53797879246916,507,514,7,-510.5,250,260.5
4.54014282622809,504,514,10,-509,247,262
4.54230685998702,501,513,12,-507,244.5,262.5
4.54447089374594,498,514,16,-506,241,265
4.54663492750487,495,513,18,-504,238.5,265.5
4.5487989612638,492,513,21,-502.5,235.5,267
4.55096299502272,492,514,22,-503,235,268
4.55312702878165,488,514,26,-501,231,270
4.55529106254058,486,514,28,-500,229,271
4.5574550962995,482,514,32,-498,225,273
4.55961913005843,486,514,28,-500,229,271
4.56178316381736,491,514,23,-502.5,234,268.5
4.56394719757628,491,514,23,-502.5,234,268.5
4.56611123133521,493,514,21,-503.5,236,267.5
4.56827526509413,485,514,29,-499.5,228,271.5
4.57043929885306,484,513,29,-498.5,227.5,271
4.57260333261199,479,513,34,-496,222.5,273.5
4.57476736637092,480,513,33,-496.5,223.5,273
4.57693140012984,482,514,32,-498,225,273
4.57909543388877,482,514,32,-498,225,273
4.58125946764769,481,513,32,-497,224.5,272.5
4.58342350140662,484,514,30,-499,227,272
4.58558753516555,486,513,27,-499.5,229.5,270
4.58775156892447,487,514,27,-500.5,230,270.5
4.5899156026834,491,514,23,-502.5,234,268.5
4.59207963644233,492,514,22,-503,235,268
4.59424367020126,489,513,24,-501,232.5,268.5
4.59640770396018,489,514,25,-501.5,232,269.5
4.59857173771911,486,514,28,-500,229,271
4.60073577147803,487,514,27,-500.5,230,270.5
4.60289980523696,486,514,28,-500,229,271
4.60506383899589,490,514,24,-502,233,269
4.60722787275482,491,514,23,-502.5,234,268.5
4.60939190651374,494,514,20,-504,237,267
4.61155594027267,497,513,16,-505,240.5,264.5
4.61371997403159,499,513,14,-506,242.5,263.5
4.61588400779052,501,514,13,-507.5,244,263.5
4.61804804154945,498,514,16,-506,241,265
4.62021207530837,497,514,17,-505.5,240,265.5
4.6223761090673,496,514,18,-505,239,266
4.62454014282623,495,514,19,-504.5,238,266.5
4.62670417658515,496,513,17,-504.5,239.5,265
4.62886821034408,497,514,17,-505.5,240,265.5
4.63103224410301,498,514,16,-506,241,265
4.63319627786193,500,514,14,-507,243,264
4.63536031162086,505,514,9,-509.5,248,261.5
4.63752434537979,504,514,10,-509,247,262
4.63968837913871,508,513,5,-510.5,251.5,259
4.64185241289764,508,514,6,-511,251,260
4.64401644665657,508,514,6,-511,251,260
4.64618048041549,507,514,7,-510.5,250,260.5
4.64834451417442,507,513,6,-510,250.5,259.5
4.65050854793335,504,514,10,-509,247,262
4.65267258169227,509,514,5,-511.5,252,259.5
4.6548366154512,506,514,8,-510,249,261
4.65700064921013,506,514,8,-510,249,261
4.65916468296905,507,514,7,-510.5,250,260.5
4.66132871672798,512,514,2,-513,255,258
4.66349275048691,515,514,-1,-514.5,258,256.5
4.66565678424583,512,514,2,-513,255,258
4.66782081800476,512,514,2,-513,255,258
4.66998485176369,515,514,-1,-514.5,258,256.5
4.67214888552261,515,514,-1,-514.5,258,256.5
4.67431291928154,519,514,-5,-516.5,262,254.5
4.67647695304047,521,514,-7,-517.5,264,253.5
4.67864098679939,520,514,-6,-517,263,254
4.68080502055832,523,514,-9,-518.5,266,252.5
4.68296905431725,525,514,-11,-519.5,268,251.5
4.68513308807617,522,514,-8,-518,265,253
4.6872971218351,522,514,-8,-518,265,253
4.68946115559403,522,514,-8,-518,265,253
4.69162518935295,522,513,-9,-517.5,265.5,252
4.69378922311188,528,514,-14,-521,271,250
4.69595325687081,528,514,-14,-521,271,250
4.69811729062973,529,514,-15,-521.5,272,249.5
4.70028132438866,532,514,-18,-523,275,248
4.70244535814759,530,514,-16,-522,273,249
4.70460939190651,531,514,-17,-522.5,274,248.5
4.70677342566544,532,514,-18,-523,275,248
4.70893745942437,533,514,-19,-523.5,276,247.5
4.71110149318329,535,514,-21,-524.5,278,246.5
4.71326552694222,534,514,-20,-524,277,247
4.71542956070115,538,513,-25,-525.5,281.5,244
4.71759359446007,537,514,-23,-525.5,280,245.5
4.719757628219,539,514,-25,-526.5,282,244.5
4.72192166197793,540,514,-26,-527,283,244
4.72408569573685,540,514,-26,-527,283,244
4.72624972949578,540,514,-26,-527,283,244
4.72841376325471,538,514,-24,-526,281,245
4.73057779701363,538,514,-24,-526,281,245
4.73274183077256,541,513,-28,-527,284.5,242.5
4.73490586453149,545,514,-31,-529.5,288,241.5
4.73706989829041,549,514,-35,-531.5,292,239.5
4.73923393204934,551,514,-37,-532.5,294,238.5
4.74139796580827,551,513,-38,-532,294.5,237.5
4.74356199956719,550,514,-36,-532,293,239
4.74572603332612,550,514,-36,-532,293,239
4.74789006708505,552,514,-38,-533,295,238
4.75005410084397,552,514,-38,-533,295,238
4.7522181346029,551,514,-37,-532.5,294,238.5
4.75438216836183,551,514,-37,-532.5,294,238.5
4.75654620212075,550,514,-36,-532,293,239
4.75871023587968,552,514,-38,-533,295,238
4.76087426963861,550,514,-36,-532,293,239
4.76303830339753,548,514,-34,-531,291,240
4.76520233715646,551,514,-37,-532.5,294,238.5
4.76736637091539,548,514,-34,-531,291,240
4.76953040467431,547,514,-33,-530.5,290,240.5
4.77169443843324,547,514,-33,-530.5,290,240.5
4.77385847219217,546,514,-32,-530,289,241
4.77602250595109,546,514,-32,-530,289,241
4.77818653971002,543,514,-29,-528.5,286,242.5
4.78035057346895,542,514,-28,-528,285,243
4.78251460722787,539,514,-25,-526.5,282,244.5
4.7846786409868,536,514,-22,-525,279,246
4.78684267474573,532,514,-18,-523,275,248
4.78900670850465,530,513,-17,-521.5,273.5,248
4.79117074226358,527,514,-13,-520.5,270,250.5
4.79333477602251,527,513,-14,-520,270.5,249.5
4.79549880978143,523,514,-9,-518.5,266,252.5
4.79766284354036,520,514,-6,-517,263,254
4.79982687729929,518,513,-5,-515.5,261.5,254
4.80199091105821,515,514,-1,-514.5,258,256.5
4.80415494481714,516,514,-2,-515,259,256
4.80631897857607,516,514,-2,-515,259,256
4.80848301233499,514,513,-1,-513.5,257.5,256
4.81064704609392,516,514,-2,-515,259,256
4.81281107985285,513,514,1,-513.5,256,257.5
4.81497511361177,513,514,1,-513.5,256,257.5
4.8171391473707,513,514,1,-513.5,256,257.5
4.81930318112963,512,514,2,-513,255,258
4.82146721488855,512,514,2,-513,255,258
4.82363124864748,509,514,5,-511.5,252,259.5
4.82579528240641,508,514,6,-511,251,260
4.82795931616533,509,513,4,-511,252.5,258.5
4.83012334992426,509,514,5,-511.5,252,259.5
4.83228738368318,506,514,8,-510,249,261
4.83445141744211,508,514,6,-511,251,260
4.83661545120104,508,514,6,-511,251,260
4.83877948495997,506,514,8,-510,249,261
4.84094351871889,507,514,7,-510.5,250,260.5
4.84310755247782,506,514,8,-510,249,261
4.84527158623674,505,514,9,-509.5,248,261.5
4.84743561999567,503,514,11,-508.5,246,262.5
4.8495996537546,507,514,7,-510.5,250,260.5
4.85176368751353,510,514,4,-512,253,259
4.85392772127245,509,513,4,-511,252.5,258.5
4.85609175503138,509,514,5,-511.5,252,259.5
4.8582557887903,509,514,5,-511.5,252,259.5
4.86041982254923,507,514,7,-510.5,250,260.5
4.86258385630816,511,514,3,-512.5,254,258.5
4.86474789006708,511,513,2,-512,254.5,257.5
4.86691192382601,513,514,1,-513.5,256,257.5
4.86907595758494,514,514,0,-514,257,257
4.87123999134386,514,513,-1,-513.5,257.5,256
4.87340402510279,514,513,-1,-513.5,257.5,256
4.87556805886172,513,514,1,-513.5,256,257.5
4.87773209262064,513,514,1,-513.5,256,257.5
4.87989612637957,510,514,4,-512,253,259
4.8820601601385,513,514,1,-513.5,256,257.5
4.88422419389742,513,514,1,-513.5,256,257.5
4.88638822765635,512,514,2,-513,255,258
4.88855226141528,512,514,2,-513,255,258
4.8907162951742,513,514,1,-513.5,256,257.5
4.89288032893313,515,514,-1,-514.5,258,256.5
4.89504436269206,513,514,1,-513.5,256,257.5
4.89720839645098,515,513,-2,-514,258.5,255.5
4.89937243020991,516,514,-2,-515,259,256
4.90153646396884,513,514,1,-513.5,256,257.5
4.90370049772776,517,514,-3,-515.5,260,255.5
4.90586453148669,517,514,-3,-515.5,260,255.5
4.90802856524562,516,514,-2,-515,259,256
4.91019259900454,521,514,-7,-517.5,264,253.5
4.91235663276347,518,514,-4,-516,261,255
4.9145206665224,517,514,-3,-515.5,260,255.5
4.91668470028132,515,514,-1,-514.5,258,256.5
4.91884873404025,517,514,-3,-515.5,260,255.5
4.92101276779918,521,514,-7,-517.5,264,253.5
4.9231768015581,521,514,-7,-517.5,264,253.5
4.92534083531703,519,514,-5,-516.5,262,254.5
4.92750486907596,518,514,-4,-516,261,255
4.92966890283488,514,514,0,-514,257,257
4.93183293659381,511,514,3,-512.5,254,258.5
4.93399697035274,513,514,1,-513.5,256,257.5
4.93616100411166,511,514,3,-512.5,254,258.5
4.93832503787059,512,513,1,-512.5,255.5,257
4.94048907162952,515,513,-2,-514,258.5,255.5
4.94265310538844,517,514,-3,-515.5,260,255.5
4.94481713914737,517,514,-3,-515.5,260,255.5
4.9469811729063,517,514,-3,-515.5,260,255.5
4.94914520666522,521,514,-7,-517.5,264,253.5
4.95130924042415,517,514,-3,-515.5,260,255.5
4.95347327418308,517,514,-3,-515.5,260,255.5
4.955637307942,516,514,-2,-515,259,256
4.95780134170093,517,514,-3,-515.5,260,255.5
4.95996537545986,518,514,-4,-516,261,255
4.96212940921878,516,514,-2,-515,259,256
4.96429344297771,516,514,-2,-515,259,256
4.96645747673664,514,514,0,-514,257,257
4.96862151049556,515,514,-1,-514.5,258,256.5
4.97078554425449,512,514,2,-513,255,258
4.97294957801342,511,514,3,-512.5,254,258.5
4.97511361177234,511,514,3,-512.5,254,258.5
4.97727764553127,511,514,3,-512.5,254,258.5
4.9794416792902,509,514,5,-511.5,252,259.5
4.98160571304912,509,513,4,-511,252.5,258.5
4.98376974680805,508,513,5,-510.5,251.5,259
4.98593378056698,508,514,6,-511,251,260
4.9880978143259,508,513,5,-510.5,251.5,259
4.99026184808483,512,514,2,-513,255,258
4.99242588184376,510,514,4,-512,253,259
4.99458991560268,510,514,4,-512,253,259
4.99675394936161,505,513,8,-509,248.5,260.5
4.99891798312054,510,514,4,-512,253,259
5.00108201687946,510,514,4,-512,253,259
5.00324605063839,511,514,3,-512.5,254,258.5
5.00541008439732,512,514,2,-513,255,258
5.00757411815624,512,514,2,-513,255,258
5.00973815191517,510,514,4,-512,253,259
5.0119021856741,512,514,2,-513,255,258
5.01406621943302,515,514,-1,-514.5,258,256.5
5.01623025319195,518,514,-4,-516,261,255
5.01839428695088,519,514,-5,-516.5,262,254.5
5.0205583207098,518,514,-4,-516,261,255
5.02272235446873,518,514,-4,-516,261,255
5.02488638822766,516,514,-2,-515,259,256
5.02705042198658,512,514,2,-513,255,258
5.02921445574551,508,513,5,-510.5,251.5,259
5.03137848950444,507,514,7,-510.5,250,260.5
5.03354252326336,506,514,8,-510,249,261
5.03570655702229,508,514,6,-511,251,260
5.03787059078122,511,514,3,-512.5,254,258.5
5.04003462454014,512,514,2,-513,255,258
5.04219865829907,511,514,3,-512.5,254,258.5
5.044362692058,508,514,6,-511,251,260
5.04652672581692,509,513,4,-511,252.5,258.5
5.04869075957585,507,514,7,-510.5,250,260.5
5.05085479333478,510,514,4,-512,253,259
5.0530188270937,512,514,2,-513,255,258
5.05518286085263,511,514,3,-512.5,254,258.5
5.05734689461156,508,514,6,-511,251,260
5.05951092837048,509,514,5,-511.5,252,259.5
5.06167496212941,510,514,4,-512,253,259
5.06383899588834,515,514,-1,-514.5,258,256.5
5.06600302964726,518,514,-4,-516,261,255
5.06816706340619,517,514,-3,-515.5,260,255.5
5.07033109716512,514,513,-1,-513.5,257.5,256
5.07249513092404,515,514,-1,-514.5,258,256.5
5.07465916468297,511,513,2,-512,254.5,257.5
5.0768231984419,512,513,1,-512.5,255.5,257
5.07898723220082,515,514,-1,-514.5,258,256.5
5.08115126595975,518,514,-4,-516,261,255
5.08331529971868,520,514,-6,-517,263,254
5.0854793334776,517,514,-3,-515.5,260,255.5
5.08764336723653,521,514,-7,-517.5,264,253.5
5.08980740099546,521,514,-7,-517.5,264,253.5
5.09197143475438,518,514,-4,-516,261,255
5.09413546851331,518,514,-4,-516,261,255
5.09629950227224,518,514,-4,-516,261,255
5.09846353603116,521,514,-7,-517.5,264,253.5
5.10062756979009,519,514,-5,-516.5,262,254.5
5.10279160354902,522,514,-8,-518,265,253
5.10495563730794,524,514,-10,-519,267,252
5.10711967106687,527,514,-13,-520.5,270,250.5
5.10928370482579,528,514,-14,-521,271,250
5.11144773858472,530,514,-16,-522,273,249
5.11361177234365,532,514,-18,-523,275,248
5.11577580610258,533,514,-19,-523.5,276,247.5
5.1179398398615,536,514,-22,-525,279,246
5.12010387362043,538,514,-24,-526,281,245
5.12226790737935,539,514,-25,-526.5,282,244.5
5.12443194113828,535,514,-21,-524.5,278,246.5
5.12659597489721,535,514,-21,-524.5,278,246.5
5.12876000865614,533,514,-19,-523.5,276,247.5
5.13092404241506,534,514,-20,-524,277,247
5.13308807617399,529,514,-15,-521.5,272,249.5
5.13525210993291,530,514,-16,-522,273,249
5.13741614369184,529,514,-15,-521.5,272,249.5
5.13958017745077,528,513,-15,-520.5,271.5,249
5.14174421120969,526,514,-12,-520,269,251
5.14390824496862,524,514,-10,-519,267,252
5.14607227872755,522,514,-8,-518,265,253
5.14823631248647,524,514,-10,-519,267,252
5.1504003462454,525,513,-12,-519,268.5,250.5
5.15256438000433,529,514,-15,-521.5,272,249.5
5.15472841376325,527,514,-13,-520.5,270,250.5
5.15689244752218,525,513,-12,-519,268.5,250.5
5.15905648128111,520,514,-6,-517,263,254
5.16122051504003,515,514,-1,-514.5,258,256.5
5.16338454879896,516,514,-2,-515,259,256
5.16554858255789,515,514,-1,-514.5,258,256.5
5.16771261631681,514,514,0,-514,257,257
5.16987665007574,513,514,1,-513.5,256,257.5
5.17204068383467,509,514,5,-511.5,252,259.5
5.17420471759359,505,513,8,-509,248.5,260.5
5.17636875135252,503,514,11,-508.5,246,262.5
5.17853278511145,508,514,6,-511,251,260
5.18069681887037,510,513,3,-511.5,253.5,258
5.1828608526293,509,514,5,-511.5,252,259.5
5.18502488638823,511,514,3,-512.5,254,258.5
5.18718892014715,513,514,1,-513.5,256,257.5
5.18935295390608,513,514,1,-513.5,256,257.5
5.19151698766501,512,514,2,-513,255,258
5.19368102142393,511,514,3,-512.5,254,258.5
5.19584505518286,510,514,4,-512,253,259
5.19800908894179,512,514,2,-513,255,258
5.20017312270071,511,514,3,-512.5,254,258.5
5.20233715645964,513,513,0,-513,256.5,256.5
5.20450119021857,514,513,-1,-513.5,257.5,256
5.20666522397749,515,514,-1,-514.5,258,256.5
5.20882925773642,511,514,3,-512.5,254,258.5
5.21099329149535,512,514,2,-513,255,258
5.21315732525427,513,514,1,-513.5,256,257.5
5.2153213590132,512,514,2,-513,255,258
5.21748539277213,509,513,4,-511,252.5,258.5
5.21964942653105,509,514,5,-511.5,252,259.5
5.22181346028998,506,514,8,-510,249,261
5.22397749404891,505,514,9,-509.5,248,261.5
5.22614152780783,506,514,8,-510,249,261
5.22830556156676,504,513,9,-508.5,247.5,261
5.23046959532569,505,514,9,-509.5,248,261.5
5.23263362908461,502,514,12,-508,245,263
5.23479766284354,505,513,8,-509,248.5,260.5
5.23696169660247,516,514,-2,-515,259,256
5.23912573036139,534,514,-20,-524,277,247
5.24128976412032,556,514,-42,-535,299,236
5.24345379787925,581,515,-66,-548,323.5,224.5
5.24561783163817,607,516,-91,-561.5,349,212.5
5.2477818653971,638,517,-121,-577.5,379.5,198
5.24994589915603,665,518,-147,-591.5,406,185.5
5.25210993291495,694,519,-175,-606.5,434.5,172
5.25427396667388,713,519,-194,-616,453.5,162.5
5.25643800043281,721,519,-202,-620,461.5,158.5
5.25860203419173,718,519,-199,-618.5,458.5,160
5.26076606795066,703,519,-184,-611,443.5,167.5
5.26293010170959,677,518,-159,-597.5,418,179.5
5.26509413546851,649,517,-132,-583,390.5,192.5
5.26725816922744,620,516,-104,-568,362,206
5.26942220298637,592,515,-77,-553.5,334.5,219
5.27158623674529,566,514,-52,-540,309,231
5.27375027050422,543,514,-29,-528.5,286,242.5
5.27591430426315,528,514,-14,-521,271,250
5.27807833802207,519,514,-5,-516.5,262,254.5
5.280242371781,512,514,2,-513,255,258
5.28240640553993,509,514,5,-511.5,252,259.5
5.28457043929885,505,514,9,-509.5,248,261.5
5.28673447305778,504,514,10,-509,247,262
5.28889850681671,506,514,8,-510,249,261
5.29106254057563,503,514,11,-508.5,246,262.5
5.29322657433456,502,514,12,-508,245,263
5.29539060809349,500,514,14,-507,243,264
5.29755464185241,497,514,17,-505.5,240,265.5
5.29971867561134,497,514,17,-505.5,240,265.5
5.30188270937027,495,514,19,-504.5,238,266.5
5.30404674312919,494,514,20,-504,237,267
5.30621077688812,489,514,25,-501.5,232,269.5
5.30837481064705,488,514,26,-501,231,270
5.31053884440597,489,514,25,-501.5,232,269.5
5.3127028781649,490,514,24,-502,233,269
5.31486691192383,490,514,24,-502,233,269
5.31703094568275,488,514,26,-501,231,270
5.31919497944168,488,513,25,-500.5,231.5,269
5.32135901320061,489,514,25,-501.5,232,269.5
5.32352304695953,489,514,25,-501.5,232,269.5
5.32568708071846,491,514,23,-502.5,234,268.5
5.32785111447739,491,513,22,-502,234.5,267.5
5.33001514823631,492,514,22,-503,235,268
5.33217918199524,492,514,22,-503,235,268
5.33434321575417,493,513,20,-503,236.5,266.5
5.33650724951309,493,514,21,-503.5,236,267.5
5.33867128327202,491,513,22,-502,234.5,267.5
5.34083531703095,491,513,22,-502,234.5,267.5
5.34299935078987,492,514,22,-503,235,268
5.3451633845488,493,513,20,-503,236.5,266.5
5.34732741830773,496,514,18,-505,239,266
5.34949145206665,497,514,17,-505.5,240,265.5
5.35165548582558,496,514,18,-505,239,266
5.3538195195845,494,514,20,-504,237,267
5.35598355334343,496,513,17,-504.5,239.5,265
5.35814758710236,498,514,16,-506,241,265
5.36031162086129,501,514,13,-507.5,244,263.5
5.36247565462021,502,514,12,-508,245,263
5.36463968837914,502,514,12,-508,245,263
5.36680372213806,501,514,13,-507.5,244,263.5
5.36896775589699,502,514,12,-508,245,263
5.37113178965592,503,514,11,-508.5,246,262.5
5.37329582341485,503,514,11,-508.5,246,262.5
5.37545985717377,502,514,12,-508,245,263
5.3776238909327,502,514,12,-508,245,263
5.37978792469162,502,514,12,-508,245,263
5.38195195845055,504,513,9,-508.5,247.5,261
5.38411599220948,504,513,9,-508.5,247.5,261
5.3862800259684,502,514,12,-508,245,263
5.38844405972733,501,514,13,-507.5,244,263.5
5.39060809348626,501,514,13,-507.5,244,263.5
5.39277212724518,505,514,9,-509.5,248,261.5
5.39493616100411,507,514,7,-510.5,250,260.5
5.39710019476304,507,514,7,-510.5,250,260.5
5.39926422852196,508,514,6,-511,251,260
5.40142826228089,507,513,6,-510,250.5,259.5
5.40359229603982,512,514,2,-513,255,258
5.40575632979874,515,514,-1,-514.5,258,256.5
5.40792036355767,513,513,0,-513,256.5,256.5
5.4100843973166,515,514,-1,-514.5,258,256.5
5.41224843107552,516,514,-2,-515,259,256
5.41441246483445,517,514,-3,-515.5,260,255.5
5.41657649859338,518,514,-4,-516,261,255
5.4187405323523,518,514,-4,-516,261,255
5.42090456611123,520,514,-6,-517,263,254
5.42306859987016,519,514,-5,-516.5,262,254.5
5.42523263362908,518,514,-4,-516,261,255
5.42739666738801,520,514,-6,-517,263,254
5.42956070114694,519,514,-5,-516.5,262,254.5
5.43172473490586,519,514,-5,-516.5,262,254.5
5.43388876866479,521,514,-7,-517.5,264,253.5
5.43605280242372,520,514,-6,-517,263,254
5.43821683618264,520,514,-6,-517,263,254
5.44038086994157,522,514,-8,-518,265,253
5.4425449037005,523,514,-9,-518.5,266,252.5
5.44470893745942,525,514,-11,-519.5,268,251.5
5.44687297121835,532,514,-18,-523,275,248
5.44903700497728,534,514,-20,-524,277,247
5.4512010387362,535,514,-21,-524.5,278,246.5
5.45336507249513,537,514,-23,-525.5,280,245.5
5.45552910625406,538,514,-24,-526,281,245
5.45769314001298,537,514,-23,-525.5,280,245.5
5.45985717377191,536,514,-22,-525,279,246
5.46202120753084,535,514,-21,-524.5,278,246.5
5.46418524128976,537,514,-23,-525.5,280,245.5
5.46634927504869,536,514,-22,-525,279,246
5.46851330880762,535,514,-21,-524.5,278,246.5
5.47067734256654,535,514,-21,-524.5,278,246.5
5.47284137632547,536,514,-22,-525,279,246
5.4750054100844,537,514,-23,-525.5,280,245.5
5.47716944384332,535,513,-22,-524,278.5,245.5
5.47933347760225,536,514,-22,-525,279,246
5.48149751136118,540,514,-26,-527,283,244
5.4836615451201,540,514,-26,-527,283,244
5.48582557887903,544,514,-30,-529,287,242
5.48798961263796,547,514,-33,-530.5,290,240.5
5.49015364639688,548,514,-34,-531,291,240
5.49231768015581,549,513,-36,-531,292.5,238.5
5.49448171391474,551,514,-37,-532.5,294,238.5
5.49664574767366,551,514,-37,-532.5,294,238.5
5.49880978143259,546,514,-32,-530,289,241
5.50097381519152,545,514,-31,-529.5,288,241.5
5.50313784895044,542,514,-28,-528,285,243
5.50530188270937,539,514,-25,-526.5,282,244.5
5.5074659164683,535,514,-21,-524.5,278,246.5
5.50962995022722,532,514,-18,-523,275,248
5.51179398398615,534,514,-20,-524,277,247
5.51395801774508,532,513,-19,-522.5,275.5,247
5.516122051504,532,514,-18,-523,275,248
5.51828608526293,530,514,-16,-522,273,249
5.52045011902186,528,514,-14,-521,271,250
5.52261415278078,525,514,-11,-519.5,268,251.5
5.52477818653971,525,514,-11,-519.5,268,251.5
5.52694222029864,523,514,-9,-518.5,266,252.5
5.52910625405756,522,514,-8,-518,265,253
5.53127028781649,517,514,-3,-515.5,260,255.5
5.53343432157542,512,514,2,-513,255,258
5.53559835533434,512,514,2,-513,255,258
5.53776238909327,514,514,0,-514,257,257
5.5399264228522,511,514,3,-512.5,254,258.5
5.54209045661112,507,514,7,-510.5,250,260.5
5.54425449037005,501,514,13,-507.5,244,263.5
5.54641852412898,497,514,17,-505.5,240,265.5
5.5485825578879,494,514,20,-504,237,267
5.55074659164683,489,514,25,-501.5,232,269.5
5.55291062540576,490,514,24,-502,233,269
5.55507465916468,489,513,24,-501,232.5,268.5
5.55723869292361,488,512,24,-500,232,268
5.55940272668254,488,514,26,-501,231,270
5.56156676044146,489,514,25,-501.5,232,269.5
5.56373079420039,492,513,21,-502.5,235.5,267
5.56589482795932,491,514,23,-502.5,234,268.5
5.56805886171824,491,513,22,-502,234.5,267.5
5.57022289547717,490,513,23,-501.5,233.5,268
5.5723869292361,488,513,25,-500.5,231.5,269
5.57455096299502,485,513,28,-499,228.5,270.5
5.57671499675395,487,514,27,-500.5,230,270.5
5.57887903051288,483,514,31,-498.5,226,272.5
5.5810430642718,485,514,29,-499.5,228,271.5
5.58320709803073,486,514,28,-500,229,271
5.58537113178966,486,513,27,-499.5,229.5,270
5.58753516554858,483,514,31,-498.5,226,272.5
5.58969919930751,485,513,28,-499,228.5,270.5
5.59186323306644,484,514,30,-499,227,272
5.59402726682536,487,513,26,-500,230.5,269.5
5.59619130058429,486,514,28,-500,229,271
5.59835533434322,489,514,25,-501.5,232,269.5
5.60051936810214,488,514,26,-501,231,270
5.60268340186107,488,514,26,-501,231,270
5.60484743562,489,514,25,-501.5,232,269.5
5.60701146937892,488,513,25,-500.5,231.5,269
5.60917550313785,488,514,26,-501,231,270
5.61133953689678,485,514,29,-499.5,228,271.5
5.6135035706557,485,514,29,-499.5,228,271.5
5.61566760441463,485,513,28,-499,228.5,270.5
5.61783163817356,486,513,27,-499.5,229.5,270
5.61999567193248,486,513,27,-499.5,229.5,270
5.62215970569141,483,513,30,-498,226.5,271.5
5.62432373945034,483,513,30,-498,226.5,271.5
5.62648777320926,483,513,30,-498,226.5,271.5
5.62865180696819,487,514,27,-500.5,230,270.5
5.63081584072711,486,514,28,-500,229,271
5.63297987448604,489,513,24,-501,232.5,268.5
5.63514390824497,486,514,28,-500,229,271
5.6373079420039,488,514,26,-501,231,270
5.63947197576282,490,514,24,-502,233,269
5.64163600952175,492,514,22,-503,235,268
5.64380004328067,494,514,20,-504,237,267
5.6459640770396,494,514,20,-504,237,267
5.64812811079853,495,514,19,-504.5,238,266.5
5.65029214455746,496,514,18,-505,239,266
5.65245617831638,495,514,19,-504.5,238,266.5
5.65462021207531,493,514,21,-503.5,236,267.5
5.65678424583423,495,514,19,-504.5,238,266.5
5.65894827959316,493,513,20,-503,236.5,266.5
5.66111231335209,495,513,18,-504,238.5,265.5
5.66327634711101,496,514,18,-505,239,266
5.66544038086994,493,513,20,-503,236.5,266.5
5.66760441462887,493,514,21,-503.5,236,267.5
5.66976844838779,493,514,21,-503.5,236,267.5
5.67193248214672,492,514,22,-503,235,268
5.67409651590565,493,514,21,-503.5,236,267.5
5.67626054966457,495,514,19,-504.5,238,266.5
5.6784245834235,493,514,21,-503.5,236,267.5
5.68058861718243,492,513,21,-502.5,235.5,267
5.68275265094135,490,514,24,-502,233,269
5.68491668470028,492,514,22,-503,235,268
5.68708071845921,495,514,19,-504.5,238,266.5
5.68924475221813,495,514,19,-504.5,238,266.5
5.69140878597706,497,514,17,-505.5,240,265.5
5.69357281973599,500,514,14,-507,243,264
5.69573685349491,499,514,15,-506.5,242,264.5
5.69790088725384,498,514,16,-506,241,265
5.70006492101277,502,514,12,-508,245,263
5.70222895477169,500,514,14,-507,243,264
5.70439298853062,500,514,14,-507,243,264
5.70655702228955,496,514,18,-505,239,266
5.70872105604847,494,514,20,-504,237,267
5.7108850898074,493,514,21,-503.5,236,267.5
5.71304912356633,495,514,19,-504.5,238,266.5
5.71521315732525,496,514,18,-505,239,266
5.71737719108418,493,514,21,-503.5,236,267.5
5.71954122484311,494,514,20,-504,237,267
5.72170525860203,495,513,18,-504,238.5,265.5
5.72386929236096,495,514,19,-504.5,238,266.5
5.72603332611989,497,514,17,-505.5,240,265.5
5.72819735987881,498,514,16,-506,241,265
5.73036139363774,497,514,17,-505.5,240,265.5
5.73252542739667,495,514,19,-504.5,238,266.5
5.73468946115559,493,514,21,-503.5,236,267.5
5.73685349491452,495,513,18,-504,238.5,265.5
5.73901752867345,496,514,18,-505,239,266
5.74118156243237,496,514,18,-505,239,266
5.7433455961913,496,514,18,-505,239,266
5.74550962995023,493,514,21,-503.5,236,267.5
5.74767366370915,495,514,19,-504.5,238,266.5
5.74983769746808,495,513,18,-504,238.5,265.5
5.75200173122701,498,514,16,-506,241,265
5.75416576498593,494,514,20,-504,237,267
5.75632979874486,494,513,19,-503.5,237.5,266
5.75849383250379,492,514,22,-503,235,268
5.76065786626271,490,513,23,-501.5,233.5,268
5.76282190002164,494,514,20,-504,237,267
5.76498593378057,491,513,22,-502,234.5,267.5
5.76714996753949,494,513,19,-503.5,237.5,266
5.76931400129842,498,514,16,-506,241,265
5.77147803505735,499,514,15,-506.5,242,264.5
5.77364206881627,496,514,18,-505,239,266
5.7758061025752,496,514,18,-505,239,266
5.77797013633413,497,514,17,-505.5,240,265.5
5.78013417009305,496,514,18,-505,239,266
5.78229820385198,494,514,20,-504,237,267
5.78446223761091,495,513,18,-504,238.5,265.5
5.78662627136983,496,513,17,-504.5,239.5,265
5.78879030512876,499,514,15,-506.5,242,264.5
5.79095433888769,500,514,14,-507,243,264
5.79311837264661,501,514,13,-507.5,244,263.5
5.79528240640554,500,514,14,-507,243,264
5.79744644016447,496,514,18,-505,239,266
5.79961047392339,493,514,21,-503.5,236,267.5
5.80177450768232,489,514,25,-501.5,232,269.5
5.80393854144125,491,513,22,-502,234.5,267.5
5.80610257520017,495,514,19,-504.5,238,266.5
5.8082666089591,497,514,17,-505.5,240,265.5
5.81043064271803,503,514,11,-508.5,246,262.5
5.81259467647695,504,514,10,-509,247,262
5.81475871023588,503,514,11,-508.5,246,262.5
5.81692274399481,504,514,10,-509,247,262
5.81908677775373,503,513,10,-508,246.5,261.5
5.82125081151266,500,514,14,-507,243,264
5.82341484527159,499,514,15,-506.5,242,264.5
5.82557887903051,498,514,16,-506,241,265
5.82774291278944,499,514,15,-506.5,242,264.5
5.82990694654837,499,514,15,-506.5,242,264.5
5.83207098030729,498,514,16,-506,241,265
5.83423501406622,499,514,15,-506.5,242,264.5
5.83639904782515,495,514,19,-504.5,238,266.5
5.83856308158407,494,514,20,-504,237,267
5.840727115343,498,514,16,-506,241,265
5.84289114910193,500,514,14,-507,243,264
5.84505518286085,503,514,11,-508.5,246,262.5
5.84721921661978,502,514,12,-508,245,263
5.84938325037871,506,514,8,-510,249,261
5.85154728413763,512,514,2,-513,255,258
5.85371131789656,514,514,0,-514,257,257
5.85587535165549,513,514,1,-513.5,256,257.5
5.85803938541441,512,514,2,-513,255,258
5.86020341917334,507,514,7,-510.5,250,260.5
5.86236745293227,506,513,7,-509.5,249.5,260
5.86453148669119,503,513,10,-508,246.5,261.5
5.86669552045012,506,514,8,-510,249,261
5.86885955420905,508,514,6,-511,251,260
5.87102358796797,511,514,3,-512.5,254,258.5
5.8731876217269,511,514,3,-512.5,254,258.5
5.87535165548582,508,514,6,-511,251,260
5.87751568924475,510,514,4,-512,253,259
5.87967972300368,511,514,3,-512.5,254,258.5
5.88184375676261,516,514,-2,-515,259,256
5.88400779052153,518,514,-4,-516,261,255
5.88617182428046,517,514,-3,-515.5,260,255.5
5.88833585803938,517,514,-3,-515.5,260,255.5
5.89049989179831,514,514,0,-514,257,257
5.89266392555724,513,514,1,-513.5,256,257.5
5.89482795931617,513,514,1,-513.5,256,257.5
5.89699199307509,511,514,3,-512.5,254,258.5
5.89915602683402,511,514,3,-512.5,254,258.5
5.90132006059295,507,514,7,-510.5,250,260.5
5.90348409435187,506,514,8,-510,249,261
5.9056481281108,506,514,8,-510,249,261
5.90781216186972,510,514,4,-512,253,259
5.90997619562865,510,513,3,-511.5,253.5,258
5.91214022938758,511,514,3,-512.5,254,258.5
5.91430426314651,514,514,0,-514,257,257
5.91646829690543,513,514,1,-513.5,256,257.5
5.91863233066436,509,514,5,-511.5,252,259.5
5.92079636442328,507,514,7,-510.5,250,260.5
5.92296039818221,505,513,8,-509,248.5,260.5
5.92512443194114,502,514,12,-508,245,263
5.92728846570007,501,514,13,-507.5,244,263.5
5.92945249945899,496,514,18,-505,239,266
5.93161653321792,495,514,19,-504.5,238,266.5
5.93378056697684,494,514,20,-504,237,267
5.93594460073577,492,514,22,-503,235,268
5.9381086344947,494,514,20,-504,237,267
5.94027266825362,492,513,21,-502.5,235.5,267
5.94243670201255,497,513,16,-505,240.5,264.5
5.94460073577148,502,514,12,-508,245,263
5.9467647695304,506,514,8,-510,249,261
5.94892880328933,505,514,9,-509.5,248,261.5
5.95109283704826,501,514,13,-507.5,244,263.5
5.95325687080718,496,514,18,-505,239,266
5.95542090456611,493,514,21,-503.5,236,267.5
5.95758493832504,490,513,23,-501.5,233.5,268
5.95974897208396,488,514,26,-501,231,270
5.96191300584289,488,513,25,-500.5,231.5,269
5.96407703960182,488,513,25,-500.5,231.5,269
5.96624107336074,488,514,26,-501,231,270
5.96840510711967,488,513,25,-500.5,231.5,269
5.9705691408786,493,514,21,-503.5,236,267.5
5.97273317463752,495,514,19,-504.5,238,266.5
5.97489720839645,499,513,14,-506,242.5,263.5
5.97706124215538,499,514,15,-506.5,242,264.5
