t,leadI,leadII,leadIII,aVR,aVL,aVF
0,-28.3075842647809,-302.473207762589,-274.165623497808,165.390396013685,122.929019616513,-288.319415630198
0.00214132762312634,222.086541930652,-89.0445758455044,-311.131117776156,-66.5209830425738,266.608829853404,-200.08784681083
0.00428265524625268,428.586138355082,19.3744325549924,-409.21170580009,-223.980285455037,418.898922077586,-194.918636622549
0.00642398286937901,570.684375837699,36.3409636467641,-534.343412190935,-303.512669742231,552.513894014317,-249.001224272085
0.00856531049250535,643.377620081427,-13.6860846942964,-657.063704775723,-314.845767693565,650.220662428575,-335.37489473501
0.0107066381156317,652.22156191878,-106.181601510561,-758.403163429342,-273.019980204109,705.312362674061,-432.292382469952
0.012847965738758,609.035085789949,-221.246017812036,-830.281103601985,-193.894533988956,719.658094695967,-525.763560707011
0.0149892933618844,529.03069259317,-344.769214123326,-873.799906716495,-92.1307392349221,701.415299654833,-609.28456041991
0.0171306209850107,428.399562385125,-467.604231652138,-896.003794037263,19.6023346335065,662.201678211194,-681.8040128447
0.019271948608137,321.989672422718,-584.00541564087,-905.995088063588,131.007871609076,613.992380243153,-745.000251852229
0.0214132762312634,221.397846794236,-690.594899969741,-911.992746763977,234.598526587753,566.695296779107,-801.293823366859
0.0235546038543897,134.103177732328,-785.753153212065,-919.856330944392,325.824987739869,526.97975433836,-852.804742078229
0.0256959314775161,63.8524876621739,-868.750927462725,-932.603415124898,402.449219900275,498.227951393536,-900.677171293812
0.0278372591006424,11.6217650910016,-939.108198409049,-950.72996350005,463.743216659024,481.175864295526,-944.91908095455
0.0299785867237687,-23.5233435659836,-996.787986998528,-973.264643432545,510.155665282256,474.87064993328,-985.026315215536
0.0321199143468951,-43.6701684299314,-1042.50896007321,-998.838791643277,543.08956425157,477.584311606673,-1020.67387585824
0.0342612419700214,-51.5006951234145,-1077.57507297049,-1026.07437784707,564.537884046952,487.28684136183,-1051.82472540878
0.0364025695931477,-50.1825245533435,-1103.70280353725,-1053.5202789839,576.942664045295,501.66887721528,-1078.61154126057
0.0385438972162741,-43.4277709733758,-1122.95549108403,-1079.52772011066,583.191631028704,518.04997456864,-1101.24160559734
0.0406852248394004,-35.226298258317,-1137.4252821257,-1102.19898386739,586.32579019201,533.486342804535,-1119.81213299654
0.0428265524625268,-29.2111797897542,-1148.98101819759,-1119.76983840784,589.096098993673,545.279329309042,-1134.37542830271
0.0449678800856531,-27.9848457248233,-1159.36736451905,-1131.38251879422,593.676105121935,551.6988365347,-1145.37494165663
0.0471092077087794,-32.7145176012459,-1170.11273055744,-1137.39821295619,601.413624079343,552.341847677474,-1153.75547175682
0.0492505353319058,-43.1931826907169,-1182.12559211957,-1138.93240942885,612.659387405144,547.869613369069,-1160.52900077421
0.0513918629550321,-58.2872195972645,-1195.64266174046,-1137.35544214319,626.96494066886,539.534111272963,-1166.49905194182
0.0535331905781585,-76.3625854074935,-1210.45256873436,-1134.08998332687,643.407577070927,528.863698959687,-1172.27127603061
0.0556745182012848,-95.5237150596936,-1225.88127499059,-1130.35755993089,660.70249502514,517.4169224356,-1178.11941746074
0.0578158458244111,-113.927321418683,-1240.90527326557,-1126.97795184689,677.416297342129,506.525315214104,-1183.94161255623
0.0599571734475375,-130.211739125695,-1254.63156669734,-1124.41982757165,692.42165291152,497.104044222977,-1189.5256971345
0.0620985010706638,-143.671098579002,-1266.51245825467,-1122.84135967566,705.091778416834,489.58513054833,-1194.67690896516
0.0642398286937901,-154.069793852778,-1276.20064791962,-1122.13085406684,715.135220886197,484.030530107031,-1199.16575099323
0.0663811563169165,-161.463125299613,-1283.581031206,-1122.11790590639,722.522078252808,480.327390303388,-1202.8494685562
0.0685224839400428,-166.215195888187,-1288.82102746026,-1122.60583157207,727.518111674224,478.195317841943,-1205.71342951617
0.0706638115631692,-169.048167741814,-1292.17988556337,-1123.13171782156,730.614026652593,477.041775039871,-1207.65580169246
0.0728051391862955,-170.981507951099,-1294.02687429807,-1123.04536634697,732.504191124584,476.031929197935,-1208.53612032252
0.0749464668094218,-173.021657502793,-1295.01799294436,-1121.99633544156,734.019825223575,474.487338969385,-1208.50716419296
0.0770877944325482,-175.611168274025,-1295.7752401237,-1120.16407184967,735.693204198862,472.276451787825,-1207.96965598669
0.0792291220556745,-178.394925604007,-1296.40323909388,-1118.00831348988,737.399082348945,469.806693942934,-1207.20577629188
0.0813704496788009,-180.678477908882,-1296.61719686946,-1115.93871896058,738.647837389171,467.630120525847,-1206.27795791502
0.0835117773019272,-181.99601529304,-1296.09223280865,-1114.09621751561,739.044124050843,466.050101111283,-1205.09422516213
0.0856531049250535,-182.202119822471,-1294.53186730637,-1112.3297474839,738.366993564421,465.063813830715,-1203.43080739514
0.0877944325481799,-181.362660859215,-1291.85345394526,-1110.49079308604,736.608057402237,464.564066113415,-1201.17212351565
0.0899357601713062,-179.730610139645,-1288.39897858838,-1108.66836844874,734.064794364015,464.468879154547,-1198.53367351856
0.0920770877944325,-177.66908809183,-1284.57943277289,-1106.91034468106,731.124260432358,464.620628294613,-1195.74488872697
0.0942184154175589,-175.637378043328,-1280.45038412368,-1104.81300608035,728.043881083502,464.58781401851,-1192.63169510201
0.0963597430406852,-174.235664831387,-1275.95437852189,-1101.7187136905,725.095021676637,463.741524429557,-1188.83654610619
0.0985010706638116,-173.892381147265,-1271.22445743358,-1097.33207628632,722.558419290424,461.719847569527,-1184.27826685995
0.100642398286938,-174.480006800419,-1266.37605051111,-1091.8960437107,720.428028655767,458.708018455138,-1179.13604711091
0.102783725910064,-175.537724140778,-1261.40118698895,-1085.86346284817,718.469455564863,455.162869353695,-1173.63232491856
0.104925053533191,-176.725701190535,-1256.37449249664,-1079.6487913061,716.550096843586,451.461545057783,-1168.01164190137
0.107066381156317,-177.831340396309,-1251.39960176907,-1073.56826137276,714.615471082691,447.868460488227,-1162.48393157092
0.109207708779443,-178.623520097441,-1246.45263194142,-1067.82911184398,712.538076019429,444.602795873267,-1157.1408718927
0.11134903640257,-178.981961059523,-1241.54953106846,-1062.56757000894,710.265746063992,441.792804474708,-1152.0585505387
0.113490364025696,-178.994329331006,-1236.74958728559,-1057.75525795458,707.871958308298,439.380464311788,-1147.25242262009
0.115631691648822,-178.759223441228,-1231.86017287826,-1053.10094943703,705.309698159744,437.170862997903,-1142.48056115765
0.117773019271949,-178.272263132415,-1226.57487713122,-1048.30261399881,702.423570131819,435.015175433197,-1137.43874556502
0.119914346895075,-177.606672266503,-1220.86712784598,-1043.26045557948,699.236900056242,432.826891656488,-1132.06379171273
0.122055674518201,-176.97815401107,-1214.92303676895,-1037.94488275788,695.950595390012,430.483364373407,-1126.43395976342
0.124197002141328,-176.577195061881,-1208.9397638774,-1032.36256881552,692.758479469642,427.892686876822,-1120.65116634646
0.126338329764454,-176.506445957064,-1203.18497124175,-1026.67852528469,689.845708599408,425.086039663812,-1114.93174826322
0.12847965738758,-176.730181952507,-1197.92331263794,-1021.19313068543,687.326747295222,422.231474366462,-1109.55822166168
0.130620985010707,-176.896480354329,-1193.16421061209,-1016.26773025776,685.030345483211,419.685624951717,-1104.71597043493
0.132762312633833,-176.445662751175,-1188.64925112344,-1012.20358837227,682.547456937309,417.878962810546,-1100.42641974786
0.134903640256959,-175.002754590083,-1183.972448705,-1008.96969411492,679.487601647543,416.983469762418,-1096.47107140996
0.137044967880086,-172.519896007027,-1178.60893379206,-1006.08903778503,675.564414899543,416.784570889002,-1092.34898578854
0.139186295503212,-169.219825830801,-1172.15257531369,-1002.93274948289,670.686200572244,416.856461826043,-1087.54266239829
0.141327623126338,-165.561278049602,-1164.71453699589,-999.153258946285,665.137907522745,416.795990448341,-1081.93389797109
0.143468950749465,-162.048832738229,-1156.82826522411,-994.779432485883,659.438548981171,416.365299873827,-1075.803848855
0.145610278372591,-159.018256786094,-1148.99010643314,-989.971849647042,654.004181609615,415.476796430474,-1069.48097804009
0.147751605995717,-156.632472282459,-1141.56252430507,-984.930052022607,649.097498293763,414.148789870074,-1063.24628816384
0.149892933618844,-154.899032128045,-1134.76218707185,-979.86315494381,644.83060959995,412.482061407882,-1057.31267100783
0.15203426124197,-153.613838742586,-1128.32859142197,-974.71475267938,640.971215082276,410.550456968397,-1051.52167205067
0.154175588865096,-152.420419748854,-1121.62039937635,-969.199979627498,637.020409562603,408.389779939322,-1045.41018950193
0.156316916488223,-151.052474563571,-1114.31665858855,-963.264184024978,632.684566576059,406.105854730704,-1038.79042130676
0.158458244111349,-149.509986036212,-1106.61790210085,-957.107916064639,628.063944068532,403.798965014214,-1031.86290908275
0.160599571734475,-147.941860520406,-1098.80342961526,-950.861569094849,623.372645067831,401.459854287222,-1024.83249935505
0.162740899357602,-146.428638410786,-1091.0598742676,-944.631235856812,618.744256339192,399.101298723013,-1017.8455550622
0.164882226980728,-144.878308412814,-1083.51333574796,-938.635027335143,614.195822080385,396.878359461165,-1011.07418154155
0.167023554603854,-142.980934292101,-1076.02019908444,-933.039264792342,609.500566688272,395.029165250121,-1004.52973193839
0.169164882226981,-140.31279374289,-1068.14456012449,-927.831766381604,604.228676933692,393.759486319357,-997.988163253049
0.171306209850107,-136.611033273741,-1059.49615670255,-922.885123428811,598.053594988146,393.137045077535,-991.190640065682
0.173447537473233,-131.839788033808,-1049.88712048024,-918.047332446432,590.863454257024,393.103772206312,-983.967226463336
0.17558886509636,-125.986868446538,-1039.27917440246,-913.292305955917,582.633021424497,393.652718754689,-976.285740179186
0.177730192719486,-119.059401803148,-1027.88749235161,-908.828090548459,573.473447077378,394.884344372655,-968.357791450033
0.179871520342612,-111.333089016922,-1016.17182102702,-904.838732010097,563.75245502197,396.752821496588,-960.505276518557
0.182012847965739,-103.413189459492,-1004.53657706211,-901.123387602622,553.974883260803,398.855099071565,-952.829982332368
0.184154175588865,-96.0529125537881,-993.250658925361,-897.197746371573,544.651785739574,400.572416908892,-945.224202648467
0.186295503211991,-89.9269567567516,-982.582999106734,-892.656042349982,536.254977931743,401.364542796615,-937.619520728358
0.188436830835118,-85.334272183274,-972.669076818316,-887.334804635042,529.001674500795,401.000266225884,-930.001940726679
0.190578158458244,-82.0284719846189,-963.359392648947,-881.330920664328,522.693932316783,399.651224339854,-922.345156656637
0.19271948608137,-79.4263675347275,-954.420299207276,-874.993931672549,516.923333371002,397.783782068911,-914.707115439912
0.194860813704497,-76.8839493143679,-945.661826673008,-868.77787735864,511.272887993688,395.946964022136,-907.219852015824
0.197002141327623,-73.8079670767879,-936.765444262798,-862.95747718601,505.286705669793,394.574755054611,-899.861460724404
0.199143468950749,-69.8395576752493,-927.371816496932,-857.532258821683,498.605687086091,393.846350573217,-892.452037659308
0.201284796573876,-65.0443627205244,-917.424607389609,-852.380244669085,491.234485055067,393.66794097428,-884.902426029347
0.203426124197002,-59.8360314670514,-907.11493366278,-847.278902195728,483.475482564915,393.721435364338,-877.196917929254
0.205567451820128,-54.7651882580282,-896.674669914488,-841.90948165646,475.719929086258,393.572146699216,-869.292075785474
0.207708779443255,-50.310058874757,-886.494035691106,-836.183976816349,468.402047282931,392.936958970796,-861.339006253727
0.209850107066381,-46.6328673522143,-877.056297809918,-830.423430457703,461.844582581066,391.895281552745,-853.739864133811
0.211991434689507,-43.5144646842802,-868.499296540324,-824.984831856044,456.006880612302,390.735183585882,-846.742064198184
0.214132762312634,-40.6168483895178,-860.507255040831,-819.890406651313,450.562051715175,389.636779130898,-840.198830846072
0.21627408993576,-37.67735355112,-852.607163898093,-814.929810346973,445.142258724607,388.626228397927,-833.768487122533
0.218415417558887,-34.3593498294463,-844.29331151182,-809.933961682374,439.326330670633,387.787305926464,-827.113636597097
0.220556745182013,-30.2178279224247,-835.120710370533,-804.902882448108,432.669269146479,387.342527262842,-820.01179640932
0.222698072805139,-24.9713194865392,-824.992851361799,-800.02153187526,424.982085424169,387.52510619436,-812.507191618529
0.224839400428266,-18.6231111855755,-814.132490354937,-795.509379169362,416.377800770256,388.443133991893,-804.820934762149
0.226980728051392,-11.4226026117546,-802.798955514337,-791.376352902582,407.110779063046,389.976875145414,-797.087654208459
0.229122055674518,-3.85546457949451,-791.335754506229,-787.480289926734,397.595609542862,391.81241267362,-789.408022216482
0.231263383297645,3.49196675552221,-780.203017288999,-783.694984044522,388.355525266739,393.593475400022,-781.949000666761
0.233404710920771,10.095233176801,-769.669508893553,-779.764742070354,379.787137858376,394.929987623577,-774.717125481953
0.235546038543897,15.5629625771494,-759.782063706471,-775.34502628362,372.109550564661,395.453994430385,-767.563544995046
0.237687366167024,19.7117510265415,-750.697426895707,-770.409177922249,365.492837934583,395.060464474395,-760.553302408978
0.23982869379015,22.5145284926312,-742.632967670799,-765.14749616343,360.059219589084,393.831012328031,-753.890231917114
0.241970021413276,23.9147797903924,-735.53213182873,-759.446911619123,355.808676019169,391.680845704757,-747.489521723926
0.244111349036403,23.8131973641497,-729.165257302304,-752.978454666454,352.676029969077,388.395826015302,-741.071855984379
0.246252676659529,22.2858217489977,-723.3981221497,-745.683943898698,350.556150200351,383.984882823848,-734.541033024199
0.248394004282655,19.6829062027402,-718.152571091882,-737.835477294622,349.234832444571,378.759191748681,-727.994024193252
0.250535331905782,16.3560622568381,-713.419958773027,-729.776021029865,348.531948258095,373.066041643352,-721.597989901446
0.252676659528908,12.3723840672719,-709.360131394081,-721.732515461353,348.493873663405,367.052449764313,-715.546323427717
0.254817987152034,7.62823011396421,-706.05421937517,-713.682449489135,349.212994630603,360.655339801549,-709.868334432152
0.256959314775161,2.11013028719719,-703.205079445678,-705.315209732875,350.54747457924,353.712670010036,-704.260144589277
0.259100642398287,-3.97005480840181,-700.275845769575,-696.305790961173,352.122950288988,346.167868076386,-698.290818365374
0.261241970021413,-10.1190992369756,-696.79110884762,-686.672009610645,353.455104042298,338.276455186834,-691.731559229132
0.26338329764454,-15.7673035340762,-692.563361310372,-676.796057776296,354.165332422224,330.51437712111,-684.679709543334
0.265524625267666,-20.7654480789498,-687.979714528677,-667.214266449727,354.372581303813,323.224409185388,-677.596990489202
0.267665952890792,-25.6078438310918,-683.921824125641,-658.31398029455,354.764833978366,316.353068231729,-671.117902210095
0.269807280513919,-31.0614612616517,-681.049854267955,-649.988393006303,356.055657764803,309.463465872326,-665.519123637129
0.271948608137045,-37.6596477862927,-679.428693536433,-641.76904575014,358.544170661363,302.054698981924,-660.598869643287
0.274089935760171,-45.5563638487258,-678.967285269727,-633.410921421001,362.261824559227,293.927278786138,-656.189103345364
0.276231263383298,-54.6228339234304,-679.599645926769,-624.976812003339,367.1112399251,285.176989039954,-652.288228965054
0.278372591006424,-64.5274888579754,-680.938268874876,-616.410780016901,372.732878866426,275.941645579463,-648.674524445889
0.28051391862955,-74.8857911941103,-682.386022481817,-607.500231287707,378.635906837964,266.307220046798,-644.943126884762
0.282655246252677,-85.3934897118685,-683.627197762847,-598.233708050978,384.510343737358,256.420109169555,-640.930452906912
0.284796573875803,-95.7557682754094,-684.694464225464,-588.938695950055,390.225116250437,246.591463837323,-636.81658008776
0.286937901498929,-105.683036751593,-685.822102130089,-580.139065378496,395.752569440841,237.228014313451,-632.980583754292
0.289079229122056,-115.059379213988,-687.411263726488,-572.3518845125,401.235321470238,228.646252649256,-629.881574119494
0.291220556745182,-123.872417066436,-689.688782676785,-565.816365610349,406.780599871611,220.971974271957,-627.752574143567
0.293361884368308,-131.892141562965,-692.284429542583,-560.392287979618,412.088285552774,214.250073208327,-626.3383587611
0.295503211991435,-138.705277792581,-694.531563390653,-555.826285598072,416.618420591617,208.560503902745,-625.178924494362
0.297644539614561,-144.149940936913,-696.052598979211,-551.902658042298,420.101269958062,203.876358552693,-623.977628510754
0.299785867237687,-148.494580633075,-696.773268450522,-548.278687817447,422.633924541798,199.892053592186,-622.525978133984
0.301927194860814,-152.258231276311,-696.797884034758,-544.539652758447,424.528057655534,196.140710741068,-620.668768396603
0.30406852248394,-155.979138043542,-696.532750435616,-540.553612392074,426.255944239579,192.287237174266,-618.543181413845
0.306209850107066,-159.953252035896,-696.481350682891,-536.528098646995,428.217301359393,188.28742330555,-616.504724664943
0.308351177730193,-164.177523761377,-696.874449374184,-532.696925612807,430.525986567781,184.259700925715,-614.785687493496
0.310492505353319,-168.635459939842,-697.806123603512,-529.17066366367,433.220791771677,180.267601861914,-613.488393633591
0.312633832976445,-173.375145934218,-699.314227301415,-525.939081367197,436.344686617817,176.28196771649,-612.626654334306
0.314775160599572,-178.243271108757,-701.019000386947,-522.77572927819,439.631135747852,172.266229084716,-611.897364832569
0.316916488222698,-182.899882291938,-702.244380377972,-519.344498086034,442.572131334955,168.222307897048,-610.794439232003
0.319057815845824,-187.179738895662,-702.701458798323,-515.52171990266,444.940598846993,164.170990503499,-609.111589350492
0.321199143468951,-191.195477977323,-702.633136755362,-511.437658778039,446.914307366343,160.121090400358,-607.0353977667
0.323340471092077,-195.030987210087,-702.356772516805,-507.325785306718,448.693879863446,156.147399048315,-604.841278911761
0.325481798715203,-198.459758429594,-702.037055896481,-503.577297466887,450.248407163038,152.558769518646,-602.807176681684
0.32762312633833,-200.990701112397,-701.647973050893,-500.657271938496,451.319337081645,149.833285413049,-601.152622494694
0.329764453961456,-202.151855805079,-700.791660695708,-498.639804890629,451.471758250394,148.243974542775,-599.715732793169
0.331905781584582,-201.79832857993,-698.840382612241,-497.042054032311,450.319355596085,147.621862726191,-597.941218322276
0.334047109207709,-200.281020162186,-695.454776049513,-495.173755887326,447.867898105849,147.44636786257,-595.314265968419
0.336188436830835,-198.318941257661,-690.756218105712,-492.437276848052,444.537579681687,147.059167795195,-591.596747476882
0.338329764453961,-196.605245210928,-685.199572824076,-488.594327613148,440.902409017502,145.99454120111,-586.896950218612
0.340471092077088,-195.48052441281,-679.569855274648,-484.089330861838,437.525189843729,144.304403224514,-581.829593068243
0.342612419700214,-194.845232203297,-674.716558560977,-479.87132635768,434.780895382137,142.513047077192,-577.293942459329
0.34475374732334,-194.259912098442,-670.999230237694,-476.739318139252,432.629571168068,141.239703020405,-573.869274188473
0.346895074946467,-193.316087979814,-668.202524259339,-474.886436279524,430.759306119577,140.785174149855,-571.544480269432
0.349036402569593,-192.027864287376,-665.840932501999,-473.813068214623,428.934398394687,140.892601963624,-569.827000358311
0.351177730192719,-190.723674885388,-663.320832157781,-472.597157272394,427.022253521585,140.936741193503,-567.958994715087
0.353319057815846,-189.709963119659,-660.232837687139,-470.52287456748,424.971400403399,140.40645572391,-565.37785612731
0.355460385438972,-189.257789396096,-656.729251580553,-467.471462184457,422.993520488325,139.106836394181,-562.100356882505
0.357601713062098,-189.619675350397,-653.306943189507,-463.68726783911,421.463309269952,137.033796244357,-558.497105514308
0.359743040685225,-190.83865850929,-650.26172030967,-459.423061800381,420.55018940948,134.292201645546,-554.842391055026
0.361884368308351,-192.765350644466,-647.629388721119,-454.864038076654,420.197369682793,131.049343716094,-551.246713398887
0.364025695931477,-195.251572573782,-645.35106823214,-450.099495658359,420.301320402961,127.423961542288,-547.725281945249
0.366167023554604,-198.122270443591,-643.143264292369,-445.020993848778,420.63276736798,123.449361702594,-544.082129070573
0.36830835117773,-201.020309383967,-640.565476733787,-439.54516734982,420.792893058877,119.262428982927,-540.055322041804
0.370449678800857,-203.415198167161,-637.466186983099,-434.050988815938,420.44069257513,115.317895324388,-535.758587899518
0.372591006423983,-204.859781524544,-634.099599247647,-429.239817723103,419.479690386096,112.190018099279,-531.669708485375
0.374732334047109,-205.286241689261,-630.839550335848,-425.553308646587,418.062896012554,110.133533478663,-528.196429491218
0.376873661670236,-205.016495259754,-627.965129578306,-422.948634318551,416.49081241903,108.966069529399,-525.456881948429
0.379014989293362,-204.465633979615,-625.497859638659,-421.032225659044,414.981746809137,108.283295839715,-523.265042648851
0.381156316916488,-203.820958901987,-623.07555742104,-419.254598519052,413.448258161513,107.716819808533,-521.165077970046
0.383297644539615,-202.999109920076,-620.188392239854,-417.189282319778,411.593751079965,107.095086199851,-518.688837279816
0.385438972162741,-201.867425663473,-616.581649764676,-414.714224101202,409.224537714075,106.423399218864,-515.647936932939
0.387580299785867,-200.377188401238,-612.286175394595,-411.908986993357,406.331681897916,105.76589929606,-512.097581193976
0.389721627408994,-198.50588696657,-607.456992877978,-408.951105911408,402.981439922274,105.222609472419,-508.204049394693
0.39186295503212,-196.282819434224,-602.400197185037,-406.117377750813,399.341508309631,104.917279158295,-504.258787467925
0.394004282655246,-193.871837263585,-597.532978745218,-403.661141481633,395.702408004401,104.894652109024,-500.597060113426
0.396145610278373,-191.437143952915,-593.092347685394,-401.655203732479,392.264745819155,105.109029889782,-497.373775708937
0.398286937901499,-188.999021042553,-588.973150669038,-399.974129626485,388.986085855795,105.487554291966,-494.473640147762
0.400428265524625,-186.566919858231,-584.924151406149,-398.357231547918,385.74553563219,105.895155844843,-491.640691477034
0.402569593147752,-184.273679703389,-580.779879042876,-396.506199339487,382.526779373132,106.116259818049,-488.643039191181
0.404710920770878,-182.342191247522,-576.549972165883,-394.20778091836,379.446081706703,105.932794835419,-485.378876542122
0.406852248394004,-181.088197465942,-572.4819363835,-391.393738917558,376.785066924721,105.152770725808,-481.937837650529
0.408993576017131,-180.832912393707,-568.879451410116,-388.046539016409,374.856181901912,103.606813311351,-478.462995213263
0.411134903640257,-181.622959720994,-565.771885112218,-384.148925391224,373.697422416606,101.262982835115,-474.960405251721
0.413276231263383,-183.172625217898,-562.987831489418,-379.81520627152,373.080228353658,98.3212905268114,-471.401518880469
0.41541755888651,-185.027719578246,-560.279107635665,-375.251388057419,372.653413606955,95.1118342395863,-467.765247846542
0.417558886509636,-186.539738319496,-557.049565297238,-370.509826977743,371.794651808367,91.9850443291235,-463.779696137491
0.419700214132762,-186.931540210739,-552.472981520882,-365.541441310142,369.70226086581,89.3049505497016,-459.007211415512
0.421841541755889,-185.720732207819,-546.258591190004,-360.537858982185,365.989661698912,87.408563387183,-453.398225086095
0.423982869379015,-182.930550086728,-538.86496245328,-355.934412366553,360.897756270004,86.5019311399124,-447.399687409917
0.426124197002141,-178.878048201292,-530.881768267499,-352.003720066206,354.879908234395,86.5628359324568,-441.442744166852
0.428265524625268,-174.083323091035,-522.775604123877,-348.692281032843,348.429463607456,87.304478970904,-435.73394257836
0.430406852248394,-169.304033946473,-515.069841522029,-345.765807575557,342.186937734251,88.230886814542,-430.417824548793
0.43254817987152,-165.247712939443,-508.107156486668,-342.859443547225,336.677434713056,88.8058653038909,-425.483300016947
0.434689507494647,-162.232488273609,-501.816242286807,-339.583754013198,332.024365280208,88.6756328697948,-420.699998150002
0.436830835117773,-160.207582677249,-495.973100105343,-335.765517428094,328.090341391296,87.7789673754226,-415.869308766718
0.438972162740899,-158.864564651384,-490.361151015414,-331.49658636403,324.612857833399,86.3160108563227,-410.928868689722
0.441113490364026,-157.730613917529,-484.733712909904,-327.003098992375,321.232163413716,84.636242537423,-405.868405951139
0.443254817987152,-156.505329897611,-479.02666639783,-322.52133650022,317.765998147721,83.0080033013044,-400.774001449025
0.445396145610278,-155.316028633907,-473.510411216364,-318.194382582458,314.413219925136,81.4391769742756,-395.852396899411
0.447537473233405,-154.422819697851,-468.451128998317,-314.028309300466,311.436974348084,79.8027448013077,-391.239719149392
0.449678800856531,-153.806268551025,-463.757550017144,-309.951281466119,308.781909284085,78.0725064575472,-386.854415741632
0.451820128479657,-153.172379752518,-459.063967207747,-305.891587455229,306.118173480132,76.3596038513554,-382.477777331488
0.453961456102784,-152.136282090655,-453.879250409016,-301.742968318362,303.007766249835,74.8033431138535,-377.811109363689
0.45610278372591,-150.332884201171,-447.691765686452,-297.358881485281,299.012324943811,73.5129986420552,-372.525323585867
0.458244111349036,-147.588346465938,-440.360349702531,-292.772003236592,293.974348084235,72.5918283853268,-366.566176469561
0.460385438972163,-144.067580031873,-432.359833374508,-288.292253342635,288.21370670319,72.1123366553811,-360.326043358572
0.462526766595289,-140.217662956231,-424.425729156626,-284.208066200395,282.321696056429,71.9952016220816,-354.31689767851
0.464668094218415,-136.629411919103,-417.190729495095,-280.561317575992,276.910070707099,71.9659528284444,-348.876023535544
0.466809421841542,-133.866131346597,-411.08999919157,-277.223867844973,272.478065269084,71.6788682491879,-344.156933518272
0.468950749464668,-132.217909705268,-406.138798047018,-273.92088834175,269.178353876143,70.851489318241,-340.029843194384
0.471092077087794,-131.559939731912,-401.904090431395,-270.344150699483,266.732015081654,69.3921054837851,-336.124120565439
0.473233404710921,-131.457800994142,-397.990494209201,-266.532693215059,264.724147601671,67.5374461104584,-332.26159371213
0.475374732334047,-131.36444458803,-394.223276699955,-262.858832111925,262.793860643993,65.7471937619473,-328.54105440594
0.477516059957173,-130.748650958694,-390.258894161959,-259.510243203265,260.503772560327,64.3807961222851,-324.884568682612
0.4796573875803,-129.27526945858,-385.674519005541,-256.399249546962,257.47489423206,63.5619900441909,-321.036884276251
0.481798715203426,-127.019794136918,-380.534673098149,-253.514878961231,253.777233617533,63.2475424121567,-317.02477602969
0.483940042826552,-124.440667045705,-375.29203805933,-250.851371013625,249.866352552517,63.2053519839601,-313.071704536478
0.486081370449679,-122.130996435041,-370.262615913849,-248.131619478808,246.196806174445,63.0003115218835,-309.197117696329
0.488222698072805,-120.564149641435,-365.5730851195,-245.008935478065,243.068617380468,62.2223929183151,-305.291010298783
0.490364025695931,-119.876254018962,-361.235774480137,-241.359520461174,240.556014249549,60.7416332211062,-301.297647470656
0.492505353319058,-119.73694755709,-357.015768924723,-237.278821367633,238.376358240906,58.7709369052716,-297.147295146178
0.494646680942184,-119.464045340035,-352.576873803505,-233.11282846347,236.02045957177,56.8243915617179,-292.844851133488
0.49678800856531,-118.377622779451,-347.785089638116,-229.407466858665,233.081356208784,55.5149220396072,-288.596278248391
0.498929336188437,-116.139085722497,-342.621191406951,-226.482105684454,229.380138564724,55.1715099809785,-284.551648545703
0.501070663811563,-112.928154215025,-337.065923503404,-224.137769288379,224.997038859215,55.6048075366771,-280.601846395892
0.50321199143469,-109.370332876917,-331.339560321869,-221.969227444952,220.354946599393,56.2994472840178,-276.654393883411
0.505353319057816,-106.09671864695,-325.896793436795,-219.800074789846,215.996756041872,56.8516780714481,-272.84843411332
0.507494646680942,-103.360568946268,-320.997973113456,-217.637404167188,212.179271029862,57.13841761046,-269.317688640322
0.509635974304068,-101.131249892878,-316.535407031195,-215.404157138317,208.833328462036,57.1364536227195,-265.969782084756
0.511777301927195,-99.2379041197894,-312.155442039597,-212.917537919808,205.696673079693,56.8398169000091,-262.536489979702
0.513918629550321,-97.3170985447957,-307.305233375443,-209.988134830647,202.311165960119,56.3355181429256,-258.646684103045
0.516059957173448,-94.9291393593032,-301.472392832531,-206.543253473228,198.200766095917,55.8070570569623,-254.007823152879
0.518201284796574,-91.8146795435118,-294.651825779215,-202.837146235704,193.233252661364,55.5112333460959,-248.744486007459
0.5203426124197,-87.9683524352388,-287.363860550928,-199.395508115689,187.666106493083,55.7135778402253,-243.379684333309
0.522483940042827,-83.6011309794681,-280.196381340763,-196.595250361295,181.898756160115,56.4970596909134,-238.395815851029
0.524625267665953,-79.1807630261851,-273.572300770967,-194.391537744782,176.376531898576,57.6053873592984,-233.981919257875
0.526766595289079,-75.3427973182938,-267.731241831917,-192.388444513623,171.537019575105,58.5228235976647,-230.05984317277
0.528907922912206,-72.5031722967749,-262.569503774071,-190.066331477296,167.536338035423,58.7815795902604,-226.317917625683
0.531049250535332,-70.5928307101028,-257.673413592187,-187.080582882084,164.133122151145,58.2438760859907,-222.376998237136
0.533190578158458,-69.2135409016801,-252.659848670259,-183.446307768579,160.93669478597,57.1163834334495,-218.053078219419
0.535331905781585,-67.8651554745691,-247.306800227718,-179.441644753149,157.585977851144,55.78824463929,-213.374222490434
0.537473233404711,-66.0524782377372,-241.473156718204,-175.420678480467,153.762817477971,54.684100121365,-208.446917599336
0.539614561027837,-63.4692181437113,-235.178487535674,-171.709269391963,149.323852839693,54.1200256241259,-203.443878463819
0.541755888650964,-60.1048727308503,-228.583798863608,-168.478926132757,144.344335797229,54.1870267009535,-198.531362498182
0.54389721627409,-56.0550379919798,-221.685983398993,-165.630945407013,138.870510695486,54.7879537075166,-193.658464403003
0.546038543897216,-51.36716996933,-214.289788184254,-162.922618214924,132.828479076792,55.7777241227968,-188.606203199589
0.548179871520343,-46.0824653995244,-206.339210800962,-160.256745401438,126.210838100243,57.0871400009567,-183.2979781012
0.550321199143469,-40.2272420366344,-197.9659621003,-157.738720063666,119.096602068467,58.7557390135157,-177.852341081983
0.552462526766595,-33.830727884424,-189.310391526266,-155.479663641842,111.570559705345,60.8244678787091,-172.395027584054
0.554603854389722,-27.0725960041593,-180.647204006145,-153.574608001986,103.859900005152,63.2510059989133,-167.110906004066
0.556745182012848,-20.3357179799937,-172.529662109378,-152.193944129385,96.4326900446861,65.9291130746956,-162.361803119382
0.558886509635974,-14.1453523579637,-165.519799971227,-151.374447613264,89.8325761645955,68.6145476276499,-158.447123792245
0.561027837259101,-9.0982064912173,-159.898759972523,-150.800553481306,84.4984832318703,70.8511734950443,-155.349656726915
0.563169164882227,-5.60626525936868,-155.591741161871,-149.985475902502,80.5990032106199,72.1896053215669,-152.788608532187
0.565310492505353,-3.49820870219423,-152.04734336489,-148.549134662696,77.7727760335423,72.5254629802509,-150.298239013793
0.56745182012848,-1.97240915301427,-148.324907106054,-146.352497953039,75.1486581295339,72.1900444000125,-147.338702529546
0.569593147751606,-0.0258988852108359,-143.646281483453,-143.620382598242,71.836090184332,71.7972418565157,-143.633332040848
0.571734475374732,3.07574269209977,-137.795256923959,-140.870999616058,67.3597571159295,71.9733711540791,-139.333128270009
0.573875802997859,7.4940737009008,-131.035957875317,-138.530031576218,61.770942087208,73.0120526385592,-134.782994725767
0.576017130620985,12.6859809635721,-123.973888251077,-136.659869214649,55.6439536437526,74.6729250891108,-130.316878732863
0.578158458244111,17.7313226807803,-117.291317717968,-135.022640398748,49.7799975185939,76.3769815397643,-126.156979058358
0.580299785867238,22.0416742762604,-111.239534060732,-133.281208336992,44.5989298922357,77.6614413066263,-122.260371198862
0.582441113490364,25.6357779910236,-105.578058236937,-131.213836227961,39.9711401229567,78.4248071094921,-118.395947232449
0.58458244111349,28.6970005359847,-100.129091246522,-128.826091782507,35.7160453552686,78.7615461592457,-114.477591514514
0.586723768736617,31.1837495305901,-95.0824015633034,-126.266151093894,31.9493260163566,78.7249503122418,-110.674276328598
0.588865096359743,32.8996191517167,-90.7550150292836,-123.654634181,28.9276979387835,78.2771266663585,-107.204824605142
0.591006423982869,33.6227653021049,-87.3632071889051,-120.98597249101,26.8702209434001,77.3043688965574,-104.174589839958
0.593147751605996,33.2241127259213,-84.8990797518309,-118.123192477752,25.8374835129548,75.6736526018367,-101.511136114791
0.595289079229122,31.8935573450281,-82.9666750745228,-114.860232419551,25.5365588647473,73.3768948822894,-98.9134537470368
0.597430406852248,30.1255345440443,-80.9612529719525,-111.086787515997,25.4178592139541,70.6061610300205,-96.0240202439746
0.599571734475375,28.3948663052995,-78.5358456674776,-106.930711972777,25.070489681089,67.6627891390383,-92.7332788201273
0.601713062098501,26.9253235307506,-75.6872792768982,-102.612602807649,24.3809778730738,64.7689631691997,-89.1499410422734
0.603854389721627,25.6296070996559,-72.5669586500208,-98.1965657496767,23.4686757751824,61.9130864246663,-85.3817621998487
0.605995717344754,24.151362852378,-69.5077834450849,-93.6591462974629,22.6782102963534,58.9052545749205,-81.5834648712739
0.60813704496788,22.1744252163287,-66.9856912422047,-89.1601164585334,22.405633012938,55.667270837431,-78.072903850369
0.610278372591006,19.7723496394756,-65.3289584663999,-85.1013081058754,22.7783044134621,52.4368288726755,-75.2151332861376
0.612419700214133,17.2187275586102,-64.6573550093053,-81.8760825679155,23.7193137253475,49.5474050632629,-73.2667187886104
0.614561027837259,14.5029613452109,-65.052680173897,-79.5556415191079,25.274859414343,47.0293014321594,-72.3041608465024
0.616702355460385,11.3559537446861,-66.4068590278639,-77.76281277255,27.5254526415889,44.559383258618,-72.0848359002069
0.618843683083512,7.70513318556027,-68.18933786248,-75.8944710480403,30.2421023384599,41.7998021168003,-72.0419044552601
0.620985010706638,3.86235761703142,-69.7435242869469,-73.6058819039783,32.9405833349578,38.7341197605049,-71.6747030954626
0.623126338329764,0.333391498058745,-70.661266106421,-70.9946576044797,35.1639373041811,35.6640245512692,-70.8279618554503
0.625267665952891,-2.44713377575476,-70.7374810189076,-68.2903472431528,36.5923073973312,32.921606733699,-69.5139141310302
0.627408993576017,-4.32397499745662,-69.9966240305139,-65.6726490330573,37.1602995139853,30.6743370178003,-67.8346365317856
0.629550321199143,-5.41187760287835,-68.8340289404578,-63.4221513375794,37.1229532716681,29.0051368673505,-66.1280901390186
0.63169164882227,-5.82929422568759,-67.6483286637904,-61.8190344381028,36.738811444739,27.9948701062076,-64.7336815509466
0.633832976445396,-5.60745107036701,-66.3785750882116,-60.7711240178446,35.9930130792893,27.5818364737388,-63.5748495530281
0.635974304068523,-4.90306486420468,-64.7116580968404,-59.8085932326358,34.8073614805226,27.4527641842155,-62.2601256647381
0.638115631691649,-4.04617681474815,-62.4465104028968,-58.4003335881487,33.2463436088225,27.1770783867003,-60.4234219955227
0.640256959314775,-3.37994272568994,-59.5411336535062,-56.1611909278163,31.4605381895981,26.3906241010632,-57.8511622906613
0.642398286937901,-3.21959290690165,-56.2573021646203,-53.0377092577187,29.738447535761,24.9090581754085,-54.6475057111695
0.644539614561028,-3.82296030686803,-53.2114700047323,-49.3885096978643,28.5172151558002,22.7827746954981,-51.2999898512983
0.646680942184154,-5.21340128012412,-50.8526456007112,-45.6392443205871,28.0330234404177,20.2129215202315,-48.2459449606491
0.648822269807281,-7.08294028205387,-49.0372509609551,-41.9543106789013,28.0600956215045,17.4356851984237,-45.4957808199282
0.650963597430407,-8.85925860766088,-47.3532818964977,-38.4940232888368,28.1062702520793,14.817382340588,-42.9236525926673
0.653104925053533,-9.77283918819398,-45.4939736775668,-35.7211344893728,27.6334064328804,12.9741476505894,-40.6075540834698
0.655246252676659,-9.07703331319431,-43.135089068468,-34.0580557552737,26.1060611908312,12.4905112210397,-38.5965724118709
0.657387580299786,-6.50210908150393,-39.9898584241537,-33.4877493426497,23.2459837528288,13.4928201305729,-36.7388038834017
0.659528907922912,-2.47529158992916,-36.2267051853396,-33.7514135954104,19.3509983876344,15.6380610027406,-34.989059390375
0.661670235546039,2.09584216295957,-32.4503326465501,-34.5461748095097,15.1772452417953,18.3210084862346,-33.4982537280299
0.663811563169165,6.10126008217208,-29.2858890758716,-35.3871491580437,11.5923144968498,20.7442046201079,-32.3365191169577
0.665952890792291,8.4440615288313,-27.2043785138167,-35.648440042648,9.38015849249268,22.0462507857396,-31.4264092782323
0.668094218415418,8.43818400987038,-26.4381979298423,-34.8763819397127,9.00000695998597,21.6572829747915,-30.6572899347775
0.670235546038544,6.19416754001259,-26.8705574983651,-33.0647250383777,10.3381949791763,19.6294462891951,-29.9676412683714
0.67237687366167,2.47034717519682,-28.1782878898921,-30.6486350650889,12.8539703573476,16.5594911201429,-29.4134614774905
0.674518201284797,-1.82480714914936,-29.9631983325498,-28.1383911834005,15.8940027408496,13.1567920171256,-29.0507947579752
0.676659528907923,-5.92967947151442,-31.7058605062621,-25.7761810347477,18.8177699888882,9.92325078161662,-28.7410207705049
0.678800856531049,-9.36119648459476,-32.9526758048769,-23.5914793202821,21.1569361447358,7.11514141784369,-28.2720775625795
0.680942184154176,-11.8867380219569,-33.5573284518696,-21.6705904299126,22.7220332369133,4.89192620397785,-27.6139594408911
0.683083511777302,-13.0600877553115,-33.3354190940317,-20.2753313387202,23.1977534246716,3.60762179170433,-26.805375216376
0.685224839400428,-11.6622113789524,-31.485257309897,-19.8230459309445,21.5737343444247,4.08041727599607,-25.6541516204207
0.687366167023555,-5.70523619827372,-26.5981548778245,-20.8929186795508,16.1516955380491,7.59384124063854,-23.7455367786877
0.689507494646681,7.00075353172565,-16.9809653431312,-23.9817188748568,4.99010590570276,15.4912362032912,-20.481342108994
0.691648822269807,28.0842127794867,-0.88840821652866,-28.9726209960154,-13.597902281479,28.5284168877511,-14.930514606272
0.693790149892934,57.8785147086614,22.8270679625239,-35.0514467461376,-40.3527913355927,46.4649807273995,-6.11218939180685
0.69593147751606,95.0987989424423,53.8533600324727,-41.2454389099696,-74.4760794874575,68.1721189262059,6.30396056125153
0.698072805139186,137.185720976857,90.3882264955164,-46.7974944813404,-113.786973736187,91.9916077290986,21.795366007088
0.700214132762313,180.928256444107,129.729279469467,-51.1989769746399,-155.328767956787,116.063616709373,39.2651512474134
0.702355460385439,222.859434023867,168.620725607319,-54.2387084165475,-195.740079815593,138.549071220207,57.1910085953859
0.704496788008565,259.415788598775,203.652769179159,-55.7630194196161,-231.534278888967,157.589404009196,73.9448748797714
0.706638115631692,287.180853817812,231.894858672381,-55.2859951454316,-259.537856245097,171.233424481622,88.3044317634747
0.708779443254818,303.349852485358,251.11700964897,-52.232842836389,-277.233431067164,177.791347660874,99.4420834062903
0.710920770877944,306.286956441757,259.815702671604,-46.4712537701535,-283.05132955668,176.379105105955,106.672224450725
0.713062098501071,296.014299129348,257.611089206364,-38.4032099229835,-276.812694167856,167.208754526166,109.60393964169
0.715203426124197,274.320422478019,245.456967556859,-28.8634549211599,-259.888695017439,151.591938699589,108.29675631785
0.717344753747323,244.293207405919,225.284426652464,-19.0087807534544,-234.788817029192,131.650994079687,103.137822949505
0.71948608137045,209.681661528776,199.736701059485,-9.94496046929066,-204.709181294131,109.813310999033,94.8958702950973
0.721627408993576,174.38738945894,172.05533572359,-2.33205373534975,-173.221362591265,88.3597215971449,84.8616409941203
0.723768736616702,141.894515820577,145.546635446063,3.65211962548665,-143.72057563332,69.1211980975449,74.5993775357749
0.725910064239829,114.810462383444,122.963029393024,8.15256700958048,-118.886745888234,53.3289476869315,65.5577982013023
0.728051391862955,94.8266666957968,106.319976598655,11.4933099028578,-100.573321647226,41.6666783964695,58.9066432507562
0.730192719486081,82.7670136058925,96.7052379613824,13.9382243554899,-89.7361257836375,34.4143946252013,55.3217311584361
0.732334047109208,78.4666725086818,93.8622028335203,15.3955303248385,-86.164437671101,31.5355710919216,54.6288665791794
0.734475374732334,80.7364583128438,96.3033096012341,15.5668512883904,-88.5198839570389,32.5848035122267,55.9350804448122
0.73661670235546,87.562553147372,102.076048702153,14.5134955547815,-94.8193009247627,36.5245287962953,58.2947721284675
0.738758029978587,96.5538395256817,109.306719246833,12.7528797211517,-102.930279386258,41.900479902265,61.0297994839925
0.740899357601713,105.546679867712,116.420791400902,10.8741115331898,-110.983735634307,47.3362841672613,63.6474514670459
0.743040685224839,113.007389632685,122.457442998996,9.45005336631152,-117.73241631584,51.7786681331866,65.9537481826538
0.745182012847966,118.051272193314,127.064114432816,9.01284223950142,-122.557693313065,54.5192149769064,68.0384783361585
0.747323340471092,120.317805631407,130.042014938819,9.72420930741259,-125.179910285113,55.296798161997,69.8831121231159
0.749464668094218,119.973267650209,131.273349934644,11.3000822844347,-125.623308792427,54.3365926828874,71.2867161095394
0.751605995717345,117.765474048696,131.051898258346,13.28642420965,-124.408686153521,52.2395249195231,72.1691612339981
0.753747323340471,114.76620376596,130.034523669799,15.2683199038388,-122.400363717879,49.7489419310605,72.6514217868187
0.755888650963597,111.857683262853,128.950803994923,17.09312073207,-120.404243628888,47.3822812653916,73.0219623634966
0.758029978586724,109.539527217976,128.537060175549,18.9975329575734,-119.038293696763,45.2709971302013,73.7672965665614
0.76017130620985,108.123664767254,129.394866492139,21.2712017248853,-118.759265629696,43.4262315211843,75.3330341085122
0.762312633832976,107.835501046154,131.66462972449,23.8291286783356,-119.750065385322,42.0031861839093,77.7468792014126
0.764453961456103,108.708142369158,135.014125705487,26.3059833363293,-121.861134037323,41.2010795164144,80.6600545209084
0.766595289079229,110.496191499317,138.877062180887,28.3808706815701,-124.686626840102,41.0576604088735,83.6289664312286
0.768736616702355,112.744603273811,142.530065882518,29.7854626087071,-127.637334578165,41.4795703325519,86.1577642456126
0.770877944325482,115.003356553353,145.293115858701,30.2897593053474,-130.148236206027,42.356798624003,87.7914375820241
0.773019271948608,116.975148266491,146.90493836776,29.9297901012696,-131.940043317125,43.5226790826105,88.4173642345149
0.775160599571734,118.413456997535,147.497477320113,29.0840203225779,-132.955467158824,44.6647183374786,88.2907488213454
0.777301927194861,119.01626600886,147.353786580603,28.3375205717425,-133.185026294732,45.3393727185589,87.8456535761727
0.779443254817987,118.609890183465,146.958678308223,28.3487881247581,-132.784284245844,45.1305510293535,87.6537332164907
0.781584582441114,117.34520258573,146.88773231816,29.5425297324302,-132.116467451945,43.90133642665,88.2151310252954
0.78372591006424,115.563279144481,147.285435045759,31.7221559012778,-131.42435709512,41.9205616216018,89.5037954735185
0.785867237687366,113.538480358089,147.739384412046,34.2009040539568,-130.638932385067,39.668788152066,90.9701442330012
0.788008565310492,111.350864166768,147.785312771867,36.4344486050989,-129.568088469318,37.4582077808348,92.109880688483
0.790149892933619,108.898077175942,147.276069684849,38.3779925089066,-128.087073430396,35.260042333518,92.8270310968778
0.792291220556745,106.172382919945,146.446909149848,40.2745262299029,-126.309646034897,32.9489283450212,93.3607176898755
0.794432548179872,103.768926226144,146.006167591117,42.2372413649732,-124.887546908631,30.7658424305855,94.1217044780453
0.796573875802998,102.956165188603,146.905454423292,43.9492892346891,-124.930809805947,29.5034379769568,95.4273718289904
0.798715203426124,104.878981138758,149.687545744338,44.8085646055797,-127.283263441548,30.0352082665891,97.2480551749586
0.800856531049251,109.656910436676,154.193663480105,44.536753043429,-131.925286958391,32.5600786966237,99.3652082617672
0.802997858672377,116.290212159897,159.813165497937,43.5229533380391,-138.051688828917,36.3836294109292,101.668059417988
0.805139186295503,123.235465990139,165.714890505912,42.4794245157723,-144.475178248025,40.3780207371835,104.097157510842
0.80728051391863,129.064386120417,171.07334668348,42.0089605630631,-150.068866401948,43.5277127786769,106.541153623271
0.809421841541756,132.955550217653,175.429181763903,42.4736315462499,-154.192365990778,45.2409593357017,108.951406655077
0.811563169164882,134.875116241998,178.701639540411,43.8265232984126,-156.788377891204,45.5242964717928,111.264081419412
0.813704496788009,135.321069883356,180.89242303632,45.5713531529639,-158.106746459838,44.8748583651959,113.231888094642
0.815845824411135,134.888920890437,182.145386729148,47.2564658387117,-158.517153809793,43.8162275258625,114.70092628393
0.817987152034261,134.040735635875,182.865066779955,48.8243311440801,-158.452901207915,42.6082022458972,115.844698962017
0.820128479657388,133.038956118038,183.341175902686,50.3022197846478,-158.190066010362,41.3683681666951,116.821697843667
0.822269807280514,131.92848544611,183.559051413051,51.6305659669412,-157.743768429581,40.1489597395845,117.594808689996
0.82441113490364,130.705169960401,183.608525984631,52.9033560242294,-157.156847972516,38.900906968086,118.25594100443
0.826552462526767,129.576908498041,183.868551009,54.2916425109585,-156.722729753521,37.6426329935415,119.080096759979
0.828693790149893,129.009141983283,184.7089234142,55.6997814309173,-156.859032698742,36.6546802761829,120.204352422559
0.830835117773019,129.560570291649,186.386830064396,56.826259772747,-157.973700178022,36.3671552594509,121.606544918571
0.832976445396146,131.664704257829,189.111943191909,57.4472389340798,-160.388323724869,37.1087326618748,123.279591062994
0.835117773019272,135.401196708797,192.827087769364,57.4258910605666,-164.11414223908,38.9876528241151,125.126489414965
0.837259100642398,140.392441001938,197.152352962977,56.7599119610387,-168.772396982457,41.8162645204496,126.956132462008
0.839400428265525,145.98453219428,201.740938588357,55.7564063940773,-173.862735391318,45.1140629001012,128.748672491217
0.841541755888651,151.494997075359,206.339088102554,54.8440910271945,-178.917042588957,48.3254530240824,130.591589564874
0.843683083511777,156.249936508329,210.576919938082,54.3269834297528,-183.413428223205,50.961476539288,132.451951683917
0.845824411134904,159.708074604242,214.164618101749,54.4565434975074,-186.936346352995,52.6257655533672,134.310580799628
0.84796573875803,161.803368522029,217.168151690391,55.3647831683614,-189.48576010621,53.219292676834,136.266467429376
0.850107066381156,163.02675357547,219.867035739067,56.8402821635971,-191.446894657268,53.0932357059364,138.353658951332
0.852248394004283,164.194682901854,222.596721727763,58.4020388259082,-193.395702314808,52.8963220379731,140.499380276835
0.854389721627409,166.168441313952,225.720418430208,59.551977116256,-195.94442987208,53.3082320988481,142.636197773232
0.856531049250535,169.442609573963,229.382648577976,59.9400390040129,-199.41262907597,54.7512852849751,144.661343790994
0.858672376873662,173.791472738625,233.347232264216,59.5557595255908,-203.569352501421,57.1178566065172,146.451495894903
0.860813704496788,178.484190192789,237.316575780619,58.8323855878294,-207.900382986704,59.82590230248,148.074480684224
0.862955032119914,182.889201020365,241.147538587973,58.2583375676078,-212.018369804169,62.3154317263787,149.70293807779
0.865096359743041,186.749691793327,244.603912420117,57.8542206267898,-215.676802106722,64.4477355832685,151.229066523453
0.867237687366167,190.035883033774,247.392554604137,57.3566715703626,-218.714218818956,66.3396057317058,152.37461308725
0.869379014989293,192.778573985435,249.581720700662,56.8031467152272,-221.180147343049,67.9877136351039,153.192433707945
0.87152034261242,195.002946536862,251.549369133249,56.5464225963877,-223.276157835056,69.228261970237,154.047895864819
0.873661670235546,196.7904722907,253.61851412331,56.8280418326103,-225.204493207005,69.9812152290447,155.22327797796
0.875802997858672,198.436437871977,256.061302743582,57.6248648716053,-227.24887030778,70.405786500186,156.843083807594
0.877944325481799,200.36673765819,259.123324381483,58.7565867232935,-229.745031019836,70.8050754674481,158.939955552388
0.880085653104925,202.819658853109,262.776263114375,59.9566042612657,-232.797960983742,71.4315272959218,161.36643368782
0.882226980728051,205.780743191058,266.72526955648,60.9445263654216,-236.253006373769,72.4181084128183,163.834897960951
0.884368308351178,209.207045231995,270.726440350811,61.5193951188162,-239.966742791403,73.8438250565893,166.122917734814
0.886509635974304,213.102244639506,274.688248823933,61.586004184427,-243.89524673172,75.7581202275395,168.13712650418
0.88865096359743,217.415309522569,278.62566122644,61.2103517038716,-248.020485374504,78.1024789093485,169.918006465156
0.890792291220557,222.088339548724,282.744315151297,60.6559756025728,-252.41632735001,80.7161819730755,171.700145376935
0.892933618843683,227.148576713113,287.301839780136,60.1532630670222,-257.225208246625,83.4976568230456,173.727551423579
0.895074946466809,232.577576213394,292.263121207015,59.6855449936206,-262.420348710205,86.4460156098869,175.974333100318
0.897216274089936,238.14948226953,297.307193288707,59.1577110191778,-267.728337779118,89.4958856251759,178.232452153943
0.899357601713062,243.409480921967,302.00173944116,58.5922585191936,-272.705610181563,92.4086112013865,180.296998980177
0.901498929336188,247.760085587735,305.843035215381,58.0829496276463,-276.801560401558,94.8385679800442,181.962992421514
0.903640256959315,250.743299085346,308.516814780531,57.7735156951856,-279.630056932938,96.48489169508,183.145165237858
0.905781584582441,252.367700269516,310.248834275794,57.8811340062774,-281.308267272655,97.2432831316195,184.064984141036
0.907922912205567,253.101335574367,311.638731568239,58.5373959938719,-282.370033571303,97.2819697902475,185.088063781055
0.910064239828694,253.610088649458,313.260524715159,59.6504360657007,-283.435306682309,96.9798262918789,186.45548039043
0.91220556745182,254.615946321589,315.66741841155,61.051472089961,-285.14168236657,96.782237115814,188.359445250755
0.914346895074946,256.798579260407,319.377110195348,62.5785309349409,-288.087844727878,97.1100241627331,190.977820565144
0.916488222698073,260.549546056563,324.416745692275,63.8671996357114,-292.483145874419,98.3411732104259,194.141972663993
0.918629550321199,265.800774239767,330.208942859409,64.4081686196417,-298.004858549588,100.696302810063,197.308555739525
0.920770877944325,272.063133511534,336.096536592121,64.0334030805869,-304.079835051828,104.014865215474,200.064969836354
0.922912205567452,278.518780231915,341.645769798008,63.1269895660928,-310.082275014962,107.695895332911,202.38637968205
0.925053533190578,284.151283983187,346.527632031773,62.3763480485864,-315.33945800748,110.8874679673,204.45199004018
0.927194860813705,288.084081701707,350.555571127503,62.4714894257958,-319.319826414605,112.806296137956,206.513530276649
0.929336188436831,289.956290775047,353.799453078396,63.8431623033491,-321.877871926722,113.056564235849,208.821307690873
0.931477516059957,289.963822795483,356.385380704106,66.4215579086233,-323.174601749795,111.77113244343,211.403469306365
0.933618843683084,288.728279056256,358.333661901987,69.6053828457314,-323.530970479122,109.561448105262,213.969522373859
0.93576017130621,287.14417955979,359.726737384202,72.582557824412,-323.435458471996,107.280810867689,216.154647604307
0.937901498929336,285.945772233708,360.768780819598,74.8230085858899,-323.357276526653,105.561381823909,217.795894702744
0.940042826552463,285.287252637892,361.619613350731,76.3323607128389,-323.453432994311,104.477445962526,218.975987031785
0.942184154175589,284.883471203312,362.314826294649,77.4313550913371,-323.599148748981,103.726058055987,219.873090692993
0.944325481798715,284.396072865133,362.656137407346,78.2600645422135,-323.526105136239,103.06800416146,220.45810097478
0.946466809421842,283.560718793302,362.128616610954,78.5678978176519,-322.844667702128,102.496410487825,220.348257214303
0.948608137044968,282.210874547908,360.320325751052,78.109451203144,-321.26560014948,102.050711672382,219.214888477098
0.950749464668094,280.326551999346,357.38481955974,77.0582675603936,-318.855685779543,101.634142219476,217.221543560067
0.952890792291221,277.959694674396,353.755419587683,75.7957249132872,-315.85755713104,101.081984880555,214.775572250485
0.955032119914347,275.202326285255,349.754597831966,74.552271546711,-312.478462058611,100.325027369272,212.153434689339
0.957173447537473,272.274790954432,345.803492619798,73.5287016653663,-309.039141787115,99.3730446445329,209.666097142582
0.9593147751606,269.400857540535,342.471073413028,73.0702158724928,-305.935965476781,98.1653208340211,207.77064464276
0.961456102783726,266.591073097565,339.97658450544,73.3855114078744,-303.283828801502,96.6027808448454,206.681047956657
0.963597430406852,263.700833634864,338.031367080509,74.3305334456452,-300.866100357686,94.6851500946093,206.180950263077
0.965738758029979,260.492165112636,336.143489368628,75.651324255992,-298.317827240632,92.420420428322,205.89740681231
0.967880085653105,256.494887744541,333.645881882787,77.1509941382457,-295.070384813664,89.6719468031478,205.398438010516
0.970021413276231,251.04276839525,329.756020707262,78.7132523120119,-290.399394551256,86.1647580416191,204.234636509637
0.972162740899358,243.603644809283,324.148680239877,80.5450354305943,-283.87616252458,81.5293046893444,202.346857835236
0.974304068522484,233.989083038969,317.196604494873,83.2075214559047,-275.592843766921,75.3907807915319,200.202062975389
0.97644539614561,222.264473078863,309.440087543041,87.1756144641785,-265.852280310952,67.5444293073422,198.30785100361
0.978586723768737,208.727981514312,301.243967877253,92.5159863629416,-254.985974695782,58.105997575685,196.879977120097
0.980728051391863,194.033884718216,292.881551832057,98.8476671138403,-243.457718275136,47.593108802188,195.864609472948
0.982869379014989,179.000315343166,284.36862318481,105.368307841644,-231.684469263988,36.8160037507613,194.868465513227
0.985010706638116,164.188822492525,275.40672527642,111.217902783895,-219.797773884472,26.4854598543149,193.312314030157
0.987152034261242,149.848871038048,265.864363320177,116.015492282128,-207.856617179112,16.91668937796,190.939927801152
0.989293361884368,136.128112042742,255.994030277926,119.865918235185,-196.061071160334,8.13109690377848,187.929974256555
0.991434689507495,123.08763632193,246.143853739579,123.056217417649,-184.615745030755,0.0157094521406407,184.600035578614
0.993576017130621,110.668435005947,236.625377874806,125.956942868858,-173.646906440376,-7.64425393145541,181.291160371832
0.995717344753747,98.7923738772834,227.634777076021,128.842403198737,-163.213575476652,-15.0250146607269,178.238590137379
0.997858672376874,87.3569179477472,218.991527593547,131.6346096458,-153.174222770647,-22.1388458490262,175.313068619673
1,76.237420489073,210.279386275789,134.041965786716,-143.258403382431,-28.9022726488216,172.160676031253
1.00214132762313,65.5191585855133,201.370554082004,135.851395496491,-133.444856333759,-35.1661184554888,168.610974789248
1.00428265524625,55.5830864822929,192.485372797772,136.902286315479,-124.034229640032,-40.659599916593,164.693829556625
1.00642398286938,46.8728310125049,183.928588011503,137.055756998998,-115.400709512004,-45.0914629932468,160.492172505251
1.00856531049251,39.643278732511,176.111725285851,136.46844655334,-107.877502009181,-48.4125839104146,156.290085919596
1.01070663811563,33.746678260555,169.406936780427,135.660258519872,-101.576807520491,-50.9567901296587,152.53359765015
1.01284796573876,28.5531529631116,163.671549290009,135.118396326897,-96.1123511265602,-53.2826216818927,149.394972808453
1.01498929336188,23.3965481952689,158.34532104761,134.948772852342,-90.8709346214397,-55.7761123285363,146.647046949976
1.01713062098501,18.2545858683371,153.1271992853,134.872613416963,-85.6908925768185,-58.3090137743128,143.999906351131
1.01927194860814,13.7217211597838,148.147574090102,134.425852930318,-80.9346476249428,-60.3520658852672,141.28671351021
1.02141327623126,10.3049018866271,143.545603273986,133.240701387359,-76.9252525803068,-61.4678997503661,138.393152330673
1.02355460385439,7.96483697057658,139.318320921329,131.353483950753,-73.6415789459529,-61.694323490088,135.335902436041
1.02569593147752,6.15195572130563,135.384845794922,129.232890073617,-70.768400758114,-61.5404671761555,132.308867934269
1.02783725910064,4.01835798044135,131.408823330262,127.39046534982,-67.7135906553515,-61.6860536846895,129.399644340041
1.02997858672377,0.788062508052917,126.849920850012,126.061858341959,-63.8189916790323,-62.6368979169529,126.455889595985
1.0321199143469,-3.82199100454295,121.350772951222,125.172763955765,-58.7643909733397,-64.4973774801541,123.261768453494
1.03426124197002,-9.56701190968192,114.843936214961,124.410948124643,-52.6384621526394,-66.9889800171622,119.627442169802
1.03640256959315,-15.9761365635862,107.537186259748,123.513322823334,-45.7805248480809,-69.7447296934603,115.525254541541
1.03854389721627,-22.5413039234868,100.050606493703,122.591910417189,-38.7546512851079,-72.5666071703381,111.321258455446
1.0406852248394,-28.7433384629232,93.2259303356989,121.969268798622,-32.2412959363878,-75.3563036307727,107.597599567161
1.04282655246253,-34.0647930161225,87.6717652887239,121.736558304846,-26.8034861363007,-77.9006756604845,104.704161796785
1.04496788008565,-38.0608405188516,83.6377694980354,121.698610016887,-22.7884644895919,-79.8797252678693,102.668189757461
1.04710920770878,-40.6093013491804,81.0119320025492,121.62123335173,-20.2013153266844,-81.115267350455,101.316582677139
1.04925053533191,-42.1240533866162,79.2059471605303,121.330000547146,-18.540946886957,-81.7270269668813,100.267973853838
1.05139186295503,-43.2766605838441,77.4518864597571,120.728547043601,-17.0876129379565,-82.0026038137227,99.0902167516792
1.05353319057816,-44.4730042024133,75.4109083655744,119.883912567988,-15.4689520815805,-82.1784583852005,97.6474104667811
1.05567451820128,-45.7235307800366,73.1921397393899,118.915670519426,-13.7343044796766,-82.3196006497316,96.0539051294082
1.05781584582441,-46.7992190948626,70.9435857736703,117.742804868533,-12.0721833394039,-82.2710119816977,94.3431953211016
1.05995717344754,-47.2632060380425,68.9095142283425,116.172720266385,-10.82315409515,-81.7179631522138,92.5411172473637
1.06209850107066,-46.6629330452935,67.5113218989375,114.174254944231,-10.424194426822,-80.4185939947622,90.8427884215842
1.06423982869379,-45.0697856720066,66.8390916539283,111.908877325935,-10.8846529909609,-78.4893314989707,89.3739844899316
1.06638115631692,-43.2275189831206,66.4534690115595,109.68098799468,-11.6129750142194,-76.4542534889003,88.0672285031198
1.06852248394004,-41.9745322344022,65.9282686209626,107.902800855365,-11.9768681932802,-74.9386665448835,86.9155347381637
1.07066381156317,-41.7621588375017,65.1804218487882,106.94258068629,-11.7091315056433,-74.3523697618958,86.0615012675391
1.0728051391863,-42.730558081641,64.231870848804,106.962428930445,-10.7506563835815,-74.846493506043,85.5971498896245
1.07494646680942,-44.8716282409107,63.0113015340637,107.882929774974,-9.0698366465765,-76.3772790079425,85.4471156545191
1.07708779443255,-48.0704952405308,61.3653950225298,109.435890263061,-6.6474498909995,-78.7531927517957,85.4006426427952
1.07922912205567,-52.1572102914497,59.0984891032808,111.255699394731,-3.47063940591556,-81.7064548430901,85.1770942490057
1.0813704496788,-56.7889916373506,56.2117500031011,113.000741640452,0.288620817124752,-84.8948666389011,84.6062458217764
1.08351177730193,-61.2647478493815,53.1316327489794,114.396380598361,4.06655755020103,-87.8305642238712,83.7640066736702
1.08565310492505,-64.7127102686069,50.514148345922,115.226858614529,7.09928096134246,-89.9697844415679,82.8705034802254
1.08779443254818,-66.3814515742595,48.9991448664161,115.380596440676,8.69115335392166,-90.8810240074675,82.1898706535459
1.08993576017131,-65.666767295821,49.1383217657293,114.80508906155,8.26422276504587,-90.2359281786857,81.9717054136398
1.09207708779443,-62.3385566218623,51.0452291591572,113.383785781019,5.64666373135253,-87.8611712014409,82.2145074700883
1.09421841541756,-57.0072536466748,53.979507121866,110.986760768541,1.51387326240439,-83.9970072076079,82.4831339452035
1.09635974304069,-51.0759372759904,56.7064744590776,107.782411735068,-2.8152685915436,-79.4291745055293,82.2444430970729
1.09850107066381,-46.1275749628115,58.3290647774202,104.456639740232,-6.10074490730432,-75.2921073515216,81.3928522588259
1.10064239828694,-43.3273109388364,58.5046390672328,101.831950006069,-7.58866406419821,-72.5796304724528,80.168294536651
1.10278372591006,-43.0297402039992,57.2457530321477,100.275493236147,-7.10800641407428,-71.652616720073,78.7606231341473
1.10492505353319,-44.7256424567138,54.9865225760766,99.7121650327904,-5.1304400596814,-72.2189037447521,77.3493438044335
1.10706638115632,-47.5136567842361,52.4562372946717,99.9698940789078,-2.47129025521781,-73.741775431572,76.2130656867898
1.10920770877944,-50.6338039371118,50.1696528416724,100.803456778784,0.232075547719717,-75.718630357948,75.4865548102283
1.11134903640257,-53.4970718618017,48.3267509577501,101.823822819552,2.58516045202583,-77.6604473406767,75.0752868886509
1.1134903640257,-55.5424434894812,47.1095099963524,102.651953485834,4.21646674656444,-79.0971984876574,74.880731741093
1.11563169164882,-56.4078988409465,46.6208085859204,103.028707426867,4.89354512751305,-79.7183031339067,74.8247580063936
1.11777301927195,-56.1077298297776,46.7198237294715,102.827553559249,4.69395305015303,-79.4676416945133,74.7736886443603
1.11991434689507,-54.8907479222072,47.287935034571,102.178682956778,3.80140644381811,-78.5347154394927,74.7333089956746
1.1220556745182,-53.0264419052412,48.3885272524296,101.414969157671,2.31895732640578,-77.220705531456,74.9017482050502
1.12419700214133,-50.6965182694807,50.0016941093418,100.698212378823,0.347412080069489,-75.6973653241516,75.3499532440821
1.12633832976445,-47.9479408094551,51.9038558178985,99.8517966273536,-1.97795750422171,-73.8998687184043,75.877826222626
1.12847965738758,-44.8010124661963,53.7277310161668,98.5287434823631,-4.46335927498524,-71.6648779742797,76.1282372492649
1.13062098501071,-41.5287548125303,54.9520066124081,96.4807614249385,-6.71162589993889,-69.0047581187344,75.7163840186733
1.13276231263383,-38.7427957571909,55.1734380804435,93.9162338376344,-8.21532116162626,-66.3295147974127,74.5448359590389
1.13490364025696,-37.0702077900552,54.5043615109031,91.5745693009583,-8.71707686042396,-64.3223885455067,73.0394654059307
1.13704496788009,-36.7867635123931,53.4409087582369,90.22767227063,-8.32707262292189,-63.5072178915116,71.8342905144335
1.13918629550321,-37.6932625590097,52.4665004512331,90.1597630102427,-7.3866189461117,-63.9265127846262,71.3131317307379
1.14132762312634,-39.1647165187806,51.9838143906348,91.1485309094154,-6.40954893592715,-65.156623714098,71.5661726500251
1.14346895074946,-40.3869284738671,52.3236048202623,92.7105332941294,-5.96833817319759,-66.5487308839982,72.5170690571958
1.14561027837259,-40.7145906303701,53.4746384091155,94.1892290394857,-6.38002388937269,-67.4519098349279,73.8319337243006
1.14775160599572,-39.8811062657109,54.9749958780627,94.8561021437736,-7.54694480617593,-67.3686042047422,74.9155490109181
1.14989293361884,-38.0242670187646,56.3187721473399,94.3430391661045,-9.14725256428767,-66.1836530924346,75.3309056567222
1.15203426124197,-35.6029230930508,57.3080651898445,92.9109882828952,-10.8525710483968,-64.256955687973,75.1095267363698
1.1541755888651,-33.0907957422575,57.9738680957087,91.0646638379661,-12.4415361767256,-62.0777297901118,74.5192659668374
1.15631691648822,-30.6385723829088,58.487820031435,89.1263924143439,-13.9246238242631,-59.8824823986263,73.8071062228894
1.15845824411135,-28.2160098442788,59.0939322192771,87.3099420635559,-15.4389611874992,-57.7629759539174,73.2019371414165
1.16059957173448,-26.0792340222991,59.8359237379559,85.9151577602551,-16.8783448578284,-55.9971958912771,72.8755407491055
1.1627408993576,-24.7918486025993,60.5014784896342,85.2933270922335,-17.8548149435175,-55.0425878474164,72.8974027909339
1.16488222698073,-24.7495705959271,60.8895371704484,85.6391077663756,-18.0699832872606,-55.1943391811513,73.264322468412
1.16702355460385,-25.933646001977,60.8701824754385,86.8038284774154,-17.4682682367308,-56.3687372396962,73.837005476427
1.16916488222698,-28.0328832979142,60.3311997718876,88.3640830698017,-16.1491582369867,-58.1984831838579,74.3476414208446
1.17130620985011,-30.5287778991442,59.3724903232775,89.9012682224217,-14.4218562120666,-60.2150230607829,74.6368792728496
1.17344753747323,-32.8192902508624,58.3467507364229,91.1660409872853,-12.7637302427802,-61.9926656190739,74.7563958618541
1.17558886509636,-34.5260378202513,57.5486290950149,92.0746669152662,-11.5112956373818,-63.3003523677588,74.8116480051406
1.17773019271949,-35.6195319411,57.0730787810519,92.6926107221519,-10.7267734199759,-64.156071331626,74.8828447516019
1.17987152034261,-36.228196122264,56.8521047935965,93.0803009158604,-10.3119543356663,-64.6542485190622,74.9662028547285
1.18201284796574,-36.491598609687,56.592767039301,93.084365648988,-10.050584214807,-64.7879821293375,74.8385663441445
1.18415417558887,-36.5352569856748,56.0260450570211,92.5613020426958,-9.74539403567314,-64.5482795141853,74.2936735498585
1.18629550321199,-36.4496135322039,55.3976232327445,91.8472367649484,-9.47400485027032,-64.1484251485762,73.6224299988465
1.18843683083512,-36.3701192999429,55.2886871458961,91.658806445839,-9.45928392297662,-64.0144628728909,73.4737467958676
1.19057815845824,-36.5125010610294,55.9424139820613,92.4549150430908,-9.71495646051596,-64.4837080520601,74.198664512576
1.19271948608137,-36.9893001000346,57.1781469421709,94.1674470422055,-10.0944234210681,-65.57837357112,75.6727969921882
1.1948608137045,-37.6662400871749,58.7170006706826,96.3832407578575,-10.5253802917539,-67.0247404225162,77.5501207142701
1.19700214132762,-38.190325485954,60.1422594871724,98.3325849731264,-10.9759670006092,-68.2614552295402,79.2374222301494
1.19914346895075,-38.0664179302236,61.0013017294332,99.0677196596567,-11.4674418996048,-68.5670687949402,80.034510694545
1.20128479657388,-36.8353362110088,61.3462080872675,98.1815442982763,-12.2554359381294,-67.5084402546426,79.7638761927719
1.203426124197,-34.3863486751984,61.7076014002507,96.0939500754491,-13.6606263625262,-65.2401493753238,78.9007757378499
1.20556745182013,-31.1059040348283,62.4986957461066,93.6045997809349,-15.6963958556391,-62.3552519078816,78.0516477635207
1.20770877944325,-27.5702298339336,63.8780948985454,91.448324732479,-18.1539325323059,-59.5092772832063,77.6632098155122
1.20985010706638,-24.0860141540661,65.8832283438114,89.9692424978775,-20.8986070948727,-57.0276283259718,77.9262354208445
1.21199143468951,-20.6690369303325,68.2527170783393,88.9217540086718,-23.7918400740034,-54.7953954695021,78.5872355435055
1.21413276231263,-17.3818615276382,70.4248216430308,87.806683170669,-26.5214800576963,-52.5942723491536,79.1157524068499
1.21627408993576,-14.5027707490309,71.948259948835,86.4510306978659,-28.7227445999021,-50.4769007234484,79.1996453233505
1.21841541755889,-12.4039387860574,72.6904282680412,85.0943670540986,-30.1432447409919,-48.749152920078,78.8923976610699
1.22055674518201,-11.2816535829537,72.7636249929545,84.0452785759082,-30.7409857050004,-47.663466079431,78.4044517844314
1.22269807280514,-10.8818392888594,72.5318761636331,83.4137154524925,-30.8250184373869,-47.147777370676,77.9727958080628
1.22483940042827,-10.5664584412111,72.5281357676245,83.0945942088356,-30.9808386632067,-46.8305263250234,77.81136498823
1.22698072805139,-9.79245907241102,73.1748783924581,82.9673374648692,-31.6912096600236,-46.3798982686401,78.0711079286637
1.22912205567452,-8.39098925963185,74.7045393778823,83.0955286375141,-33.1567750591252,-45.743258948573,78.9000340076982
1.23126338329764,-6.35799770574465,77.2742006386185,83.6321983443631,-35.4581014664369,-44.9950980250539,80.4531994914908
1.23340471092077,-3.63658504768682,80.847473531613,84.4840585792998,-38.6054442419631,-44.0603218134933,82.6657660554564
1.2355460385439,-0.117526825357686,85.0501056599392,85.1676324852968,-42.4662894172907,-42.6425796553273,85.108869072618
1.23768736616702,4.27043536375754,89.4109650803717,85.1405297166142,-46.8407002220646,-40.4350471764283,87.275747398493
1.23982869379015,9.37626094042787,93.580324060925,84.2040631204972,-51.4782925006764,-37.4139010900346,88.8921935907111
1.24197002141328,14.7394571341139,97.2071641577936,82.4677070236797,-55.9733106459537,-33.8641249447829,89.8374355907367
1.2441113490364,19.8584162849947,100.019947649957,80.1615313649625,-59.939181967476,-30.1515575399839,90.0907395074598
1.24625267665953,24.5187793826886,102.136813045248,77.6180336625595,-63.3277962139684,-26.5496271399354,89.8774233539038
1.24839400428266,28.699763400689,103.864066607131,75.1643032064417,-66.2819150039098,-23.2322699028763,89.5141849067862
1.25053533190578,32.2693382783402,105.251108281076,72.9817700027354,-68.7602232797079,-20.3562158621976,89.1164391419055
1.25267665952891,34.9945868614475,106.201098407393,71.2065115459454,-70.5978426344202,-18.105962342249,88.7038049766692
1.25481798715203,36.7715009766546,106.779884524861,70.0083835482066,-71.7756927507579,-16.618441285776,88.3941340365338
1.25695931477516,37.7344439716006,107.2068926153,69.472448643699,-72.4706682934501,-15.8690023360492,88.3396706294993
1.25910064239829,38.2479743492925,107.816124353286,69.5681500039935,-73.0320493512892,-15.6600878273505,88.6921371786397
1.26124197002141,38.7964341765453,109.050372160072,70.253937983527,-73.9234031683088,-15.7287519034908,89.6521550717996
1.26338329764454,39.7458911923518,111.24644861037,71.5005574180178,-75.4961699013607,-15.877333112833,91.3735030141937
1.26552462526767,41.1900348198367,114.478642267197,73.2886074473602,-77.8343385435168,-16.0492863137617,93.8836248572785
1.26766595289079,43.0170509561805,118.68013400988,75.6630830536999,-80.8485924830304,-16.3230160487597,97.1716085317901
1.26980728051392,44.9720265479084,123.628751497266,78.6567249493579,-84.3003890225874,-16.8423492007248,101.142738223312
1.27194860813705,46.6410010068375,128.750394369614,82.1093933627761,-87.6956976882256,-17.7341961779693,105.429893866195
1.27408993576017,47.6465638489465,133.277742862935,85.6311790139886,-90.4621533559408,-18.9923075825211,109.454460938462
1.2762312633833,47.946402004994,136.618464532736,88.6720625277425,-92.2824332688652,-20.3628302613743,112.645263530239
1.27837259100642,47.7969617931818,138.471751685299,90.6747898921169,-93.1343567392403,-21.4389140494675,114.573270788708
1.28051391862955,47.4680518526802,138.898161942478,91.4301100897977,-93.1831068975791,-21.9810291185588,115.164136016138
1.28265524625268,46.9960056010249,138.311631348994,91.3156257479692,-92.6538184750095,-22.1598100734722,114.813628548482
1.2847965738758,46.019578080451,137.015463896415,90.9958858159642,-91.5175209884331,-22.4881538677566,114.00567485619
1.28693790149893,43.8650005477012,134.80661069615,90.9416101484487,-89.3358056219256,-23.5383048003737,112.874110422299
1.28907922912206,39.9868005634982,131.39158680435,91.4047862408515,-85.6891936839239,-25.7089928386767,111.398186522601
1.29122055674518,34.3708115830381,126.940747212002,92.5699356289642,-80.6557793975201,-29.0995620229631,109.755341420483
1.29336188436831,27.5234623414265,121.840772909519,94.3173105680926,-74.6821176254728,-33.3969241133331,108.079041738806
1.29550321199143,20.2358944413285,116.311670250858,96.0757758095294,-68.2737823460932,-37.9199406841005,106.193723030194
1.29764453961456,13.2791136147274,110.570264680588,97.2911510658611,-61.9246891476579,-42.0060187255668,103.930707873225
1.29978586723769,6.95217293178632,104.844682899577,97.8925099677911,-55.8984279156819,-45.4701685180024,101.368596433684
1.30192719486081,0.895777237707648,99.0866849520961,98.1909077143884,-49.9912310949019,-48.6475652383404,98.6387963332423
1.30406852248394,-5.44389867559812,93.0987850371993,98.5426837127974,-43.8274431808006,-51.9932911941978,95.8207343749984
1.30620985010707,-12.2569238372886,86.8595996438513,99.1165234811398,-37.3013379032813,-55.6867236592142,92.9880615624955
1.30835117773019,-19.3144587651274,80.4856256928884,99.8000844580158,-30.5855834638805,-59.5572716115716,90.1428550754521
1.31049250535332,-26.1633242283826,74.153583500359,100.316907728742,-23.9951296359882,-63.2401159785621,87.2352456145503
1.31263383297645,-32.285563019424,68.1643666673618,100.449929686786,-17.9394018239689,-66.3677463531049,84.3071481770738
1.31477516059957,-37.3332863548196,62.8093906938932,100.142677048713,-12.7380521695368,-68.7379817017662,81.4760338713031
1.3169164882227,-41.2569977756594,58.2608773230992,99.5178750987586,-8.50193977371985,-70.387436437209,78.8893762109289
1.31905781584582,-44.1102773047256,54.7070419692113,98.8173192739369,-5.29838233224284,-71.4637982893313,76.7621806215741
1.32119914346895,-45.8932595380628,52.229192510157,98.1224520482198,-3.16796648604711,-72.0078557931413,75.1758222791884
1.32334047109208,-46.732727783974,50.4914786768291,97.2242064608032,-1.87937544642755,-71.9784671223886,73.8578425688162
1.3254817987152,-47.0949329263857,48.9210403654526,96.0159732918383,-0.913053719533465,-71.555453109112,72.4685068286455
1.32762312633833,-47.714267368201,47.077351806585,94.791619174786,0.318457780808032,-71.2529432714935,70.9344854906855
1.32976445396146,-49.2545551555144,44.6525273880575,93.9070825435719,2.30101388372843,-71.5808188495431,69.2798049658147
1.33190578158458,-51.845249275138,41.5677778789758,93.4130271541138,5.13873569808113,-72.6291382146259,67.4904025165448
1.33404710920771,-54.8883233778032,38.2672980492895,93.1556214270927,8.31051266425685,-74.021972402448,65.7114597381911
1.33618843683084,-57.4825255144549,35.4258974071417,92.9084229215966,11.0283140536566,-75.1954742180257,64.1671601643691
1.33832976445396,-59.0657683854272,33.2619873230474,92.3277557084746,12.9018905311899,-75.6967620469509,62.794871515761
1.34047109207709,-59.6234957941456,31.4771822391758,91.1006780333214,14.0731567774849,-75.3620869137335,61.2889301362486
1.34261241970021,-59.4466378974812,29.7269487805655,89.1735866780467,14.8598445584579,-74.3101122877639,59.4502677293061
1.34475374732334,-58.8546038726683,27.8474814773371,86.7020853500055,15.5035611976656,-72.7783446113369,57.2747834136713
1.34689507494647,-58.0874216104647,25.8823334346608,83.9697550451255,16.102544087902,-71.0285883277951,54.9260442398931
1.34903640256959,-57.3187431780532,24.1082473756679,81.4269905537211,16.6052479011927,-69.3728668658871,52.7676189646945
1.35117773019272,-56.7413132651253,22.7615103178697,79.502823582995,16.9899014736278,-68.1220684240602,51.1321669504324
1.35331905781585,-56.6247277129795,21.7233232358714,78.3480509488509,17.4507022385541,-67.4863893309152,50.0356870923611
1.35546038543897,-57.2719283730198,20.6686300511959,77.9405584242158,18.3016491609119,-67.6062433986178,49.3045942377059
1.3576017130621,-58.9867639643363,19.2533867250622,78.2401506893985,19.8666886196371,-68.6134573268674,48.7467687072303
1.35974304068522,-62.0547088079355,17.0910465928233,79.1457554007589,22.4818311075561,-70.6002321043472,48.1184009967911
1.36188436830835,-66.5512979712546,13.9764103634173,80.5277083346719,26.2874438039187,-73.5395031529632,47.2520593490446
1.36402569593148,-72.0711976556615,10.110854156796,82.1820518124575,30.9801717494328,-77.1266247340595,46.1464529846267
1.3661670235546,-77.7605037449831,5.85366637523146,83.6141701202146,35.9534186848758,-80.6873369325988,44.733918247723
1.36830835117773,-82.6591340094727,1.52980566812971,84.1889396776024,40.5646641706715,-83.4240368435376,42.8593726728661
1.37044967880086,-85.9545593498117,-2.37938752544619,83.5751718243655,44.1669734376289,-84.7648655870886,40.5978921494597
1.37259100642398,-87.082608044671,-5.26211579728215,81.8204922473889,46.1723619209766,-84.4515501460299,38.2791882250534
1.37473233404711,-85.7404605472901,-6.63256425170493,79.1078962955851,46.1865123994975,-82.4241784214376,36.2376660219401
1.37687366167024,-81.6470226603959,-6.04294542982953,75.6040772305664,43.8449840451127,-78.6255499454812,34.7805659003684
1.37901498929336,-74.2511505807944,-2.85875530437744,71.392395276417,38.5549529425859,-72.8217729286057,34.2668199860198
1.38115631691649,-62.7226954955881,3.67713355639333,66.3998290519815,29.5227809695974,-64.5612622737848,35.0384813041874
1.38329764453961,-46.1417084965029,14.3598698502539,60.5015783467568,15.8909193231245,-53.3216434216299,37.4307240985053
1.38543897216274,-23.7606174410804,30.0696447002826,53.830262141363,-3.15451362960112,-38.7954397912217,41.9499534208228
1.38758029978587,4.64887915670397,51.4780631580612,46.8291840013572,-28.0634711573826,-21.0901524223266,49.1536235797092
1.38972162740899,38.4791434262288,78.3807641410774,39.9016207148486,-58.4299537836531,-0.711238644309901,59.141192427963
1.39186295503212,76.2120466813731,109.436651825368,33.2246051439948,-92.8243492533705,21.4937207686891,71.3306284846813
1.39400428265525,115.510634950826,142.453499049443,26.9428640986174,-128.982067000134,44.283885426104,84.6981815740302
1.39614561027837,153.284282558173,174.627029232906,21.3427466747325,-163.95565589554,65.9707679417204,97.9848879538191
1.3982869379015,185.927739147231,202.884410934463,16.956671787232,-194.406075040847,84.4855336799994,109.920541360847
1.40042826552463,209.883503485551,224.530486176965,14.6469826914145,-217.206994831258,97.6182603970681,119.58873443419
1.40256959314775,222.276337251216,237.574092358584,15.2977551073677,-229.9252148049,103.489291071924,126.435923732976
1.40471092077088,221.520363606827,240.7642509675,19.2438873606729,-231.142307287163,101.138238123077,130.004069164086
1.406852248394,207.874524136423,233.934816567997,26.0602924315744,-220.90467035221,90.9071158524243,129.997554499786
1.40899357601713,183.519149709316,218.186718706186,34.6675689968707,-200.852934207751,74.4257903562226,126.427143851529
1.41113490364026,151.886520237779,195.484962492669,43.5984422548903,-173.685741365224,54.1440389914442,119.54170237378
1.41327623126338,116.680703484246,168.397798215352,51.717094731106,-142.539250849799,32.4818043765701,110.057446473229
1.41541755888651,81.1440621409193,139.981596073184,58.837533932265,-110.562829107052,11.1532641043271,99.4095650027247
1.41755888650964,47.7429622283432,113.060335375871,65.3173731475279,-80.4016488021072,-8.78720545959232,89.1888542616995
1.41970021413276,18.2477275328861,89.5547933481092,71.3070658152231,-53.9012604404976,-26.5296691411685,80.4309295816661
1.42184154175589,-5.90667378036596,70.8006179889363,76.7072917693022,-32.4469721042852,-41.3069827748341,73.7539548791193
1.42398286937902,-23.3416573076935,57.8954529787924,81.2371102864859,-17.2768978355495,-52.2893837970897,69.5662816326391
1.42612419700214,-32.9194740010334,51.1647178730015,84.084191874035,-9.12262193598404,-58.5018329375342,67.6244548735182
1.42826552462527,-34.2874250658496,49.7747694172884,84.0621944831379,-7.7436721757194,-59.1748097744937,66.9184819502131
1.43040685224839,-28.3694320005272,52.1810034720987,80.550435472626,-11.9057857357857,-54.4599337365766,66.3657194723623
1.43254817987152,-17.5137121049841,56.630829088689,74.144541193673,-19.5585584918525,-45.8291266493285,65.387685141181
1.43468950749465,-5.02051231348514,61.4270790562955,66.4475913697807,-28.2032833714052,-35.7340518416329,63.9373352130381
1.43683083511777,5.94103377709655,65.302981394025,59.3619476169284,-35.6220075855608,-26.7104569199159,62.3324645054767
1.4389721627409,13.265299059114,67.6350621713482,54.3697631122342,-40.4501806152311,-20.5522320265601,61.0024126417912
1.44111349036403,16.0608722048778,68.2188731544636,52.1580009495858,-42.1398726796707,-18.048564372354,60.1884370520247
1.44325481798715,14.3547984147388,67.048494998917,52.6936965841783,-40.7016467068279,-19.1694490847198,59.8710957915476
1.44539614561028,8.79222021229407,64.2372356001607,55.4450153878666,-36.5147279062274,-23.3263975877863,59.8411254940136
1.4475374732334,0.346593756405127,59.8446473660652,59.4980536096601,-30.0956205612352,-29.5757299266275,59.6713504878626
1.44967880085653,-9.86562731192396,53.9567654588382,63.8223927707622,-22.0455690734571,-36.8440100413431,58.8895791148002
1.45182012847966,-20.6334081688092,47.0630159993917,67.6964241682009,-13.2148039152913,-44.164916168505,57.3797200837963
1.45396145610278,-30.8440702650779,39.9268538073457,70.7709240724236,-4.54139177113392,-50.8074971687508,55.3488889398847
1.45610278372591,-39.8086328465857,33.0215932250501,72.8302260716358,3.39351981076784,-56.3194294591108,52.9259096483429
1.45824411134904,-47.3177429380871,26.5110999430819,73.8288428811691,10.4033214975026,-60.5732929096281,50.1699714121255
1.46038543897216,-53.4317959122156,20.575094882416,74.0068907946317,16.4283505148998,-63.7193433534237,47.2909928385239
1.46252676659529,-58.3291606392854,15.2723424741086,73.601503113394,21.5284090825884,-65.9653318763397,44.4369227937513
1.46466809421842,-62.1894254646553,10.4140572111076,72.6034826757629,25.8876841267738,-67.3964540702091,41.5087699434353
1.46680942184154,-65.102896372623,5.90316612773816,71.0060625003612,29.5998651224424,-68.0544794364921,38.4546143140497
1.46895074946467,-67.2092941348022,1.84270917988641,69.0520033146886,32.6832924774579,-68.1306487247454,35.4473562472875
1.47109207708779,-68.809635355058,-1.71781631044513,67.0918190446129,35.2637258327516,-67.9507271998355,32.6870013670839
1.47323340471092,-70.1125222654673,-4.77896238327907,65.3335598821882,37.4457423243732,-67.7230410738278,30.2772987494546
1.47537473233405,-71.0033941526381,-7.26856414767505,63.734830004963,39.1359791501566,-67.3691120788005,28.233132928644
1.47751605995717,-71.2320282373429,-9.18019242514265,62.0518358122002,40.2061103312428,-66.6419320247716,26.4358216935288
1.4796573875803,-70.643981131881,-10.6243441600874,60.0196369717935,40.6341626459842,-65.3318090518373,24.697646405853
1.48179871520343,-69.0909510452354,-11.5765879641023,57.5143630811332,40.3337695046689,-63.3026570631843,22.9688875585154
1.48394004282655,-66.4388334222239,-11.8611041703771,54.5777292518468,39.1499687963005,-60.5082813370353,21.3583125407348
1.48608137044968,-62.9793234891582,-11.559401263357,51.4199222258012,37.2693623762576,-57.1996228574797,19.9302604812221
1.48822269807281,-59.6460229624713,-11.19563981202,48.4503831504513,35.4208313872457,-54.0482030564613,18.6273716692156
1.49036402569593,-57.6502401654748,-11.440594452099,46.2096457133758,34.5454173087869,-51.9299429394253,17.3845256306384
1.49250535331906,-57.9562184612605,-12.7591171981555,45.1971012631051,35.357667829708,-51.5766598621828,16.2189920324748
1.49464668094218,-60.8939598168057,-15.2030978464661,45.6908619703396,38.0485288316359,-53.2924108935727,15.2438820619367
1.49678800856531,-65.9813405480999,-18.4013989335698,47.57994161453,42.1913697408348,-56.780641081315,14.5892713404801
1.49892933618844,-72.1770950695922,-21.8494961252152,50.3275989443769,47.0132955974037,-61.2523470069846,14.2390514095809
1.50107066381156,-78.4053398380877,-25.1409706092993,53.2643692287884,51.7731552236935,-65.834854533438,14.0616993097445
1.50321199143469,-83.7185952598879,-27.7980519690264,55.9205432908616,55.7583236144572,-69.8195692753747,14.0612456609176
1.50535331905782,-87.1037950021142,-29.2000021709816,57.9037928311326,58.1518985865479,-72.5037939166234,14.3518953300755
1.50749464668094,-87.6121346121071,-28.9486365045856,58.6634981075215,58.2803855583464,-73.1378163598143,14.8574308014679
1.50963597430407,-84.8670356581321,-27.0904841746878,57.7765514834444,55.9787599164099,-71.3217935707882,15.3430336543783
1.51177730192719,-79.4167480856813,-24.0307251788603,55.386022906821,51.7237366322708,-67.4013854962511,15.6776488639804
1.51391862955032,-72.6238756642092,-20.53990427501,52.0839713891992,46.5818899696096,-62.3539235267042,15.7720335570946
1.51605995717345,-66.0503679378752,-17.550929697432,48.4994382404432,41.8006488176536,-57.2749030891592,15.4742542715056
1.51820128479657,-60.7615410976142,-15.6108692055493,45.1506718920649,38.1862051515817,-52.9561064948396,14.7699013432578
1.5203426124197,-57.2266925123843,-14.7914549071031,42.4352376052812,36.0090737097437,-49.8309650588327,13.821891349089
1.52248394004283,-55.7023513366846,-15.122395198126,40.5799561385586,35.4123732674053,-48.1411537376216,12.7287804702163
1.52462526766595,-56.341371902311,-16.6891708311354,39.6522010711756,36.5152713667232,-47.9967864867433,11.4815151200201
1.52676659528908,-58.9190752486032,-19.3070001918013,39.612075056802,39.1130377202023,-49.2655751527026,10.1525374325003
1.52890792291221,-62.7124629515072,-22.3959396533989,40.3165232981083,42.554201302453,-51.5144931248077,8.96029182235469
1.53104925053533,-66.6391999568917,-25.187238000277,41.4519619566148,45.9132189785844,-54.0455809567532,8.13236197816889
1.53319057815846,-69.4180678955968,-26.8995327900745,42.5185351055223,48.1588003428357,-55.9683015005596,7.80950115772387
1.53533190578158,-69.8361004806358,-26.8884386081924,42.9476618724433,48.3622695444141,-56.3918811765395,8.02961163212544
1.53747323340471,-67.2721008845637,-24.9357493340532,42.3363515505105,46.1039251093085,-54.8042262175371,8.70030110822862
1.53961456102784,-62.1252558678669,-21.370974283038,40.7542815848289,41.7481150754524,-51.4397687263479,9.69165365089549
1.54175588865096,-55.6180445334574,-16.8771630902512,38.7408814432061,36.2476038118543,-47.1794629883317,10.9318591764775
1.54389721627409,-49.1100855961899,-12.2569279285596,36.8531576676304,30.6835067623748,-42.9816216319102,12.2981148695354
1.54603854389722,-43.4962320148654,-8.13930806333943,35.3569239515259,25.8177700391024,-39.4265779831957,13.6088079440933
1.54817987152034,-39.0052936753613,-4.65446722920686,34.3508264461544,21.8298804522841,-36.6780600607578,14.8481796084738
1.55032119914347,-35.4662931914535,-1.57363997951185,33.8926532119416,18.5199665854827,-34.6794732016975,16.1595066162149
1.5524625267666,-32.6866803410012,1.21189666889521,33.8985770098964,15.737391836053,-33.2926286754488,17.5552368393958
1.55460385438972,-30.4553120869155,3.65421727355704,34.1095293604725,13.4005474066792,-32.282420723694,18.8818733170148
1.55674518201285,-28.4268762707833,5.78712741867042,34.2140036894537,11.3198744260564,-31.3204399801185,20.0005655540621
1.55888650963597,-26.2329933639047,7.66973801687178,33.9027313807765,9.28162767351647,-30.0678623723406,20.7862346988241
1.5610278372591,-23.5236526707457,9.4356151309959,32.9592678017416,7.04401876987491,-28.2414602362437,21.1974414663688
1.56316916488223,-19.9154171373373,11.5194768375504,31.4348939748877,4.19797014989346,-25.6751555561125,21.4771854062191
1.56531049250535,-15.2000414411279,14.3964609591814,29.5965024003093,0.401790240973241,-22.3982719207186,21.9964816797454
1.56745182012848,-9.62147400119949,18.1579026529231,27.7793766541226,-4.26821432586182,-18.7004253276611,22.9686396535229
1.56959314775161,-3.76988646363242,22.6002780160864,26.3701644797188,-9.41519577622698,-15.0700254716756,24.4852212479026
1.57173447537473,1.76238071547021,27.3874273323661,25.6250466168958,-14.5749040239181,-11.9313329507128,26.506236974631
1.57387580299786,6.54105623954325,31.9743361501169,25.4332799105737,-19.2576961948301,-9.44611183551521,28.7038080303453
1.57601713062098,10.3087624920762,35.8330178848005,25.5242553927243,-23.0708901884384,-7.60774645032407,30.6786366387624
1.57815845824411,13.0592911221904,38.8549161886181,25.7956250664277,-25.9571036554043,-6.36816697211864,32.3252706275229
1.58029978586724,15.025465562624,41.2857308800469,26.2602653174229,-28.1555982213354,-5.61739987739945,33.7729980987349
1.58244111349036,16.5551709339359,43.5259911635743,26.9708202296384,-30.0405810487551,-5.20782464785127,35.2484056966063
1.58458244111349,18.1024683155539,46.1609217034314,28.0584533878774,-32.1316950094927,-4.97799253616175,37.1096875456544
1.58672376873662,20.1972331174131,49.6761377546982,29.4789046372851,-34.9366854360557,-4.64083575993598,39.5775211959917
1.58886509635974,23.222063811036,53.9846470091035,30.7625831980675,-38.6033554100698,-3.77025969351578,42.3736151035855
1.59100642398287,27.2832165001021,58.6037631927761,31.320546692674,-42.9434898464391,-2.01866509628597,44.962154942725
1.593147751606,32.2830141932149,63.1591683685858,30.8761541753709,-47.7210912809003,0.70343000892197,47.0176612719783
1.59528907922912,37.9668604616996,67.4021160565144,29.4352555948148,-52.684488259107,4.26580243344237,48.4186858256646
1.59743040685225,43.9773153404529,71.0915119758467,27.1141966353938,-57.5344136581498,8.43155935252958,49.1028543056203
1.59957173447537,50.014330113897,74.1695350620073,24.1552049481103,-62.0919325879522,12.9295625828934,49.1623700050588
1.6017130620985,55.8301540070995,76.788230688171,20.9580766810715,-66.3091923476352,17.436038663014,48.8731536846212
1.60385438972163,61.0587591399748,79.1372359807962,18.0784768408214,-70.0979975603855,21.4901411495767,48.6078564108088
1.60599571734475,65.3381030796247,81.4694505404762,16.1313474608515,-73.4037768100505,24.6033778093866,48.8003990006639
1.60813704496788,68.6167261422783,84.0665564180617,15.4498302757834,-76.34164128017,26.5834479332475,49.7581933469226
1.61027837259101,71.1516963640954,86.9376144134114,15.785918049316,-79.0446553887534,27.6828891573897,51.3617662313637
1.61241970021413,73.3091947717584,89.830448147612,16.5212533758536,-81.5698214596852,28.3939706979524,53.1758507617328
1.61456102783726,75.5036224336689,92.6610357174893,17.1574132838204,-84.0823290755791,29.1731045749243,54.9092245006549
1.61670235546039,78.1401071758737,95.6111264740182,17.4710192981445,-86.875616824946,30.3345439388646,56.5410728860813
1.61884368308351,81.4208755758989,98.8423847504118,17.4215091745129,-90.1316301631554,31.999683200693,58.1319469624624
1.62098501070664,85.2847567609055,102.414596666317,17.1298399054115,-93.8496767136112,34.077458427747,59.7722182858642
1.62312633832976,89.4656775593153,106.265241394225,16.7995638349092,-97.8654594767699,36.3330568622031,61.5324026145668
1.62526766595289,93.4587219792581,110.006369928606,16.5476479493481,-101.732545953932,38.455537014955,63.2770089389772
1.62740899357602,96.7390189922887,113.036164162099,16.2971451698103,-104.887591577194,40.2209369112392,64.6666546659547
1.62955032119914,99.211458190647,115.019230890714,15.8077727000667,-107.11534454068,41.7018427452902,65.4135017953902
1.63169164882227,101.164093163669,116.013429400818,14.8493362371493,-108.588761282244,43.1573784632599,65.4313828189838
1.6338329764454,102.816271617457,116.26513367068,13.4488620532227,-109.540702644068,44.683704782117,64.8569978619511
1.63597430406852,104.182780251965,116.186546363328,12.0037661113633,-110.184663307646,46.0895070703007,64.0951562373456
1.63811563169165,105.189429996534,116.174826408245,10.9853964117111,-110.68212820239,47.1020167924115,63.5801114099781
1.64025695931478,105.658666913187,116.167563077587,10.5088961644002,-110.913114995387,47.5748853743935,63.3382296209938
1.6423982869379,105.359216396637,115.725930196892,10.3667138002549,-110.542573296765,47.4962512981913,63.0463219985736
1.64453961456103,104.185714778594,114.53944001861,10.3537252400158,-109.362577398602,46.915994769289,62.4465826293127
1.64668094218415,102.131345435065,112.507746794518,10.3764013594531,-107.319546114791,45.8774720378058,61.4420740769854
1.64882226980728,99.1976305526535,109.661878834133,10.4642482814792,-104.429754693393,44.3666911355872,60.0630635578059
1.65096359743041,95.4872656620594,106.418315833937,10.9310501718775,-100.952790747998,42.2781077450909,58.6746830029072
1.65310492505353,91.1810787304582,103.50829699436,12.3272182639022,-97.3446878624094,39.426930233278,57.9177576291314
1.65524625267666,86.3381458347354,101.283399560718,14.9452537259828,-93.8107726977268,35.6964460543763,58.1143266433505
1.65738758029979,80.8616357677504,99.3874763204188,18.5258405526684,-90.1245560440846,31.167897607541,58.9566584365436
1.65952890792291,74.6272154046608,97.1567581937441,22.5295427890833,-85.8919867992024,26.0488363077887,59.8431504914137
1.66167023554604,67.508284949888,93.9557974915256,26.4475125416376,-80.7320412207068,20.5303862041252,60.2016550165816
1.66381156316916,59.3607729873438,89.3009515619364,29.9401785745926,-74.3308622746401,14.7102972063756,59.6205650682645
1.66595289079229,50.1394585921728,83.139757019364,33.0002984271912,-66.6396078057684,8.5695800824908,58.0700277232776
1.66809421841542,39.9649319454619,75.8854331852925,35.9205012398306,-57.9251825653772,2.02221535281564,55.9029672125616
1.67023554603854,29.0878963374269,68.0223987954525,38.9345024580257,-48.5551475664397,-4.92330306029942,53.4784506267391
1.67237687366167,17.9557137398788,59.9631332031879,42.0074194633091,-38.9594234715333,-12.0258528617152,50.9852763332485
1.6745182012848,7.16871478774999,52.1224099165842,44.9536951288342,-29.6455623521671,-18.8924901705421,48.5380525227092
1.67665952890792,-2.87028418633895,44.661804732092,47.532088918431,-20.8957602728765,-25.201186552385,46.0969468252615
1.67880085653105,-12.138531317486,37.3898716949856,49.5284030124716,-12.6256701887498,-30.8334671649788,43.4591373537286
1.68094218415418,-20.7658021572254,30.1563991461619,50.9222013033873,-4.69529849446826,-35.8440017303063,40.5393002247746
1.6830835117773,-28.8654300559419,22.9343710513739,51.7998011073158,2.96552950228403,-40.3326155816289,37.3670860793449
1.68522483940043,-36.5824466420565,15.5713046688875,52.153751310944,10.5055709865845,-44.3680989765003,33.8625279899157
1.68736616702355,-44.0260844571548,8.05359764141542,52.0796820985702,17.9862434078697,-48.0528832778625,30.0666398699928
1.68950749464668,-51.1579174689219,0.801723683007026,51.959641151929,25.1780968929575,-51.5587793104255,26.380682417468
1.69164882226981,-57.8726505017106,-5.73984603490237,52.1328044668082,31.8062482683065,-55.0027274842594,23.1964792159529
1.69379014989293,-64.0568423990595,-11.4840488475733,52.5727935514863,37.7704456233164,-58.3148179752729,20.5443723519565
1.69593147751606,-69.60466544332,-16.6171514993692,52.9875139439507,43.1109084713446,-61.2960896936353,18.1851812222907
1.69807280513919,-74.6130487765661,-21.4884138197666,53.1246349567995,48.0507312981663,-63.8688418666828,15.8181105685164
1.70021413276231,-79.4340252455572,-26.4103227093052,53.023702536252,52.9221739774312,-66.2288638909046,13.3066899134734
1.70235546038544,-84.3060608792506,-31.4038807208592,52.9021801583914,57.8549708000549,-68.604120518821,10.7491497187661
1.70449678800857,-89.0885215340439,-36.3298962137288,52.7586253203151,62.7092088738864,-70.9235734271795,8.21436455329314
1.70663811563169,-93.5739936464955,-41.1834177003198,52.3905759461758,67.3787056734076,-72.9822847963356,5.60357912292801
1.70877944325482,-97.9191304730699,-46.0395633750528,51.8795670980171,71.9793469240614,-74.8993487855435,2.92000186148215
1.71092077087794,-102.520254150931,-50.8410276499574,51.6792265009736,76.6806409004442,-77.0997403259523,0.419099425508136
1.71306209850107,-107.513974724613,-55.4864890511602,52.0274856734529,81.5002318878867,-79.770730199033,-1.72950168885365
1.7152034261242,-112.564090632004,-59.9264013989141,52.6376892330896,86.2452460154589,-82.6008899325467,-3.64435608291222
1.71734475374732,-117.12196336071,-63.9493960656448,53.1725672950654,90.5356797131775,-85.1472653278879,-5.38841438528968
1.71948608137045,-120.8011692531,-67.316163713198,53.4850055399016,94.0586664831488,-87.1430873965006,-6.91557908664817
1.72162740899358,-123.465783165837,-70.1981291626183,53.267654003219,96.8319561642278,-88.3667185845281,-8.46523757969965
1.7237687366167,-125.007568076623,-72.8761087412241,52.1314593353987,98.9418384089234,-88.5695137060107,-10.3723247029127
1.72591006423983,-125.237001423456,-75.1549475071682,50.0820539162878,100.195974465312,-87.6595276698719,-12.5364467954402
1.72805139186295,-124.170654778915,-76.6505644050045,47.5200903739104,100.41060959196,-85.8453725764127,-14.565237015547
1.73019271948608,-122.234658102718,-77.3096318922807,44.9250262104369,99.7721449974992,-83.5798421565773,-16.1923028409219
1.73233404710921,-119.917540113015,-77.2850163582197,42.6325237547957,98.6012782356175,-81.2750319339055,-17.326246301712
1.73447537473233,-117.38886893699,-76.7656402386094,40.6232286983802,97.0772545877995,-79.0060488176849,-18.0712057701146
1.73661670235546,-114.650000486168,-76.0773763992583,38.5726240869099,95.3636884427133,-76.6113122865391,-18.7523761561742
1.73875802997859,-111.846612673134,-75.4991870411235,36.3474256320108,93.672899857129,-74.0970191525726,-19.5758807045564
1.74089935760171,-109.24460815136,-74.9901234110896,34.2544847402706,92.1173657812249,-71.7495464458154,-20.3678193354095
1.74304068522484,-107.044749491841,-74.4054787036293,32.6392707882119,90.7251140977352,-69.8420101400265,-20.8831039577087
1.74518201284797,-105.370318722428,-73.7930099648049,31.5773087576234,89.5816643436166,-68.4738137400259,-21.1078506035907
1.74732334047109,-104.330971212543,-73.2845278114461,31.0464434010971,88.8077495119947,-67.6887073068202,-21.1190422051745
1.74946466809422,-104.014936142902,-73.0117224629179,31.0032136799844,88.5133293029101,-67.5090749114433,-21.0042543914668
1.75160599571734,-104.480445854383,-73.1996404175293,31.2808054368539,88.8400431359562,-67.8806256456185,-20.9594174903377
1.75374732334047,-105.685846821794,-73.9941359951716,31.6917108266228,89.839991408483,-68.6887788242086,-21.1512125842744
1.7558886509636,-107.330716472755,-75.2804028460081,32.0503136267466,91.3055596593814,-69.6905150497506,-21.6150446096308
1.75802997858672,-108.860929399971,-76.8904784935955,31.9704509063751,92.875703946783,-70.4156901531728,-22.4600137936102
1.76017130620985,-109.743638653654,-78.690919147624,31.0527195060296,94.2172789006387,-70.3981790798416,-23.8190998207972
1.76231263383298,-109.777843434864,-80.4001867074915,29.3776567273728,95.0890150711779,-69.5777500811185,-25.5112649900594
1.7644539614561,-109.202276834776,-81.7448000249392,27.4574768098369,95.4735384298577,-68.3298768223065,-27.1436616075511
1.76659528907923,-108.558539651013,-82.7297101674731,25.8288294835401,95.6441249092432,-67.1936845672767,-28.4504403419665
1.76873661670236,-108.40328914515,-83.4176137126927,24.9856754324572,95.9104514289213,-66.6944822888036,-29.2159691401177
1.77087794432548,-109.052317594798,-83.7897163848221,25.2626012099761,96.4210169898101,-67.1574594023871,-29.263557587423
1.77301927194861,-110.509508047829,-84.0906404008929,26.4188676469364,97.3000742243611,-68.4641878473829,-28.8358863769782
1.77516059957173,-112.530551405937,-84.7588872200926,27.771664185844,98.6447193130146,-70.1511077958903,-28.4936115171243
1.77730192719486,-114.684018124072,-85.8188630351844,28.8651550888873,100.251440579628,-71.7745866064795,-28.4768539731485
1.77944325481799,-116.374228917619,-86.8250974264406,29.5491314911785,101.59966317203,-72.9616802043988,-28.6379829676311
1.78158458244111,-116.915628946234,-87.333111146439,29.5825177997947,102.124370046336,-73.2490733730142,-28.8752966733222
1.78372591006424,-115.786384747957,-87.0549438140037,28.7314409339537,101.420664280981,-72.2589128409556,-29.161751440025
1.78586723768737,-112.972955839504,-85.8624476418668,27.1105081976377,99.4177017406856,-70.0417320185711,-29.3759697221145
1.78800856531049,-109.057748920717,-83.9566822438431,25.1010666768741,96.5072155822801,-67.0794077987956,-29.4278077834845
1.79014989293362,-104.885903517411,-81.8313460072117,23.0545575101997,93.3586247623115,-63.9702305138056,-29.388394248506
1.79229122055675,-101.153145931891,-79.988141104641,21.1650048272503,90.5706435182661,-61.1590753795708,-29.4115681386954
1.79443254817987,-98.2649681057515,-78.7775932465519,19.4873748591996,88.5212806761517,-58.8761714824756,-29.6451091936761
1.796573875803,-96.3345511044953,-78.3041116468576,18.0304394576377,87.3193313756765,-57.1824952810665,-30.13683609461
1.79871520342612,-95.2041128874784,-78.3168644863788,16.8872484010996,86.7604886869286,-56.045680644289,-30.7148080426396
1.80085653104925,-94.6652295889768,-78.403751755422,16.2614778335548,86.5344906721994,-55.4633537112658,-31.0711369609336
1.80299785867238,-94.7457056872092,-78.3390514121158,16.4066542750934,86.5423785496625,-55.5761799811513,-30.9661985685112
1.8051391862955,-95.6377443164741,-78.1204006554485,17.5173436610255,86.8790724859613,-56.5775439887498,-30.3015284972115
1.80728051391863,-97.3758606280635,-77.9260330847162,19.4498275433474,87.6509468563898,-58.4128440857054,-29.2381027706844
1.80942184154176,-99.7732699251905,-78.2083308836434,21.5649390415471,88.9908004044169,-60.6691044833688,-28.3216959210481
1.81156316916488,-102.537441293334,-79.3959360164219,23.1415052769124,90.9666886548781,-62.8394732851234,-28.1272153697548
1.81370449678801,-105.201019842433,-81.2889626024662,23.9120572399663,93.2449912224494,-64.5565385411994,-28.6884526812499
1.81584582441113,-107.137738978062,-83.1319386705759,24.0058003074866,95.1348388243192,-65.5717696427745,-29.5630691815447
1.81798715203426,-107.889919255174,-84.2710076413617,23.6189116138127,96.080463448268,-65.7544154344936,-30.3260480137745
1.82012847965739,-107.3631067106,-84.382922652435,22.9801840581654,95.8730146815177,-65.1716453843829,-30.7013692971348
1.82226980728051,-105.72979332869,-83.4262764781163,22.3035168505739,94.5780349034032,-64.016655089632,-30.5613798137712
1.82441113490364,-103.349459284113,-81.7994419273423,21.5500173567707,92.5744506057277,-62.4497383204418,-30.1247122852858
1.82655246252677,-100.641194429405,-80.1395612980282,20.5016331313764,90.3903778637164,-60.5714137803905,-29.8189640833259
1.82869379014989,-97.8315857370347,-78.7928504638231,19.0387352732117,88.3122181004289,-58.4351605051232,-29.8770575953057
1.83083511777302,-94.9293425806102,-77.784893787262,17.1444487933482,86.3571181839361,-56.0368956869792,-30.3202224969569
1.83297644539615,-91.9083416230815,-77.0490556514169,14.8592859716645,84.4786986372492,-53.383813797373,-31.0948848398762
1.83511777301927,-88.7676088258497,-76.3640471326915,12.4035616931582,82.5658279792706,-50.585585259504,-31.9802427197667
1.8372591006424,-85.5736965609772,-75.3834884463564,10.1902081146208,80.4785925036668,-47.881952337799,-32.5966401658678
1.83940042826552,-82.5364054924714,-73.9617643755455,8.57464111692589,78.2490849340084,-45.5555233046986,-32.6935616293098
1.84154175588865,-79.894259070629,-72.254025131766,7.64023393886303,76.0741421011975,-43.767246504746,-32.3068955964515
1.84368308351178,-77.7047631050247,-70.4638711191617,7.24089198586299,74.0843171120932,-42.4728275454438,-31.6114895666494
1.8458244111349,-75.8242188483894,-68.719947520132,7.10427132825741,72.2720831842607,-41.4642450883234,-30.8078380959373
1.84796573875803,-74.0732437254315,-67.0708640304222,7.00237969500937,70.5720538779268,-40.5378117102204,-30.0342421677064
1.85010706638116,-72.350866917394,-65.3741401839295,6.9767267334645,68.8625035506618,-39.6637968254293,-29.1987067252325
1.85224839400428,-70.6528739453247,-63.4547854832986,7.19808846202609,67.0538297143117,-38.9254812036754,-28.1283485106363
1.85438972162741,-69.1088301549749,-61.4833660293705,7.62546412560438,65.2960980921727,-38.3671471402896,-26.9289509518831
1.85653104925054,-67.902642683986,-59.8733677851416,8.02927489884438,63.8880052345638,-37.9659587914152,-25.9220464431486
1.85867237687366,-67.0433085954553,-58.8222924654316,8.22101613002378,62.9328005304435,-37.6321623627396,-25.3006381677039
1.86081370449679,-66.3298681278862,-58.2338951040684,8.09597302381785,62.2818816159773,-37.212920575852,-25.0689610401253
1.86295503211991,-65.5118236363709,-57.8754991447503,7.6363244916206,61.6936613905606,-36.5740740639958,-25.1195873265649
1.86509635974304,-64.3065154302271,-57.2895643146201,7.01695111560698,60.7980398724236,-35.661733272917,-25.1363065995065
1.86723768736617,-62.4010073679716,-55.9117144666661,6.48929290130555,59.1563609173188,-34.4451501346386,-24.7112107826803
1.86937901498929,-59.7030970372305,-53.5349932000816,6.16810383714885,56.6190451186561,-32.9356004371897,-23.6834446814664
1.87152034261242,-56.5341059083631,-50.3424734419733,6.19163246638981,53.4382896751682,-31.3628691873764,-22.0754204877917
1.87366167023555,-53.4668851334808,-46.6844183473659,6.78246678611485,50.0756517404233,-30.1246759597978,-19.9509757806255
1.87580299785867,-51.0304426443703,-43.2104047965937,7.82003784777655,47.120423720482,-29.4252402460734,-17.6951834744086
1.8779443254818,-49.4617367770001,-40.7313599289324,8.73037684806768,45.0965483529663,-29.0960568125339,-16.0004915404324
1.88008565310493,-48.5795810051367,-39.5227797406469,9.05680126448973,44.0511803728918,-28.8181911348132,-15.2329892380786
1.88222698072805,-47.9273330238481,-39.0790627143166,8.84827030953156,43.5031978690824,-28.3878016666899,-15.1153962023925
1.88436830835118,-47.0585217999561,-38.6292633242843,8.42925847567182,42.8438925621202,-27.7438901378139,-15.1000024243062
1.8865096359743,-45.7219429796073,-37.6282480923867,8.09369488722058,41.675095535997,-26.9078189334139,-14.7672766025831
1.88865096359743,-43.9477593724085,-35.9685785856426,7.97918078676587,39.9581689790255,-25.9634700795872,-13.9946988994384
1.89079229122056,-42.0515301309033,-34.055062505033,7.99646762587025,38.0532963179682,-25.0239988783868,-13.0292974395814
1.89293361884368,-40.4199506601967,-32.4536450373618,7.96630562283487,36.4367978487792,-24.1931281415158,-12.2436697072635
1.89507494646681,-39.1699176823963,-31.3131252938829,7.85679238851341,35.2415214881396,-23.5133550354549,-11.7281664526847
1.89721627408994,-38.0937475716726,-30.4241022730017,7.66964529867089,34.2589249223371,-22.8816964351717,-11.3772284871654
1.89935760171306,-36.9368706626715,-29.6586808861447,7.27818977652679,33.2977757744081,-22.1075302195992,-11.190245554809
1.90149892933619,-35.5298846195553,-28.8501309621057,6.67975365744966,32.1900077908305,-21.1048191385025,-11.085188652328
1.90364025695931,-33.7094928642309,-27.6374213531385,6.0720715110924,30.6734571086847,-19.8907821876616,-10.782674921023
1.90578158458244,-31.4477890197862,-25.9383429795688,5.50944604021741,28.6930659996775,-18.4786175300018,-10.2144484696757
1.90792291220557,-29.0632603398436,-24.1750513074009,4.88820903244267,26.6191558236222,-16.9757346861431,-9.64342113747911
1.91006423982869,-27.0769165601227,-22.8460004755986,4.23091608452404,24.9614585178606,-15.6539163223234,-9.30754219553729
1.91220556745182,-25.9074695318976,-22.3124661389502,3.59500339294738,24.1099678354239,-14.7512364624225,-9.35873137300142
1.91434689507495,-25.7512067079433,-22.8485739681223,2.90263273982102,24.2998903380328,-14.3269197238822,-9.97297061415065
1.91648822269807,-26.5103064758808,-24.3069463349572,2.20336014092365,25.408626405419,-14.3568333084022,-11.0517930970168
1.9186295503212,-27.7032898710667,-25.9289254221274,1.77436444893932,26.8161076465971,-14.738827160003,-12.077280486594
1.92077087794433,-28.5314023480879,-26.8567214390408,1.67468090904714,27.6940618935644,-15.1030416285675,-12.5910202649968
1.92291220556745,-28.1124539628906,-26.5571229503776,1.55533101251295,27.3347884566341,-14.8338924877018,-12.5008959689323
1.92505353319058,-25.8315843876113,-24.8602823047775,0.971302082833745,25.3459333461944,-13.4014432352225,-11.9444901109719
1.9271948608137,-21.6788739903959,-22.0579468530428,-0.379072862646936,21.8684104217194,-10.6499005638745,-11.2185098578449
1.92933618843683,-16.2877827577433,-18.7235400142794,-2.43575725653609,17.5056613860113,-6.92601275060358,-10.5796486354077
1.93147751605996,-10.5930310622413,-15.1857659520859,-4.59273488984459,12.8893985071636,-3.00014808619834,-9.88925042096523
1.93361884368308,-5.41924785856537,-11.4631199343179,-6.04387207575256,8.44118389644165,0.312312108593595,-8.75349600503525
1.93576017130621,-1.28942908795145,-7.66107440801171,-6.37164532006027,4.47525174798158,2.54110811605441,-7.01635986403599
1.93790149892934,1.63433814018921,-4.033718275564,-5.66805641575321,1.19969006768739,3.65119727797121,-4.85088734565861
1.94004282655246,3.52012625373638,-0.80371082000373,-4.32383707374011,-1.35820771686632,3.92198166373824,-2.56377394687192
1.94218415417559,4.65467498114276,1.76442071552634,-2.89025426561642,-3.20954784833455,3.77246462337959,-0.562916775045039
1.94432548179872,5.26217458353403,3.43474836811264,-1.8274262154214,-4.34846147582333,3.54480039947772,0.80366107634562
1.94646680942184,5.4988664321082,4.33985340952192,-1.15901302258628,-4.91935992081506,3.32893972734724,1.59042019346782
1.94860813704497,5.44416902294586,4.89754177173296,-0.546627251212897,-5.17085539733941,2.99539813707938,2.17545726026003
1.95074946466809,5.12853325538049,5.4043201091706,0.275786853790109,-5.26642668227554,2.42637320079519,2.84005348148035
1.95289079229122,4.77614601527659,6.06627390383709,1.29012788856049,-5.42120995955684,1.74300906335805,3.67820089619879
1.95503211991435,4.97895416875858,7.2262787427014,2.24732457394282,-6.10261645572999,1.36581479740788,4.73680165832211
1.95717344753747,6.45222327566256,9.19621011916387,2.7439868435013,-7.82421669741321,1.85411821608063,5.97009848133258
1.9593147751606,9.62754133653829,12.1006975652742,2.47315622873596,-10.8641194509063,3.57719255390116,7.2869268970051
1.96145610278373,14.4712412472582,15.9809874784059,1.50974623114769,-15.226114362832,6.48074750805526,8.74536685477679
1.96359743040685,20.5278003545747,20.6619094176599,0.134109063085248,-20.5948548861173,10.1968456457447,10.3980092403726
1.96573875802998,27.0552776492069,25.5461262776514,-1.5091513715555,-26.3007019634291,14.2822145103812,12.0184874530479
1.9678800856531,33.204677188951,29.8697087771703,-3.33496841178066,-31.5371929830606,18.2698228003658,13.2673701826948
1.97002141327623,38.2442593810474,33.0829364260338,-5.1613229550136,-35.6635979035406,21.7027911680305,13.9608067355101
1.97216274089936,41.7832131985656,34.9741331850714,-6.8090800134942,-38.3786731918185,24.2961466060299,14.0825265857886
1.97430406852248,43.8855544194319,35.7373596392713,-8.14819478016059,-39.8114570293516,26.0168745997963,13.7945824295554
1.97644539614561,44.9417332611123,35.865158879414,-9.07657438169835,-40.4034460702632,27.0091538214053,13.3942922488578
1.97858672376874,45.2998549845612,35.722314265071,-9.57754071949022,-40.5110846248161,27.4386978520257,13.0723867727904
1.98072805139186,45.0173007393932,35.3425260790586,-9.67477466033458,-40.1799134092259,27.3460376998639,12.833875709362
1.98286937901499,44.0101971429773,34.6946974476474,-9.31549969532986,-39.3524472953123,26.6628484191536,12.6895988761588
1.98501070663812,42.2669592944532,33.8136078595074,-8.45335143494581,-38.0402835769803,25.3601553646995,12.6801282122808
1.98715203426124,39.8007339836681,32.6033751470315,-7.19735883663661,-36.2020545653498,23.4990464101524,12.7030081551975
1.98929336188437,36.6378962653862,30.9622092082454,-5.67568705714083,-33.8000527368158,21.1567916612635,12.6432610755523
1.99143468950749,33.0554779140991,29.176212313404,-3.8792656006951,-31.1158451137516,18.4673717573971,12.6484733563545
1.99357601713062,29.6246483440601,27.7413735982898,-1.88327474577029,-28.6830109711749,15.7539615449152,12.9290494262598
1.99571734475375,26.8468152664724,26.8658455827498,0.0190303162774157,-26.8563304246111,13.4138924750975,13.4424379495136
1.99785867237687,24.8870721355876,26.5183158261936,1.63124369060607,-25.7026939808906,11.6279142224908,14.0747797583999
2,23.5900983454912,26.5747496535409,2.98465130804965,-25.0824239995161,10.3027235187208,14.7797004807953
2.00214132762313,22.4697945427585,26.550952962026,4.08115841926756,-24.5103737523923,9.19431806174546,15.3160556906468
2.00428265524625,20.7935094633797,25.720823813826,4.9273143504463,-23.2571666386029,7.9330975564667,15.3240690821362
2.00642398286938,17.9317655423991,23.7090379326323,5.77727239023318,-20.8204017375157,6.07724657608297,14.7431551614327
2.00856531049251,13.6170437413848,20.5735717692215,6.95652802783668,-17.0953077553032,3.33025785677408,13.7650498985291
2.01070663811563,7.96483788648729,16.5927279579164,8.62789007142913,-12.2787829222019,-0.33152609247092,12.6103090146728
2.01284796573876,1.43914362426523,12.404099431725,10.9649558074597,-6.9216215279951,-4.76290609159726,11.6845276195924
2.01498929336188,-5.29903277841728,8.8496421860445,14.1486749644618,-1.77530470381361,-9.72385387143953,11.4991585752531
2.01713062098501,-11.6118363971763,6.29350243095806,17.9053388281344,2.65916698310913,-14.7585876126553,12.0994206295462
2.01927194860814,-16.9516070915882,4.41896662144204,21.3705737130302,6.26632023507306,-19.1610904023092,12.8947701672361
2.02141327623126,-20.9599743944967,2.67125702575826,23.631231420255,9.14435868436922,-22.2956029073758,13.1512442230066
2.02355460385439,-23.7210815654554,0.574579548107852,24.2956611135633,11.5732510086738,-24.0083713395093,12.4351203308356
2.02569593147752,-25.732087059685,-2.09994964540905,23.632137414276,13.916018352547,-24.6821122369805,10.7660938844335
2.02783725910064,-27.4786345547661,-5.12371084553798,22.3549237092281,16.301172700152,-24.9167791319971,8.61560643184507
2.02997858672377,-29.183363773906,-8.0029966236958,21.1803671502102,18.5931801988009,-25.1818654620581,6.58868526325722
2.03211991434689,-30.9130642261078,-10.4498308006216,20.4632334254862,20.6814475133647,-25.688148825797,5.00670131243228
2.03426124197002,-32.6453866850075,-12.4534345840226,20.1919521009848,22.549410634515,-26.4186693929961,3.86925875848108
2.03640256959315,-34.258709964735,-14.2133552645021,20.0453547002329,24.2360326146186,-27.152032332484,2.91599971786542
2.03854389721627,-35.6610620092249,-16.2057977229786,19.4552642862463,25.9334298661018,-27.5581631477356,1.62473328163387
2.0406852248394,-36.8745082879907,-18.7751208928046,18.0993873951861,27.8248145903977,-27.4869478415884,-0.337866748809269
2.04282655246253,-37.9180996059969,-21.5794427878369,16.33865681816,29.7487711969169,-27.1283782120784,-2.62039298483846
2.04496788008565,-38.7343104898434,-23.9060732148354,14.828237275008,31.3201918523394,-26.7812738824257,-4.53891796991373
2.04710920770878,-39.2682761658772,-25.3081719856993,13.9601041801779,32.2882240757882,-26.6141901730275,-5.67403390276072
2.04925053533191,-39.4868722757442,-25.6276343882164,13.8592378875278,32.5572533319803,-26.673055081636,-5.88419825034433
2.05139186295503,-39.3413170268645,-24.9753020545121,14.3660149723525,32.1583095406883,-26.8536659996085,-5.3046435410798
2.05353319057816,-38.8383901110356,-24.0035031650952,14.8348869459404,31.4209466380654,-26.836638528488,-4.5843081095774
2.05567451820128,-38.0870249285774,-23.6185694632127,14.4684554653647,30.8527971958951,-26.2777401969711,-4.57505699892401
2.05781584582441,-37.2369522829525,-24.2531302588641,12.9838220240884,30.7450412709083,-25.1103871535204,-5.63465411738787
2.05995717344754,-36.5168139694834,-25.8349315058537,10.6818824636297,31.1758727376685,-23.5993482165565,-7.57652452111197
2.06209850107066,-36.35643571497,-28.2295093038471,8.12692641112292,32.2929725094086,-22.2416810630465,-10.0512914463621
2.06423982869379,-37.3527834283695,-31.2570909745605,6.09569245380897,34.304937201465,-21.7242379410892,-12.5806992603758
2.06638115631692,-40.1240376156632,-34.6945270862538,5.42951052940941,37.4092823509585,-22.7767740725363,-14.6325082784222
2.06852248394004,-45.1681567481166,-38.5978831241344,6.57027362398216,41.8830199361255,-25.8692151860494,-16.0138047500761
2.07066381156317,-52.6001598652228,-43.2529479417995,9.34721192342322,47.9265539035112,-30.973685894323,-16.9528680091882
2.0728051391863,-61.8466323830476,-48.7516491070436,13.094983276004,55.2991407450456,-37.4708078295258,-17.8283329155198
2.07494646680942,-71.6252754834544,-54.8342017867253,16.7910736967291,63.2297386350899,-44.2081745900918,-19.0215640449981
2.07708779443255,-80.2608003150304,-60.8648284779462,19.3959718370842,70.5628143964883,-49.8283860760573,-20.734428320431
2.07922912205567,-86.1640790822754,-65.8051519317232,20.3589271505522,75.9846155069993,-53.2615031164138,-22.7231123905855
2.0813704496788,-88.3262730336962,-68.6690820907982,19.657190942898,78.4976775622472,-53.9917319882971,-24.5059455739501
2.08351177730193,-86.5645761569509,-69.0966613266041,17.4679148303468,77.8306187417775,-52.0162454936489,-25.8143732481286
2.08565310492505,-81.2733485138489,-67.1927676955306,14.0805808183183,74.2330581046897,-47.6769646660836,-26.5560934386062
2.08779443254818,-72.8711629137749,-63.0715910612271,9.79957185254783,67.971376987501,-41.3353673831614,-26.6360096043396
2.08993576017131,-61.4216434751004,-56.7643838084944,4.65725966660602,59.0930136417974,-33.0394515708532,-26.0535620709442
2.09207708779443,-46.5736777988935,-48.0325158552008,-1.45883805630729,47.3030968270471,-22.5574198712931,-24.745676955754
2.09421841541756,-27.6055806849494,-36.0140129517376,-8.40843226678827,31.8097968183435,-9.59857420908055,-22.2112226092629
2.09635974304069,-3.65465332495319,-19.518485839051,-15.8638325140978,11.5865695820021,6.1045895945723,-17.6911591765744
2.09850107066381,25.6581837717511,2.21147089204133,-23.4467128797097,-13.9348273318962,24.5524483257304,-10.6176209938342
2.10064239828694,59.6764883485124,29.1729458361281,-30.5035425123842,-44.4247170923202,45.0900154304483,-0.665298338128068
2.10278372591006,96.6816035117344,60.4490144842458,-36.2325890274886,-78.5653089979901,66.4570962696115,12.1082127283786
2.10492505353319,134.103390602692,93.8912039341245,-40.2121866685679,-113.997297268408,87.1577886356301,26.8395086327783
2.10706638115632,168.812899861259,126.350179601033,-42.4627202602267,-147.581539731146,105.637810060743,41.943729670403
2.10920770877944,197.544460262199,154.468907906051,-43.0755523561483,-176.006684084125,120.310006309174,55.6966777749512
