t,leadI,leadII,leadIII,aVR,aVL,aVF
0,1019,1023,4,-1021,507.5,513.5
0.00216708202405461,1023,1021,-2,-1022,512.5,509.5
0.00433416404810922,1015.55641904204,1012.57097149748,-2.98544754455929,-1014.06369526976,509.270933293301,504.792761976462
0.00650124607216383,1011.79167842673,1011.81994900198,0.0282705752449601,-1011.80581371435,505.881703925743,505.92410978861
0.00866832809621844,1026.02788717969,1025.02232044031,-1.00556673938172,-1025.52510381,513.516726959538,512.008376850465
0.0108354101202731,1040.41331793771,1039.37856722755,-1.03475071016442,-1039.89594258263,520.724034323939,519.171908258692
0.0130024921443277,1035.06900627001,1033.03507064535,-2.03393562465658,-1034.05203845768,518.551470947333,515.500567510348
0.0151695741683823,1023.22505456969,1025.21725664159,1.99220207189785,-1024.22115560564,510.616426248898,513.604729356745
0.0173366561924369,1022.32824533857,1023.33455153468,1.00630619611309,-1022.83139843662,510.660969571227,512.170428865396
0.0195037382164915,1020.91136522176,1018.9312901249,-1.98007509685783,-1019.92132767333,511.445720159309,508.475607514022
0.0216708202405461,1009.30932767823,1013.34743108826,4.03810341002611,-1011.32837938324,502.635612134102,508.692767249141
0.0238379022646007,1010.60520016782,1014.60592120657,4.00072103874686,-1012.6055606872,503.302239564538,509.303321122659
0.0260049842886553,1031.90500360713,1029.91065234482,-1.99435126231333,-1030.90782797598,516.949677434724,513.958150541254
0.0281720663127099,1039.85172172526,1037.87279689222,-1.97892483304486,-1038.86225930874,520.915323279153,517.946936029586
0.0303391483367645,1031.56605202395,1028.60316859181,-2.96288343213428,-1030.08461030788,517.26446772804,512.820142579839
0.0325062303608192,1021.38622318298,1021.40703662351,0.02081344053056,-1021.39662990324,510.682704871223,510.713925032019
0.0346733123848738,1021.90715190758,1021.87434970506,-0.0328022025229302,-1021.89075080632,510.969977055052,510.920773751267
0.0368403944089284,1019.02344707484,1019.95790526915,0.934458194308945,-1019.49067617199,509.044494440264,510.446181731727
0.039007476432983,1010.08739826593,1010.02277219783,-0.0646260680954356,-1010.05508523188,505.076012167011,504.979073064867
0.0411745584570376,1017.04135059031,1017.02730702144,-0.0140435688681464,-1017.03432880587,508.527697079587,508.506631726285
0.0433416404810922,1036.77619717231,1035.82112512378,-0.955072048526063,-1036.29866114805,518.865634610418,517.433026537629
0.0455087225051468,1039.08797692501,1039.16911183584,0.0811349108289505,-1039.12854438043,519.503421007092,519.625123373335
0.0476758045292014,1027.30409478086,1024.36628276647,-2.93781201438696,-1025.83518877367,515.120953397624,510.714235376044
0.049842886553256,1020.94143483221,1018.94756233544,-1.99387249676568,-1019.94449858382,511.467653664486,508.476844919338
0.0520099685773107,1022.09532197369,1022.02336848903,-0.071953484664391,-1022.05934523136,511.083637729179,510.975707502182
0.0541770506013653,1015.5690681839,1016.46487066033,0.895802476430731,-1016.01696942212,507.336632853736,508.680336568382
0.0563441326254199,1012.37659369346,1011.29946935748,-1.07712433597885,-1011.83803152547,506.726859014718,505.111172510749
0.0585112146494745,1022.50681941186,1022.51391000645,0.00709059458517913,-1022.51036470915,511.249864408638,511.260500300515
0.0606782966735291,1037.85911385046,1037.94093688372,0.081823033263845,-1037.90002536709,518.888645408597,519.011379958493
0.0628453786975837,1034.65912508016,1034.76341218218,0.104287102013586,-1034.71126863117,517.277418989075,517.433849642096
0.0650124607216383,1023.05368905643,1023.11450651879,0.0608174623654349,-1023.08409778761,511.496435797032,511.58766199058
0.0671795427456929,1020.47223862012,1014.45229600243,-6.01994261768687,-1017.46226731128,513.246090618904,504.216176692374
0.0693466247697475,1022.42085960836,998.342748189316,-24.0781114190435,-1010.38180389884,523.249485513701,487.132318385136
0.0715137067938021,1011.10400672928,980.212072895214,-30.8919338340628,-995.658039812245,520.99797028167,474.660069530576
0.0736807888178568,1013.43958152553,978.635439786963,-34.8041417385714,-996.037510656248,524.121861632053,471.915649024196
0.0758478708419114,1029.15748267406,996.976307582704,-32.1811750913583,-1013.06689512838,530.66932888271,482.397566245673
0.078014952865966,1039.7309044827,1012.29956366741,-27.4313408152909,-1026.01523407506,533.581122648997,492.434111426061
0.0801820348900206,1031.37998927471,1016.16979199503,-15.2101972796761,-1023.77489063487,523.295093277193,500.479797357679
0.0823491169140752,1020.19740210541,1014.16640014912,-6.03100195628929,-1017.18190112727,513.11420203085,504.067699096416
0.0845161989381298,1022.3605954842,1020.38804101874,-1.9725544654566,-1021.37431825147,512.166574974827,509.207743276642
0.0866832809621844,1019.80425689339,1019.87300673246,0.0687498390628889,-1019.83863181292,509.867753527165,509.97087828576
0.088850362986239,1013.41823712974,1008.48065952799,-4.93757760175265,-1010.94944832887,509.177907365747,501.771540963118
0.0910174450102936,1017.19675898144,999.224528716199,-17.9722302652417,-1008.21064384882,517.584494623341,490.626149225479
0.0931845270343482,1032.0684855632,1008.98284667152,-23.0856388916787,-1020.52566611736,527.577062227438,492.94860388992
0.0953516090584029,1037.42389869282,1018.3913010386,-19.0325976542118,-1027.90759986571,528.228248173514,499.679351692196
0.0975186910824575,1025.22743187186,1016.35142252438,-8.87600934747957,-1020.78942719812,517.051720609667,503.737706588448
0.0996857731065121,1021.79238357474,1021.81903314101,0.0266495662724537,-1021.80570835787,510.882867004232,510.922841353641
0.101852855130567,1023.90628535839,1012.76129657484,-11.1449887835482,-1018.33379096662,517.525637070969,500.808153895647
0.104019937154621,1017.38534583936,997.231791064162,-20.1535547752028,-1007.30856845176,518.769450307284,488.539118144479
0.106187019178676,1011.0285818594,995.062911986041,-15.9656698733587,-1003.04574692272,513.497125866379,489.548621056341
0.108354101202731,1022.16515936917,1008.16388336228,-14.0012760068878,-1015.16452136572,518.083217688028,497.081303677696
0.110521183226785,1036.43382929315,1028.31493985265,-8.11888944049815,-1032.3743845729,522.276359366822,510.098025206075
0.11268826525084,1036.36977836305,1035.26777807214,-1.10200029090674,-1035.8187782176,518.735889326978,517.082888890618
0.114855347274894,1022.93461712117,1024.87702791288,1.94241079171275,-1023.90582251702,510.496103164728,513.409719352297
0.117022429298949,1020.45315264988,1020.46699539756,0.0138427476744027,-1020.46007402372,510.219654951104,510.240419072615
0.119189511323004,1023.64792170475,1022.73217881807,-0.915742886680391,-1023.19005026141,512.281832295715,510.908217965694
0.121356593347058,1015.81370275229,1015.92250919419,0.108806441897286,-1015.86810597324,507.852448155196,508.015657818042
0.123523675371113,1014.40517075412,1007.46322301767,-6.9419477364504,-1010.9341968859,510.673559245286,500.260637640611
0.125690757395167,1027.56884213523,1003.53110551082,-24.0377366244143,-1015.54997382303,525.803289379824,489.746684443203
0.127857839419222,1037.71855491204,1008.64398249214,-29.0745724199015,-1023.18126870209,533.396563665973,489.78470503612
0.130024921443277,1030.33267078855,1004.49517085039,-25.8374999381614,-1017.41392081947,528.085085363358,489.328835456116
0.132192003467331,1021.03117237826,989.204844055628,-31.8263283226269,-1005.11800821694,526.428750350441,478.689257866501
0.134359085491386,1023.57798938555,991.370899708388,-32.2070896771639,-1007.47444454697,527.892539531358,479.581905015612
0.13652616751544,1022.30232364881,998.903170098913,-23.399153549901,-1010.60274687386,522.850738599357,487.752008274506
0.138693249539495,1012.69916264385,1007.51072805573,-5.18843458811796,-1010.10494534979,508.943798615985,501.161146733808
0.14086033156355,1017.51123141208,1014.46258289422,-3.0486485178526,-1015.98690715315,510.279939964964,505.706967188185
0.143027413587604,1032.49444343103,1021.56973178684,-10.9247116441846,-1027.03208760893,521.709577537606,505.322510071329
0.145194495611659,1036.84480470472,1033.0458508163,-3.79895388841942,-1034.94532776051,520.321879296569,514.62344846394
0.147361577635714,1027.23814960862,1027.44268980684,0.204540198217956,-1027.34041970773,513.516804705201,513.823615002528
0.149528659659768,1020.58149668174,1020.6243071531,0.0428104713595303,-1020.60290191742,510.269343105188,510.333558812228
0.151695741683823,1025.48886332773,1025.34440841279,-0.144454914933476,-1025.41663587026,512.81665912133,512.59997674893
0.153862823707877,1021.06613510375,1019.8264547956,-1.2396803081557,-1020.44629494968,511.152907705955,509.293387243721
0.156029905731932,1011.77168671545,1006.59693743721,-5.17474927823923,-1009.18431207633,508.473217996845,500.711094079486
0.158196987755987,1020.98203892832,1018.97230538223,-2.00973354609982,-1019.97717215527,511.495886237212,508.481285918063
0.160364069780041,1035.09287086116,1037.22343296151,2.13056210035188,-1036.15815191133,516.481154380402,519.67699753093
0.162531151804096,1035.16400423736,1035.33764407409,0.173639836733628,-1035.25082415573,517.495182200312,517.755641955413
0.16469823382815,1024.9017584006,1025.01794299524,0.116184594643073,-1024.95985069792,512.392786902977,512.567063794942
0.166865315852205,1021.30769636571,1022.29489256597,0.987196200260769,-1021.80129446584,510.160250082725,511.641044383116
0.16903239787626,1023.60587044306,1022.47211500564,-1.13375543742518,-1023.03899272435,512.369812940244,510.669179784106
0.171199479900314,1016.42621332924,1016.26471855798,-0.161494771257821,-1016.34546594361,508.293854050247,508.05161189336
0.173366561924369,1014.51770263638,1014.42445062681,-0.09325200956971,-1014.4710766316,507.305477322977,507.165599308622
0.175533643948423,1026.1054381596,1026.13759143097,0.0321532713724082,-1026.12151479528,513.036642444112,513.084872351171
0.177700725972478,1037.74161715024,1037.87851687654,0.136899726303682,-1037.81006701339,518.802358711968,519.007708301423
0.179867807996533,1030.32659549029,1023.48072768764,-6.84586780265386,-1026.90366158896,518.586231646473,508.317429942492
0.182034890020587,1021.86681638061,1002.97296510959,-18.8938512710165,-1012.4198907451,520.380333825814,492.039556919289
0.184201972044642,1022.63652152238,1004.53533270774,-18.1011888146379,-1013.58592711506,520.368855168508,493.217071946551
0.186369054068696,1022.63762908178,1006.4042067878,-16.2334222939735,-1014.52091793479,519.435525687875,495.085392246915
0.188536136092751,1015.05360737535,1003.95321410376,-11.1003932715903,-1009.50341073955,513.07700032347,496.426410416084
0.190703218116806,1014.9964395156,1015.99433315775,0.9978936421453,-1015.49538633667,506.999272936729,508.496113399946
0.19287030014086,1029.98798839129,1028.99214131846,-0.995847072835431,-1029.49006485487,515.491917732064,513.998147122811
0.195037382164915,1034.27488151773,1034.28810245765,0.0132209399243948,-1034.28149198769,517.130830288902,517.150661698788
0.19720446418897,1028.31064773668,1020.32256919823,-7.98807853845585,-1024.31660846746,518.14936313757,506.167245329886
0.199371546213024,1021.33555158855,1005.3550696225,-15.9804819660515,-1013.34531060552,518.658016777301,494.687293828224
0.201538628237079,1023.86534335509,1013.79921073617,-10.0661326189224,-1018.83227704563,516.965737987006,501.866539058622
0.203705710261133,1020.62243313957,1018.55792292051,-2.06451021905707,-1019.59017803004,511.343471679314,508.246706350728
0.205872792285188,1010.64940107397,1012.61326274896,1.96386167498679,-1011.63133191146,504.342769699492,507.288562211973
0.208039874309243,1020.95496208146,1017.94824089857,-3.00672118289765,-1019.45160149002,511.980841632181,507.470759857835
0.210206956333297,1032.75395908689,1035.79131691842,3.03735783153456,-1034.27263800265,514.858300627676,519.414337374978
0.212374038357352,1034.93237995444,1034.9701806501,0.0378006956552781,-1034.95128030227,517.447289629395,517.503990672878
0.214541120381406,1023.87419332154,1023.90110384842,0.0269105268882868,-1023.88764858498,511.923641397324,511.964007187656
0.216708202405461,1023.07429484684,1022.0737112356,-1.00058361124468,-1022.57400304122,512.037439229044,510.536563812177
0.218875284429516,1024.39129321914,1024.36383853122,-0.0274546879231821,-1024.37756587518,512.209373953532,512.168191921647
0.22104236645357,1018.01649921762,1016.97970104253,-1.03679817509271,-1017.49810013007,509.526648696357,507.971451433717
0.223209448477625,1012.78777317771,1014.77116487213,1.98339169442465,-1013.77946902492,505.402190741641,508.377278283278
0.225376530501679,1024.75452752882,1018.76004091156,-5.99448661725501,-1021.75728422019,515.374507073037,506.382777147154
0.227543612525734,1037.75120580879,1031.79004863232,-5.96115717647376,-1034.77062722056,521.856181492634,512.914445727923
0.229710694549789,1031.32629391714,1030.42052503188,-0.905768885260841,-1030.87340947451,516.116031401198,514.757378073307
0.231877776573843,1021.70207065157,1022.75689984442,1.05482919284816,-1022.22948524799,510.323620729361,511.905864518633
0.234044858597898,1022.56381299071,1023.53741191268,0.973598921962548,-1023.05061245169,510.795107034375,512.255505417319
0.236211940621953,1024.82150258555,1024.73112168169,-0.0903809038538839,-1024.77631213362,512.4559417447,512.320370388919
0.238379022646007,1016.44630887754,1015.35043034165,-1.09587853589585,-1015.8983696096,508.77109370672,507.127275902876
0.240546104670062,1014.65145201471,1013.6141296631,-1.03732235161385,-1014.1327908389,507.844387183162,506.288403655742
0.242713186694116,1027.55087301021,1026.58422879179,-0.966644218421834,-1027.067550901,514.258758614317,512.808792286684
0.244880268718171,1033.69279395251,1037.77751051542,4.08471656291158,-1035.73515223397,514.804038694801,520.931113539168
0.247047350742226,1026.39878259038,1028.44566087069,2.04687828030683,-1027.42222173053,512.175952155037,515.246269575497
0.24921443276628,1020.06917282376,1020.07906455711,0.00989173334653515,-1020.07411869043,510.029640545208,510.044478145227
0.251381514790335,1026.06838243599,1022.05153138397,-4.01685105202716,-1024.05995690998,515.042616744011,509.01734016597
0.253548596814389,1022.03219310873,1022.01869030951,-0.0135027992237156,-1022.02544170912,511.022847953978,511.002593755143
0.255715678838444,1015.58883017014,1014.57736173147,-1.01146843866866,-1015.08309595081,508.300149304405,506.782946646402
0.257882760862499,1018.06600697551,1018.0651096903,-0.000897285206292509,-1018.06555833291,509.033452130358,509.032106202549
0.260049842886553,1033.50128573981,1034.50448488241,1.00319914260672,-1034.00288531111,516.2490432986,517.75384201251
0.262216924910608,1034.773289383,1034.77255190579,-0.000737477209668214,-1034.7729206444,517.387013430106,517.385907214292
0.264384006934662,1022.9390901689,1024.93853337695,1.99944320805218,-1023.93881177292,510.469823480423,513.468988292501
0.266551088958717,1019.77356891452,1019.7728766009,-0.000692313621357243,-1019.77322275771,509.887130614073,509.886092143641
0.268718170982772,1024.94174169509,1024.95284462559,0.0111029304937347,-1024.94729316034,512.4653193823,512.481973778041
0.270885253006826,1021.48291742297,1020.4987305994,-0.984186823575442,-1020.99082401119,511.233552123275,509.757271887911
0.273052335030881,1014.14035561466,1014.15754609186,0.0171904772006428,-1014.14895085326,507.061582568731,507.087368284532
0.275219417054936,1022.53063525489,1023.52852495515,0.997889700262022,-1023.02958010502,510.766372777312,512.263207327705
0.27738649907899,1036.84616008873,1035.82551237906,-1.0206477096699,-1036.33583623389,518.933403899198,517.402432334693
0.279553581103045,1032.45904339183,1029.44086602371,-3.01817736811631,-1030.94995470777,517.738610379973,513.211344327799
0.281720663127099,1022.62621927388,1022.63278163072,0.00656235683493378,-1022.6295004523,511.309828458525,511.319671993777
0.283887745151154,1023.34776810445,1022.34539207223,-1.00237603221353,-1022.84658008834,512.17507206833,510.67150802001
0.286054827175209,1025.73923598422,1024.7312212842,-1.00801470001329,-1025.23522863421,513.373625342116,511.861603292096
0.288221909199263,1016.76184189751,1016.76111880659,-0.000723090916608271,-1016.76148035205,508.381282494214,508.380197857839
0.290388991223318,1014.42469336253,1014.42434880829,-0.000344554236107797,-1014.42452108541,507.212518958383,507.212002127029
0.292556073247372,1028.21674043195,1027.21698464067,-0.999755791283178,-1027.71686253631,514.608248111618,513.108614424693
0.294723155271427,1034.17092883229,1034.17461270243,0.00368387014873406,-1034.17277076736,517.083622481068,517.089148286291
0.296890237295482,1026.58574254945,1026.58942756166,0.00368501221146289,-1026.58758505556,513.291028768621,513.296556286938
0.299057319319536,1019.81655394912,1019.81793330291,0.00137935378711518,-1019.81724362601,509.907587297667,509.909656328347
0.301224401343591,1025.09517024503,1025.09340682373,-0.00176342130180274,-1025.09428853438,512.548466833165,512.545821701212
0.303391483367645,1023.28308693733,1011.27930288699,-12.0037840503395,-1017.28119491216,517.643435493836,499.637759418327
0.3055585653917,1016.582801376,991.678864436436,-24.9039369395631,-1004.13083290622,520.743369157781,483.387463748436
0.307725647415755,1016.31815596977,1002.39230878479,-13.9258471849814,-1009.35523237728,515.122001577377,494.233230799905
0.309892729439809,1031.27162843807,1030.0729970326,-1.19863140547386,-1030.67231273533,516.235129921772,514.437182813561
0.312059811463864,1031.6256267215,1032.27894863484,0.653321913338914,-1031.95228767817,515.486152404082,516.466135274091
0.314226893487919,1023.08964743199,1013.80491075551,-9.284736676482,-1018.44727909375,516.187192054236,502.260087039513
0.316393975511973,1022.43441829696,1008.40526427001,-14.0291540269499,-1015.41984128348,518.231786161954,497.18805512153
0.318561057536028,1025.29711622284,1022.47376477043,-2.8233514524087,-1023.88544049664,514.060233837624,509.825206659011
0.320728139560082,1021.84512430775,1022.13308719526,0.287962887509366,-1021.9891057515,510.778580710119,511.210525041383
0.322895221584137,1013.61152943839,1011.81489999238,-1.79662944601694,-1012.71321471538,507.704079442205,505.009135273179
0.325062303608192,1022.41312464285,1022.40612310734,-0.00700153550997129,-1022.4096238751,511.21006308918,511.199560785915
0.327229385632246,1033.92510516972,1031.70302328617,-2.22208188354739,-1032.81406422794,518.073593526632,514.740470701311
0.329396467656301,1032.6119199898,1028.33141246848,-4.28050752132481,-1030.47166622914,518.446213755563,512.025452473576
0.331563549680355,1021.60441802836,1016.45657902944,-5.14783899891324,-1019.0304985289,513.376128513635,505.654370015265
0.33373063170441,1021.03868158393,1013.0695795233,-7.96910206063149,-1017.05413055362,514.503891822282,502.550238731335
0.335897713728465,1025.47507324741,1005.6552838111,-19.8197894363021,-1015.56517852926,522.647431341854,492.917747187401
0.338064795752519,1019.06493484351,993.438388251152,-25.6265465923567,-1006.25166154733,522.345740717933,483.905920829398
0.340231877776574,1015.32501763852,984.650729181509,-30.6742884570118,-999.987873410015,522.999653047766,476.988220362249
0.342398959800628,1025.95851633806,997.74304467612,-28.2154716619384,-1011.85078050709,527.086993999998,484.763786507091
0.344566041824683,1035.67110767973,1011.03741354472,-24.6336941350174,-1023.35426061223,530.152400907376,493.20185970485
0.346733123848738,1026.84467875601,1009.37803372534,-17.4666450306692,-1018.11135624067,522.155661893337,495.955694347333
0.348900205872792,1019.59593094437,1009.46294315726,-10.132987787102,-1014.52943705081,514.864459365734,499.664977685081
0.351067287896847,1023.97324231856,1018.08653301481,-5.88670930374133,-1021.02988766668,514.929975811148,506.099911855536
0.353234369920902,1025.36395718527,1016.65722382932,-8.70673335594938,-1021.0105905073,517.03534527061,503.975245236686
0.355401451944956,1016.59926037053,1004.95143237263,-11.6478279979037,-1010.77534637158,514.123544184219,496.651802187364
0.357568533969011,1017.69840417344,1006.84006203494,-10.8583421385009,-1012.26923310419,514.278373155971,497.99085994822
0.359735615993065,1029.08963461052,1016.82279137846,-12.2668432320604,-1022.95621299449,520.678238921291,502.277974073201
0.36190269801712,1034.50756472876,1024.05216301155,-10.455401717204,-1029.27986387016,522.481483222981,506.798380647175
0.364069780041175,1023.28034273643,1016.97718010461,-6.30316263182544,-1020.12876142052,514.791752684129,505.337008736391
0.366236862065229,1021.07318523176,1016.02269564367,-5.05048958809277,-1018.54794043772,513.061837409927,505.486103027788
0.368403944089284,1027.50271138019,1022.68838131631,-4.81433006387817,-1025.09554634825,516.158520722034,508.937025626217
0.370571026113338,1022.12811496598,1020.46062869349,-1.66748627248785,-1021.29437182974,511.897800619234,509.396571210502
0.372738108137393,1015.19400023194,1008.4581310642,-6.73586916773888,-1011.82606564807,510.96493469984,500.861130948232
0.374905190161448,1022.40384263724,1001.41818894075,-20.9856536964952,-1011.911015789,521.69474816687,490.216267622127
0.377072272185502,1035.00449054587,1004.71651739716,-30.2879731487094,-1019.86050397152,532.646231847292,487.214272124227
0.379239354209557,1031.75648192847,1000.56086433023,-31.1956175982384,-1016.15867312935,531.476049763353,484.682623365996
0.381406436233611,1020.63233531374,998.709480805763,-21.9228545079791,-1009.67090805975,521.27759491086,488.393313148892
0.383573518257666,1023.66304092524,1002.63937160215,-21.0236693230928,-1013.15120626369,522.343355124166,490.807851139527
0.385740600281721,1027.04853553617,1011.85725450092,-15.1912810352492,-1019.45289501855,521.119908285712,498.332986732838
0.387907682305775,1019.33390387924,1021.21230908638,1.87840520713337,-1020.27310648281,508.727749336055,511.545357146755
0.39007476432983,1016.35899064076,1016.27901730208,-0.0799733386736534,-1016.31900397142,508.219481989716,508.099521981705
0.392241846353884,1024.76479074511,1024.79515942103,0.0303686759195898,-1024.77997508307,512.367211034596,512.412764048475
0.394408928377939,1035.14173167603,1035.26296444852,0.121232772485655,-1035.20234806228,517.510249451773,517.692098610502
0.396576010401994,1029.15066213727,1028.28525779315,-0.865404344123817,-1028.71795996521,515.008033240697,513.709926724511
0.398743092426048,1020.40707649529,1020.47477735792,0.0677008626255429,-1020.44092692661,510.169687816334,510.271239110272
0.400910174450103,1025.74096142603,1021.69114991286,-4.0498115131677,-1023.71605566944,514.895386469597,508.820669199845
0.403077256474158,1026.30563425505,1026.18238100457,-0.123253250486414,-1026.24400762981,513.21444375277,513.029563877041
0.405244338498212,1018.67022425235,1018.5477727501,-0.122451502251124,-1018.60899850123,509.396337877302,509.212660623925
0.407411420522267,1018.20745927821,1018.16243989404,-0.045019384163993,-1018.18494958613,509.126239331186,509.05871025494
0.409578502546321,1029.93404417557,1029.99376753614,0.0597233605685688,-1029.96390585586,514.937160407502,515.026745448355
0.411745584570376,1033.36245807514,1033.48891918991,0.126461114777157,-1033.42568863252,516.617998480179,516.807690152345
0.413912666594431,1025.55124340259,1021.66370485841,-3.88753854418314,-1023.6074741305,514.719390973386,508.888083157112
0.416079748618485,1019.71091460593,1019.74691329559,0.0359986896609144,-1019.72891395076,509.837457958133,509.891455992624
0.41824683064254,1025.55144524383,1025.45945229289,-0.09199295093822,-1025.50544876836,512.821719097385,512.683729670978
0.420413912666594,1024.3279996835,1024.16660204692,-0.161397636583843,-1024.24730086521,512.244698660043,512.002602205167
0.422580994690649,1015.86571512553,1015.73774697958,-0.127968145945715,-1015.80173105256,507.996841635738,507.804889416819
0.424748076714704,1019.50258557152,1019.48733396915,-0.0152516023690623,-1019.49495977034,509.758918586945,509.736041183391
0.426915158738758,1032.07464562387,1032.18092675773,0.106281133861103,-1032.1277861908,515.984182245004,516.143603945795
0.429082240762813,1031.93142503804,1022.09145784839,-9.83996718964852,-1027.01144144321,520.885696113843,506.12574532937
0.431249322786868,1021.73290679841,1005.91571491402,-15.817191884394,-1013.82431085621,518.775049341403,495.049261514812
0.433416404810922,1021.23810394115,1007.22650792415,-14.0115960169977,-1014.23230593265,517.624849979073,496.607455953577
0.435583486834977,1028.46442261777,1016.18990591655,-12.2745167012216,-1022.32716426716,520.369469659496,501.957694607663
0.437750568859031,1021.57134690943,1020.29869570163,-1.27265120779896,-1020.93502130553,511.421999058612,509.513022246914
0.439917650883086,1014.50583879346,1014.3458225771,-0.160016216354848,-1014.42583068528,507.332927504905,507.092903180373
0.442084732907141,1023.63932493402,1023.68016824944,0.0408433154195791,-1023.65974659173,511.799240809301,511.860505782431
0.444251814931195,1032.58498595494,1032.80025761378,0.215271658831853,-1032.69262178436,516.184857148056,516.507764636304
0.44641889695525,1027.50307230672,1028.7551790158,1.25210670907632,-1028.12912566126,513.125482798824,515.003642862438
0.448585978979304,1021.29205932254,1021.41715332418,0.125094001644015,-1021.35460632336,510.583482660446,510.771123662912
0.450753061003359,1024.39510157937,1023.3263305876,-1.06877099177814,-1023.86071608348,512.731936285576,511.128779797909
0.452920143027414,1027.06570763045,1025.84946752957,-1.21624010088885,-1026.45758758001,514.140973865672,512.316613714338
0.455087225051468,1015.73147590855,1010.51360220622,-5.21787370233426,-1013.12253905739,510.474674805444,502.647864251943
0.457254307075523,1015.84557533519,1002.77332113139,-13.0722542037972,-1009.30944823329,514.458914769493,494.850533463797
0.459421389099577,1028.79792971567,1008.85012892858,-19.9478007870894,-1018.82402932212,524.372865251378,494.451164070744
0.461588471123632,1032.18733920064,1023.38548051871,-8.80185868193246,-1027.78640985968,520.494598941288,507.29181091839
0.463755553147687,1023.87105603138,1023.13212453364,-0.738931497736303,-1023.50159028251,512.304993764556,511.196596517952
0.465922635171741,1020.37022139638,1014.45324107544,-5.91698032094109,-1017.41173123591,513.143600858661,504.268130377249
0.468089717195796,1027.45279527625,1006.29114380957,-21.1616514666778,-1016.87196954291,524.307223371464,492.564746171447
0.47025679921985,1025.3791385279,989.175920131233,-36.2032183966622,-1007.27752932956,530.791178462279,476.486350867286
0.472423881243905,1014.59101169945,965.711046300798,-48.8799653986481,-990.151029000122,531.735488549047,458.415540451075
0.47459096326796,1018.70717643303,973.791487787545,-44.9156886454883,-996.249332110289,531.811432539261,464.437899571028
0.476758045292014,1030.14790698896,1001.76770341916,-28.3802035697943,-1015.95780520406,529.264055279376,486.693749924685
0.478925127316069,1033.1120200968,1016.6705652484,-16.4414548484003,-1024.8912926726,524.776737472598,500.114555199997
0.481092209340124,1022.89960924743,1019.69052950544,-3.20907974199145,-1021.29506937644,513.054344494712,508.240724881725
0.483259291364178,1021.78273996661,1019.77560747514,-2.00713249146997,-1020.77917372088,511.894936229042,508.884237491837
0.485426373388233,1027.7269189365,1022.90788785771,-4.81903107878702,-1025.31740339711,516.272975007644,509.044428389463
0.487593455412287,1023.77545851666,1012.06447649746,-11.7109820192085,-1017.91996750706,517.743220267936,500.176747239124
0.489760537436342,1013.77521624986,997.042651380401,-16.7325648694604,-1005.40893381513,515.253890559661,490.15504325547
0.491927619460397,1024.5842034414,1005.53348454713,-19.0507188942767,-1015.05884399427,521.81746116784,493.241382826425
0.494094701484451,1033.98919694841,1025.594650318,-8.3945466304117,-1029.7919236332,521.191871789411,508.600051843793
0.496261783508506,1026.83573437006,1028.41021763344,1.57448326337703,-1027.62297600175,512.630625553341,514.992350448406
0.49842886553256,1020.20860143741,1018.95923819945,-1.24936323795987,-1019.58391981843,510.728982337682,508.854937480743
0.500595947556615,1023.98373153638,1022.08168718685,-1.90204434953228,-1023.03270936162,512.942887942957,510.089821418658
0.50276302958067,1026.7172950768,1027.1005104436,0.383215366801096,-1026.9089027602,513.167039854998,513.7418629052
0.504930111604724,1018.85230373829,1020.27480255097,1.42249881268617,-1019.56355314463,508.714902462801,510.84865068183
0.507097193628779,1016.60389225955,1015.79574792918,-0.808144330375171,-1016.19982009437,508.706018294964,507.493801799402
0.509264275652833,1024.69917150232,1020.55112780133,-4.14804370099068,-1022.62514965183,514.423607601658,508.201542050171
0.511431357676888,1034.00915451599,1022.62613437209,-11.3830201438992,-1028.31764444404,522.696087329943,505.621557114094
0.513598439700943,1024.24263596857,1008.95733970828,-15.2852962602909,-1016.59998783843,519.763966114431,496.836021723995
0.515765521724997,1019.0557224195,998.998506469283,-20.0572159502129,-1009.02711444439,519.556469184854,489.470645259535
0.517932603749052,1026.23988139656,1006.28805049077,-19.9518309057846,-1016.26396594366,523.09585615117,493.168109792493
0.520099685773107,1024.34493026098,1024.53397460862,0.18904434764363,-1024.4394524348,512.077942956666,512.361509478131
0.522266767797161,1017.42299703183,1018.58994863821,1.16695160637289,-1018.00647283502,508.128022712731,509.87845012229
0.524433849821216,1018.02142280018,1018.06054271072,0.0391199105387159,-1018.04098275545,508.991151444823,509.049831310631
0.52660093184527,1031.20487680701,1029.10010295064,-2.10477385636977,-1030.15248987883,516.654825331691,513.497664547136
0.528768013869325,1031.24885237819,1031.07813982262,-0.17071255556948,-1031.1634961004,515.709782466878,515.453713633524
0.53093509589338,1021.13316706849,1020.99880485118,-0.134362217312969,-1021.06598595983,510.633764642901,510.432221316931
0.533102177917434,1021.31631804338,1019.30152978479,-2.0147882585951,-1020.30892391408,511.665553150989,508.643370763096
0.535269259941489,1026.83017700528,1026.94229709922,0.112120093937847,-1026.88623705225,513.359028455674,513.52720859658
0.537436341965543,1023.89745059324,1025.0648162742,1.16736568096053,-1024.48113343372,511.365042456139,513.11609097758
0.539603423989598,1016.14894715366,1015.25823724884,-0.890709904818891,-1015.70359220125,508.51982852924,507.183763672012
0.541770506013653,1022.60538944672,1021.59904956708,-1.00633987963795,-1022.1022195069,511.80586466318,510.296354843723
0.543937588037707,1033.38125275939,1033.25919560295,-0.122057156437904,-1033.32022418117,516.751654957915,516.568569223258
0.546104670061762,1029.22531616341,1028.06547783275,-1.15983833066298,-1028.64539699808,515.192577247036,513.452819751041
0.548271752085816,1020.1958359327,1020.10539610822,-0.0904398244745153,-1020.15061602046,510.143137878586,510.007478141874
0.550438834109871,1022.50877726162,1022.53324783706,0.0244705754455481,-1022.52101254934,511.242153343085,511.278859206253
0.552605916133926,1027.22031166954,1028.34388233447,1.12357066493132,-1027.78209700201,513.048370502305,514.733726499702
0.55477299815798,1020.96077802308,1021.09636259806,0.135584574983227,-1021.02857031057,510.412596724048,510.615973586523
0.556940080182035,1017.47880890964,1015.54794773337,-1.93086117626763,-1016.5133783215,509.704835042952,506.80854327855
0.559107162206089,1027.63417279543,1027.59173167927,-0.0424411161632179,-1027.61295223735,513.838306955798,513.774645281553
0.561274244230144,1034.77740095947,1033.64542050901,-1.13198045046533,-1034.21141073424,517.954690704969,516.256720029271
0.563441326254199,1024.65219167648,1023.52343536707,-1.12875630940664,-1024.08781352178,512.890473992944,511.197339528834
0.565608408278253,1018.78068240425,1018.73145438293,-0.0492280213201184,-1018.75606839359,509.414955212787,509.341113180806
0.567775490302308,1026.92580667112,1025.9771740371,-0.948632634019987,-1026.45149035411,513.937219652571,512.514270701541
0.569942572326363,1026.19459068333,1026.31769531933,0.123104636006246,-1026.25614300133,513.035743023661,513.22039997767
0.572109654350417,1017.28853377738,1017.40308654043,0.114552763051279,-1017.34581015891,508.586990507165,508.758819651742
0.574276736374472,1018.44400572008,1018.47853235813,0.0345266380562634,-1018.46126903911,509.20473954101,509.256529498095
0.576443818398526,1031.25792964762,1029.19158753355,-2.06634211406754,-1030.22475859059,516.662135880845,513.562622709744
0.578610900422581,1031.37525212909,1031.26040311261,-0.114849016476683,-1031.31782762085,515.745050572783,515.572777048068
0.580777982446636,1021.42616887026,1020.3306797412,-1.09548912905097,-1020.87842430573,511.260828999653,509.617595306077
0.58294506447069,1020.85244331524,1020.83679366597,-0.0156496492691076,-1020.8446184906,510.434046482252,510.410572008348
0.585112146494745,1027.81487701686,1026.88154375197,-0.933333264897328,-1027.34821038442,514.374105140881,512.974105243535
0.587279228518799,1024.95922411972,1025.07190841621,0.112684296492489,-1025.01556626796,512.423269911613,512.592296356352
0.589446310542854,1014.61961726978,1014.70276166972,0.0831443999470594,-1014.66118946975,507.268236434914,507.392953034835
0.591613392566909,1020.70318197355,1020.70541786561,0.00223589206518682,-1020.70429991958,510.350473040741,510.353826878839
0.593780474590963,1031.71696096792,1031.63733612054,-0.0796248473834567,-1031.67714854423,515.898292907654,515.778855636579
0.595947556615018,1029.59918606941,1029.48852338378,-0.110662685622401,-1029.54385472659,514.854924377514,514.68893034908
0.598114638639073,1021.25139483399,1018.17985134196,-3.07154349203336,-1019.71562308798,512.161469163013,507.554153924963
0.600281720663127,1022.99041905223,1022.99991943101,0.00950037878430976,-1022.99516924162,511.490459336723,511.504709904899
0.602448802687182,1026.58637961126,1029.65784600107,3.07146638980407,-1028.12211280616,511.757456610729,516.364656195435
0.604615884711236,1023.07027885099,1022.13446224386,-0.935816607123115,-1022.60237054742,512.003047729054,510.599322818369
0.606782966735291,1016.47518988247,1016.51620736237,0.0410174798998924,-1016.49569862242,508.217086201284,508.278612421134
0.608950048759346,1026.59932211937,1025.58224597014,-1.01707614923293,-1026.09078404475,513.808199134301,512.282584910451
0.6111171307834,1033.4952196689,1033.43298421752,-0.0622354513859591,-1033.46410194321,516.778727560143,516.685374383065
0.613284212807455,1026.10786674527,1023.03972723244,-3.06813951282413,-1024.57379698886,514.588003129047,509.98579385981
0.615451294831509,1019.55762127513,1019.53909712177,-0.0185241533579301,-1019.54835919845,509.788072714245,509.760286484208
0.617618376855564,1024.5224247262,1025.53710143581,1.01467670961529,-1025.02976308101,511.753874008292,513.275889072715
0.619785458879619,1026.93842920822,1026.97371906149,0.0352898532698873,-1026.95607413486,513.451569677477,513.504504457382
0.621952540903673,1020.22251547408,1018.25709976363,-1.96541571044145,-1019.23980761886,511.093965592259,508.145842026597
0.624119622927728,1018.97529985518,1017.99349425995,-0.981805595233368,-1018.48439705757,509.978552725208,508.505844332358
0.626286704951782,1028.30754473091,1028.28001652225,-0.0275282086561219,-1028.29378062658,514.167536469781,514.126244156797
0.628453786975837,1032.48693975835,1032.43014431225,-0.0567954460989313,-1032.4585420353,516.271867602225,516.186674433077
0.630620868999892,1021.78786707854,1021.73805741029,-0.0498096682542837,-1021.76296224442,510.918838373398,510.844123871017
0.632787951023946,1019.40810779262,1019.39627935913,-0.0118284334968166,-1019.40219357588,509.70996811306,509.692225462815
0.634955033048001,1027.67015013203,1026.70339159537,-0.966758536659427,-1027.1867708637,514.318454334345,512.868316529356
0.637122115072056,1026.9395277093,1025.00234717252,-1.93718053678094,-1025.97093744091,514.438354123042,511.53258331787
0.63928919709611,1017.16903331547,1018.23357453179,1.06454121631486,-1017.70130392363,508.052246049579,509.649057874052
0.641456279120165,1020.88048553733,1019.88637428754,-0.994111249791331,-1020.38342991244,510.937298393563,509.446131518876
0.643623361144219,1033.04702907378,1031.99651252038,-1.05051655339958,-1032.52177079708,517.048772813589,515.47299798349
0.645790443168274,1029.9897309177,1028.92169375643,-1.06803716127092,-1029.45571233706,515.528884039485,513.926828297579
0.647957525192329,1019.39348469474,1019.35354965994,-0.0399350348012604,-1019.37351717734,509.716709864773,509.656807312571
0.650124607216383,1023.44160256418,1022.44428338396,-0.997319180216323,-1022.94294297407,512.219460872199,510.723482101874
0.652291689240438,1027.78553339894,1026.82930071257,-0.956232686377007,-1027.30741705576,514.370883042661,512.936534013095
0.654458771264492,1023.10139061696,1023.1658266482,0.0644360312346635,-1023.13360863258,511.518477292864,511.615131339716
0.656625853288547,1015.56195935322,1015.60048276435,0.0385234111247428,-1015.58122105878,507.761717971049,507.819503087736
0.658792935312602,1025.61289213431,1023.60186592445,-2.0110262098616,-1024.60737902938,513.811959172085,510.795419857293
0.660960017336656,1034.19429248469,1032.14371339393,-2.05057909075981,-1033.16900293931,518.122435787724,515.046567151584
0.663127099360711,1024.60847993694,1026.56634155555,1.9578616186086,-1025.58741074624,511.325309159165,514.262101587078
0.665294181384765,1018.41763180004,1018.38677744311,-0.0308543569326503,-1018.40220462158,509.224243078488,509.177961543089
0.66746126340882,1025.02715455861,1026.0455170262,1.01836246758103,-1025.5363357924,512.004396045517,513.531939746888
0.669628345432875,1028.49979357971,1027.5530078336,-0.94678574611612,-1028.02640070666,514.723289662915,513.303111043741
0.671795427456929,1020.12215110563,1019.18547277489,-0.936678330747213,-1019.65381194026,510.52941471819,509.124397222069
0.673962509480984,1016.59831020945,1016.62746858587,0.0291583764217194,-1016.61288939766,508.284575916514,508.328313481147
0.676129591505038,1028.37054217229,1027.33899267034,-1.03154950194676,-1027.85476742132,514.701045837119,513.153721584199
0.678296673529093,1032.5779175612,1032.50964862121,-0.0682689399882292,-1032.5437830912,516.323093250593,516.220689840611
0.680463755553148,1022.23430303945,1020.17121179241,-2.06309124704228,-1021.20275741593,512.148697143246,509.054060272682
0.682630837577202,1019.00384395047,1018.98990486439,-0.0139390860837239,-1018.99687440743,509.508891518277,509.487982889152
0.684797919601257,1027.39898249782,1023.42689519378,-3.97208730404054,-1025.4129388458,515.68553490093,509.72740394487
0.686965001625311,1024.80524148921,1020.87779132742,-3.92745016179128,-1022.84151640832,514.366345825501,508.475170582814
0.689132083649366,1018.80616394665,1006.89805661999,-11.9081073266598,-1012.85211028332,515.357135636656,497.494974646667
0.691299165673421,1019.1417925738,1007.17076249868,-11.9710300751108,-1013.15627753624,515.556411324453,497.599866211787
0.693466247697475,1031.32742174974,1017.18540024094,-14.1420215087963,-1024.25641099534,522.734721629268,501.521689366073
0.69563332972153,1029.3666729817,1017.22951022631,-12.1371627553858,-1023.29809160401,520.751917868542,502.546173735464
0.697800411745585,1020.61816456491,1008.60597757554,-12.0121869893663,-1014.61207107023,516.315175777138,498.296895293088
0.699967493769639,1022.88480963707,1019.88569258145,-2.99911705561578,-1021.38525110926,512.941963346341,508.443287762918
0.702134575793694,1029.86430980463,1024.8121217936,-5.05218801103342,-1027.33821579912,517.458248907834,509.879966891284
0.704301657817748,1024.10110343725,1011.0651382424,-13.0359651948481,-1017.58312083983,518.568534316049,499.014586523777
0.706468739841803,1013.7482082531,989.809091239128,-23.9391170139755,-1001.77864974612,518.843662633539,482.934987112576
0.708635821865858,1024.67011935871,999.641793322823,-25.0283260358868,-1012.15595634077,524.849222697298,487.306733643468
0.710802903889912,1031.83916488897,1014.66231004841,-17.1768548405581,-1023.25073746869,524.508009864764,498.742727603927
0.712969985913967,1026.15187530871,1014.07050924335,-12.0813660653598,-1020.11119227603,519.116620687033,500.994571588994
0.715137067938021,1020.34640922213,1004.3661798618,-15.9802293603333,-1012.35629454197,518.163319291234,494.192975250734
0.717304149962076,1023.48256848467,1008.45319965818,-15.0293688264875,-1015.96788407143,519.255968655579,496.711915415847
0.719471231986131,1028.96306470961,1011.8867485502,-17.0763161594034,-1020.42490662991,523.019690434506,497.405216195401
0.721638314010185,1020.07572866344,1003.13405958615,-16.9416690772975,-1011.60489412479,518.50869887037,493.096195254424
0.72380539603424,1016.34107111257,988.438052312075,-27.9030188004903,-1002.38956171232,522.122044956528,480.267516755793
0.725972478058295,1028.42244622752,985.299044586415,-43.1234016411056,-1006.86074540697,535.772923934313,471.087821472654
0.728139560082349,1031.5936855489,985.418050477579,-46.1756350713208,-1008.50586801324,538.88466031011,469.621207703129
0.730306642106404,1021.71674730647,974.93300773929,-46.7837395671803,-998.324877522881,534.250243436825,464.074634086055
0.732473724130458,1019.6437999903,970.854974043466,-48.7888259468303,-995.249387016881,534.216312968563,461.033074048318
0.734640806154513,1026.03773372715,993.650409473608,-32.3873242535424,-1009.84407160038,529.212528990347,480.631542610033
0.736807888178568,1027.59527507433,1011.95250329375,-15.6427717805798,-1019.77388918404,521.619023427457,498.154865756587
0.738974970202622,1017.48638123997,1007.04968414013,-10.4366970998348,-1012.26803269005,513.961539169902,498.30649352015
0.741142052226677,1018.48911025602,1006.40550198433,-12.0836082716891,-1012.44730612018,515.286359263855,497.160946856321
0.743309134250731,1029.57804753332,1014.81122702576,-14.7668205075578,-1022.19463727954,522.172434020439,500.022203259103
0.745476216274786,1030.72490356577,1004.20796630145,-26.5169372643206,-1017.46643493361,528.620920415045,488.845514518564
0.747643298298841,1019.90616341122,990.488426639885,-29.4177367713387,-1005.19729502555,524.661950091281,480.535344934273
0.749810380322895,1018.33397893126,991.40387126779,-26.9301076634657,-1004.86892509952,522.632043297361,482.236881802162
0.75197746234695,1027.81870926275,1001.14188025689,-26.6768290058617,-1014.48029475982,527.247769134308,487.232525625516
0.754144544371004,1025.08012115498,997.263317177948,-27.8168039770347,-1011.17171916646,526.448462566009,484.723256600456
0.756311626395059,1018.04904080147,991.677092045906,-26.3719487555634,-1004.86306642369,522.210494778516,482.652571645171
0.758478708419114,1023.77782878519,996.797361328781,-26.9804674564136,-1010.28759505699,525.379148120804,484.908446936184
0.760645790443168,1033.44023498177,1005.72449924582,-27.7157357359474,-1019.5823671138,530.577985358859,489.004381754938
0.762812872467223,1026.6884323432,1002.26789222948,-24.4205401137193,-1014.47816228634,525.554486228457,488.923676057878
0.764979954491278,1016.34694024532,1002.83750044354,-13.5094398017843,-1009.59222034443,514.928190023555,494.664030320878
0.767147036515332,1020.89170278108,1013.72848033248,-7.1632224485985,-1017.31009155678,514.027462614838,503.28262894194
0.769314118539387,1030.28187647848,1018.5310820855,-11.750794392985,-1024.40647928199,521.016335435733,503.390143846256
0.771481200563441,1020.00561138797,1011.23459892913,-8.77101245884239,-1015.62010515855,514.388311923405,501.231793235142
0.773648282587496,1015.17474984974,999.828650681906,-15.3460991678389,-1007.50170026582,515.260424508792,492.241275757033
0.775815364611551,1026.49122895257,1002.68324652548,-23.8079824270976,-1014.58723773903,525.149605689836,489.43763204919
0.777982446635605,1031.58746443246,1003.22486674755,-28.3625976849114,-1017.40616559001,529.975031058687,487.43113453132
0.78014952865966,1025.26796688424,999.165138176349,-26.1028287078893,-1012.21655253029,525.685397796064,486.53115473423
0.782316610683714,1018.33585027416,1000.78679536897,-17.5490549051823,-1009.56132282156,517.942452589669,491.618870231896
0.784483692707769,1027.59378808181,1009.05952061357,-18.5342674682395,-1018.32665434769,523.064027775026,495.262626572667
0.786650774731824,1029.27804492611,1011.14514041705,-18.1329045090564,-1020.21159267158,523.705474717581,496.506117953997
0.788817856755878,1020.22584791625,1005.32790115135,-14.8979467648963,-1012.7768745338,517.561897340573,495.214977193228
0.790984938779933,1017.91813017446,1010.69178632524,-7.22634384922731,-1014.30495824985,512.572237011846,501.732721238005
0.793152020803988,1028.81432307889,1020.27754450592,-8.53677857297646,-1024.5459337924,518.675550825935,505.87038296647
0.795319102828042,1029.07405602106,1029.97431322697,0.900257205906883,-1029.52418462401,514.086899407576,515.437285216436
0.797486184852097,1019.30917784781,1020.04702945884,0.737851611026258,-1019.67810365332,509.285663118392,510.392440534932
0.799653266876151,1019.81020316032,1019.92785332374,0.117650163426561,-1019.86902824203,509.846276498444,510.022751743584
0.801820348900206,1026.62629335067,1028.05445199253,1.42815864186059,-1027.3403726716,512.599067354406,514.741305317197
0.803987430924261,1024.94324524524,1020.03381213253,-4.90943311270917,-1022.48852868889,514.926339178976,507.562189509913
0.806154512948315,1016.40698245521,1003.77552578708,-12.6314566681307,-1010.09125412115,514.519219561672,495.572034559476
0.80832159497237,1019.93930836881,1004.93590068218,-15.0034076866292,-1012.4376045255,517.471358027721,494.966246497777
0.810488676996424,1030.99031126475,1017.54892082291,-13.4413904418409,-1024.26961604383,522.215850853297,502.053765190535
0.812655759020479,1027.26378807342,1012.1292760579,-15.1345120155283,-1019.69653206566,521.199150044476,498.497382021184
0.814822841044534,1020.45073063998,999.10276840086,-21.3479622391208,-1009.77674952042,520.899346439551,488.87740308087
0.816989923068588,1022.2783578561,1001.13797730169,-21.1403805544085,-1011.70816757889,521.709369205252,489.998798373639
0.819157005092643,1028.48232370602,1014.57129068644,-13.9110330195797,-1021.52680719623,521.196678362799,500.330128833429
0.821324087116697,1023.95810481456,1007.95860782592,-15.9994969886313,-1015.95835632024,519.978800901593,495.979555418646
0.823491169140752,1015.10375781416,1004.64075520157,-10.4630026125869,-1009.87225650786,512.783380213372,497.088876294491
0.825658251164807,1024.5756246009,1015.77291008468,-8.80271451622775,-1020.17426734279,516.689169558565,503.485097784224
0.827825333188861,1031.53431051084,1027.25592945912,-4.278381051716,-1029.39511998498,517.906345781278,511.488774203704
0.829992415212916,1024.87190086676,1015.69273494102,-9.17916592574522,-1020.28231790389,517.025533396254,503.256784507636
0.83215949723697,1018.11410794039,1008.52077373234,-9.59333420804955,-1013.31744083637,513.85372107422,499.463719762146
0.834326579261025,1026.05953404037,1009.69716531853,-16.3623687218401,-1017.87834967945,521.210951381105,496.667398298345
0.83649366128508,1027.82379617972,1013.95909531524,-13.8647008644737,-1020.89144574748,520.844248522096,500.047197225385
0.838660743309134,1019.00616637739,1012.27963980065,-6.72652657674382,-1015.64290308902,512.866346477068,502.776556611952
0.840827825333189,1018.44501221295,1018.21451266496,-0.23049954798887,-1018.32976243895,509.337755880468,508.992006558485
0.842994907357243,1029.00827275433,1028.36374582675,-0.644526927579591,-1028.68600929054,514.826399840956,513.859609449586
0.845161989381298,1031.35077540302,1032.07064260222,0.719867199204145,-1031.71070900262,515.315454101908,516.395254900714
0.847329071405353,1019.72405626395,1021.34660902427,1.62255276032147,-1020.53533264411,509.050751751813,511.484580892295
0.849496153429407,1020.31112092444,1013.4476030877,-6.86351783674047,-1016.87936200607,513.587319380589,503.292042625479
0.851663235453462,1027.37871040508,1018.94697063877,-8.43173976631078,-1023.16284052192,517.905225085694,505.257615436228
0.853830317477517,1025.80456560756,1017.12371798338,-8.68084762417459,-1021.46414179547,517.242706615865,504.221435179603
0.855997399501571,1018.8881093418,1012.42523661366,-6.46287272813504,-1015.65667297773,512.675491034965,502.981181942763
0.858164481525626,1021.16099558004,1017.12598261608,-4.03501296395677,-1019.14348909806,512.598004271998,506.545484826062
0.86033156354968,1030.4666169455,1028.8413740916,-1.62524285389873,-1029.65399551855,516.045929899698,513.60806561885
0.862498645573735,1027.78984044518,1028.34880005295,0.558959607774341,-1028.06932024907,513.615440418702,514.453879830364
0.86466572759779,1019.61136152909,1018.99031220393,-0.621049325168428,-1019.30083686651,510.116205427132,509.184631439379
0.866832809621844,1021.6553791208,1013.62047555649,-8.03490356431257,-1017.63792733865,514.845141342558,502.792785996089
0.868999891645899,1027.57459582215,1017.14882941806,-10.4257664040954,-1022.36171262011,519.000181113125,503.361531506981
0.871166973669953,1024.89846934136,996.429935600386,-28.4685337409737,-1010.66420247087,526.683501541167,483.980700929706
0.873334055694008,1016.14998456774,991.038448198121,-25.1115363696155,-1003.59421638293,520.630760468676,482.963455914253
0.875501137718063,1022.67148726806,1006.67942786044,-15.9920594076149,-1014.67545756425,519.331773337835,495.343684226413
0.877668219742117,1033.39278193359,1030.45386226167,-2.93891967191644,-1031.92332209763,518.165850802753,513.757471294879
0.879835301766172,1025.46290150956,1026.55697020189,1.09406869233248,-1026.00993585572,512.184416408613,513.825519447112
0.882002383790226,1018.9436249142,1017.9852493851,-0.958375529098589,-1018.46443714965,509.951000221651,508.513436928003
0.884169465814281,1025.48941379338,1025.46115451855,-0.0282592748249044,-1025.47528415597,512.758836534102,512.716447621865
0.886336547838336,1030.31173066896,1030.22928536345,-0.0824453055099639,-1030.2705080162,515.197087987235,515.07342002897
0.88850362986239,1020.83688297921,1019.7529521457,-1.08393083351734,-1020.29491756246,510.960406906366,509.33451065609
0.890670711886445,1019.0623112059,1003.03288440507,-16.0294268008261,-1011.04759780548,517.545869003362,493.501728802123
0.8928377939105,1028.18515312577,1019.19432527745,-8.99082784832626,-1023.68973920161,518.58799048705,505.101748714561
0.895004875934554,1030.59380609337,1029.65079230581,-0.943013787557675,-1030.12229919959,515.768409940463,514.353889259127
0.897171957958609,1019.23997847501,1022.30025213876,3.06027366374838,-1020.77011530689,508.089852405632,512.680262901254
0.899339039982663,1020.86742869425,1017.8778031923,-2.98962550194483,-1019.37261594327,511.928527098095,507.444088845178
0.901506122006718,1028.00436414524,1027.97777563886,-0.0265885063711266,-1027.99106989205,514.015476325803,513.975593566247
0.903673204030773,1027.5396191033,1028.4911709048,0.951551801505275,-1028.01539500405,513.294033650896,514.721361353153
0.905840286054827,1016.39767641121,1018.35031797822,1.95264156701205,-1017.37399719471,507.222517422097,510.151479772615
0.908007368078882,1020.44714971007,1020.43802787636,-0.00912183371656283,-1020.44258879321,510.228135771894,510.21445302132
0.910174450102936,1029.90386600427,1029.95146220541,0.0475962011414595,-1029.92766410484,514.928134901565,514.999529203277
0.912341532126991,1029.31801392878,1029.39198328751,0.0739693587299826,-1029.35499860814,514.622022285024,514.732976323119
0.914508614151046,1018.86067201116,1018.91398809624,0.0533160850786771,-1018.8873300537,509.403677963039,509.483652090657
0.9166756961751,1021.03522570272,1021.03497729064,-0.000248412079258742,-1021.03510149668,510.517737057398,510.517364439279
0.918842778199155,1028.54327536574,1028.48990083483,-0.0533745309121514,-1028.51658810029,514.298324948327,514.218263151959
0.92100986022321,1023.78449713949,1023.71207249405,-0.0724246454357171,-1023.74828481677,511.928460892461,511.819823924307
0.923176942247264,1016.28963656728,1017.24404441431,0.954407847028961,-1016.76684049079,507.667614360125,509.099226130669
0.925344024271319,1024.79410280898,1023.80417997706,-0.98992283191717,-1024.29914139302,512.892012820448,511.407128572572
0.927511106295373,1033.18138365748,1031.24565056683,-1.93573309064732,-1032.21351711216,517.558558374064,514.654958738093
0.929678188319428,1027.08569571567,1025.17884250037,-1.90685321529895,-1026.13226910802,514.496274465483,511.635994642534
0.931845270343483,1019.85169772379,1018.91214658822,-0.939551135564329,-1019.38192215601,510.395624429676,508.98629772633
0.934012352367537,1022.87213498472,1022.84210077326,-0.0300342114626346,-1022.85711787899,511.451084598092,511.406033280898
0.936179434391592,1030.69101620294,1030.58686197266,-0.104154230280983,-1030.6389390878,515.397585216612,515.24135387119
0.938346516415646,1020.71301566821,1020.60132636058,-0.111689307628126,-1020.6571710144,510.412352487921,510.244818526478
0.940513598439701,1017.79117263274,1017.74208175781,-0.0490908749277423,-1017.76662719528,508.920131753834,508.846495441443
0.942680680463756,1026.32699501509,1026.37040142348,0.0434064083906378,-1026.34869821928,513.141794303348,513.206903915933
0.94484776248781,1030.73858647032,1030.84685696161,0.108270491284884,-1030.79272171597,515.315157989519,515.477563726447
0.947014844511865,1019.76498724702,1021.86893862782,2.10395138080708,-1020.81696293742,508.830517933104,511.986445004315
0.949181926535919,1020.46392719318,1016.49312895986,-3.97079823331387,-1018.47852807652,512.217362713246,506.261165363275
0.951349008559974,1028.57648989628,1020.52377709566,-8.05271280062141,-1024.55013349597,518.314601348453,506.235532147521
0.953516090584029,1027.25126246514,1018.18428251891,-9.06697994622675,-1022.71777249202,518.159121205681,504.558651286341
0.955683172608083,1019.03892993578,1003.05483296342,-15.984096972354,-1011.0468814496,517.511513454066,493.535367995535
0.957850254632138,1020.81020550059,1001.83797581424,-18.9722296863495,-1011.32409065741,519.891217593469,491.432873063945
0.960017336656192,1030.26706748973,1009.15575384075,-21.1113136489832,-1019.71141066524,525.689190569357,494.022220095882
0.962184418680247,1028.77422735457,1019.71217821299,-9.0620491415732,-1024.24320278378,518.91813824807,505.325064535711
0.964351500704302,1019.17243770709,1017.19349787554,-1.97893983154631,-1018.18296779132,510.575688769318,507.607279021998
0.966518582728356,1021.43122264602,1021.43360241839,0.00237977237861742,-1021.4324125322,510.714421436818,510.717991095386
0.968685664752411,1030.4241708385,1028.3947536997,-2.02941713879045,-1029.4094622691,516.226793988643,513.182668280457
0.970852746776465,1024.65610723807,1019.62745696066,-5.02865027741473,-1022.14178209937,514.842378757744,507.299403341622
0.97301982880052,1015.52481546569,997.53950673169,-17.9853087339956,-1006.53216109869,516.755062099841,489.777098998847
0.975186910824575,1022.94950833561,987.939386251355,-35.0101220842574,-1005.44444729348,528.979815209935,476.464632083549
0.977353992848629,1030.89951495043,996.807143211982,-34.0923717384503,-1013.85332908121,532.495943344441,481.357385736766
0.979521074872684,1026.72939855528,988.873355305395,-37.8560432498865,-1007.80137693034,532.292720902584,475.508656027754
0.981688156896739,1018.85921333303,986.161697886737,-32.6975154462882,-1002.51045560988,525.778364389657,476.732091220224
0.983855238920793,1023.21400279373,1001.07511342779,-22.1388893659411,-1012.14455811076,522.676446079834,489.468112030922
0.986022320944848,1030.91541331926,1002.34908851827,-28.5663248009898,-1016.63225091877,529.740869060126,486.891381858641
0.988189402968902,1020.55555416112,990.145090133557,-30.4104640275624,-1005.35032214734,525.483009094341,479.867313052997
0.990356484992957,1017.59670239339,990.534674497849,-27.0620278955428,-1004.06568844562,522.329365144467,481.736323301153
0.992523567017012,1025.47999458944,1011.48080058866,-13.9991940007748,-1018.48039758905,519.739594295106,498.740803293944
0.994690649041066,1032.86493107058,1020.9076189589,-11.9573121116838,-1026.88627501474,522.411121591131,504.475153423606
0.996857731065121,1024.36339945375,1017.50756645861,-6.8558329951469,-1020.93548295618,515.609616224451,505.32586673173
0.999024813089175,1018.11845402585,1018.19721465514,0.0787606292890359,-1018.15783434049,509.019846698281,509.137987642214
1.00119189511323,1028.07193086007,1024.97686781792,-3.0950630421471,-1026.52439933899,515.583496951106,510.940902387886
1.00335897713728,1027.87933632017,1022.68337433754,-5.19596198263196,-1025.28135532885,516.537649151401,508.743706177453
1.00552605916134,1018.7384497011,1013.60262884842,-5.13582085268263,-1016.17053927476,511.937135276893,504.233403997869
1.00769314118539,1019.25770202264,1010.23115243087,-9.02654959176323,-1014.74442722675,514.1421258072,500.602301419555
1.00986022320945,1030.57184754969,1011.62057133943,-18.9512762102657,-1021.09620944456,524.761561879979,496.33464756458
1.0120273052335,1029.16824018377,1002.35785875706,-26.8103814267074,-1015.76304947041,527.989310805238,487.773738665176
1.01419438725756,1021.53159895863,987.898113335399,-33.6334856232303,-1004.71485614701,527.58254229093,477.132313856084
1.01636146928161,1021.84850325313,988.931913114266,-32.91659013886,-1005.3902081837,527.382546695993,478.007661487703
1.01852855130567,1030.23375680848,1000.74023947254,-29.4935173359482,-1015.48699814051,529.863637072217,485.623361068294
1.02069563332972,1026.5451603082,999.972030398624,-26.5731299095754,-1013.25859535341,526.559145108887,486.699450244524
1.02286271535378,1017.88811431221,997.66555904405,-20.2225552681637,-1007.77683667813,519.055334790189,488.721501887943
1.02502979737783,1021.14651099972,1005.14833813261,-15.9981728671044,-1013.14742456616,518.57234193341,494.575082632753
1.02719687940189,1031.52434666156,1007.64550223907,-23.8788444224845,-1019.58492445032,527.701595542021,491.883328908294
1.02936396142594,1027.31391498955,990.653346800102,-36.6605681894511,-1008.98363089483,531.987241589502,476.996389305326
1.03153104344999,1018.91091122129,972.354513587863,-46.5563976334266,-995.632712404576,532.733654427358,462.899057977218
1.03369812547405,1021.55166348449,987.414777677119,-34.1368858073745,-1004.48322058081,527.844274645934,476.638945934872
1.0358652074981,1029.0933824591,1012.31676685176,-16.7766156073333,-1020.70507465543,522.934999033215,497.770075622216
1.03803228952216,1022.48996775782,1021.69150900256,-0.798458755265074,-1022.09073838019,511.644213256545,510.446525123647
1.04019937154621,1018.5346991723,1017.1107285875,-1.4239705847956,-1017.8227138799,509.979334878547,507.843379001353
1.04236645357027,1024.61168067012,1023.82016236195,-0.791518308171931,-1024.21592151604,512.701599489149,511.514322026891
1.04453353559432,1030.86315135064,1032.57039608663,1.70724473598352,-1031.71677371863,514.57795330733,517.138820411305
1.04670061761838,1023.97263138318,1025.71746920639,1.74483782321147,-1024.84505029478,511.113896779982,513.731153514799
1.04886769964243,1018.84752645675,1018.1663144439,-0.681212012850096,-1018.50692045033,509.7643692348,508.742551215525
1.05103478166649,1027.49972188125,1024.2058381659,-3.29388371534537,-1025.85278002358,515.396802798297,510.455977225279
1.05320186369054,1028.40663985659,1027.69610343064,-0.710536425943474,-1028.05137164361,514.558588141265,513.492783502349
1.0553689457146,1019.48408684618,1018.80654801889,-0.677538827288913,-1019.14531743253,510.080812836734,509.064504595801
1.05753602773865,1018.78714221278,1018.5658161967,-0.221326016083822,-1018.67647920474,509.504234114434,509.172245090308
1.0597031097627,1028.84726898276,1030.21604239582,1.3687734130599,-1029.53165568929,513.73924778485,515.792407904439
1.06187019178676,1028.54151433928,1031.260879018,2.71936467872752,-1029.90119667864,512.911074830274,516.990121848365
1.06403727381081,1020.9885803914,1022.58574263731,1.59716224591193,-1021.78716151436,509.695709072744,512.091452441612
1.06620435583487,1019.30901925447,1019.4304614891,0.121442234626329,-1019.36974037178,509.593788509921,509.775951861861
1.06837143785892,1028.90393023956,1028.48431395946,-0.419616280104265,-1028.69412209951,514.661773259834,514.032348839678
1.07053851988298,1027.31939382926,1027.62608912941,0.306695300149386,-1027.47274147933,513.506349264555,513.966392214779
1.07270560190703,1017.30316425432,1018.76991226714,1.46674801282279,-1018.03653826073,507.918208120748,510.118330139982
1.07487268393109,1020.3954780568,1020.36132593087,-0.0341521259322235,-1020.37840199384,510.214815091368,510.16358690247
1.07703976595514,1031.10234026219,1027.59732707892,-3.50501318327542,-1029.34983367056,517.303676722735,512.046156947822
1.0792068479792,1025.9184512485,1021.65454416057,-4.26390708792803,-1023.78649770454,515.091179168214,508.695318536322
1.08137393000325,1018.07858711139,1005.60296934858,-12.4756177628087,-1011.84077822999,515.277102437099,496.563675792886
1.08354101202731,1022.87549434801,999.808011240362,-23.0674831076504,-1011.34175279419,522.971488727831,488.370264066356
1.08570809405136,1030.11096398681,1017.45172786953,-12.6592361172798,-1023.78134592817,521.385100052046,502.396245876127
1.08787517607541,1023.33145392081,1018.59292298934,-4.73853093146465,-1020.96218845507,514.034992426136,506.927196028939
1.09004225809947,1018.53008704052,1017.12824684307,-1.40184019745425,-1017.8291669418,509.965963618989,507.863203322808
1.09220934012352,1023.76923951248,1024.90962434127,1.14038482879084,-1024.33943192687,511.314427341842,513.025004585029
1.09437642214758,1030.85210000713,1031.43950019154,0.587400184412445,-1031.14580009934,515.132349911359,516.013450187978
1.09654350417163,1023.66039734534,1024.31972370902,0.659326363681316,-1023.99006052718,511.50053549083,512.489525036352
1.09871058619569,1018.67684236835,1015.993274239,-2.68356812935315,-1017.33505830367,510.680205248851,506.654853054821
1.10087766821974,1024.85693693671,1024.63282232113,-0.224114615583176,-1024.74487962892,512.540525776148,512.204353852773
1.1030447502438,1029.79005847867,1024.16165061799,-5.62840786067159,-1026.97585454833,517.709233169669,509.266621378661
1.10521183226785,1021.21733424778,1002.62839783882,-18.5889364089579,-1011.9228660433,519.903135328369,492.019730714932
1.10737891429191,1017.38143421776,993.2173007024,-24.1641335153588,-1005.29936746008,520.772783866559,484.526583593521
1.10954599631596,1028.11760409565,1004.28581594969,-23.8317881459622,-1016.20171002267,525.974696120808,490.227013901865
1.11171307834002,1031.91407757271,1010.37911361918,-21.5349639535367,-1021.14659559594,526.724520763125,494.42207483282
1.11388016036407,1020.52528159525,1009.12589780264,-11.399383792604,-1014.82558969895,515.962332693926,498.86325700502
1.11604724238812,1017.8243980645,1016.00746607312,-1.81693199137737,-1016.91593206881,509.820665027938,507.095267040872
1.11821432441218,1027.47710900678,1024.03895250334,-3.43815650343799,-1025.75803075506,515.45763275511,510.300397999953
1.12038140643623,1027.0083923228,1017.2432407988,-9.76515152399384,-1022.1258165608,518.386771923396,503.739044637405
1.12254848846029,1019.78771148675,998.244854266034,-21.542857220716,-1009.01628287639,520.665284353733,488.350998522659
1.12471557048434,1021.69817952402,997.643789533411,-24.054389990612,-1009.67098452872,522.876284757318,486.7946997714
1.1268826525084,1029.63909379434,1011.95348975435,-17.685604039987,-1020.79629177435,523.662348917164,497.133942857183
1.12904973453245,1027.54159143042,1007.13872655408,-20.4028648763444,-1017.34015899225,523.972228153384,493.367930838867
1.13121681655651,1018.33866633664,1000.91249090105,-17.4261754355973,-1009.62557861884,517.88242088612,491.743157732724
1.13338389858056,1021.2098239262,1004.19216726945,-17.0176566567508,-1012.70099559783,519.113740291477,493.587255306351
1.13555098060462,1029.0231931832,1008.33829526361,-20.6848979195966,-1018.6807442234,524.854045551399,493.826698672004
1.13771806262867,1025.16710177923,989.400124674943,-35.7669771042836,-1007.28361322708,530.467039441755,476.81657378533
1.13988514465273,1018.61982417898,969.362762466241,-49.2570617127398,-993.991293322611,533.93844294586,460.052850376751
1.14205222667678,1021.93763231528,972.953073928306,-48.9845583869745,-997.445353121793,535.461095351128,461.984257770666
1.14421930870083,1031.7620957234,992.907787919545,-38.8543078038548,-1012.33494182147,535.308201763627,477.026740057845
1.14638639072489,1024.35727157273,1001.84289020455,-22.5143813681796,-1013.10008088864,523.435826470454,489.664254418185
1.14855347274894,1019.58170552486,1016.95342371912,-2.62828180573956,-1018.26756462199,511.104993665301,507.162570956691
1.150720554773,1024.18722322386,1023.99128154082,-0.195941683039678,-1024.08925238234,512.19158245345,511.897669928891
1.15288763679705,1029.08961859114,1027.44307696273,-1.64654162841362,-1028.26634777693,515.368080109777,512.898267667157
1.15505471882111,1021.01234835136,1019.33689835884,-1.67544999251902,-1020.1746233551,511.343899171938,508.83072418316
1.15722180084516,1018.08165386103,1016.79710879909,-1.28454506194362,-1017.43938133006,509.683099461486,507.756281868571
1.15938888286922,1028.33705764616,1026.60603250812,-1.73102513803747,-1027.47154507714,515.034041392099,512.437503685042
1.16155596489327,1030.17429335111,1024.83118993742,-5.34310341368973,-1027.50274164426,517.758698382399,509.744043261864
1.16372304691733,1021.11771003248,1012.79019193033,-8.32751810215541,-1016.95395098141,514.722614067319,502.231336914086
1.16589012894138,1017.39886797451,1011.63708684589,-5.76178112862181,-1014.5179774102,511.580324551568,502.937652858636
1.16805721096544,1025.98119545959,1024.55968945779,-1.42150600180344,-1025.27044245869,513.701350730697,511.569091727992
1.17022429298949,1026.63520528162,1026.82213124192,0.186925960304279,-1026.72866826177,513.224139660657,513.504528601114
1.17239137501354,1020.35054352049,1017.65398360053,-2.69655991995694,-1019.00226356051,511.523551720224,507.478711840288
1.1745584570376,1020.06534822284,1019.93041669351,-0.134931529334153,-1019.99788245818,510.100139876089,509.897742582088
1.17672553906165,1029.0946639477,1029.58770101948,0.493037071776826,-1029.34118248359,514.300813437962,515.040369045627
1.17889262108571,1030.09628981213,1028.90311604891,-1.19317376322124,-1029.49970293052,515.644731787677,513.854971142846
1.18105970310976,1020.64763463172,1020.26981464259,-0.377819989139084,-1020.45872463716,510.512727310432,509.945997326723
1.18322678513382,1020.56519998923,1022.59836461491,2.03316462568091,-1021.58178230207,509.266017681776,512.315764620298
1.18539386715787,1028.87741632065,1028.29904735356,-0.578368967085225,-1028.5882318371,514.727892643866,513.860339193238
1.18756094918193,1025.02382628443,1026.20303820066,1.17921191623077,-1025.61343224254,511.922307184097,513.691125058444
1.18972803120598,1016.84637551588,1018.29048434649,1.44410883060311,-1017.56842993119,507.701133342641,509.867296588546
1.19189511323004,1023.11907629246,1021.19153894941,-1.92753734304517,-1022.15530762093,512.52330681775,509.632000803182
1.19406219525409,1030.52508194941,1032.18790105503,1.66281910562657,-1031.35649150222,514.43113142189,516.925360080329
1.19622927727815,1024.99300890349,1026.81480208149,1.82179317800478,-1025.90390549249,511.585607862741,514.318297629748
1.1983963593022,1015.53387920165,1015.99599797713,0.462118775485578,-1015.76493858939,507.535880213082,508.22905837631
1.20056344132625,1025.502486384,1023.33164062169,-2.17084576231639,-1024.41706350285,513.83666607316,510.580397429686
1.20273052335031,1029.31989543808,1028.62932673972,-0.690568698363904,-1028.9746110889,515.005232068222,513.969379020676
1.20489760537436,1022.85382301915,1021.0841027932,-1.76972022594975,-1021.96896290617,512.311771622548,509.657191283624
1.20706468739842,1016.87836531868,1017.51805631527,0.639690996585955,-1017.19821081698,508.119337161049,509.078873655928
1.20923176942247,1025.53056638012,1027.79166303386,2.26109665374361,-1026.66111470699,511.634734863188,515.026379843804
1.21139885144653,1031.35929919695,1032.07149480825,0.712195611303969,-1031.7153970026,515.323551792823,516.391845209779
1.21356593347058,1021.72741160154,1021.43771355012,-0.289698051417759,-1021.58256257583,511.008554826478,510.574007749352
1.21573301549464,1020.03062404189,1020.29761928586,0.266995243969291,-1020.16412166388,509.881814398962,510.282307264916
1.21790009751869,1026.4391094154,1026.09224709372,-0.346862321677918,-1026.26567825456,513.39298586854,512.872692386023
1.22006717954275,1028.21509886239,1027.47510391152,-0.739994950866958,-1027.84510138695,514.477546906626,513.367554480326
1.2222342615668,1017.98803387179,1018.32737179857,0.33933792677783,-1018.15770283518,508.824347972508,509.333354862675
1.22440134359085,1017.51110873199,1016.33929041333,-1.17181831865207,-1016.92519957266,509.341463525319,507.583736047341
1.22656842561491,1030.46903575664,1026.89557153625,-3.57346422038495,-1028.68230364644,517.021249988511,511.661053657934
1.22873550763896,1026.55413888166,1028.32889755196,1.7747586702942,-1027.44151821681,512.389690105685,515.051828111126
1.23090258966302,1021.03619290777,1018.64519896966,-2.3909939381125,-1019.84069593872,511.713593422943,508.127102515775
1.23306967168707,1019.95049037257,1022.02854462518,2.07805425260733,-1020.98951749888,508.936218059982,512.053299438893
1.23523675371113,1028.61990996723,1026.10405490962,-2.51585505760931,-1027.36198243843,515.567882512422,511.794099926008
1.23740383573518,1027.8212580763,1025.05380439148,-2.76745368482398,-1026.43753123389,515.294355880564,511.143175353328
1.23957091775924,1018.13038189547,1018.60446497493,0.474083079458978,-1018.3674234352,508.828149408007,509.539274027196
1.24173799978329,1022.34094663074,1021.3609429542,-0.980003676541514,-1021.85094479247,511.660475153642,510.190469638829
1.24390508180735,1030.26922841241,1031.8251071222,1.55587870979411,-1031.04716776731,514.356674851307,516.690492915999
1.2460721638314,1024.68762481911,1027.41696614289,2.72934132377645,-1026.052295481,510.979141747667,515.073153733332
1.24823924585546,1019.61223278752,1019.04666399746,-0.565568790057,-1019.32944839249,510.088900788789,509.240547603704
1.25040632787951,1022.79752187224,1022.68939969312,-0.108122179128145,-1022.74346078268,511.452822025686,511.290638756994
1.25257340990356,1028.4311691336,1029.84672244091,1.41555330730989,-1029.13894578726,513.507807913147,515.631137874112
1.25474049192762,1023.69522192181,1022.99188404423,-0.703337877585909,-1023.34355298302,512.199279899699,511.14427308332
1.25690757395167,1018.76960068479,1016.40442317618,-2.36517750861458,-1017.58701193049,510.567389096704,507.019622833782
1.25907465597573,1025.71806575015,1025.91147488091,0.193409130758027,-1025.81477031553,512.762328309697,513.052442005834
1.26124173799978,1030.47343764933,1031.09669181015,0.623254160819442,-1030.78506472974,514.925091744255,515.859972985485
1.26340882002384,1023.39611861805,1023.0507858783,-0.345332739745686,-1023.22345224817,511.870725678896,511.352726569277
1.26557590204789,1018.73955289097,1019.01868277564,0.279129884663121,-1018.87911783331,509.230211503156,509.648906330151
1.26774298407195,1025.8270038023,1025.55180475466,-0.275199047641536,-1025.68940427848,513.051101424973,512.63830285351
1.269910066096,1027.68932080603,1027.03494743112,-0.654373374910165,-1027.36213411858,514.171847090472,513.190287028106
1.27207714812006,1020.67902059174,1018.06352884979,-2.61549174194704,-1019.37127472076,511.647256166842,507.724018553921
1.27424423014411,1020.02451985966,1019.83714319508,-0.187376664581848,-1019.93083152737,510.105948262121,509.824883265248
1.27641131216817,1027.82474004007,1028.16265761818,0.337917578110364,-1027.99369882913,513.74341123098,514.250287598146
1.27857839419222,1030.03702667293,1030.68514686871,0.648120195774027,-1030.36108677082,514.69445323858,515.666633532241
1.28074547621627,1020.50183212278,1022.046738588,1.54490646521629,-1021.27428535539,509.478462828782,511.795822526606
1.28291255824033,1021.37937714783,1019.48130771687,-1.89806943095539,-1020.43034243235,511.638723289392,508.791619142959
1.28507964026438,1029.26388722046,1028.86726827939,-0.396618941064844,-1029.06557774992,514.83025308076,514.235324669163
1.28724672228844,1028.55035337035,1026.90744652501,-1.6429068453424,-1027.72889994768,515.096630107845,512.632269839832
1.28941380431249,1017.49898100441,1017.02634126825,-0.472639736157248,-1017.26266113633,508.985810370282,508.276850766046
1.29158088633655,1021.60222492926,1021.58198635697,-0.0202385722932377,-1021.59210564311,510.811231750776,510.780873892336
1.2937479683606,1029.92592416001,1030.36819093582,0.442266775811959,-1030.14705754792,514.741828692099,515.405228855817
1.29591505038466,1025.35320506178,1026.9757239122,1.62251885041496,-1026.16446448699,511.865343105685,514.299121381307
1.29808213240871,1017.76259222407,1019.16394789783,1.40135567375921,-1018.46327006095,508.180618275158,510.282651785796
1.30024921443277,1021.09076558188,1022.03472846984,0.943962887959401,-1021.56274702586,510.073401346959,511.489345678898
1.30241629645682,1031.42928299971,1028.95665526763,-2.47262773208058,-1030.19296913367,516.950955365897,513.242013767776
1.30458337848088,1024.48900006573,1023.91745117916,-0.571548886574419,-1024.20322562245,512.530274476154,511.672951146292
1.30675046050493,1017.72998897611,1017.40798075212,-0.322008223985449,-1017.56898486412,509.025998600047,508.542986264069
1.30891754252898,1023.90946375955,1024.03425566558,0.124791906030737,-1023.97185971256,511.892335926759,512.079523785805
1.31108462455304,1031.54048896695,1031.03206902105,-0.508419945903142,-1031.286278994,516.024454456427,515.261824537573
1.31325170657709,1024.11165755101,1025.66403522369,1.55237767268795,-1024.88784638735,511.279639939159,513.608206448191
1.31541878860115,1019.54001553737,1017.79404159182,-1.74597394554723,-1018.66702856459,510.642994741457,508.024033823136
1.3175858706252,1025.16212604001,1024.96909815201,-0.193027887998824,-1025.06561209601,512.677576964005,512.388035132007
1.31975295264926,1030.05511986379,1029.53387919242,-0.52124067136856,-1029.7944995281,515.288180267578,514.506319260525
1.32192003467331,1020.3715370702,1019.8552236786,-0.516313391600079,-1020.1133803744,510.443925230898,509.669455143498
1.32408711669737,1017.61102504808,1018.42270529129,0.811680243203682,-1018.01686516968,508.399672402439,509.617192767245
1.32625419872142,1028.13783458546,1028.39326664379,0.255432058328779,-1028.26555061463,513.941201263566,514.324349351059
1.32842128074548,1031.45075556323,1029.98853392446,-1.46222163877155,-1030.71964474384,516.456488601,514.263156142842
1.33058836276953,1020.04203783622,1018.53536070148,-1.50667713473842,-1019.28869926885,510.77435748548,508.514341783372
1.33275544479359,1017.86361800428,1020.99043470022,3.12681669593894,-1019.42702635225,507.368400654169,512.058625698078
1.33492252681764,1029.81443474096,1020.48738042566,-9.32705431529735,-1025.15090758331,519.570744528128,505.580163055182
1.33708960884169,1028.20208262594,1018.68100105625,-9.52108156968893,-1023.44154184109,518.861582097813,504.579959743279
1.33925669086575,1016.93851038047,1006.59680150911,-10.341708871356,-1011.76765594479,513.640109625913,498.127546318879
1.3414237728898,1019.91168938823,1009.87952489188,-10.0321644963517,-1014.89560714005,514.971926942291,499.923680197763
1.34359085491386,1030.51481256449,1023.7420914113,-6.77272115319215,-1027.1284519879,518.643766858843,508.484685129055
1.34575793693791,1025.99517976713,1023.38253422824,-2.61264553888986,-1024.68885699769,514.303912653011,510.384944344676
1.34792501896197,1019.99849005395,1011.2900460456,-8.70844400835142,-1015.64426804977,514.35346703115,501.290801018623
1.35009210098602,1022.39740688807,1007.38091723507,-15.0164896529961,-1014.88916206157,518.706948270531,496.182213791037
1.35225918301008,1030.34634345457,1016.99286946303,-13.3534739915408,-1023.6696064588,521.849908723058,501.819697735747
1.35442626503413,1026.32474971039,1011.95719014675,-14.3675595636477,-1019.14096992857,520.346154637021,498.794815291549
1.35659334705819,1016.80777633633,1002.66972786714,-14.1380484691913,-1009.73875210173,515.472912402759,494.265839698972
1.35876042908224,1023.09615658278,1001.11861820408,-21.9775383786938,-1012.10738739343,522.536847480736,489.570539912695
1.3609275111063,1030.48379901855,998.629222356965,-31.8545766615888,-1014.55651068776,531.169187840071,483.387322847688
1.36309459313035,1023.81611987968,991.244658008762,-32.5714618709156,-1007.53038894422,528.193790875296,479.336598068923
1.3652616751544,1018.41595189498,993.798475305027,-24.6174765899511,-1006.1072136,521.516714242465,484.590499357538
1.36742875717846,1024.46815448944,1008.21837382274,-16.2497806667093,-1016.34326415609,520.358967578077,495.984296578013
1.36959583920251,1029.33848873268,1015.59233227739,-13.7461564552909,-1022.46541050504,521.542322593987,500.923087911051
1.37176292122657,1022.13410006557,1007.46475457498,-14.6693454905882,-1014.79942732027,518.401722778078,496.397704542196
1.37393000325062,1017.28773697584,996.062078547147,-21.2256584286981,-1006.6749077615,519.256697702272,487.418210059224
1.37609708527468,1028.40574292112,994.603304032443,-33.8024388886774,-1011.50452347678,531.104090904899,480.400432571883
1.37826416729873,1030.78318385903,989.374637385713,-41.4085464733145,-1010.07891062237,536.095865166171,473.983045456199
1.38043124932279,1021.6448959608,977.549180055234,-44.095715905568,-999.597038008018,532.870305933185,466.726732074833
1.38259833134684,1020.40751206506,978.793106406104,-41.6144056589599,-999.600309235583,531.010958862012,468.589350373572
1.3847654133709,1026.306353714,994.523275694923,-31.7830780190775,-1010.41481470446,529.044715866539,481.370098837923
1.38693249539495,1028.83335712282,1008.50434361555,-20.3290135072704,-1018.66885036918,524.581185315044,494.087665054138
1.38909957741901,1019.47890165188,1011.52237466763,-7.95652698425795,-1015.50063815976,513.717714318071,501.782923841684
1.39126665944306,1017.27873718734,1019.11411202683,1.83537483949056,-1018.19642460709,507.721681173925,510.474743433161
1.39343374146711,1031.02502708698,1026.70393474966,-4.3210923373183,-1028.86448091832,517.673059712149,511.191421206172
1.39560082349117,1029.58896055009,1025.70993447075,-3.87902607933711,-1027.64944751042,516.733993314713,510.915454195707
1.39776790551522,1016.28440965328,1017.15227485805,0.867865204770624,-1016.71834225566,507.708272224253,509.010070031409
1.39993498753928,1021.7250418321,1019.75340742591,-1.97163440619352,-1020.739224629,511.848338119147,508.890886509857
1.40210206956333,1030.16768529224,1024.34312973483,-5.82455555740739,-1027.25540751354,517.996120424823,509.259287088712
1.40426915158739,1024.13137882466,1013.01574015938,-11.1156386652713,-1018.57355949202,517.623508744964,500.950050747057
1.40643623361144,1018.00038006359,999.341079307751,-18.6593007558351,-1008.67072968567,518.32984040971,490.340889275958
1.4086033156355,1024.29799263832,1000.38771397745,-23.9102786608715,-1012.34285330789,524.104135649597,488.23871765829
1.41077039765955,1029.32679668749,1010.0479848567,-19.2788118307944,-1019.68739077209,524.302804259142,495.384586512951
1.41293747968361,1025.50435605883,999.550533475574,-25.9538225832536,-1012.5274447672,525.729089321041,486.79835544616
1.41510456170766,1018.35442454696,993.085717063152,-25.2687074838075,-1005.72007080506,521.811566015384,483.908504789672
1.41727164373172,1023.76286914662,996.433456794968,-27.3294123516479,-1010.09816297079,525.546140749132,484.55202222166
1.41943872575577,1030.56730365764,997.360576883853,-33.2067267737854,-1013.96394027075,531.887015215712,482.076925055034
1.42160580777982,1023.94944398724,982.888165014991,-41.0612789722536,-1003.41880450112,532.505361479749,470.913443021369
1.42377288980388,1019.06502147692,980.746104605697,-38.318916871225,-999.905563041309,528.691969174073,471.213593867236
1.42593997182793,1027.63757931473,1002.82620096699,-24.8113783477364,-1015.23189014086,526.224478831231,489.007411309626
1.42810705385199,1032.02780437593,1023.60791421328,-8.4198901626479,-1027.8178592946,520.223847269287,507.594012025315
1.43027413587604,1023.26651097938,1018.91301514234,-4.3534958370351,-1021.08976306086,513.810003408206,507.279759652653
1.4324412179001,1020.00935162502,1019.25588964719,-0.753461977831194,-1019.63262063611,510.381406801426,509.251213834679
1.43460829992415,1028.74632512572,1025.39977165754,-3.34655346817613,-1027.07304839163,516.046439296948,511.026609094684
1.43677538194821,1030.38738608582,1027.68054150236,-2.70684458345681,-1029.03396379409,516.547115334637,512.486848459452
1.43894246397226,1019.07461674543,1019.46874562884,0.394128883413714,-1019.27168118714,509.340243931008,509.931437256128
1.44110954599632,1016.71273747192,1019.56442433004,2.85168685812141,-1018.13858090098,506.930525306899,511.208055594081
1.44327662802037,1029.46621226219,1029.87533985004,0.409127587852936,-1029.67077605612,514.528542337169,515.142233718948
1.44544371004443,1028.14103433797,1029.84831948094,1.70728514297139,-1028.99467690945,513.216874597499,515.777802311956
1.44761079206848,1019.68637009843,1021.2335148829,1.54714478447283,-1020.45994249066,509.069612656976,511.390329833685
1.44977787409253,1018.08463331032,1010.1420089104,-7.94262439991235,-1014.11332111036,513.013628855114,501.099692255245
1.45194495611659,1028.89438832629,1014.43084082291,-14.4635475033796,-1021.6626145746,521.678967914834,499.983646659765
1.45411203814064,1027.90828836669,1011.31260296214,-16.5956854045555,-1019.61044566442,522.251986885625,497.358458778791
1.4562791201647,1017.24644670964,1003.94582384777,-13.3006228618714,-1010.59613527871,515.273534785757,495.32260049295
1.45844620218875,1021.53092155059,1011.54525159768,-9.98566995290537,-1016.53808657413,515.758295751746,500.779790822388
1.46061328421281,1030.12570709221,1015.38412052597,-14.7415865662418,-1022.75491380909,522.433646829227,500.321266979864
1.46278036623686,1024.21946761258,1011.6697389799,-12.5497286326772,-1017.94460329624,518.384598122626,499.56000517361
1.46494744826092,1018.41290017534,1006.76159249684,-11.6513076785013,-1012.58724633609,515.032103926919,497.555142409168
1.46711453028497,1024.03160087541,1019.92272237714,-4.10887849827122,-1021.97716162627,514.070239686839,507.906921939433
1.46928161230903,1027.6450443951,1030.11060530586,2.46556091075877,-1028.87782485048,512.589741742173,516.288083108311
1.47144869433308,1021.75329152478,1022.1094291131,0.35613758831812,-1021.93136031894,510.698576968233,511.23278335071
1.47361577635714,1017.94127215851,1018.6097600996,0.668487941089211,-1018.27551612905,508.636392108709,509.639124020343
1.47578285838119,1024.84420543529,1020.0386146543,-4.80559078098759,-1022.4414100448,514.824898108139,507.616511936657
1.47794994040524,1031.17751592088,1024.78934208665,-6.38817383423248,-1027.98342900376,518.782844877556,509.200584126207
1.4801170224293,1022.9268529469,1010.61952740223,-12.3073255446793,-1016.77319017457,517.617089245792,499.156100928773
1.48228410445335,1018.69012095012,1003.01952657456,-15.6705943755525,-1010.85482376234,517.180357662834,493.674466099506
1.48445118647741,1025.11944052421,1008.7450389248,-16.3744015994162,-1016.93223972451,520.746921061815,496.185318662691
1.48661826850146,1029.86635353197,1014.06449064909,-15.8018628828765,-1021.96542209053,522.834108207423,499.131313883108
1.48878535052552,1019.74964491297,1011.13117782744,-8.6184670855331,-1015.44041137021,514.184055999253,501.256355370953
1.49095243254957,1016.22368623121,1019.05804557229,2.83435934107968,-1017.64086590175,506.694663445067,510.946202456687
1.49311951457363,1029.84239499565,1022.17056524322,-7.67182975242895,-1026.00648011944,518.75711237404,507.249367745397
1.49528659659768,1028.61254111214,1018.26851282701,-10.3440282851222,-1023.44052696957,519.478284698629,503.962242270946
1.49745367862174,1017.12310840458,1001.75501257354,-15.368095831041,-1009.43906048906,516.24560211781,493.193458371248
1.49962076064579,1018.48638754457,998.614237294891,-19.8721502496771,-1008.55031241973,519.179268897122,489.371043522607
1.50178784266984,1029.53574967292,1016.95806027476,-12.5776893981563,-1023.24690497384,521.056719535537,502.190185438303
1.5039549246939,1026.63076508538,1015.78635119456,-10.8444138908177,-1021.20855813997,518.737589488098,502.470968651871
1.50612200671795,1019.60541213922,1010.05825458798,-9.54715755124118,-1014.8318333636,514.576284845233,500.255548518371
1.50828908874201,1022.79761778493,1018.78647074029,-4.01114704464339,-1020.79204426261,513.404382414789,507.387661847824
1.51045617076606,1028.82921128363,1030.30829459712,1.47908331348935,-1029.56875294038,513.675063985071,515.893688955305
1.51262325279012,1027.91674824732,1025.57308310962,-2.34366513769851,-1026.74491567847,515.130206692509,511.614708985961
1.51479033481417,1017.52600206198,1017.9681822173,0.442180155319534,-1017.74709213964,508.541910953331,509.205181186311
1.51695741683823,1024.30811793616,1022.23399664928,-2.07412128688259,-1023.27105729272,513.191119611522,510.079937681198
1.51912449886228,1030.66551249501,1027.12555161689,-3.5399608781197,-1028.89553205595,517.102736686565,511.792795369386
1.52129158088634,1024.55814119002,1017.92076343746,-6.6373777525572,-1021.23945231374,515.597759471287,505.641692842451
1.52345866291039,1018.88514973801,1003.56588597765,-15.3192637603573,-1011.22551785783,517.102206749183,494.123311108647
1.52562574493445,1026.05917179112,1020.17545428389,-5.88371750723331,-1023.11731303751,515.971444649179,507.145868388329
1.5277928269585,1032.28889423608,1029.73312217045,-2.55577206562998,-1031.01100820327,517.422333150857,513.588675052412
1.52995990898256,1024.64559499625,1024.15540728169,-0.490187714561443,-1024.40050113897,512.567891355406,511.832609783563
1.53212699100661,1018.4552728555,1016.69167378479,-1.76359907071321,-1017.57347332015,510.109435963108,507.464037357039
1.53429407303066,1026.44441750892,1027.25098507288,0.806567563960016,-1026.8477012909,512.818924972481,514.028776318421
1.53646115505472,1031.23212067088,1030.7248922678,-0.507228403083673,-1030.97850646934,515.869674536982,515.108831932356
1.53862823707877,1021.43062233317,1020.93501022998,-0.495612103188705,-1021.18281628158,510.96311721818,510.219699063397
1.54079531910283,1016.79666892222,1019.6225939932,2.82592507097706,-1018.20963145771,506.985371925624,511.224259532089
1.54296240112688,1028.19907020425,1027.45656317577,-0.742507028479849,-1027.82781669001,514.470788616363,513.357028073643
1.54512948315094,1028.09100178297,1031.62385380654,3.53285202356346,-1029.85742779475,512.279074879704,517.578352915049
1.54729656517499,1021.69126812581,1019.13250756907,-2.55876055673718,-1020.41188784744,512.125014341273,508.286873506167
1.54946364719905,1020.9439240441,1021.05234503029,0.108420986188776,-1020.9981345372,510.417751528957,510.58038300824
1.5516307292231,1028.08762082542,1022.77636083156,-5.31125999386074,-1025.43199082849,516.699440409639,508.732550418848
1.55379781124716,1028.29735890937,1024.79324656925,-3.50411234012677,-1026.54530273931,515.90073562475,510.64456711456
1.55596489327121,1020.02079375165,1018.65135230493,-1.36944144671475,-1019.33607302829,510.695117599182,508.64095542911
1.55813197529526,1022.10741497939,1020.07225251407,-2.03516246531558,-1021.08983374673,512.071288722351,509.018545024377
1.56029905731932,1030.46867616807,1028.7806351926,-1.68804097546536,-1029.62465568033,516.078358571766,513.546297108568
1.56246613934337,1028.58802650718,1029.06149653692,0.473470029744931,-1028.82476152205,514.057278238716,514.767483283333
1.56463322136743,1019.74207254858,1018.06725363955,-1.67481890902729,-1018.90466309407,510.708445728803,508.196217365262
1.56680030339148,1023.59273750142,1021.56854564514,-2.02419185627366,-1022.58064157328,512.808464678845,509.772176894435
1.56896738541554,1031.58317087558,1028.21759257486,-3.36557830072547,-1029.90038172522,517.474374588154,512.426007137066
1.57113446743959,1025.36603396337,1021.91524809941,-3.45078586395823,-1023.64064103139,514.408409913663,509.232231117726
1.57330154946365,1015.93754089281,1018.6869636176,2.74942272479666,-1017.3122522552,506.594059084005,510.7181931712
1.5754686314877,1023.26182642214,1023.33842748368,0.0766010615396908,-1023.30012695291,511.592612680301,511.70751427261
1.57763571351176,1030.27769102186,1030.64282558746,0.365134565599874,-1030.46025830466,514.956278228128,515.503980076528
1.57980279553581,1024.36733587733,1024.78760640849,0.420270531167489,-1024.57747114291,511.97353267308,512.603938469831
1.58196987755987,1019.30584006874,1018.51655652445,-0.789283544284785,-1018.9111982966,510.047561806511,508.863636490084
1.58413695958392,1026.73682096822,1024.60780081554,-2.12902015267696,-1025.67231089188,514.432920560446,511.239390331431
1.58630404160798,1028.51634030271,1030.13282164235,1.61648133964832,-1029.32458097253,513.449929481529,515.874651491002
1.58847112363203,1022.19094084464,1021.77949506776,-0.411445776875098,-1021.9852179562,511.301193310757,510.684024645444
1.59063820565608,1017.46874051627,1017.3035931242,-0.16514739207048,-1017.38616682024,508.816943954172,508.569222866067
1.59280528768014,1026.4882157907,1026.6697498827,0.181534091998628,-1026.5789828367,513.153340849349,513.425641987347
1.59497236970419,1031.4492343636,1029.86192544018,-1.58730892341941,-1030.65557990189,516.51827164351,514.137308258381
1.59713945172825,1022.24108370592,1019.63803987749,-2.60304382842583,-1020.93956179171,512.422063767172,508.517498024533
1.5993065337523,1019.44916627496,1019.57152484025,0.122358565291393,-1019.51034555761,509.663403854834,509.846941702771
1.60147361577636,1028.59471395916,1023.34520391685,-5.24951004230581,-1025.969958938,516.922112000731,509.047846937272
1.60364069780041,1029.94059994279,1028.50392087264,-1.43667907015401,-1029.22226040772,515.688639506474,513.533620901243
1.60580777982447,1018.54118072167,1020.18980846015,1.64862773848711,-1019.36549459091,508.44627649159,510.919218099321
1.60797486184852,1020.47543427847,1020.41551307375,-0.0599212047219453,-1020.44547367611,510.267677741598,510.177795934515
1.61014194387258,1030.99782376471,1029.27806202697,-1.71976173774033,-1030.13794289584,516.358792751223,513.779150144613
1.61230902589663,1027.17708041498,1027.63140946421,0.454329049231546,-1027.4042449396,513.361375682874,514.042869256721
1.61447610792068,1020.02132824346,1018.35284398839,-1.6684842550726,-1019.18708611592,510.844906249267,508.342179866658
1.61664318994474,1020.89777555609,1003.90187543898,-16.9959001171193,-1012.39982549753,518.946837836607,493.452987660928
1.61881027196879,1029.41604601649,999.080038797867,-30.3360072186254,-1014.24804240718,529.876026617559,484.372015789621
1.62097735399285,1027.19185731012,991.94679831649,-35.2450589936333,-1009.56932781331,531.218458151878,478.350869661428
1.6231444360169,1018.09902657626,986.167604374722,-31.931422201533,-1002.13331547549,525.015224388894,477.118091086595
1.62531151804096,1022.47796312398,1000.44139398057,-22.036569143409,-1011.45967855227,522.257266133694,489.20241241858
1.62747860006501,1031.18116322889,1012.95091991151,-18.2302433173795,-1022.0660415702,524.705703273137,497.360338297067
1.62964568208907,1025.07178823009,1009.93439214776,-15.1373960823303,-1017.50309018893,520.104592156213,497.398498032717
1.63181276411312,1017.22439455973,1003.22940877784,-13.9949857818953,-1010.22690166879,515.609690170815,494.617211497972
1.63397984613718,1023.01134795772,1010.99079970013,-12.0205482575869,-1017.00107382892,517.515948107651,499.485125721271
1.63614692816123,1031.73543544431,1024.68644245958,-7.04899298473265,-1028.21093895194,519.392214214521,508.818724737422
1.63831401018529,1020.95877603257,1022.96390153595,2.0051255033793,-1021.96133878426,509.476825264595,512.484513519664
1.64048109220934,1017.22809460667,1013.22215687335,-4.00593773332082,-1015.22512574001,510.617016169997,504.608109570016
1.64264817423339,1027.7459006115,1009.74460720316,-18.0012934083336,-1018.74525390733,522.873597009915,495.871656897414
1.64481525625745,1028.72244235537,1010.77948856241,-17.9429537929626,-1019.75096545889,523.332698074167,496.418267384723
1.6469823382815,1020.88022318241,1001.08707254426,-19.7931506381573,-1010.98364786333,520.336686910285,490.646960953049
1.64914942030556,1020.03783837523,1009.16629517877,-10.8715431964599,-1014.602066777,515.454690785844,499.147375991154
1.65131650232961,1028.00610499028,1025.79571991728,-2.21038507299681,-1026.90091245378,515.108245031637,511.792667422142
1.65348358435367,1030.46331157423,1026.04624366491,-4.41706790931789,-1028.25477761957,517.440189741774,510.814587877797
1.65565066637772,1021.09553122879,1005.76619636446,-15.3293348643393,-1013.43086379662,518.212433046567,495.218430750058
1.65781774840178,1018.89442420888,1002.84446568493,-16.0499585239442,-1010.86944494691,517.472191366411,493.397253580495
1.65998483042583,1028.50470327038,1015.6374582615,-12.8672450088782,-1022.07108076594,520.685974139627,501.38510662631
1.66215191244989,1028.8124752768,1015.11255995876,-13.6999153180466,-1021.96251761778,521.256195297424,500.706322320354
1.66431899447394,1018.42421365869,1010.76359618731,-7.66061747138724,-1014.593904923,513.042415565041,501.55148935796
1.666486076498,1020.23739009148,1009.27125441721,-10.9661356742615,-1014.75432225434,515.601762882868,499.152559371476
1.66865315852205,1030.10471273726,1016.76072020322,-13.3439925340402,-1023.43271647024,521.724352635652,501.708363834592
1.6708202405461,1025.89095451368,1013.47655130615,-12.4144032075291,-1019.68375290992,519.152678860606,500.531074049312
1.67298732257016,1017.3068492738,997.10713970801,-20.1997095657871,-1007.2069944909,518.753279419792,488.453715071111
1.67515440459421,1022.7194707608,994.728272080419,-27.9911986803861,-1008.72387142061,525.355334720595,483.368536700016
1.67732148661827,1030.03695383997,997.16559140636,-32.8713624336131,-1013.60127262317,531.454158136793,482.147114486374
1.67948856864232,1026.83650438755,995.253327378978,-31.5831770085721,-1011.04491588326,529.209840698061,481.835075185203
1.68165565066638,1018.25931419492,991.692868189765,-26.5664460051586,-1004.97609119234,522.412880100041,482.563211092303
1.68382273269043,1023.26515693111,998.101797312315,-25.1633596187911,-1010.68347712171,524.214258274949,486.469218846762
1.68598981471449,1029.81853470396,1003.10740945279,-26.71112525117,-1016.46297207838,528.264829977566,488.198142100811
1.68815689673854,1022.74144101497,991.141011428465,-31.6004295865006,-1006.94122622171,527.170935300733,479.770290920982
1.6903239787626,1018.063496775,993.911761041771,-24.151735733229,-1005.98762890839,521.107616254115,484.880012654271
1.69249106078665,1025.99239845482,1013.05229511673,-12.9401033380866,-1019.52234678578,519.466250896453,500.056095889323
1.69465814281071,1029.96006367536,1025.17276784596,-4.78729582939809,-1027.56641576066,517.37367975238,510.192736008283
1.69682522483476,1020.57003108811,1018.8294586126,-1.74057247550616,-1019.69974485036,511.155301781808,508.544443068548
1.69899230685881,1018.7041131072,1019.81346347978,1.10935037257798,-1019.25878829349,508.79738136731,510.461406926177
1.70115938888287,1027.36131623818,1025.23823273499,-2.1230835031854,-1026.29977448659,514.742199870682,511.557574615904
1.70332647090692,1030.90316477257,1029.6353948713,-1.26776990127701,-1030.26927982193,516.085467336925,514.183812485009
1.70549355293098,1019.70195193212,1019.46526120236,-0.236690729764405,-1019.58360656724,509.969321330943,509.614285236296
1.70766063495503,1019.38397005428,1018.31681542397,-1.06715463030707,-1018.85039273913,510.225562342293,508.624830396832
1.70982771697909,1029.93420351974,1030.07571630202,0.141512782288601,-1030.00495991088,514.896345368723,515.108614542156
1.71199479900314,1029.34890943468,1029.60836228266,0.259452847978991,-1029.47863585867,514.544728293353,514.933907565321
1.7141618810272,1016.87507146597,1017.08705466865,0.211983202685019,-1016.98106306731,508.33154413164,508.649518935668
1.71632896305125,1018.62105737475,1019.65406462084,1.03300724608596,-1019.13756099779,508.794025064333,510.343535933462
1.71849604507531,1030.73321831114,1028.56864321331,-2.16457509782754,-1029.65093076223,516.448896704485,513.202034057744
1.72066312709936,1026.58409544594,1025.3397177842,-1.24437766174196,-1025.96190661507,513.914236553841,512.047670061228
1.72283020912342,1019.60720338391,1016.43755751574,-3.16964586816255,-1018.02238044982,511.388424626034,506.63395582379
1.72499729114747,1022.98765359853,1020.98743982575,-2.00021377278233,-1021.98754671214,512.493933685657,509.493613026483
1.72716437317152,1030.81363399148,1031.96609175173,1.15245776024403,-1031.3898628716,514.830588115619,516.559274755985
1.72933145519558,1027.58331988894,1024.78384983219,-2.7994700567433,-1026.18358486057,515.19139497284,510.992189887725
1.73149853721963,1016.38733159408,1019.5333085361,3.1459769420286,-1017.96032006509,506.620677326023,511.339642739066
1.73366561924369,1023.51764481606,1024.49155808113,0.973913265070223,-1024.0046014486,511.271865775497,512.732735673102
1.73583270126774,1031.79091339712,1029.62104239568,-2.16987100143911,-1030.7059778964,516.980392199278,513.725585697119
1.7379997832918,1025.47749462669,1016.28844373876,-9.18905088793508,-1020.88296918272,517.333272757313,503.54969642541
1.74016686531585,1018.95436267281,999.899611600768,-19.0547510720444,-1009.42698713679,519.004556872428,490.422430264362
1.74233394733991,1024.2384588351,1005.23848476894,-18.9999740661598,-1014.73847180202,521.619216450632,493.119255351392
1.74450102936396,1028.16888889645,1016.21043276238,-11.9584561340627,-1022.18966082941,520.063672515254,502.12598831416
1.74666811138802,1024.37787489494,1013.52261232332,-10.8552625716136,-1018.95024360913,517.616568733275,501.333674875854
1.74883519341207,1018.47485030706,1013.58344684149,-4.89140346556678,-1016.02914857428,511.683126886314,504.346021687964
1.75100227543613,1026.65640016675,1026.55449290375,-0.101907262996974,-1026.60544653525,513.379153714873,513.226292820378
1.75316935746018,1031.21701212669,1030.96042679775,-0.256585328942492,-1031.08871946222,515.736798727819,515.351920734405
1.75533643948423,1018.31471682946,1018.06741277856,-0.247304050902017,-1018.19106480401,509.281010440181,508.910054363828
1.75750352150829,1017.93271150659,1016.84923910641,-1.08347240017383,-1017.3909753065,509.50809195338,507.882883353119
1.75967060353234,1029.32772132403,1026.45712966881,-2.87059165522328,-1027.89242549642,516.099156489628,511.793269006793
1.7618376855564,1027.87518370669,1030.14820909096,2.2730253842692,-1029.01169639883,512.801079161211,516.210617237615
1.76400476758045,1021.4542856155,1018.6733387384,-2.78094687710143,-1020.06381217695,512.117616246302,507.94619593065
1.76617184960451,1020.06241356925,1012.11493463552,-7.94747893373017,-1016.08867410239,514.004946251492,502.083727850897
1.76833893162856,1028.27384878397,1018.09822131653,-10.1756274674402,-1023.18603505025,519.224738125705,503.961296924544
1.77050601365262,1026.22987573592,1014.99373894383,-11.2361367920848,-1020.61180733988,518.733006264001,501.878801075874
1.77267309567667,1019.99591222845,1007.8986848822,-12.0972273462539,-1013.94729855533,516.046569787354,497.900728767973
1.77484017770073,1022.29246724299,1014.29045512489,-8.00201211810202,-1018.29146118394,515.147239680546,503.144221503393
1.77700725972478,1029.48951257077,1028.50914558723,-0.980366983537124,-1028.999329079,515.234939777151,513.764389301846
1.77917434174884,1026.29778017887,1024.33310770135,-1.96467247751889,-1025.31544394011,514.131226328192,511.184217611914
1.78134142377289,1018.61218805355,1017.64969815716,-0.962489896389457,-1018.13094310536,509.787338974971,508.343604130387
1.78350850579694,1020.78629845523,1016.78223729727,-4.00406115796432,-1018.78426787625,512.395179806598,506.389088069651
1.785675587821,1030.68593801136,1021.64042932554,-9.04550868581293,-1026.16318366845,519.865723348585,506.297460319866
1.78784266984505,1025.25077378157,1012.26167328075,-12.9891005008155,-1018.75622353116,519.119937141192,499.636286389969
1.79000975186911,1018.97127068321,1008.05302656742,-10.9182441157894,-1013.51214862531,514.944757399498,498.567391225814
1.79217683389316,1023.4558317617,1010.41690500393,-13.0389267577673,-1016.93636838282,518.247379259735,498.688989123084
1.79434391591722,1031.21939357789,1010.06810837772,-21.1512852001694,-1020.6437509778,526.185339389029,494.458411588775
1.79651099794127,1024.09267315362,1009.0929728711,-14.9997002825224,-1016.59282301236,519.546186718073,497.04663629429
1.79867807996533,1015.29773321426,1009.36724969164,-5.93048352261849,-1012.33249145295,510.614108368441,501.718383084513
1.80084516198938,1023.94656754117,1019.89212856609,-4.05443897508178,-1021.91934805363,514.000503258125,507.918844795502
1.80301224401344,1030.51561184379,1024.36954351325,-6.14606833053563,-1027.44257767852,518.330840087161,509.111737591357
1.80517932603749,1020.04313264847,1017.94536442401,-2.09776822445667,-1018.99424853624,511.070450436462,507.923798099777
1.80734640806155,1017.57562017778,1018.54439771993,0.968777542149837,-1018.06000894885,508.303421317813,509.756587631038
1.8095134900856,1028.6460429112,1025.68452150611,-2.96152140508661,-1027.16528220866,515.803782158144,511.361500050514
1.81168057210965,1029.28039770793,1029.37771485468,0.0973171467469456,-1029.3290562813,514.591540280591,514.737516000712
1.81384765413371,1022.02693543647,1019.11537554229,-2.91155989417416,-1020.57115548938,512.46924766532,508.101907824059
1.81601473615776,1020.55645770279,1017.58727564132,-2.96918206146461,-1019.07186667205,511.762819882125,507.309046789928
1.81818181818182,1029.77216550409,1028.69978025313,-1.07238525096,-1029.23597287861,515.422275377523,513.813697501083
1.82034890020587,1026.84308862757,1029.71712864354,2.87404001596701,-1028.28010863556,511.984524305802,516.295584329753
1.82251598222993,1019.4717768419,1019.34584096997,-0.125935871932597,-1019.40880890594,509.798856356919,509.60995254902
1.82468306425398,1020.64706846041,1017.62855247577,-3.0185159846427,-1019.13781046809,511.832792222526,507.305018245562
1.82685014627804,1031.07164866286,1024.16911062257,-6.90253804028589,-1027.62037964272,518.987093351573,508.633286291144
1.82901722830209,1028.93493691115,1028.13070068851,-0.804236222644704,-1028.53281879983,514.869586566899,513.663232232931
1.83118431032615,1016.86432361901,1020.01217673626,3.14785311724904,-1018.43825017764,506.858235250882,511.580014926756
1.8333513923502,1020.07961872792,1023.0783844212,2.99876569327523,-1021.57900157456,508.540426517324,513.038575057237
1.83551847437426,1030.52974816525,1028.39657414838,-2.13317401687345,-1029.46316115681,516.331461091061,513.131700065751
1.83768555639831,1026.05424005327,1025.88879159353,-0.165448459732715,-1025.9715158234,513.1098442565,512.861671566901
1.83985263842236,1016.10099604192,1016.99725225833,0.89625621640937,-1016.54912415012,507.602369912755,508.946754237369
1.84201972044642,1021.67089363133,1024.69343581199,3.02254218066207,-1023.18216472166,509.324175725333,513.857988996326
1.84418680247047,1030.13931548392,1031.27423124587,1.13491576194906,-1030.70677336489,514.502199860986,516.204573503909
1.84635388449453,1025.8006426126,1025.95425947499,0.153616862390436,-1025.8774510438,512.823512875106,513.053938168692
1.84852096651858,1018.18722065162,1019.26929838356,1.08207773194135,-1018.72825951759,508.55257145984,510.175688057752
1.85068804854264,1026.23003683396,1023.19171971648,-3.03831711747728,-1024.71087827522,514.634176975717,510.076701299501
1.85285513056669,1031.76811138213,1030.64347195314,-1.1246394289858,-1031.20579166764,516.446375405557,514.759416262078
1.85502221259075,1023.83377121785,1020.70886387837,-3.12490733948221,-1022.27131754811,513.479339278668,508.791978269445
1.8571892946148,1017.3081165447,1017.26545061222,-0.0426659324756429,-1017.28678357846,508.675391238588,508.611392339874
1.85935637663886,1027.9220802951,1025.9604071202,-1.9616731748979,-1026.94124370765,514.941876734998,511.999366972652
1.86152345866291,1030.59960176461,1031.70154252614,1.10194076152811,-1031.15057214537,514.748830501541,516.401741643833
1.86369054068697,1020.64118793283,1019.73036543029,-0.910822502546921,-1020.18577668156,510.77600521769,509.409771463869
1.86585762271102,1018.11902319442,1017.15121091634,-0.967812278077872,-1017.63511705538,509.54341773625,508.091699319133
1.86802470473507,1028.19773509921,1026.14380111728,-2.05393398193269,-1027.17076810825,515.125834540572,512.044933567673
1.87019178675913,1029.39248292348,1030.29536330739,0.902880383903039,-1029.84392311543,514.24480126979,515.599121845644
1.87235886878318,1021.00267979336,1019.91138484479,-1.09129494856666,-1020.45703231908,511.046987370964,509.410044948114
1.87452595080724,1021.05389594932,1020.03618374647,-1.01771220284286,-1020.54503984789,511.035804076079,509.509235771815
1.87669303283129,1030.6040592151,1029.66234642167,-0.941712793426177,-1030.13320281838,515.772886004261,514.360316814121
1.87886011485535,1029.57833462615,1026.68108588215,-2.89724874399508,-1028.12971025415,516.237791685071,511.891918569078
1.8810271968794,1017.24631466435,1019.34732283303,2.1010081686843,-1018.29681874869,507.572653247833,510.724165500859
1.88319427890346,1021.40393184077,1020.41001895392,-0.993912886847966,-1020.90697539734,511.198922363808,509.708053033536
1.88536136092751,1030.24487049152,1028.1640957554,-2.08077473612047,-1029.20448312346,516.162822613821,513.04166050964
1.88752844295157,1026.77917386091,1026.67689220365,-0.102281657266985,-1026.72803303228,513.440727759091,513.28730527319
1.88969552497562,1019.28711778282,1018.21860445668,-1.06851332613076,-1018.75286111975,510.177815554473,508.575045565277
1.89186260699967,1021.91394713175,1020.9208870069,-0.993060124844988,-1021.41741706932,511.453503628295,509.963913441028
1.89402968902373,1032.04334400809,1029.11703580802,-2.92630820006957,-1030.58018990805,517.484826104079,513.095363803975
1.89619677104778,1023.57088461136,1023.68730654046,0.116421929099943,-1023.62909557591,511.727231341132,511.901864234782
1.89836385307184,1015.21983760438,1018.28715046536,3.06731286098329,-1016.75349403487,506.076262371698,510.677231663173
1.90053093509589,1024.46691634082,1025.44730682937,0.980390488553439,-1024.95711158509,511.743262926131,513.213848658961
1.90269801711995,1031.82129387184,1030.73574313026,-1.08555074157312,-1031.27851850105,516.453422306705,514.825096194346
1.904865099144,1024.5390280368,1024.45083309156,-0.0881949452409572,-1024.49493056418,512.31361149102,512.181319073159
1.90703218116806,1016.09076544759,1019.04813608047,2.95737063288504,-1017.56945076403,506.566697407351,511.002753356679
1.90919926319211,1026.19610426691,1026.22959077407,0.0334865071633885,-1026.21284752049,513.081308879872,513.131538640618
1.91136634521617,1028.91325695078,1030.0081902174,1.09493326662755,-1029.46072358409,513.909161842074,515.551561742016
1.91353342724022,1019.39824328636,1021.48552432633,2.08728103996657,-1020.44188380635,508.655481123198,511.786402683148
1.91570050926428,1016.79405714443,1018.82078979132,2.02673264689531,-1017.80742346788,507.383662248767,510.42376121911
1.91786759128833,1026.52111428991,1026.49144660615,-0.0296676837588166,-1026.50628044803,513.275390986833,513.230889461194
1.92003467331238,1029.76563081217,1028.70098297762,-1.06464783455067,-1029.23330689489,515.415139323359,513.818167571533
1.92220175533644,1018.51864700575,1021.46860801747,2.9499610117233,-1019.99362751161,507.784342997012,512.209284514597
1.92436883736049,1020.5103445741,1018.49073732773,-2.01960724636888,-1019.50054095091,511.264975910234,508.23556504068
1.92653591938455,1029.09624143148,1028.13915678826,-0.957084643211601,-1028.61769910987,515.026663037344,513.591036072527
1.9287030014086,1030.22490370898,1029.30729176712,-0.917611941863015,-1029.76609773805,515.571257825421,514.194839912626
1.93087008343266,1018.7509171535,1019.82515033873,1.07423318523252,-1019.28803374612,508.838341984134,510.449691761982
1.93303716545671,1019.77808387771,1018.78745401315,-0.990629864564994,-1019.28276894543,510.384356871139,508.898412074292
1.93520424748077,1028.84603378796,1030.79080029883,1.94476651086256,-1029.8184170434,513.450633638551,516.367783404845
1.93737132950482,1026.42676907575,1028.32907609275,1.90230701699875,-1027.37792258425,512.262231029376,515.115691554874
1.93953841152888,1015.53521192465,1017.45122881645,1.91601689179538,-1016.49322037055,506.809597516429,509.683622854122
1.94170549355293,1023.1774065586,1022.17931790675,-0.99808865185264,-1022.67836223267,512.087747605227,510.590614627448
1.94387257557699,1030.84658334051,1030.94319529223,0.0966119517217976,-1030.89488931637,515.374985694394,515.519903621976
1.94603965760104,1025.33948764658,1026.46911114791,1.1296235013242,-1025.90429939725,512.10493207263,513.799367324616
1.94820673962509,1017.32723313396,1019.40153920128,2.07430606732214,-1018.36438616762,507.626463533319,510.737922634303
1.95037382164915,1024.71858458993,1022.70372723255,-2.01485735737515,-1023.71115591124,513.36672097365,510.344434937587
1.9525409036732,1031.8309125773,1031.74670497049,-0.0842076068154256,-1031.78880877389,515.957560092058,515.831248681835
1.95470798569726,1023.30684642259,1025.20671185064,1.89986542805025,-1024.25677913662,510.70349049727,513.553288639345
1.95687506772131,1017.99521709755,1018.93207009354,0.936852995987465,-1018.46364359555,508.529182050783,509.934461544764
1.95904214974537,1024.42835176753,1025.46155740201,1.03320563447915,-1024.94495458477,511.697573066527,513.247381518246
1.96120923176942,1030.08567486341,1030.1944218766,0.108747013194034,-1030.14004837,514.988463925106,515.151584444897
1.96337631379348,1023.11015669118,1020.22562224206,-2.88453444912045,-1021.66788946662,512.997345570148,508.670543896467
1.96554339581753,1018.50543955386,1015.56681123312,-2.93862832074115,-1017.03612539349,510.722033937301,506.314091456189
1.96771047784159,1025.86552884278,1023.80363275457,-2.06189608820205,-1024.83458079867,513.963712465489,510.870868333186
1.96987755986564,1029.19372902222,1029.05006611772,-0.143662904496068,-1029.12189756997,514.668695963357,514.453201606613
1.9720446418897,1022.21462252266,1022.07803860795,-0.136583914712105,-1022.1463305653,511.175603218685,510.970727346617
1.97421172391375,1018.0572459285,1018.01304468536,-0.0442012431383318,-1018.03514530693,509.05072358582,508.984421721113
1.9763788059378,1027.47246543011,1025.54737920785,-1.92508622225978,-1026.50992231898,514.698775826185,511.811146492796
1.97854588796186,1030.71121881687,1030.8672304081,0.156011591224342,-1030.78922461248,515.277603612823,515.51162099966
1.98071296998591,1021.24780235891,1019.38043109343,-1.86737126548144,-1020.31411672617,511.557586812195,508.756529913973
1.98288005200997,1019.19324620279,1021.22291284798,2.02966664518624,-1020.20807952538,508.581789778802,511.626289746581
1.98504713403402,1028.44025119817,1029.33729516817,0.89704397000628,-1028.88877318317,513.771603614081,515.11716956909
1.98721421605808,1025.13018889756,1026.95480669698,1.82461779941377,-1026.04249779727,511.652785549074,514.389712248195
1.98938129808213,1017.94488016744,1017.79724708724,-0.147633080201217,-1017.87106362734,509.046256623819,508.824807003518
1.99154838010619,1020.47617404595,1022.46755150339,1.99137745744372,-1021.47186277467,509.242398294253,512.229464480419
1.99371546213024,1028.51757893434,1028.65317822051,0.135599286175875,-1028.58537857742,514.19098982408,514.394388753344
1.9958825441543,1028.02735396958,1027.22068722081,-0.806666748770567,-1027.62402059519,514.417010359175,513.207010236019
1.99804962617835,1018.47816064338,1016.61327910493,-1.86488153844823,-1017.54571987416,510.171521090915,507.374198783243
2.00021670820241,1023.98597741639,1022.96851848039,-1.01745893600491,-1023.47724794839,512.501718176198,510.975529772191
2.00238379022646,1029.80036430385,1030.63360540685,0.833241102997363,-1030.21698485535,514.483561600426,515.733423254923
2.00455087225051,1026.15494575066,1025.93761453844,-0.217331212214731,-1026.04628014455,513.186138481436,512.860141663114
2.00671795427457,1018.01534467833,1017.8909384421,-0.124406236224331,-1017.95314156021,509.069875457275,508.883266102939
2.00888503629862,1025.64084419233,1012.6856049657,-12.9552392266307,-1019.16322457901,519.298041709479,499.865182869533
2.01105211832268,1030.12068304959,1013.32881789399,-16.791865155607,-1021.72475047179,523.456274102601,498.26847636919
2.01321920034673,1024.79874163645,1005.17164143079,-19.6271002056584,-1014.98519153362,522.212920921055,492.772270612567
2.01538628237079,1019.28357252132,1005.55099742278,-13.7325750985391,-1012.41728497205,516.508073809931,495.909211162123
2.01755336439484,1025.17911280053,1014.96917622781,-10.209936572724,-1020.07414451417,517.694524686627,502.379619827541
2.0197204464189,1030.56135615598,1011.00756160028,-19.5537945556971,-1020.78445887813,525.057575355836,495.726883522291
2.02188752844295,1022.96544953151,998.570986919755,-24.3944626117565,-1010.76821822563,523.679956071634,487.088262153999
2.02405461046701,1017.6959147972,999.625131212187,-18.0707835850172,-1008.6605230047,517.883349191111,490.777173813585
2.02622169249106,1026.78710809534,1012.84925326865,-13.9378548266862,-1019.818180682,520.362481461013,499.455699220984
2.02838877451512,1031.09597064124,1026.28912704178,-4.80684359945349,-1028.69254884151,517.951407120345,510.741141721164
2.03055585653917,1020.77575577793,1021.99033141428,1.21457563635045,-1021.3830435961,509.780590070789,511.602453525314
2.03272293856322,1019.66133990684,1017.71545810327,-1.94588180357721,-1018.68839900505,510.80361085521,507.884788149844
2.03489002058728,1027.96560985874,1028.83176519312,0.866155334379755,-1028.39868752593,513.54972726218,514.84896026375
2.03705710261133,1028.79095083665,1028.54787530724,-0.243075529418775,-1028.66941307194,514.517013183037,514.152399888908
2.03922418463539,1017.4062732808,1009.21194425354,-8.19432902726385,-1013.30910876717,512.800301154032,500.508807613136
2.04139126665944,1019.82294293408,1008.80440507872,-11.0185378553666,-1014.3136740064,515.420740394725,498.892933611675
2.0435583486835,1031.12172821021,1007.23127938065,-23.8904488295562,-1019.17650379543,527.506088519881,491.670415275547
2.04572543070755,1027.6639523665,1010.98743378992,-16.6765185765771,-1019.32569307821,522.170235471536,497.155457606671
2.04789251273161,1019.71818494924,1017.06807648976,-2.65010845947813,-1018.3931307195,511.18414670436,507.208984015143
2.05005959475566,1021.26677741704,1021.25533641996,-0.0114409970881297,-1021.2610569185,510.639109207067,510.621947711434
2.05222667677972,1030.66768305244,1029.28864039099,-1.37904266144938,-1029.97816172172,516.023362856946,513.954798864772
2.05439375880377,1025.96044244834,1025.46325098826,-0.497191460073964,-1025.7118467183,513.228816954206,512.483029764095
2.05656084082783,1018.12943459866,1015.82331907804,-2.30611552062533,-1016.97637683835,510.217775059643,506.758601778705
2.05872792285188,1022.86079105517,1022.93189819669,0.0711071415172455,-1022.89634462593,511.394841956828,511.501502669104
2.06089500487593,1032.07936313462,1031.47387527393,-0.605487860681706,-1031.77661920427,516.342425497649,515.434193706626
2.06306208689999,1025.4937135878,1023.96752480701,-1.52618878078192,-1024.7306191974,513.509951184289,511.220668013116
2.06522916892404,1017.14461182213,1017.40228369451,0.257671872385458,-1017.27344775832,508.44346997487,508.829977783449
2.0673962509481,1026.45494202122,1025.31962320797,-1.13531881325048,-1025.8872826146,513.795130417237,512.092152197361
2.06956333297215,1031.81638714477,1029.37690418632,-2.43948295845416,-1030.59664566555,517.127935051613,513.468710613932
2.07173041499621,1019.73141783036,1020.28473135754,0.553313527175419,-1020.00807459395,509.589052151595,510.419022442358
2.07389749702026,1016.42891263376,1016.23561688751,-0.193295746251465,-1016.33226476063,508.311104190004,508.021160570627
2.07606457904432,1026.05828225271,1022.24499193142,-3.81329032128326,-1024.15163709207,514.935786286995,509.21585080507
2.07823166106837,1029.39043718044,1017.85297900542,-11.5374581750197,-1023.62170809293,520.463947677729,503.1577604152
2.08039874309243,1021.35548477418,1005.89292246634,-15.4625623078339,-1013.62420362026,518.409023541006,495.215180079255
2.08256582511648,1018.18889217256,997.399851177471,-20.7890409950851,-1007.79437167501,519.488966583821,488.305405091193
2.08473290714054,1028.42319648329,1004.02107147073,-24.4021250125621,-1016.22213397701,526.412660747925,489.809473229082
2.08689998916459,1027.38645715892,1006.72784982592,-20.6586073329997,-1017.05715349242,524.022532245962,493.034621246462
2.08906707118864,1017.97969151357,1003.58561423169,-14.3940772818811,-1010.78265287263,516.186884397727,494.595768474906
2.0912341532127,1020.23268267831,1009.1750619919,-11.0576206864023,-1014.70387233511,515.645151682355,499.058720652751
2.09340123523675,1028.63003308473,1020.8350334153,-7.79499966942956,-1024.73253325002,518.212516377082,506.520016872938
2.09556831726081,1029.25470500661,1021.63721030561,-7.61749470099744,-1025.44595765611,518.436099853804,507.009857802308
2.09773539928486,1018.01883171224,1007.36571586396,-10.6531158482786,-1012.6922737881,514.335973780259,498.356300007841
2.09990248130892,1022.57259417468,1007.59246098866,-14.9801331860193,-1015.08252758167,518.776363680347,496.306163901318
2.10206956333297,1030.44409605291,1010.06001096317,-20.3840850897476,-1020.25205350804,525.414090571331,494.837962936709
2.10423664535703,1027.75416028491,1010.35166728693,-17.4024929979785,-1019.05291378592,522.578326641442,496.474587144475
2.10640372738108,1017.33063417077,1005.17857792364,-12.1520562471349,-1011.25460604721,514.741345208955,496.513260838253
2.10857080940514,1021.0981860747,1017.1114059509,-3.98678012380196,-1019.1047960128,512.54248309925,506.562312913547
2.11073789142919,1030.95222970987,1030.07145520927,-0.880774500591542,-1030.51184245957,515.916502105228,514.595340354341
2.11290497345325,1024.2150627968,1024.37158206112,0.156519264323379,-1024.29332242896,512.029271766237,512.264050662722
2.1150720554773,1018.11429734488,1018.20299067855,0.0886933336671518,-1018.15864401172,509.012802005607,509.145842006108
2.11723913750135,1024.7043339523,1022.67086038577,-2.03347356653319,-1023.68759716904,513.368903759419,510.318693409619
2.11940621952541,1030.96013674598,1030.82964572818,-0.130491017803934,-1030.89489123708,515.545313881893,515.349577355187
2.12157330154946,1022.51987859776,1021.37487219492,-1.14500640284496,-1021.94737539634,511.832442500303,510.114932896036
2.12374038357352,1019.22844999848,1017.16451722153,-2.06393277695133,-1018.19648361,510.646191387714,507.550292222287
2.12590746559757,1027.33061382396,1026.37435718829,-0.956256635668751,-1026.85248550612,514.143435229814,512.70905027631
2.12807454762163,1030.67184937035,1021.79428623526,-8.87756313509408,-1026.23306780281,519.774706252724,506.458361550083
2.13024162964568,1020.01577927533,1002.21332674482,-17.80245253051,-1011.11455301007,518.909115902919,492.205437107154
2.13240871166974,1017.80410667278,1000.93340809319,-16.8706985795911,-1009.36875738298,517.337402626186,492.031354756799
2.13457579369379,1028.793626498,1017.59670733305,-11.1969191649539,-1023.19516691552,519.995272831477,503.199894084046
2.13674287571785,1028.85734359688,1024.48730856741,-4.37003502946345,-1026.67232608215,516.613689313171,510.058636768976
2.1389099577419,1020.54864155294,1021.2523583924,0.703716839461208,-1020.90049997267,509.922462356739,510.97803761593
2.14107703976596,1018.68936528118,1018.61225531339,-0.0771099677940583,-1018.65081029728,509.383237624488,509.267572672797
2.14324412179001,1030.1302035289,1028.32606749433,-1.8041360345635,-1029.22813551161,515.967169781729,513.260965729884
2.14541120381406,1027.86765814452,1028.22282207674,0.355163932220421,-1028.04524011063,513.756247106152,514.288993004482
2.14757828583812,1020.4731193535,1018.75498940861,-1.7181299448855,-1019.61405438105,511.095624649191,508.518429731862
