t,leadI,leadII,leadIII,aVR,aVL,aVF
0,927.198198198198,930.837837837838,3.63963963963965,-929.018018018018,461.779279279279,467.238738738739
0.00216708202405461,975.335275661139,976.141192290453,0.805916629314197,-975.738233975796,487.264679515912,488.473554459883
0.00433416404810922,993.255377471959,992.630415932422,-0.624961539537253,-992.94289670219,496.940169505748,496.002727196442
0.00650124607216383,1002.84729120986,1002.42386449132,-0.42342671854226,-1002.63557785059,501.635358964203,501.00021888639
0.00866832809621844,1008.83265021234,1008.2379811007,-0.594669111646795,-1008.53531565652,504.713659661995,503.821655994525
0.0108354101202731,1012.57455426855,1011.86469802208,-0.709856246468462,-1012.21962614532,506.642205257511,505.577420887808
0.0130024921443277,1014.91304405251,1013.84510728619,-1.06793676631605,-1014.37907566935,507.990490409411,506.388585259937
0.0151695741683823,1016.58132038188,1016.35422529923,-0.227095082652909,-1016.46777284056,508.404207732268,508.063565108289
0.0173366561924369,1018.05648630221,1018.16345209315,0.106965790936897,-1018.10996919768,508.974760255637,509.135208942042
0.0195037382164915,1019.12621562178,1018.66163957094,-0.46457605083549,-1018.89392759636,509.795395836307,509.098531760053
0.0216708202405461,1019.09204333715,1019.83623020642,0.744186869270607,-1019.46413677179,509.173928233941,510.290208537847
0.0238379022646007,1019.06714838861,1020.69193458062,1.62478619201238,-1019.87954148461,508.721181098298,511.158360386316
0.0260049842886553,1020.13028959978,1020.77521182457,0.644922224797483,-1020.45275071218,509.74268368749,510.710067024686
0.0281720663127099,1020.36532463916,1020.29546939422,-0.0698552449398449,-1020.33039701669,510.217589942051,510.112807074641
0.0303391483367645,1020.8070198016,1019.94542890409,-0.861590897505039,-1020.37622435284,510.834305349551,509.541919003294
0.0325062303608192,1020.85915947176,1020.23035445374,-0.628805018019079,-1020.54475696275,510.743982244888,509.800774717859
0.0346733123848738,1020.89721030885,1020.43828932636,-0.458920982490895,-1020.6677498176,510.67806564567,509.989684171934
0.0368403944089284,1021.19514369175,1021.13036972314,-0.0647739686111208,-1021.16275670745,510.629958830183,510.532797877266
0.039007476432983,1021.14242366682,1021.09514903528,-0.0472746315348331,-1021.11878635105,510.594849149177,510.523937201875
0.0411745584570376,1021.10394673911,1021.06944373901,-0.0345030001026316,-1021.08669523906,510.569224869609,510.517470369455
0.0433416404810922,1021.61617935778,1021.32084030061,-0.295339057178808,-1021.4685098292,510.955759207482,510.512750621714
0.0455087225051468,1021.71987110981,1021.50431990381,-0.215551205998963,-1021.61209550681,510.967711157905,510.644384348907
0.0476758045292014,1021.79554975565,1020.82776155619,-0.967788199458823,-1021.31165565592,511.381668977555,509.929986678366
0.049842886553256,1021.58062691717,1020.33398011897,-1.24664679819864,-1020.95730351807,511.413636857683,509.543666660385
0.0520099685773107,1021.42376689812,1020.51390958509,-0.909857313024872,-1020.96883824161,511.166812105572,509.802026136035
0.0541770506013653,1021.30928361854,1020.91538621106,-0.393897407474697,-1021.1123349148,510.851590513006,510.260744401794
0.0563441326254199,1021.7660411933,1021.20840139044,-0.557639802862468,-1021.48722129187,511.161840498084,510.32538079379
0.0585112146494745,1021.5590903963,1021.15210045751,-0.406989938788115,-1021.3555954269,510.983040167542,510.372555259359
0.0606782966735291,1021.40804864882,1021.11100957302,-0.297039075800058,-1021.25952911092,510.852543862308,510.406985248608
0.0628453786975837,1021.29781177007,1021.08101964687,-0.216792123194068,-1021.18941570847,510.757301946631,510.43211376184
0.0650124607216383,1021.21735606982,1021.05913168583,-0.158224383996753,-1021.13824387782,510.68779022691,510.450453650915
0.0671795427456929,1020.88847976421,1019.152063403,-1.73641636121431,-1020.0202715836,511.312448062712,508.70782352089
0.0693466247697475,1021.18876386116,1013.43770206883,-7.75106179233046,-1017.31323296499,514.469912826744,502.843320138248
0.0715137067938021,1020.59745570709,1006.56554883154,-14.0319068755467,-1013.58150226931,517.314681291317,496.266820977997
0.0736807888178568,1020.97636176047,1001.27979427289,-19.6965674875811,-1011.12807801668,520.336464624024,490.791613392653
0.0758478708419114,1021.25290398967,998.232487780469,-23.0204162092049,-1009.74269588507,522.136660099439,487.606035785632
0.078014952865966,1021.45473661776,997.359211126629,-24.0955254911329,-1009.4069738722,522.775131054447,486.631842817748
0.0801820348900206,1021.60204290759,999.963730128347,-21.6383127792462,-1010.78288651797,521.62017784342,489.16270867455
0.0823491169140752,1021.1692410644,1003.75571562586,-17.4135254385394,-1012.46247834513,519.29138325147,493.171095093661
0.0845161989381298,1021.12351953955,1007.87405374518,-13.2494657943705,-1014.49878664236,517.186492666959,497.312293975404
0.0866832809621844,1021.09014996865,1011.42010966266,-9.67004030599196,-1016.25512981566,515.380095137322,500.875034678334
0.088850362986239,1021.60610781837,1013.19770791074,-8.40839990762822,-1017.40190786455,515.007253862998,502.394654001555
0.0910174450102936,1021.71252023804,1010.71288998366,-10.999630254381,-1016.21270511085,516.356075246212,499.856629864641
0.0931845270343482,1021.24987225778,1007.00826757186,-14.2416046859232,-1014.12906991482,517.745738471851,496.383331442966
0.0953516090584029,1021.18236771517,1005.6552529766,-15.5271147385633,-1013.41881034588,518.354741226864,495.064069119019
0.0975186910824575,1020.8629437322,1007.09916958586,-13.7637741463406,-1013.98105665903,517.313358939269,496.667697719758
0.0996857731065121,1021.17012654619,1011.12472148428,-10.0454050619072,-1016.14742401524,515.607765804049,500.539658211189
0.101852855130567,1021.39432201481,1011.09102720055,-10.3032948142543,-1016.24267460768,515.84880841453,500.393866193148
0.104019937154621,1021.28779347303,1008.36487351816,-12.9229199548716,-1014.82633349559,517.10535671395,497.720976781642
0.106187019178676,1021.21004427855,1007.45583203506,-13.7542122434894,-1014.33293815681,517.482128261021,496.850809895787
0.108354101202731,1021.42345572381,1007.60284239109,-13.8206133327128,-1014.51314905745,517.622034528259,496.89111452919
0.110521183226785,1021.30905652957,1009.06091804559,-12.2481384839774,-1015.18498728758,516.778597506772,498.406389780806
0.11268826525084,1021.76587541203,1012.55649141149,-9.20938400053831,-1017.16118341176,515.487629706283,501.673553705476
0.114855347274894,1021.55896941195,1015.37787013041,-6.18109928153831,-1018.46841977118,513.870034346744,504.598385424436
0.117022429298949,1021.13780414119,1016.62656722676,-4.51123691443536,-1018.88218568398,512.824520527814,506.057665156161
0.119189511323004,1021.3707317083,1017.80807725765,-3.56265445064764,-1019.58940448298,512.466693079474,507.122711403502
0.121356593347058,1021.54073244624,1018.94055122618,-2.60018122005306,-1020.24064183621,512.070456833145,508.170185003065
0.123523675371113,1021.93496264067,1018.1461430461,-3.78881959456533,-1020.04055284339,512.861891117617,507.178661725769
0.125690757395167,1021.9525328873,1012.70353735694,-9.24899553035186,-1017.32803512212,515.600764208824,501.727270913296
0.127857839419222,1021.69520021078,1007.11034813225,-14.5848520785319,-1014.40277417151,518.140026144656,496.262748026858
0.130024921443277,1021.50738755534,1003.83866235639,-17.6687251989501,-1012.67302495587,519.588056377147,493.084968578722
0.132192003467331,1021.37031365544,999.829905544948,-21.5404081104933,-1010.60010960019,521.455360882967,489.144748717227
0.134359085491386,1021.54042733295,997.174295499869,-24.3661318330858,-1009.35736141641,522.95327958302,486.404081833392
0.13652616751544,1021.66458374376,997.667520911621,-23.9970628321421,-1009.66605232769,522.830823287953,486.83522903974
0.138693249539495,1021.48504231708,1002.62015401635,-18.864888300723,-1012.05259816672,520.1749653089,491.877632857815
0.14086033156355,1021.89431754584,1007.31542737021,-14.578890175633,-1014.60487245802,518.236603860737,496.368268597288
0.143027413587604,1021.92286831732,1008.31083755424,-13.6120307630792,-1015.11685293578,517.767449540199,497.34940339558
0.145194495611659,1021.67354970865,1010.65826876492,-11.015280943732,-1016.16590923679,516.344415326193,499.821493910595
0.147361577635714,1021.76174228273,1013.72230791146,-8.03943437127145,-1017.74202509709,514.900588327,502.841436770093
0.149528659659768,1021.5559528732,1015.68842163727,-5.86753123593815,-1018.62218725524,513.711742054571,504.910445200664
0.151695741683823,1021.94607117474,1017.66368995055,-4.2823812241985,-1019.80488056264,513.114226199471,506.690654363173
0.153862823707877,1022.23079659376,1018.83517104701,-3.39562554675047,-1020.53298382038,512.813211070254,507.719772750128
0.156029905731932,1021.8982892484,1018.06923197694,-3.82905727146397,-1019.98376061267,512.863673259934,507.120087352738
0.158196987755987,1021.92576703976,1018.59084095205,-3.33492608770905,-1020.25830399591,512.630346563735,507.627957432172
0.160364069780041,1021.67566532322,1019.78200265799,-1.89366266523837,-1020.7288339906,511.784663994231,508.944169996374
0.162531151804096,1021.76328635088,1020.38120841785,-1.38207793303479,-1021.07224738436,511.572682141958,509.499565242405
0.16469823382815,1022.0973922255,1021.08869123136,-1.00870099413476,-1021.59304172843,511.553046609816,510.039995118613
0.166865315852205,1021.80092489892,1021.33488695614,-0.466037942776552,-1021.56790592753,511.133481420848,510.434424506683
0.16903239787626,1021.58455006223,1020.97425895279,-0.610291109439231,-1021.27940450751,511.097420585836,510.181983921677
0.171199479900314,1021.42663023177,1020.9812130566,-0.445417175174157,-1021.20392164418,510.936023703473,510.267897940711
0.173366561924369,1021.85168584823,1021.5266008898,-0.325084958426487,-1021.68914336902,511.088385403328,510.600757965688
0.175533643948423,1021.89175383764,1021.65449260012,-0.237261237521579,-1021.77312321888,511.06450753758,510.708615681298
0.177700725972478,1021.92099721081,1021.74783357044,-0.173163640368784,-1021.83441539063,511.04708042559,510.787334965037
0.179867807996533,1021.67218409319,1019.65470820284,-2.01747589035438,-1020.66344614802,511.844829991774,508.818616156243
0.182034890020587,1021.76074559677,1015.15533532493,-6.60541027183501,-1018.45804046085,514.183077934302,504.274962526549
0.184201972044642,1021.55522544815,1011.87149597952,-9.68372946862758,-1016.71336071383,515.619477458387,501.093883255446
0.186369054068696,1021.40522784434,1010.0151186558,-11.3901091885396,-1015.71017325007,516.39766851644,499.312504733631
0.188536136092751,1021.56590923684,1010.28119046889,-11.2847187679474,-1015.92354985287,516.425314002394,499.498235850473
0.190703218116806,1021.41302534115,1013.44709965946,-7.96592568169024,-1017.43006250031,514.689475511421,502.740586988886
0.19287030014086,1021.30144397958,1015.21740639223,-6.08403758734539,-1018.25942518591,513.692740783463,504.566684402444
0.195037382164915,1020.67969459222,1016.23929755236,-4.44039703986357,-1018.45949607229,512.560045816043,505.899450256247
0.19720446418897,1021.30653951157,1015.90449362023,-5.40204589134112,-1018.6055165659,513.354292701457,505.251223864445
0.199371546213024,1021.49388217021,1013.22873314328,-8.26514902692588,-1017.36130765675,514.879515598567,502.481792058178
0.201538628237079,1021.36045683399,1012.62662704002,-8.73382979397343,-1016.99354193701,515.047143313984,501.946398623024
0.203705710261133,1021.26307718118,1014.34843333573,-6.9146438454452,-1017.80575525846,514.088860513312,503.716894745144
0.205872792285188,1020.65169282274,1016.14539538876,-4.50629743397496,-1018.39854410575,512.578995128357,505.819548977394
0.208039874309243,1021.28610259406,1017.1867407688,-4.0993618252603,-1019.23642168143,512.692732209659,506.543689471769
0.210206956333297,1020.93865398917,1018.75722886133,-2.18142512784186,-1019.84794142525,511.560039558506,508.287901866743
0.212374038357352,1021.22538320694,1019.63328362812,-1.59209957882251,-1020.42933341753,511.408741392881,509.020592024648
0.214541120381406,1021.43465074541,1020.27266675772,-1.1619839876854,-1020.85365875156,511.298317366546,509.555341385017
0.216708202405461,1021.85753957028,1020.73931656309,-1.11822300718848,-1021.29842806669,511.487881288736,509.810546777953
0.218875284429516,1021.62586992845,1020.80974181291,-0.816128115538731,-1021.21780587068,511.220999021992,509.996806848684
0.22104236645357,1021.45678727945,1020.59098503214,-0.865802247314491,-1021.02388615579,511.161294763383,509.862591392412
0.223209448477625,1021.3333833584,1021.2417953902,-0.0915879682067953,-1021.2875893743,510.712485663305,510.575103710995
0.225376530501679,1021.51347398507,1019.82569180418,-1.68778218089278,-1020.66958289462,511.600628082981,509.068954811641
0.227543612525734,1021.91506822211,1019.06231361044,-2.85275461166816,-1020.48869091628,512.38391141689,508.104779499387
0.229710694549789,1021.93801306949,1019.58579162524,-2.35222144425211,-1020.76190234737,512.145117256872,508.616785090494
0.231877776573843,1021.95475922382,1020.50816122631,-1.4465979975181,-1021.23146022507,511.700678610671,509.530781614394
0.234044858597898,1021.69682508867,1020.91119073813,-0.785634350535929,-1021.3040079134,511.241229719601,510.062778193797
0.236211940621953,1021.77872967425,1021.20533932377,-0.573390350478917,-1021.49203449901,511.176060012363,510.315974486645
0.238379022646007,1021.83850722725,1021.14986562991,-0.688641597341416,-1021.49418642858,511.263574412297,510.230612016285
0.240546104670062,1021.61197929111,1020.83922228717,-0.772757003938068,-1021.22560078914,511.192368147524,510.033232641617
0.242713186694116,1021.17649307221,1020.34234496128,-0.834148110928595,-1020.75941901674,511.005320591569,509.754098425176
0.244880268718171,1020.58849994866,1021.060326979,0.47182703034639,-1020.82441346383,510.058336459155,510.766077004674
0.247047350742226,1020.69966924371,1021.58434169462,0.884672450912603,-1021.14200546917,509.9074983964,511.234507072769
0.24921443276628,1020.78080546314,1021.42647815597,0.645672692826793,-1021.10364180955,510.067566385156,511.036075424396
0.251381514790335,1021.38033465262,1020.77095000916,-0.609384643462818,-1021.07564233089,510.994859648043,510.080782682849
0.253548596814389,1021.27758488363,1020.83282928702,-0.44475559661214,-1021.05520708532,510.86117024012,510.194036845202
0.255715678838444,1021.74290602674,1021.14814770544,-0.594758321294421,-1021.44552686609,511.168832174016,510.276694692074
0.257882760862499,1021.54220534878,1021.10812468254,-0.434080666234308,-1021.32516501566,510.988143007506,510.337022008154
0.260049842886553,1021.66588141757,1021.61922655164,-0.0466548659260297,-1021.6425539846,510.856268141746,510.786285842857
0.262216924910608,1021.75614562811,1021.72209486403,-0.0340507640820533,-1021.73912024607,510.895098196097,510.844022049974
0.264384006934662,1021.5518681896,1022.0673288747,0.515460685096969,-1021.80959853215,510.518203752251,511.291394779896
0.266551088958717,1021.13262135817,1021.50882713721,0.37620577904238,-1021.32072424769,510.378207789565,510.942516458129
0.268718170982772,1021.09679287444,1021.37136432533,0.274571450892154,-1021.23407859988,510.411110711772,510.82296788811
0.270885253006826,1021.61095610188,1021.54119415784,-0.0697619440405788,-1021.57607512986,510.840359022963,510.735716106902
0.273052335030881,1021.71605872765,1021.66514340615,-0.0509153215058404,-1021.6906010669,510.883487024579,510.80711404232
0.275219417054936,1021.52261101431,1021.75560699506,0.232995980750047,-1021.63910900469,510.644807516781,510.994301487906
0.27738649907899,1021.92173682615,1021.82163128348,-0.100105542662277,-1021.87168405481,511.010921184404,510.860762870411
0.279553581103045,1022.2130363206,1021.32950627651,-0.883530044084182,-1021.77127129855,511.54828318234,510.222988116213
0.281720663127099,1022.4256394471,1021.7808005328,-0.644838914299612,-1022.10321998995,511.535239180702,510.567980809252
0.283887745151154,1022.31065030645,1021.56986241863,-0.740787887816623,-1021.94025636254,511.525719097134,510.414537265409
0.286054827175209,1022.22672619644,1021.41591054633,-0.810815650115387,-1021.82131837139,511.518770923279,510.302547448106
0.288221909199263,1021.89531849421,1021.30354972865,-0.591768765553979,-1021.59943411143,511.243543629881,510.35589048155
0.290388991223318,1021.65344264139,1021.22154388385,-0.43189875754797,-1021.43749326262,511.042670699471,510.394822563149
0.292556073247372,1021.74706726459,1021.16169242742,-0.585374837168388,-1021.45437984601,511.16622105088,510.288158795127
0.294723155271427,1021.2750861905,1020.84785400187,-0.42723218863398,-1021.06147009619,510.851159189569,510.210310906618
0.296890237295482,1021.20076994734,1020.88895718838,-0.311812758963015,-1021.04486356786,510.756291353151,510.288572214707
0.299057319319536,1021.14653069891,1020.91895609372,-0.227574605188352,-1021.03274339631,510.687052652049,510.345690744266
0.301224401343591,1021.37710073224,1021.21100682031,-0.166093911932535,-1021.29405377627,510.771597322086,510.522456454188
0.303391483367645,1021.27522462692,1017.91212747459,-3.36309715232971,-1019.59367605076,512.319160889627,507.274515161132
0.3055585653917,1021.74118340804,1012.53274254575,-9.20844086229113,-1017.1369629769,515.474812135168,501.662150841731
0.307725647415755,1021.27079189435,1010.76788156646,-10.5029103278935,-1016.01933673041,515.886851111123,500.132485619283
0.309892729439809,1021.19763578197,1013.26199571002,-7.93564007195391,-1017.22981574599,514.566637926961,502.663177819031
0.312059811463864,1020.60393082404,1015.08230942457,-5.52162139946643,-1017.84312012431,513.062776111753,504.780344012553
0.314226893487919,1020.71093137226,1014.24960438661,-6.4613269856419,-1017.48026787943,513.586129178949,503.894138700486
0.316393975511973,1021.32933748144,1012.8313911517,-8.49794632973988,-1017.08036431657,514.913641905591,502.166722410981
0.318561057536028,1021.24036491503,1014.2277229388,-7.01264197622379,-1017.73404392692,514.126503445626,503.60754048129
0.320728139560082,1021.44558505199,1016.32745186727,-5.11813318471502,-1018.88651845963,513.281859118352,505.604659341279
0.322895221584137,1021.32520748228,1017.04945734686,-4.27575013542116,-1019.18733241457,512.800478808849,506.386853605717
0.325062303608192,1021.50750687266,1018.38687719674,-3.12062967592612,-1019.9471920347,512.314068274295,507.633123760406
0.327229385632246,1021.37040073845,1018.55251613068,-2.81788460776693,-1019.96145843456,512.094142673107,507.867315761456
0.329396467656301,1021.81064710182,1018.67340667769,-3.13724042412787,-1020.24202688975,512.473943762972,507.76808312678
0.331563549680355,1021.8618019635,1018.22132546872,-3.64047649477311,-1020.04156371611,512.751139229135,507.290424486975
0.33373063170441,1021.35882459778,1016.54059574727,-4.81822885051054,-1018.94971017253,513.088526724147,505.861183448381
0.335897713728465,1021.26188590372,1012.34220726996,-8.91967863375874,-1016.80204658684,515.090782268739,501.711264318101
0.338064795752519,1021.4612920119,1007.92725846029,-13.5340335516128,-1014.69427523609,517.497662781756,497.196612454337
0.340231877776574,1021.60682732127,1003.35425443728,-18.2525728839862,-1012.48054087928,519.929700102628,492.550840776649
0.342398959800628,1021.4428891509,1000.55698828175,-20.8859008691434,-1010.99993871632,521.164395010019,489.835543706304
0.344566041824683,1021.59339610748,999.866202013754,-21.7271940937284,-1010.72979906062,521.660295100605,489.069503960013
0.346733123848738,1021.43308646295,1000.98297321836,-20.4501132445847,-1011.20802984065,520.941599853765,490.266429986888
0.348900205872792,1021.3160854647,1003.68913522791,-17.6269502367981,-1012.5026103463,519.471517850751,493.031092495554
0.351067287896847,1021.23069301293,1006.74483560773,-14.4858574052046,-1013.98776431033,517.858275209068,496.129489101261
0.353234369920902,1021.43852607432,1008.43470712458,-13.0038189497465,-1014.93661659945,517.221172512035,497.715444087416
0.355401451944956,1021.59021174315,1008.85758071827,-12.7326310248779,-1015.22389623071,517.161421384014,498.062474846697
0.357568533969011,1021.70091858629,1009.43636859566,-12.2645499906256,-1015.56864359098,516.982734288458,498.585909302519
0.359735615993065,1021.24140486432,1009.04832469701,-12.1930801673075,-1015.14486478066,516.717242515811,498.42762226485
0.36190269801712,1021.44634405252,1009.84573811554,-11.6006059369769,-1015.64604108403,516.523474994747,499.122566089281
0.364069780041175,1021.3257614341,1011.23819398124,-10.0875674528573,-1016.28197770767,515.706664443477,500.575313264191
0.366236862065229,1021.50791117096,1012.79478166881,-8.71312950215201,-1017.15134641988,515.110520336556,502.040826083328
0.368403944089284,1021.91100823679,1014.20100373513,-7.71000450166184,-1018.05600598596,514.810506369225,503.245499616733
0.370571026113338,1021.66489370255,1015.49748238683,-6.16741131572292,-1018.58118804469,513.916152509139,504.665035535554
0.372738108137393,1021.75542475045,1015.36308442973,-6.39234032071442,-1018.55925459009,514.07388253558,504.485372054509
0.374905190161448,1022.09165448526,1011.75296416127,-10.3386903239802,-1016.92230932326,516.215172404618,500.707136918647
0.377072272185502,1022.33704966859,1006.6867344021,-15.650315266489,-1014.51189203534,518.993682467539,495.518209567806
0.379239354209557,1022.24599360691,1002.44886565939,-19.7971279475183,-1012.34742963315,521.021560777214,491.325868855937
0.381406436233611,1021.90938069405,1001.5171331776,-20.3922475164547,-1011.71325693582,521.150814105253,490.562442830571
0.383573518257666,1022.20401827434,1001.64758264918,-20.5564356251649,-1011.92580046176,521.380226949753,490.545573512005
0.385740600281721,1022.14890147019,1003.09357144503,-19.0553300251618,-1012.62123645761,520.602115747677,492.019120709934
0.387907682305775,1021.83851860119,1008.47141677533,-13.3671018258568,-1015.15496768826,517.602810213524,497.552157474739
0.39007476432983,1022.15230001605,1012.39640378317,-9.75589623288079,-1017.27435189961,515.954098124467,501.320253775146
0.392241846353884,1021.84099900878,1014.72071874558,-7.12028026319285,-1018.28085887718,514.480639635985,503.800219241195
0.394408928377939,1021.88395411425,1016.68726179442,-5.19669231982425,-1019.28560795434,513.540323217037,505.7452847373
0.396576010401994,1022.18546084302,1018.12253102271,-4.06292982030971,-1020.15399593286,513.124195331664,507.0298006012
0.398743092426048,1022.13535744422,1019.17005335326,-2.96530409095453,-1020.65270539874,512.550330767586,508.102374631155
0.400910174450103,1022.36894600171,1019.12411238353,-3.24483361818136,-1020.74652919262,512.806889809946,507.939639382674
0.403077256474158,1022.2692729475,1019.90105128776,-2.36822165973967,-1021.08516211763,512.318747303622,508.766414814012
0.405244338498212,1022.46668339992,1020.73825153265,-1.72843186727209,-1021.60246746628,512.097557633595,509.504909832687
0.407411420522267,1022.61076219232,1021.34927693079,-1.26148526153167,-1021.98001956156,511.936123726928,510.043895834631
0.409578502546321,1022.44576099209,1021.52507381015,-0.920687181944345,-1021.98541740112,511.683224087018,510.302193314102
0.411745584570376,1022.0551796792,1021.38322185865,-0.671957820551484,-1021.71920076892,511.363568749874,510.355632019047
0.413912666594431,1022.31042875796,1020.73937966926,-1.57104908870031,-1021.52490421361,511.940738923332,509.584165290282
0.416079748618485,1021.95640828878,1020.80978787055,-1.14662041823271,-1021.38309807967,511.551514353509,509.83158372616
0.41824683064254,1021.69802864848,1020.8611748589,-0.836853789588304,-1021.27960175369,511.267441219036,510.012160534654
0.420413912666594,1021.7796080849,1021.168835545,-0.610772539902655,-1021.47422181495,511.195190312403,510.279031502549
0.422580994690649,1021.83914832981,1021.39337978561,-0.44576854420734,-1021.61626405771,511.14245843701,510.473805620699
0.424748076714704,1021.61244719583,1021.2871057929,-0.325341402932736,-1021.44977649437,510.968894299383,510.480882194983
0.426915158738758,1021.44699078143,1021.20954237948,-0.237448401951497,-1021.32826658046,510.842219591693,510.486046988766
0.429082240762813,1021.59638965705,1018.72152729717,-2.87486235988172,-1020.15895847711,512.235626008467,507.923332468645
0.431249322786868,1021.70542749838,1015.28472767335,-6.42069982502994,-1018.49507758586,514.063063661703,504.432013924158
0.433416404810922,1021.51485187766,1013.04655702873,-8.46829484893794,-1017.2807044532,514.991573363301,502.289131089894
0.435583486834977,1021.91607386846,1012.49366693447,-9.4224069339964,-1017.20487040146,515.66924040123,501.535630000235
0.437750568859031,1021.93874703424,1014.79170565237,-7.14704138186653,-1018.3652263433,514.542894208051,503.822332135251
0.439917650883086,1021.68513869156,1016.46891493551,-5.21622375605159,-1019.07702681354,513.450681223806,505.626345589729
0.442084732907141,1021.50004421804,1017.6930157122,-3.8070285058418,-1019.59652996512,512.653536361942,506.942993603179
0.444251814931195,1021.09479795446,1018.31626184824,-2.77853610621617,-1019.70552990135,511.936667030336,507.768862871012
0.44641889695525,1021.06918769819,1019.31144659285,-1.75774110534053,-1020.19031714552,511.413464401764,508.776852743753
0.448585978979304,1021.59080863548,1020.30793220861,-1.28287642687076,-1020.94937042204,511.436842531175,509.512527890869
0.450753061003359,1021.70135422445,1020.49489862149,-1.20645560295952,-1021.09812642297,511.453904913704,509.644221509265
0.452920143027414,1021.78203523586,1020.63135489652,-1.15068033934438,-1021.20669506619,511.466357787604,509.740337278587
0.455087225051468,1021.03045113525,1018.8398531781,-2.1905979571502,-1019.93515215667,511.6105245462,508.324627610474
0.457254307075523,1021.0222245719,1015.91139950626,-5.11082506564401,-1018.46681203908,513.066524818774,505.400287220308
0.459421389099577,1021.28637667762,1012.15314851382,-9.13322816380389,-1016.71976259572,515.209802420711,501.509960175006
0.461588471123632,1020.93885402735,1011.8416182796,-9.09723574775603,-1016.39023615348,515.018044887555,501.372191265921
0.463755553147687,1020.95537299169,1014.04565578018,-6.90971721151061,-1017.50051438594,513.932545101603,503.567969284337
0.465922635171741,1021.23758546708,1014.5736340113,-6.6639514557744,-1017.90560973919,513.950768461426,503.954841277764
0.468089717195796,1021.71371270104,1011.17678867735,-10.5369240236904,-1016.44525068919,516.125318362365,500.319932326829
0.47025679921985,1021.79105499323,1004.37512282118,-17.41593217205,-1013.08308890721,519.603493582642,493.479595324567
0.472423881243905,1021.30719036101,995.358626069062,-25.948564291946,-1008.33290821503,523.627877326477,484.705030888558
0.47459096326796,1021.22420097675,990.128772983204,-31.0954279935501,-1005.67648697998,526.159814485152,479.516672494827
0.476758045292014,1020.8934754783,990.634296585614,-30.2591788926911,-1005.76388603196,525.576327185498,480.187558846461
0.478925127316069,1021.4625661633,995.055593024659,-26.4069731386417,-1008.25907959398,523.934769650971,484.324309943009
0.481092209340124,1021.87791346463,1001.7944795205,-20.083433944125,-1011.83619649256,520.980673704376,490.855522788188
0.483259291364178,1021.91089590054,1006.71281396839,-15.1980819321492,-1014.31185493447,518.554488916346,495.757366018123
0.485426373388233,1021.93496792652,1009.49196117751,-12.4430067490032,-1015.71346455201,517.188987337759,498.524477214254
0.487593455412287,1022.22269295701,1009.89936723315,-12.3233257238589,-1016.06103009508,517.273009340434,498.788020754646
0.489760537436342,1021.62221864759,1008.03546031713,-13.5867583304588,-1014.82883948236,517.604488489024,497.224350993336
0.491927619460397,1021.99443483854,1006.9452556447,-15.0491791938477,-1014.46984524162,518.521807016196,495.948038225425
0.494094701484451,1021.99593830148,1008.85113865545,-13.1447996460334,-1015.42353847847,517.570368973758,497.853169504707
0.496261783508506,1021.45672317082,1012.40338522672,-9.05333794410615,-1016.93005419877,515.255030557465,501.675023641306
0.49842886553256,1021.60349278099,1014.72581410879,-6.87767867220418,-1018.16465344489,514.240585726598,503.924067718292
0.500595947556615,1021.71061166926,1016.15066818986,-5.55994347939441,-1018.93063992956,513.635277574327,505.295362355235
0.50276302958067,1021.51863551258,1017.4607453018,-4.05789021078078,-1019.48969040719,512.78826286168,506.701427545509
0.504930111604724,1021.37852290716,1018.68705315579,-2.69146975137357,-1020.03278803147,512.034996329267,507.997791702206
0.507097193628779,1021.54641880433,1019.31191011348,-2.23450869084706,-1020.4291644589,511.890463747587,508.538700711316
0.509264275652833,1020.85848794631,1018.14702081129,-2.71146713502003,-1019.5027543788,511.784977540665,507.717776838135
0.511431357676888,1021.16687451854,1016.21620874274,-4.95066577579667,-1018.69154163064,513.058770147169,505.632771483474
0.513598439700943,1021.12179233075,1013.45623648911,-7.6655558416395,-1017.28901440993,514.393674086197,502.895340323738
0.515765521724997,1021.08888937604,1010.09110682504,-10.9977825510044,-1015.58999810054,516.043335963524,499.546662137017
0.517932603749052,1021.33503157081,1007.90524405534,-13.4297875154698,-1014.62013781307,517.382409543138,497.237728269934
0.520099685773107,1020.97436449891,1011.17271750486,-9.80164699404941,-1016.07354100188,515.388005746479,500.685535255405
0.522266767797161,1021.25144630064,1014.36793134048,-6.8835149601623,-1017.80968882056,514.067480630403,503.74220819016
0.524433849821216,1021.18351652057,1016.15962588641,-5.02389063416308,-1018.67157120349,513.103703577368,505.567867626124
0.52660093184527,1021.40409460443,1017.19712680911,-4.20696779532352,-1019.30061070677,512.805531199877,506.495079506892
0.528768013869325,1021.29492593686,1018.22449662459,-3.07042931227295,-1019.75971128072,512.182677624567,507.577033656157
0.53093509589338,1021.21524986298,1018.97431610253,-2.24093376044971,-1020.09478298275,511.728091811713,508.366691171038
0.533102177917434,1021.42725498726,1019.25141097885,-2.17584400841463,-1020.33933298305,511.801549497837,508.537783485215
0.535269259941489,1021.3118293984,1019.72380316492,-1.58802623347765,-1020.51781628166,511.449927815938,509.067888465722
0.537436341965543,1021.49774296125,1020.60888809123,-0.888854870016871,-1021.05331552624,511.193298915633,509.860016610607
0.539603423989598,1021.63343082022,1020.71454940292,-0.918881417301122,-1021.17399011157,511.276156118762,509.897833992811
0.541770506013653,1021.73246176122,1020.79166565491,-0.940796106315361,-1021.26206370806,511.336628933768,509.925434774295
0.543937588037707,1021.80473887834,1021.11810468425,-0.686634194089606,-1021.4614217813,511.245686536215,510.21573524508
0.546104670061762,1021.85748988329,1021.08619797015,-0.77129191314441,-1021.47184392672,511.314390898219,510.157453028502
0.548271752085816,1021.89598987658,1021.33306726493,-0.56292261164208,-1021.61452857076,511.229456244109,510.385072326646
0.550438834109871,1021.65393264565,1021.24308707434,-0.41084557130398,-1021.44850985999,511.032389108475,510.416120751519
0.552605916133926,1021.47726867928,1021.44757180305,-0.0296968762245342,-1021.46242024117,510.753482777751,510.708937463415
0.55477299815798,1021.61848779271,1021.59681371207,-0.0216740806392863,-1021.60765075239,510.820080936675,510.787569815716
0.556940080182035,1021.99171189729,1021.43558078043,-0.556131116861252,-1021.71364633886,511.273921507074,510.439724831782
0.559107162206089,1022.26410719159,1021.85821835056,-0.405888841026126,-1022.06116277108,511.334998016309,510.726164754769
0.561274244230144,1022.46291320505,1021.89652154389,-0.566391661165198,-1022.17971737447,511.51465243311,510.665064941362
0.563441326254199,1022.06769811528,1021.38416446786,-0.683533647420745,-1021.72593129157,511.37561588135,510.350315410219
0.565608408278253,1021.77925283703,1021.28038005049,-0.498872786546713,-1021.52981644376,511.13906281179,510.39075363197
0.567775490302308,1022.10904526623,1021.47478985003,-0.634255416199039,-1021.79191755813,511.371650341216,510.420267216918
0.569942572326363,1021.80942979831,1021.34652242271,-0.462907375599684,-1021.57797611051,511.136168586957,510.441807523557
0.572109654350417,1021.59075731023,1021.25290723766,-0.337850072560173,-1021.42183227395,510.964303691393,510.457528582552
0.574276736374472,1021.70131676503,1021.45473898825,-0.246577776776803,-1021.57802787664,510.973947270904,510.604080605739
0.576443818398526,1022.05216410821,1021.3318884258,-0.720275682414353,-1021.692026267,511.386219895313,510.305806371691
0.578610900422581,1021.76791543847,1021.24222670592,-0.525688732550066,-1021.50507107219,511.14680208551,510.358268986685
0.580777982446636,1021.56045831257,1020.90663144476,-0.653826867812313,-1021.23354487867,511.107142590194,510.126402288475
0.58294506447069,1021.67920322981,1021.20201175183,-0.477191477984206,-1021.44060749082,511.078197353897,510.36241013692
0.585112146494745,1021.76586847002,1021.1474370222,-0.618431447826197,-1021.45665274611,511.192149958925,510.264502787186
0.587279228518799,1021.82912055724,1021.37776220666,-0.451358350579198,-1021.60344138195,511.140239453911,510.463201928042
0.589446310542854,1021.33497227644,1021.00555118805,-0.329421088390177,-1021.17026173225,510.832196682416,510.338065049831
0.591613392566909,1021.24447743516,1021.00405150012,-0.240425935040093,-1021.12426446764,510.742451685098,510.381812782538
0.593780474590963,1021.17843033739,1021.00295696219,-0.175473375193974,-1021.09069364979,510.67695185629,510.413741793499
0.595947556615018,1021.40038248523,1021.27231433236,-0.128068152867286,-1021.33634840879,510.764225319047,510.572123089746
0.598114638639073,1021.83252909346,1020.92859071202,-0.903938381442117,-1021.38055990274,511.368233737452,510.012326165289
0.600281720663127,1021.87777239917,1021.21803858662,-0.659733812546278,-1021.5479054929,511.268753105858,510.279152387039
0.602448802687182,1021.37048052105,1021.69944653176,0.328966010709792,-1021.53496352641,510.520757255172,511.014206271237
0.604615884711236,1021.81070533066,1021.78064291821,-0.0300624124497517,-1021.79567412443,510.920383871553,510.875290252879
0.606782966735291,1021.86184446145,1021.83990359647,-0.0219408649826391,-1021.85087402896,510.941892663218,510.908981365744
0.608950048759346,1022.16932425027,1021.88315463438,-0.286169615885456,-1022.02623944233,511.227746933077,510.798492509249
0.6111171307834,1022.12358025224,1021.91472113573,-0.208859116505096,-1022.01915069399,511.166219684371,510.852931009614
0.613284212807455,1022.09019427943,1021.12729111504,-0.962903164390127,-1021.60874269724,511.526548721911,510.082193975325
0.615451294831509,1022.06582773457,1021.36305884147,-0.702768893099233,-1021.71444328802,511.384298313833,510.330144974185
0.617618376855564,1021.77788775129,1021.53513245204,-0.242755299246596,-1021.65651010167,511.010321525268,510.646188576398
0.619785458879619,1021.56773654314,1021.39056309595,-0.177173447190398,-1021.47914981954,510.872454995165,510.606694824379
0.621952540903673,1021.95467141305,1021.28505004945,-0.669621363596548,-1021.61986073125,511.312146388322,510.307714342927
0.624119622927728,1022.23707342426,1021.47819821977,-0.75887520449055,-1021.85763582201,511.497974314375,510.359661507639
0.626286704951782,1021.90287035415,1021.34901000019,-0.553860353962023,-1021.62594017717,511.228365354058,510.397574823115
0.628453786975837,1021.92911053134,1021.52487899251,-0.404231538829777,-1021.72699476192,511.166671035083,510.560323726838
0.630620868999892,1021.67810554978,1021.3830796722,-0.295025877580542,-1021.53059261099,510.986565713681,510.54402689731
0.632787951023946,1021.4949111232,1021.27958831911,-0.215322804089283,-1021.38724972116,510.855116963646,510.532132757512
0.634955033048001,1021.63136402082,1021.20405579794,-0.427308222878537,-1021.41770990938,511.029336121848,510.38837378753
0.637122115072056,1022.00110953238,1021.14892885656,-0.852180675827299,-1021.57501919447,511.426645104106,510.148374090365
0.63928919709611,1022.00080978532,1021.64900722457,-0.351802560743977,-1021.82490850495,511.176306173031,510.648602331915
0.641456279120165,1022.00059101678,1021.47367389131,-0.526917125478235,-1021.73713245405,511.263754071131,510.473378382914
0.643623361144219,1022.2705875618,1021.61586415904,-0.654723402760396,-1021.94322586042,511.46265548228,510.48057037814
0.645790443168274,1022.19748665112,1021.44948463081,-0.748002020318609,-1021.82348564097,511.472744335722,510.350741305244
0.647957525192329,1021.87397819369,1021.32805356565,-0.545924628037028,-1021.60101587967,511.209951410864,510.391064468808
0.650124607216383,1022.17817997937,1021.50958406894,-0.668595910430781,-1021.84388202415,511.423387944899,510.420494079253
0.652291689240438,1021.85988733924,1021.10176055537,-0.75812678386751,-1021.4808239473,511.309007061553,510.171816885752
0.654458771264492,1021.89773964491,1021.34442552109,-0.553314123819405,-1021.621082583,511.225526884362,510.395555698633
0.656625853288547,1021.65520970319,1021.25137682704,-0.403832876153274,-1021.45329326511,511.029521289672,510.423771975442
0.658792935312602,1022.01851315554,1021.18346581569,-0.835047339845687,-1021.60098948562,511.426780247692,510.174209237923
0.660960017336656,1022.28366792344,1021.13390138592,-1.14976653752285,-1021.70878465468,511.716717230481,509.992067424197
0.663127099360711,1021.66672084807,1021.36788330661,-0.298837541465559,-1021.51730207734,510.982779194768,510.53452288257
0.665294181384765,1021.48660206938,1021.26849734608,-0.218104723298211,-1021.37754970773,510.852353396339,510.525196311392
0.66746126340882,1021.6252997095,1021.73627354391,0.11097383441097,-1021.6807866267,510.757162937544,510.923623689161
0.669628345432875,1021.72652732057,1021.53736467239,-0.189162648181991,-1021.63194599648,510.957844984375,510.674101012102
0.671795427456929,1021.80040766369,1021.3921922681,-0.408215395593174,-1021.5962999659,511.104311529643,510.491988436254
0.673962509480984,1021.58417256132,1021.28623909063,-0.297933470691987,-1021.43520582597,510.941053016005,510.494152809967
0.676129591505038,1021.69651092694,1021.20890982221,-0.487601104731652,-1021.45271037458,511.092056015838,510.36065435874
0.678296673529093,1021.77850038527,1021.42262774789,-0.355872637372954,-1021.60056406658,511.067186511319,510.53337755526
0.680463755553148,1021.56818367024,1020.76813981275,-0.80004385749487,-1021.16816174149,511.184113763868,509.984047977626
0.682630837577202,1021.41468532224,1020.83077828262,-0.583907039622886,-1021.12273180243,510.999296180932,510.123435621498
0.684797919601257,1021.57281171834,1020.06602594514,-1.50678577319968,-1020.81941883174,511.539798745769,509.279620085969
0.686965001625311,1021.14790686252,1018.96756377843,-2.18034308409653,-1020.05773532048,511.66412497331,508.393610347166
0.689132083649366,1021.64826132858,1016.8150769302,-4.83318439837626,-1019.23166912939,513.240722863477,505.990946265913
0.691299165673421,1021.47312950375,1014.70378535125,-6.76934415249355,-1018.0884574275,514.12123682812,503.96722059938
0.693466247697475,1021.61546684116,1012.89271609556,-8.72275074560343,-1017.25409146836,515.169108793382,502.084982674977
0.69563332972153,1021.44919465082,1011.84107466129,-9.60811998953034,-1016.64513465606,515.528657320175,501.11647733588
0.697800411745585,1021.59799813743,1011.34369690502,-10.2543012324103,-1016.47084752123,515.926149684922,500.544697836306
0.699967493769639,1021.97675764966,1013.68225095797,-8.29450669168648,-1017.82950430382,515.135632170674,502.693872133144
0.702134575793694,1022.25319292686,1014.84871768298,-7.40447524387469,-1018.55095530492,514.828834085365,503.722121219553
0.704301657817748,1022.18479128486,1013.26865026944,-8.91614101542348,-1017.72672077715,515.550466150144,502.176254627008
0.706468739841803,1021.32440013574,1008.33326091664,-12.9911392191027,-1014.82883052619,517.157769677423,497.671060848769
0.708635821865858,1021.77707384768,1005.54166629112,-16.2354075565638,-1013.6593700694,519.006240702123,494.653129367278
0.710802903889912,1021.56714252065,1005.12517556594,-16.4419669547083,-1013.34615904329,519.004554737679,494.341604305616
0.712969985913967,1021.41392544568,1006.17198345671,-15.2419419889652,-1013.7929544512,518.327933717322,495.465020733874
0.715137067938021,1021.84241333902,1006.39567726941,-15.4467360696053,-1014.11904530422,518.644574704313,495.474470599905
0.717304149962076,1021.61483014252,1006.28878259719,-15.3260475453343,-1013.95180636985,518.470438843927,495.481367525926
0.719471231986131,1021.71888617214,1005.9406099728,-15.77827619934,-1013.82974807247,518.748581185742,495.081166886732
0.721638314010185,1021.52467460711,1005.41634213383,-16.1083324732798,-1013.47050837047,518.816503540195,494.654004830276
0.72380539603424,1021.38293050279,1002.06199017765,-19.3209403251356,-1011.72246034022,520.351935413962,491.370524926259
0.725972478058295,1021.81979187249,996.101806484909,-25.7179853875795,-1008.9607991787,523.768888630034,485.191910548665
0.728139560082349,1021.59832000569,990.401022381297,-31.1972976243962,-1005.9996711935,526.397808815045,479.601862378451
0.730306642106404,1021.1665239276,985.700028092072,-35.4664958355244,-1003.43327600983,528.316509881561,475.116766128274
0.732473724130458,1021.391692666,982.269036612055,-39.1226560539482,-1001.83036463903,530.257174359976,471.573190279053
0.734640806154513,1021.28587445914,984.087448183189,-37.1984262759489,-1002.68666132116,529.242150367543,473.44451095362
0.736807888178568,1021.47879991006,990.277416386331,-31.2013835237266,-1005.87810814819,526.340091716892,479.538016431302
0.738974970202622,1021.34944914011,995.875751075593,-25.4736980645187,-1008.61260010785,523.411573602315,485.201026505537
0.741142052226677,1021.25504328418,999.421348448672,-21.833694835506,-1010.33819586642,521.544369059842,488.793826806583
0.743309134250731,1021.18614175666,1001.198612031,-19.9875297256589,-1011.19237689383,520.58683574116,490.605541152672
0.745476216274786,1021.40601061668,999.524018485845,-21.8819921308374,-1010.46501455126,521.64400137376,488.821013177504
0.747643298298841,1021.2963243265,997.221201941785,-24.0751223847145,-1009.25876313414,522.685723355607,486.573039778535
0.749810380322895,1020.67595804522,995.810661803775,-24.8652962414482,-1008.2433099245,522.770627143336,485.472682781164
0.75197746234695,1020.76349999221,995.591656481758,-25.171843510455,-1008.17757823699,522.967671751334,485.209906485652
0.754144544371004,1021.0975481503,995.431816807917,-25.665731342379,-1008.26468247911,523.381639746338,484.883042732769
0.756311626395059,1021.61150733528,995.855471238611,-25.7560360966694,-1008.73348928695,523.683771715975,485.049717570971
0.758478708419114,1021.98661725379,995.894516581294,-26.0921006724983,-1008.94056691754,524.039358963146,484.901207954398
0.760645790443168,1022.26038889768,995.652857370236,-26.6075315274486,-1008.95662313396,524.433960212566,484.522662921393
0.762812872467223,1021.9198870076,995.746640108072,-26.1732468995289,-1008.83326355784,524.046566953565,484.786696604272
0.764979954491278,1021.13106139453,998.24649276356,-22.8845686309738,-1009.68877707905,522.007815012754,487.680962066293
0.767147036515332,1020.55534192092,1001.96208817851,-18.5932537424147,-1011.25871504971,519.574297831668,491.684417218046
0.769314118539387,1021.21578148689,1004.6738924113,-16.5418890755839,-1012.94483694909,518.878835281235,494.066001667859
0.771481200563441,1020.88733056593,1006.65308588523,-14.2342446806963,-1013.77020822558,517.560787623311,496.209420602266
0.773648282587496,1020.64761270156,1006.20649446458,-14.4411182369799,-1013.42705358307,517.544365469269,495.882688113799
0.775815364611551,1021.01296853109,1003.98945900728,-17.0235095238064,-1012.50121376918,519.018239027447,493.482974741737
0.777982446635605,1021.00946500186,1000.75043217948,-20.2590328223718,-1010.87994859067,520.634248912114,490.245699678556
0.78014952865966,1021.54722039655,999.467073417121,-22.0801469794309,-1010.50714690684,521.813683687992,488.693463218845
0.782316610683714,1021.39938540716,1000.42151547957,-20.9778699275884,-1010.91045044337,521.188627667375,489.721822775992
0.784483692707769,1021.83180138223,1001.65842151372,-20.1733798685046,-1011.74511144798,521.002590625367,490.74252082261
0.786650774731824,1022.14739749552,1002.83132591112,-19.3160715843997,-1012.48936170332,520.73173453996,491.75762716336
0.788817856755878,1022.37773335836,1004.49783153524,-17.8799018231198,-1013.4377824468,520.128817590741,493.308964856061
0.790984938779933,1022.0055301333,1007.06490137225,-14.9406287610503,-1014.53521575277,518.473079447174,496.062136305599
0.793152020803988,1021.73387992156,1008.39814892273,-13.3357309988293,-1015.06601442215,517.534805460196,497.531208961952
0.795319102828042,1021.26546149011,1011.53246106047,-9.73300042964627,-1016.39896127529,515.49923095988,500.89973031541
0.797486184852097,1020.92358920767,1013.82001930425,-7.10356990342791,-1017.37180425596,514.013579555551,503.35822470041
0.799653266876151,1020.94423205788,1015.75973569032,-5.18449636755236,-1018.3519838741,513.064364212714,505.287619661385
0.801820348900206,1020.68914190199,1017.4455818573,-3.24356004468882,-1019.06736187965,511.96635097334,507.101010906307
0.803987430924261,1020.77312214818,1017.32520515066,-3.44791699752409,-1019.04916364942,512.110519572852,506.938644076566
0.806154512948315,1020.83441460918,1015.0760992641,-5.75831534508484,-1017.95525693664,513.296364977135,504.658891959508
0.80832159497237,1020.60899231924,1012.35397845647,-8.25501386276892,-1016.48148538785,514.432003091003,502.04948229685
0.810488676996424,1020.71462547308,1010.90756791823,-9.80705755485837,-1015.81109669566,515.260841513972,500.550255181684
0.812655759020479,1020.79172117424,1009.31160174806,-11.4801194261769,-1015.05166146115,516.135920300209,498.915741160944
0.814822841044534,1021.38830141656,1007.06617090522,-14.3221305113431,-1014.22723616089,517.855215963954,496.372020196939
0.816989923068588,1021.2833993768,1005.15720094103,-16.1261984357719,-1013.22030015892,518.704798906286,494.515501252629
0.819157005092643,1021.20683727472,1005.92520076591,-15.2816365088047,-1013.56601902032,518.244236891761,495.321782128554
0.821324087116697,1021.69127132385,1006.48572066739,-15.2055506564614,-1014.08849599562,518.448410990155,495.640085005463
0.823491169140752,1021.23436386975,1007.43512505935,-13.7992388104058,-1014.33474446455,517.516801340078,496.81794312447
0.825658251164807,1021.1710490145,1008.66835438098,-12.5026946335192,-1014.91970169774,516.836871824009,498.082829873731
0.827825333188861,1021.1248390607,1010.6490439882,-10.4757950724979,-1015.88694152445,515.800317066598,500.086624457851
0.829992415212916,1021.36126922484,1011.01401314675,-10.3472560780847,-1016.1876411858,515.854262651461,500.333378534334
0.83215949723697,1021.26367009959,1011.01022740811,-10.2534426914799,-1016.13694875385,515.758556395535,500.378392358315
0.834326579261025,1021.46259419617,1009.65668335092,-11.805910845253,-1015.55963877355,516.634252520713,498.925386252833
0.83649366128508,1021.3376215005,1009.20912005256,-12.1285014479365,-1015.27337077653,516.733061474219,498.540309302314
0.838660743309134,1021.24641095488,1010.77356224257,-10.472848712312,-1016.00998659872,515.859629833596,500.150356765127
0.840827825333189,1021.44999771662,1013.80645413993,-7.64354357668901,-1017.62822592827,514.546770646653,503.081455281619
0.842994907357243,1021.59858425002,1015.74983523941,-5.84874901060653,-1018.67420974471,513.723666630312,504.950543114402
0.845161989381298,1021.70702920842,1017.4383560747,-4.26867313371304,-1019.57269264156,512.987851171065,506.584841470496
0.847329071405353,1021.24586466392,1018.4005563056,-2.84530835831924,-1019.82321048476,512.045586511118,507.777623973639
0.849496153429407,1021.44959900955,1017.48187489582,-3.96772411373047,-1019.46573695269,512.708661561641,506.757075391045
0.851663235453462,1021.32813704427,1016.27106855188,-5.05706849238641,-1018.79960279808,513.192602768328,505.607000029749
0.853830317477517,1021.23948878342,1015.38736906313,-5.85211972028105,-1018.31342892327,513.545804251848,504.767624671427
0.855997399501571,1021.71510182465,1015.82303132818,-5.89207049646052,-1018.76906657642,513.803586160553,504.965480415862
0.858164481525626,1021.79206883647,1016.41115293793,-5.38091589854264,-1019.1016108872,513.586492367506,505.515118519692
0.86033156354968,1021.57808652007,1017.11054605333,-4.46754046673584,-1019.3443162867,513.022813493401,506.321502793297
0.862498645573735,1021.42191285567,1018.16130619781,-3.26060665785917,-1019.79160952674,512.341259756765,507.450349769976
0.86466572759779,1021.57808668871,1018.92819696207,-2.64988972664014,-1020.25314182539,512.113988207677,508.139153617717
0.866832809621844,1021.42191297876,1017.32665772757,-4.09525525118659,-1019.37428535316,512.758584114972,506.615701238193
0.868999891645899,1021.03777435481,1015.34731563021,-5.69045872459492,-1018.19254499251,513.3641165397,504.828428452808
0.871166973669953,1021.56788180195,1009.8503619178,-11.7175198841525,-1015.70912185987,516.642700843051,499.066421016822
0.873334055694008,1021.41446500554,1006.10860060903,-15.3058643965103,-1013.76153280729,518.360164701027,495.401368106261
0.875501137718063,1021.03233849782,1005.53894905615,-15.4933894416743,-1013.28564377698,518.262863969748,495.022779807236
0.877668219742117,1021.5639144755,1009.44569179882,-12.1182226766743,-1015.50480313716,516.841068576085,498.663734561073
0.879835301766172,1021.68172568885,1013.10747235699,-8.5742533318554,-1017.39459902292,515.127989510351,502.266609512568
0.882002383790226,1021.76770947108,1015.23968772712,-6.52802174396516,-1018.5036985991,514.147865607525,504.355832991577
0.884169465814281,1021.83046420043,1017.06602808183,-4.76443611859986,-1019.44824614113,513.297450159515,506.150795981615
0.886336547838336,1022.14642156169,1018.6691274566,-3.47729410509442,-1020.40777450914,512.811857833392,507.595916675751
0.88850362986239,1022.10686486725,1019.29882715328,-2.80803771397007,-1020.70284601026,512.457451290609,508.245394719654
0.890670711886445,1022.3481508714,1015.97622259908,-6.3719282723174,-1019.16218673524,514.360039571859,504.802147163383
0.8928377939105,1022.25409575082,1015.17217757603,-7.08191817479508,-1018.71313666343,514.668006962809,504.045129700617
0.895004875934554,1021.91529399346,1016.47644379368,-5.43885019977915,-1019.19586889357,513.677072096618,505.518796796949
0.897171957958609,1021.12770921169,1017.96866681444,-3.15904239725455,-1019.54818801307,512.143375804473,507.404812208592
0.899339039982663,1021.63352019858,1018.5174440929,-3.11607610568524,-1020.07548214574,512.374798152134,507.700683993607
0.901506122006718,1021.73252699346,1019.45827820439,-2.27424878906947,-1020.59540259893,512.003387891266,508.592014707661
0.903673204030773,1021.80478648769,1020.4150963482,-1.38969013948918,-1021.10994141794,511.597238313588,509.512703104354
0.905840286054827,1021.31721220694,1020.84326791495,-0.473944291986072,-1021.08024006094,510.895578249461,510.184661811482
0.908007368078882,1021.50167157062,1021.1557662732,-0.345905297424906,-1021.32871892191,510.923788434023,510.404930487886
0.910174450102936,1021.3661418795,1021.11368504689,-0.252456832606185,-1021.2399134632,510.809299356053,510.430614107143
0.912341532126991,1021.5373825882,1021.35312853715,-0.184254051048242,-1021.44525556267,510.860818319623,510.584437243051
0.914508614151046,1021.39220534384,1021.25772866925,-0.134476674595021,-1021.32496700655,510.76334100922,510.561625997327
0.9166756961751,1021.28624863388,1021.18810166827,-0.0981469656013587,-1021.23717515108,510.692197799738,510.544977351336
0.918842778199155,1021.20891678729,1021.13728483413,-0.0716319531677527,-1021.17310081071,510.640274370231,510.532826440479
0.92100986022321,1021.15247661944,1021.10019648339,-0.0522801360509675,-1021.12633655142,510.602378377747,510.52395817367
0.923176942247264,1021.11128411353,1021.34328399287,0.231999879332307,-1021.2272840532,510.439642117101,510.7876419361
0.925344024271319,1021.62153244272,1021.52069990163,-0.100832541094405,-1021.57111617218,510.861182491909,510.709933680268
0.927511106295373,1021.99393401619,1021.38002958868,-0.613904427502234,-1021.68698180243,511.303919221844,510.383062580591
0.929678188319428,1022.26572899127,1021.27736223461,-0.988366756660298,-1021.77154561294,511.627047873963,510.144497738973
0.931845270343483,1022.46409686547,1021.47258731586,-0.991509549612829,-1021.96834209067,511.727803207543,510.240538883124
0.934012352367537,1021.79840579061,1021.07475870496,-0.723647085654875,-1021.43658224778,511.261026438133,510.175555809651
0.936179434391592,1022.12302393043,1021.59487460016,-0.528149330262409,-1021.8589492653,511.325586630345,510.533362634951
0.938346516415646,1021.81963203954,1021.43416553165,-0.38546650789624,-1021.62689878559,511.102549273719,510.524349511875
0.940513598439701,1021.86835956448,1021.58702922816,-0.28133033631957,-1021.72769439632,511.074844950401,510.652849445922
0.942680680463756,1021.633766834,1021.42843963562,-0.205327198374903,-1021.53110323481,510.919547016187,510.611556218625
0.94484776248781,1021.46255078692,1021.31269400665,-0.149856780267669,-1021.38762239678,510.806203783592,510.58141861319
0.947014844511865,1020.79727739478,1021.22821777834,0.430940383555935,-1021.01274758656,510.183168505613,510.829579080947
0.949181926535919,1021.39235658961,1020.62625090412,-0.766105685494608,-1021.00930374686,511.079231137553,509.930072609311
0.951349008559974,1021.8266714434,1019.10628427282,-2.72038717058126,-1020.46647785811,512.273529306992,508.19294855112
0.953516090584029,1021.60334101779,1017.18647743319,-4.41686358459754,-1019.39490922549,513.010102301194,506.384806924298
0.955683172608083,1021.71050090583,1014.16438106565,-7.54611984017515,-1017.93744098574,514.628310373002,503.309130612739
0.957850254632138,1022.05886709632,1011.41841038094,-10.6404567153852,-1016.73863873863,516.349661905854,500.388976832776
0.960017336656192,1022.04296378458,1008.6038120987,-13.4391516858771,-1015.32338794164,517.741057735226,497.582330206411
0.962184418680247,1021.76120063942,1009.52131335692,-12.2398872824969,-1015.64125699817,517.000543960956,498.640713037211
0.964351500704302,1021.5555575582,1012.08203943393,-9.47351812426484,-1016.81879849606,515.514537841231,501.304260654834
0.966518582728356,1021.67562644467,1014.76143808995,-6.9141883547162,-1018.21853226731,514.294907399693,503.923624867618
0.968685664752411,1022.03341418748,1016.4468243431,-5.58658984438227,-1019.24011926529,513.810002015931,505.430117249358
0.970852746776465,1021.7542309253,1016.32611197119,-5.42811895410159,-1019.04017144825,513.591174939699,505.448996508547
0.97301982880052,1021.28031454377,1012.45582383021,-8.82449071356245,-1016.86806918699,515.052402628666,501.815666558323
0.975186910824575,1021.47474204036,1005.57877489417,-15.8959671461973,-1013.52675846727,518.685354593281,494.841403873985
0.977353992848629,1021.34648752912,1000.55960344754,-20.7868840815804,-1010.95304548833,521.066685805352,489.886359682981
0.979521074872684,1021.52303798267,996.085923710058,-25.4371142726081,-1008.80448084636,523.480076127637,485.324404718725
0.981688156896739,1021.65189223448,994.171617402937,-27.4802748315385,-1007.91175481871,524.566083533007,483.345671285699
0.983855238920793,1021.47577949786,995.476034954827,-25.9997445430346,-1008.47590722634,523.737762020448,484.738145205896
0.986022320944848,1021.88755713478,995.347431154712,-26.5401259800639,-1008.61749414474,524.21384155742,484.403652587324
0.988189402968902,1021.37762184955,993.902789410711,-27.474832438843,-1007.64020563013,524.426227144198,483.213978485934
0.990356484992957,1021.54576117303,994.199207667139,-27.3465535058914,-1007.87248442008,524.446157339461,483.426327080624
0.992523567017012,1021.39832040194,997.65742123274,-23.7408991691975,-1009.52787081734,522.569609785568,486.958261031771
0.994690649041066,1021.83102409478,1001.2620017691,-20.5690223256802,-1011.54651293194,521.200023210231,490.346489721711
0.996857731065121,1022.14683019711,1005.24356354173,-16.9032666553727,-1013.69519686942,519.525048426239,494.17014844318
0.999024813089175,1021.8370068954,1009.50026272789,-12.3367441675009,-1015.66863481164,517.086875531448,498.581759280197
1.00119189511323,1022.15119670697,1012.33683197497,-9.81436473199415,-1017.24401434097,515.982780719481,501.26123362149
1.00335897713728,1021.84019376549,1013.32645957206,-8.5137341934302,-1017.58332666878,515.176963979462,502.406362689317
1.00552605916134,1021.61321020057,1014.04873312636,-7.56447707420921,-1017.83097166347,514.58884363739,503.242128026076
1.00769314118539,1021.71770386757,1013.76541135768,-7.95229250989564,-1017.74155761263,514.834998188735,502.906559423892
1.00986022320945,1022.06412413321,1011.12722481792,-10.9368993152882,-1016.59567447556,516.500511724248,500.095162751316
1.0120273052335,1021.77664438842,1006.50019864124,-15.2764457471827,-1014.13842151483,518.526545067801,495.611876447027
1.01419438725756,1022.10714150622,1001.77241126932,-20.334730236897,-1011.93977638777,521.220935871557,490.718840516211
1.01636146928161,1022.34835277463,998.592021236205,-23.7563315384293,-1010.47018700542,523.052342156532,487.417844848888
1.01852855130567,1022.52439932052,997.351458174198,-25.1729411463181,-1009.93792874736,523.848670233417,486.08925851394
1.02069563332972,1022.38272958658,996.986353353353,-25.3963762332237,-1009.68454146997,523.8895529099,485.794988560065
1.02286271535378,1022.2793328113,998.340821139074,-23.9385116722218,-1010.31007697519,523.108922241759,487.201154733426
1.02502979737783,1021.93371310527,1000.13983967432,-21.7938734309556,-1011.0367763898,521.863793268114,489.172983121681
1.02719687940189,1021.95162092165,999.561748693891,-22.389872227758,-1010.75668480777,522.170746574704,488.585938233067
1.02936396142594,1021.96469083019,995.627801828523,-26.3368890016676,-1008.79624632936,524.150789915929,484.645456413428
1.03153104344999,1021.97422982175,990.05507302729,-31.9191567944603,-1006.01465142452,526.946693308105,479.067958116415
1.03369812547405,1021.44087937174,988.959569859375,-32.4813095123677,-1005.20022461556,526.961094442055,478.239130173503
1.0358652074981,1021.32177307078,993.292991702958,-28.0287813678224,-1007.30738238687,524.675277219301,482.632105167568
1.03803228952216,1021.2348440769,1000.77821210678,-20.456631970113,-1011.00652809184,520.845738023505,490.160790068335
1.04019937154621,1021.71171191444,1006.51140993316,-15.2003019812867,-1014.1115609238,518.456006947866,495.655553975936
1.04236645357027,1021.51943851969,1010.15543632911,-11.3640021905888,-1015.8374374244,516.441720355142,499.395717069258
1.04453353559432,1021.37910897691,1013.35531878171,-8.02379019520663,-1017.36721387931,514.70144958606,502.66576429325
1.04670061761838,1021.5468465437,1015.96088932435,-5.58595721934512,-1018.75386793402,513.56640188152,505.187466052503
1.04886769964243,1021.66926876485,1017.32223637569,-4.34703238916143,-1019.49575257027,513.008150577004,506.487601993262
1.05103478166649,1022.02877407436,1018.04565085272,-3.98312322163713,-1020.03721246354,513.005948647996,507.031263815541
1.05320186369054,1021.75084436756,1018.84378662689,-2.90705774066157,-1020.29731549723,512.328951054109,507.968364443116
1.0553689457146,1021.54799909751,1019.42630106376,-2.1216980337523,-1020.48715008064,511.834848565632,508.652301515004
1.05753602773865,1021.67010994909,1020.12160181887,-1.54850813021824,-1020.89585588398,511.609309039654,509.286546844327
1.0597031097627,1021.75923179558,1020.89921896774,-0.860012827834453,-1021.32922538166,511.309622311706,510.019603069955
1.06187019178676,1021.28396439788,1021.19660180152,-0.0873625963623681,-1021.2402830997,510.685663497122,510.554619602578
1.06403727381081,1021.47740586371,1021.68380102732,0.206395163601769,-1021.58060344552,510.635505350056,510.945098095459
1.06620435583487,1021.34843170405,1021.4990679321,0.150636228054509,-1021.42374981808,510.598897737997,510.824852080079
1.06837143785892,1021.52445692666,1021.63439784197,0.109940915312563,-1021.57942738431,510.707258005673,510.872169378642
1.07053851988298,1021.65292784193,1022.00332374791,0.350395905973642,-1021.82812579492,510.65126596798,511.176859826941
1.07270560190703,1021.47653532953,1022.27258202864,0.79604669910384,-1021.87455867908,510.340244315214,511.53431436387
1.07487268393109,1021.34779635008,1021.92878608848,0.580989738401058,-1021.63829121928,510.383403305841,511.254887913442
1.07703976595514,1021.52399321751,1020.86740012156,-0.656593095948324,-1021.19569666954,511.090293156731,510.105403512808
1.0792068479792,1021.11227698295,1019.28228553119,-1.82999145176404,-1020.19728125707,511.471134217358,508.726147039712
1.08137393000325,1021.08194465856,1016.23430601083,-4.84763864772935,-1018.65812533469,512.964791653143,505.693333681549
1.08354101202731,1021.32996301189,1011.57835118471,-9.75161182718398,-1016.4541570983,515.540787419537,500.913369678761
1.08570809405136,1021.51097766641,1011.15194980764,-10.359027858769,-1016.33146373703,515.93500276259,500.396460974437
1.08787517607541,1021.3729338757,1012.73183689445,-8.64109698125776,-1017.05238538507,515.00701542848,502.045369956594
1.09004225809947,1021.81249589631,1015.23568873005,-6.57680716625725,-1018.52409231318,514.194651531282,504.329440781897
1.09220934012352,1021.5929950828,1017.06310943866,-4.52988564413931,-1019.32805226073,513.06144036347,506.266611897261
1.09437642214758,1021.43279377757,1018.12668487927,-3.30610889830689,-1019.77973932842,512.36945133794,507.410287990479
1.09654350417163,1021.3158718501,1018.9029288078,-2.41294304230507,-1020.10940032895,511.864407446203,508.244992882746
1.09871058619569,1021.50069331951,1018.92915319336,-2.57154012614888,-1020.21492325644,512.036116722831,508.178806533608
1.10087766821974,1021.365427909,1019.48860532201,-1.8768225869926,-1020.42701661551,511.621125247998,508.805891367509
1.1030447502438,1021.53686150127,1018.81629313537,-2.72056836589366,-1020.17657731832,512.12871493358,508.04786238474
1.10521183226785,1021.66198124366,1014.81357950794,-6.84840173571547,-1018.2377803758,514.255191489686,503.982588886113
1.10737891429191,1021.48314289854,1010.0011303482,-11.4820125503388,-1015.74213662337,516.482577724439,499.259558898931
1.10954599631596,1021.62277505515,1006.75895043515,-14.863824619996,-1014.19086274515,518.243299837573,495.947562907579
1.11171307834002,1021.99484092915,1005.20313420124,-16.7917067279096,-1013.59898756519,519.393273828528,494.205713736663
1.11388016036407,1021.72607847231,1006.22888108241,-15.4971973898978,-1013.97747977736,518.611637931105,495.365841846259
1.11604724238812,1021.25976765084,1009.40892197868,-11.8508456721593,-1015.33434481476,516.555306661499,498.779038153261
1.11821432441218,1021.18958980632,1011.72985507281,-9.45973473350818,-1016.45972243957,515.324662269915,501.135060169653
1.12038140643623,1021.13837094244,1011.802836403,-9.33553453943773,-1016.47060367272,515.236952740937,501.233650931781
1.12254848846029,1021.64130159654,1009.15453925477,-12.4867623417708,-1015.39792042565,517.064031969154,498.333888456498
1.12471557048434,1022.00836241029,1006.4112273964,-15.5971350138959,-1014.20979490335,518.802748712095,495.407046191251
1.1268826525084,1021.73594704133,1005.48966312515,-16.2462839161808,-1013.61280508324,518.991115478758,494.621689604487
1.12904973453245,1021.53712637651,1004.00659653081,-17.5305298456987,-1012.77186145366,519.533828111104,493.238033342556
1.13121681655651,1021.39201834934,1003.73465822516,-17.6573601241715,-1012.56333828725,519.524689236753,493.038649050496
1.13338389858056,1021.28611215709,1003.8063419539,-17.4797702031899,-1012.5462270555,519.382941180142,493.163285875358
1.13555098060462,1021.20881718056,1003.04819124242,-18.1606259381421,-1012.12850421149,519.684721559353,492.44378265214
1.13771806262867,1021.42256013396,998.712672688977,-22.7098874449832,-1010.06761641147,522.066223789472,488.001392621997
1.13988514465273,1021.84871531263,992.036390650099,-29.8123246625256,-1006.94255298136,525.830519987575,481.112032993787
1.14205222667678,1021.34927338694,986.353279040616,-34.9959943463207,-1003.85127621378,528.172633866629,475.678642347148
1.14421930870083,1021.52507122369,985.447369877655,-36.0777013460313,-1003.48622055067,528.801386284859,474.684834265812
1.14638639072489,1021.38321997093,988.838540880534,-32.5446790903987,-1005.11088042573,526.963949530666,478.146930895067
1.14855347274894,1021.82000313902,997.257002632642,-24.5630005063733,-1009.53850288583,523.191501822694,486.347001063134
1.150720554773,1021.59847419726,1003.67132085989,-17.9271533373702,-1012.63489752857,519.762813767313,492.872083761258
1.15288763679705,1021.43679267522,1008.08261496125,-13.3541777139759,-1014.75970381823,517.395485194599,497.364218623635
1.15505471882111,1021.31879042071,1011.30217055873,-10.0166198619792,-1016.31048048972,515.667705141345,500.642775348376
1.15722180084516,1021.50282342014,1013.92209942396,-7.58072399618027,-1017.71246142205,514.541773708161,503.170687713891
1.15938888286922,1021.90729497346,1015.83423823159,-6.07305674187103,-1018.87076660252,513.990175857665,504.880590744859
1.16155596489327,1021.66218360038,1015.60886359114,-6.05332000923545,-1018.63552359576,513.857751804808,504.777771790954
1.16372304691733,1021.48329058734,1014.6339066742,-6.84938391313835,-1018.05859863077,514.166337250238,503.89226138053
1.16589012894138,1021.08257042116,1014.46265284842,-6.61991757274018,-1017.77261163479,513.851243996949,503.921367637839
1.16805721096544,1020.79010729709,1015.68844536684,-5.10166193025782,-1018.23927633196,512.945884613676,505.293391718289
1.17022429298949,1020.57665490274,1017.12339484568,-3.45326005705795,-1018.85002487421,512.014957479898,506.835067394311
1.17239137501354,1021.23133663427,1018.17068380909,-3.06065282517875,-1019.70101022168,512.145994729726,507.555015491957
1.1745584570376,1021.43899581736,1019.20519736529,-2.23379845207421,-1020.32209659132,511.836397134718,508.485699456607
1.17672553906165,1021.32039837032,1019.69007444614,-1.63032392417711,-1020.50523640823,511.475361147246,509.029875260981
1.17889262108571,1021.77415318404,1020.0439589716,-1.73019421244101,-1020.90905607782,511.752173698243,509.156882379581
1.18105970310976,1022.10532331618,1020.5723956061,-1.53292771007727,-1021.33885946114,511.819125513128,509.519733948012
1.18322678513382,1021.80671335619,1021.22822801308,-0.578485343106422,-1021.51747068463,511.192599349646,510.324871334987
1.18539386715787,1021.58877473181,1021.16657079762,-0.422203934189497,-1021.37767276472,511.005489333001,510.372183431717
1.18756094918193,1021.42971358062,1021.66188308567,0.232169505051729,-1021.54579833315,510.598772037784,510.947026295362
1.18972803120598,1021.31362378749,1022.02338368229,0.70975989479814,-1021.66850373489,510.301931946346,511.366571788543
1.19189511323004,1021.49905258498,1021.47675401152,-0.0222985734621943,-1021.48790329825,510.760675579221,510.727227719028
1.19406219525409,1021.3642304291,1021.61811216564,0.253881736546191,-1021.49117129737,510.555174346276,510.935996951095
1.19622927727815,1021.26583131612,1021.72128153633,0.455450220209059,-1021.49355642623,510.405190547958,511.088365878271
1.1983963593022,1020.65370291102,1020.98611042504,0.33240751402127,-1020.81990666803,510.160647698499,510.659258969531
1.20056344132625,1021.2875696445,1020.98986278,-0.297706864507632,-1021.13871621225,510.792638254506,510.346077957744
1.20273052335031,1021.2098809187,1020.99260141295,-0.217279505744045,-1021.10124116582,510.71358021222,510.387660953604
1.20489760537436,1021.42333649663,1020.9946001872,-0.42873630942654,-1021.20896834192,510.926036403027,510.282931938888
1.20706468739842,1021.30896951235,1021.26621519204,-0.0427543203084042,-1021.2875923522,510.67586191633,510.611730435868
1.20923176942247,1021.22549947931,1021.73460792796,0.509108448650522,-1021.48005370364,510.35819551533,511.121858188306
1.21139885144653,1021.43473560607,1021.8063052448,0.371569638731216,-1021.62052042544,510.531582983671,511.088937441768
1.21356593347058,1021.31728908157,1021.31832066238,0.00103158081344645,-1021.31780487198,510.658128750379,510.659676121599
1.21573301549464,1021.77188388897,1021.77263678182,0.000752892848595366,-1021.77226033539,510.88556549806,510.886694837333
1.21790009751869,1021.56335466152,1021.56390415569,0.000549494168581077,-1021.5636294086,510.781402583676,510.782226824929
1.22006717954275,1021.41116090022,1021.41156194513,0.000401044905515846,-1021.41136142268,510.705379927659,510.705981495017
1.2222342615668,1021.02992701708,1021.30037592908,0.270448912004667,-1021.16515147308,510.379739052537,510.785412420544
1.22440134359085,1020.75168583564,1020.6789150822,-0.072770753438931,-1020.71530045892,510.412228294539,510.303072164381
1.22656842561491,1021.35908187338,1020.22534574354,-1.1337361298414,-1020.79221380846,511.246409001611,509.545804806849
1.22873550763896,1020.72176125097,1020.1644671911,-0.557294059869719,-1020.44311422104,510.639527655421,509.803586565617
1.23090258966302,1021.33724160115,1020.12003535778,-1.21720624337172,-1020.72863847946,511.277223922261,509.451414557203
1.23306967168707,1021.2461336877,1020.89807569584,-0.348057991852556,-1021.07210469177,510.797095839775,510.275008851996
1.23523675371113,1021.17963914302,1020.38529875601,-0.794340387005263,-1020.78246894951,510.98698976501,509.795479184502
1.23740383573518,1021.67142093638,1020.55136411552,-1.12005682085862,-1021.11139252595,511.395738878618,509.71565364733
1.23957091775924,1021.76018861151,1021.21287831032,-0.547310301182847,-1021.48653346091,511.153749456344,510.33278400457
1.24173799978329,1021.82497514779,1021.15536791242,-0.669607235368517,-1021.4901715301,511.247291191577,510.242880338524
1.24390508180735,1021.60210298697,1021.38355051762,-0.218552469347856,-1021.4928267523,510.91032772816,510.582499024138
1.2460721638314,1021.16928491298,1021.55008817459,0.380803261609685,-1021.35968654379,510.394240825687,510.965445718101
1.24823924585546,1021.66386396591,1021.67163464902,0.00777068311322182,-1021.66774930746,510.828046641397,510.839702666067
1.25040632787951,1021.48451699168,1021.49018837648,0.00567138479959794,-1021.48735268408,510.73942280344,510.74792988064
1.25257340990356,1021.08346550475,1021.62791715346,0.544451648709355,-1021.3556913291,510.26950692802,511.086184401084
1.25474049192762,1021.33107299204,1021.72843764578,0.397364653746763,-1021.52975531891,510.466854169144,511.062901149765
1.25690757395167,1021.7819439904,1021.53164569081,-0.250298299584529,-1021.65679484061,511.016121144991,510.640673695614
1.25907465597573,1021.84085317593,1021.6581745168,-0.182678659130829,-1021.74951384636,511.011765917529,510.737747928833
1.26124173799978,1021.61369146718,1021.48036458259,-0.13332688459036,-1021.54702802488,510.873509175885,510.673518848999
1.26340882002384,1021.71805511702,1021.35059110664,-0.367464010380445,-1021.53432311183,511.0427595637,510.491563548129
1.26557590204789,1021.79422427856,1021.52603295323,-0.268191325336829,-1021.66012861589,511.031207801949,510.628920813944
1.26774298407195,1021.57965965609,1021.38392188326,-0.195737772826988,-1021.48179076968,510.887698714458,510.594092055218
1.269910066096,1021.15290478735,1021.01004678975,-0.14285799759989,-1021.08147578855,510.647881392477,510.433594396077
1.27207714812006,1021.3817528211,1020.73717637522,-0.644576445876055,-1021.05946459816,511.013164633486,510.046299964672
1.27424423014411,1021.81893234882,1021.34849223382,-0.47044011499645,-1021.58371229132,511.144686231909,510.439026059414
1.27641131216817,1021.59769268768,1021.25434489207,-0.343347795616523,-1021.42601878988,510.970520241651,510.455498548226
1.27857839419222,1021.70637850719,1021.45578825139,-0.250590255798329,-1021.58108337929,510.978484381493,510.602598997796
1.28074547621627,1021.78570217741,1021.87296664772,0.0872644703117658,-1021.82933441257,510.849218853549,510.980115559017
1.28291255824033,1022.11375227724,1021.63712928508,-0.476622992161879,-1021.87544078116,511.295187634703,510.580253146461
1.28507964026438,1022.08302139293,1021.73516106282,-0.34786033010846,-1021.90909122788,511.215440861521,510.693650366358
1.28724672228844,1022.33074885979,1021.80670894685,-0.52403991293761,-1022.06872890332,511.427394386361,510.641334516955
1.28941380431249,1021.97123878887,1021.58877151368,-0.382467275188787,-1021.78000515128,511.176853032031,510.603152119248
1.29158088633655,1021.97900880872,1021.69986744376,-0.279141364958832,-1021.83943812624,511.129075086839,510.710363039401
1.2937479683606,1021.71452349757,1021.51079390634,-0.203729591224942,-1021.61265870195,510.959126544396,510.653532157559
1.29591505038466,1021.2513343243,1021.37279975956,0.121465435258187,-1021.31206704193,510.564934444521,510.747132597408
1.29808213240871,1021.18343479533,1021.5422418006,0.358807005267181,-1021.36283829797,510.412313895033,510.950524402934
1.30024921443277,1020.86372253403,1021.39575180983,0.53202927580287,-1021.12973717193,510.165846629113,510.963890542817
1.30241629645682,1021.44085116174,1021.28883700005,-0.152014161696115,-1021.36484408089,510.796432661719,510.568411419175
1.30458337848088,1021.59190869376,1021.48096210214,-0.110946591621428,-1021.53643539795,510.85142764269,510.685007755258
1.30675046050493,1021.70215709515,1021.62118341444,-0.0809736807088939,-1021.6616702548,510.89156538793,510.770104866866
1.30891754252898,1021.51246499419,1021.45336685632,-0.059098137867295,-1021.48291592525,510.785781566027,510.697134359226
1.31108462455304,1021.64417560451,1021.33088698383,-0.313288620684148,-1021.48753129417,510.978732112598,510.508799181572
1.31325170657709,1021.74030377529,1021.78180823346,0.0415044581740176,-1021.76105600438,510.849399658557,510.911656345818
1.31541878860115,1022.08061853547,1021.5705978827,-0.510020652765434,-1021.82560820908,511.295319594115,510.530288614967
1.3175858706252,1021.78868272545,1021.41644732021,-0.37223540523803,-1021.60256502283,511.080459065342,510.522105957485
1.31975295264926,1021.84577139984,1021.57409770161,-0.271673698234395,-1021.70993455073,511.058722549038,510.651212001687
1.32192003467331,1021.61728100235,1021.4190016413,-0.198279361054233,-1021.51814132182,510.907780181703,510.610361140122
1.32408711669737,1021.4505187051,1021.57596195699,0.125443251892193,-1021.51324033104,510.662537726602,510.85070260444
1.32625419872142,1021.59896449022,1021.69051846838,0.0915539781561847,-1021.6447414793,510.753705256033,510.891036223267
1.32842128074548,1021.97746293624,1021.50397061473,-0.473492321507592,-1021.74071677549,511.225477628874,510.515239146613
1.33058836276953,1021.71339525214,1020.82750739882,-0.88588785332206,-1021.27045132548,511.299641552732,509.970809772749
1.33275544479359,1021.25051088138,1021.41441977027,0.163908888889409,-1021.33246532583,510.543300996247,510.789164329581
1.33492252681764,1021.72314623438,1019.41136821191,-2.31177802246987,-1020.56725722314,512.017462128425,508.54979509472
1.33708960884169,1021.79793999894,1017.67929726287,-4.11864273607603,-1019.7386186309,512.958291367509,506.780327263395
1.33925669086575,1021.31221533966,1015.60468740449,-5.70752793516158,-1018.45845137207,513.509871637409,504.948579734666
1.3414237728898,1021.22786842621,1014.36070249844,-6.86716592776327,-1017.79428546232,514.047517176985,503.74676828534
1.34359085491386,1021.43646456725,1014.53341268972,-6.9030518775262,-1017.98493862849,514.169758222387,503.815180406098
1.34575793693791,1021.04839474127,1015.19977657372,-5.84861816755517,-1018.1240856575,513.448506454414,504.675579203081
1.34792501896197,1021.57563302504,1014.87564947947,-6.69998354556958,-1018.22564125225,514.137808285304,504.08783296695
1.35009210098602,1021.69027839944,1012.74799385007,-8.94228454937081,-1017.21913612475,515.316281474404,501.902854650348
1.35225918301008,1021.77395161378,1011.73545002942,-10.0385015843658,-1016.7547008216,515.906226599073,500.848474222525
1.35442626503413,1022.10517620137,1010.9964512117,-11.1087249896691,-1016.55081370654,516.606950595521,499.943863111017
1.35659334705819,1021.80660598536,1009.91678509142,-11.8898208939393,-1015.86169553839,516.848213439649,499.01348209874
1.35876042908224,1021.58869636788,1006.96754778531,-14.6211485825764,-1014.27812207659,518.104922475229,496.173199601364
1.3609275111063,1021.42965638719,1002.113503139,-19.3161532481878,-1011.7715797631,520.37290481769,491.398674945408
1.36309459313035,1021.31358204522,998.300652594732,-23.0129294504894,-1009.80711731998,522.163255747856,487.643861572122
1.3652616751544,1021.49902211965,997.949273216779,-23.5497489028669,-1009.72414766821,522.524385511256,487.199762156956
1.36742875717846,1021.36420819416,999.854070855476,-21.5101373386863,-1010.60913952482,521.437172766424,489.171966758395
1.36959583920251,1021.26581508809,1002.05474421534,-19.2110708727594,-1011.66027965171,520.238442980427,491.421836671288
1.37176292122657,1021.46415970271,1003.66089199673,-17.80326770598,-1012.56252584972,519.633713704344,492.928812145374
1.37393000325062,1021.33876407572,1002.67187928282,-18.6668847929002,-1012.00532167927,520.002824434311,492.00249724496
1.37609708527468,1021.78755728005,998.978336166608,-22.8092211134418,-1010.38294672333,522.298389196746,488.084557526583
1.37826416729873,1021.84495000051,993.85122076021,-27.9937292403007,-1007.84808538036,524.919339620406,482.928745759955
1.38043124932279,1021.88683772102,989.298758794219,-32.5880789268045,-1005.59279825762,527.237458323914,478.355339933707
1.38259833134684,1022.18756542551,987.056797555136,-35.1307678703739,-1004.62218149032,528.659166647942,475.963014842381
1.3847654133709,1021.59658103693,987.58176576654,-34.0148152703927,-1004.58917340174,527.805698153663,476.783475248074
1.38693249539495,1021.70556717579,991.747097520802,-29.9584696549908,-1006.7263323483,525.832018415392,480.894313932905
1.38909957741901,1021.78511003223,998.029013569603,-23.7560964626284,-1009.90706180092,522.77060324743,487.136458553487
1.39126665944306,1021.03269525628,1004.23476824659,-16.797927009684,-1012.63373175144,518.915311132981,493.718420618455
1.39343374146711,1021.56417485344,1007.95353111263,-13.6106437408097,-1014.75885298303,517.587409297124,497.17144368591
1.39560082349117,1021.95207193594,1010.66764708993,-11.2844248460162,-1016.30985951294,516.61824839098,499.691611121956
1.39776790551522,1021.15455136456,1012.91868398809,-8.23586737646622,-1017.03661767632,514.695209370512,502.341408305812
1.39993498753928,1021.38295456524,1014.83174549693,-6.55120906830609,-1018.10735003109,513.967081816773,504.140268214314
1.40210206956333,1021.54965322245,1015.41751291986,-6.13214030259167,-1018.48358307115,513.84089676252,504.642686308632
1.40426915158739,1021.13100477816,1013.95393815166,-7.17706662649448,-1017.54247146491,514.154035702325,503.388435762584
1.40643623361144,1021.36576923542,1011.2648199274,-10.1009493080199,-1016.31529458141,515.733359271722,500.581935309692
1.4086033156355,1021.80726682811,1007.95140263653,-13.8558641915772,-1014.87933473232,517.831565509842,497.047769222476
1.41077039765955,1021.31902246798,1005.80328182118,-15.5157406468055,-1013.56115214458,518.417381557395,495.143770587186
1.41293747968361,1021.5029927784,1002.88470812859,-18.618284649816,-1012.19385045349,520.060638714109,492.133211739385
1.41510456170766,1021.63726236666,1001.02476146073,-20.6125009059365,-1011.33101191369,521.1248816363,490.206130277395
1.41727164373172,1021.46510197972,999.126978515194,-22.3381234645223,-1010.29604024746,521.901612722119,488.394427525336
1.41943872575577,1021.60960800261,996.661268573696,-24.9483394289184,-1009.13543828815,523.278973715766,485.856464572389
1.42160580777982,1021.98523103764,992.970592006465,-29.0146390311796,-1007.47791152205,525.499935034412,481.977976487643
1.42377288980388,1022.25937717644,990.817287063624,-31.4420901128154,-1006.53833212003,526.850733644627,479.687598475404
1.42593997182793,1022.45946103288,992.757741581477,-29.7017194514015,-1007.60860130718,526.08059024214,481.528011065038
1.42810705385199,1022.6054909926,998.496469647424,-24.1090213451813,-1010.55098032001,523.357256168893,487.193724151121
1.43027413587604,1022.71207005159,1003.7654695256,-18.9466005259927,-1013.2387697886,520.829335288792,492.409434499803
1.4324412179001,1022.78985611574,1008.69164120382,-14.098214911917,-1015.74074865978,518.444035513828,497.296713145952
1.43460829992415,1022.84662779146,1011.74666457868,-11.0999632127762,-1017.29664618507,516.973295502117,500.323350682953
1.43677538194821,1022.88806224632,1014.24651062328,-8.64155162304132,-1018.5672864348,515.764806934683,502.802479500121
1.43894246397226,1022.37799050208,1016.34116394208,-6.03682655999557,-1019.35957722208,514.207408531038,505.152168691044
1.44110954599632,1021.4654053843,1017.86993365509,-3.59547172920611,-1019.6676695197,512.530438556753,507.137230962944
1.44327662802037,1021.60982944056,1018.98569673361,-2.6241327069522,-1020.29776308709,512.116981073758,508.18078201333
1.44544371004443,1021.44508022901,1019.80002948549,-1.64505074352189,-1020.62255485725,511.545065486268,509.077489370985
1.44761079206848,1021.59499525224,1020.66452139779,-0.93047385444379,-1021.12975832501,511.26273455334,509.867023771674
1.44977787409253,1020.89394116507,1018.05359090741,-2.84035025765479,-1019.47376603624,511.867145711361,507.606620324879
1.45194495611659,1020.92259361815,1015.06739466029,-5.85519895786115,-1017.99499413922,513.388896288005,504.606097851213
1.45411203814064,1021.48381785679,1012.88793787919,-8.59587997759695,-1017.18587786799,515.039848917192,502.146028950797
1.4562791201647,1021.35311145736,1011.56743109788,-9.7856803594774,-1016.46027127762,515.56939590842,500.890875369203
1.45844620218875,1021.25771620367,1011.41413606198,-9.84358014169072,-1016.33592613283,515.550648172682,500.785277960145
1.46061328421281,1021.18809257035,1009.95147357292,-11.2366189974313,-1015.56978307163,516.212355783891,499.357427287744
1.46278036623686,1020.86712198219,1009.15411465302,-11.7130073291717,-1015.01061831761,516.290064655682,498.720553661924
1.46494744826092,1021.173176016,1009.38263583404,-11.7905401819576,-1015.27790592502,516.481858098977,498.79604782604
1.46711453028497,1021.3965476514,1011.71067029343,-9.68587735796609,-1016.55360897242,515.541212504682,501.012396467733
1.46928161230903,1020.74910541633,1014.49039662966,-6.25870878666979,-1017.61975102299,513.503907101498,504.115843921494
1.47144869433308,1020.54672993476,1016.24900641698,-4.29772351778365,-1018.39786817587,512.422226726272,505.975641449596
1.47361577635714,1020.93933987041,1018.07282926974,-2.86651060067584,-1019.50608457007,511.902925235544,507.60315933453
1.47578285838119,1020.95572758123,1017.51284156637,-3.44288601486551,-1019.2342845738,512.199306798049,507.034977775751
1.47794994040524,1021.23784426205,1016.83398180776,-4.4038624542851,-1019.03591303491,512.820853358167,506.215059676739
1.4801170224293,1021.44374536907,1014.71758295871,-6.72616241036303,-1018.08066416389,514.084953889716,503.995710274172
1.48228410445335,1021.594021013,1012.36247376991,-9.23154724309222,-1016.97824739145,515.412784128045,501.565463263407
1.48445118647741,1021.16338633448,1010.10329953435,-11.0600868001305,-1015.63334293442,516.111736567307,499.521606367111
1.48661826850146,1021.38940271316,1009.26492388785,-12.1244788253103,-1015.3271633005,516.756940769235,498.570222531269
1.48878535052552,1021.28420315128,1010.27397790136,-11.0102252499197,-1015.77909052632,516.1472142006,499.63187632572
1.49095243254957,1020.66711148078,1013.44183561185,-7.22527586893295,-1017.05447354632,513.946193674859,503.108279871459
1.49311951457363,1021.29735580585,1013.86278340043,-7.4345724054275,-1017.58006960314,514.365964105641,503.2141054975
1.49528659659768,1021.21702328777,1012.81922846969,-8.39779481807977,-1017.01812587873,514.807409052923,502.210716825804
1.49745367862174,1020.61808067471,1010.16650290281,-10.4515777718983,-1015.39229178876,515.534829223305,499.857462565458
1.49962076064579,1020.451102341,1007.41995899061,-13.0311433503932,-1013.9355306658,516.741122845697,497.194407820107
1.50178784266984,1020.86954666513,1008.11697309618,-12.7525735689543,-1014.49325988066,516.811060117044,497.682199763612
1.5039549246939,1020.90478944391,1008.89584072324,-12.0089487206676,-1014.90031508357,516.456869082287,498.443446001286
1.50612200671795,1021.47082359081,1010.27476105824,-11.1960625325761,-1015.87279232453,516.333443061695,499.539349262831
1.50828908874201,1021.8839400968,1012.63193855842,-9.25200153838387,-1017.25793932761,515.567970817594,501.689968510018
1.51045617076606,1021.37498197686,1014.89262233819,-6.48235963867182,-1018.13380215752,513.928670807765,504.205131349757
1.51262325279012,1021.81399069021,1016.2724121399,-5.54157855031349,-1019.04320141506,513.677784620263,505.365416794793
1.51479033481417,1021.59408604885,1017.54959936747,-4.04448668137161,-1019.57184270816,512.819286365109,506.752556343052
1.51695741683823,1021.97390243611,1018.4817465318,-3.49215590431015,-1020.22782448395,512.733029170209,507.494795313744
1.51912449886228,1021.98095285511,1018.62175592556,-3.35919692955144,-1020.30135439033,512.67007489233,507.631279498002
1.52129158088634,1021.98609855962,1017.91347227626,-4.07262628336287,-1019.94978541794,513.029362421491,506.920422996447
1.52345866291039,1022.26001033196,1015.23528615961,-7.02472417235526,-1018.74764824579,514.642367252159,504.105280993626
1.52562574493445,1022.4599231375,1015.71203456577,-6.74788857173849,-1019.08597885164,514.603905854621,504.482072997014
1.5277928269585,1022.6058282568,1016.87045506412,-5.73537319268064,-1019.73814166046,514.170600724738,505.567540935717
1.52995990898256,1022.71231620177,1018.25623349262,-4.45608270914749,-1020.48427484719,513.584199455457,506.900075391736
1.53212699100661,1022.51987955504,1018.72732284664,-3.79255670840075,-1020.62360120084,513.156218131722,507.467383069121
1.53429407303066,1022.37943086382,1019.88161312094,-2.49781774287919,-1021.13052199238,512.438624303351,508.691897689032
1.53646115505472,1022.54708147086,1020.72406470734,-1.82301676351722,-1021.6355730891,512.185049117187,509.450523971911
1.53862823707877,1022.3992840131,1021.0687665526,-1.33051746050694,-1021.73402528285,511.864900736806,509.869124546046
1.54079531910283,1021.75110253292,1021.59050126499,-0.160601267932293,-1021.67080189895,510.955851900426,510.714949998528
1.54296240112688,1021.81834372977,1021.43097368013,-0.387370049637525,-1021.62465870495,511.102856889704,510.521801815248
1.54512948315094,1021.32710687586,1021.85485588704,0.527749011179935,-1021.59098138145,510.399678932338,511.191302449108
1.54729656517499,1021.77904934514,1021.35375504703,-0.425294298114295,-1021.56640219608,511.102171821627,510.464230374456
1.54946364719905,1022.10889674894,1021.79849834733,-0.310398401605084,-1021.95369754814,511.209647575272,510.744049972865
1.5516307292231,1021.80932140389,1020.23199799927,-1.57732340461473,-1021.02065970158,511.693322404252,509.32733729733
1.55379781124716,1021.8608344111,1019.89916608676,-1.96166832434244,-1020.88000024893,511.911251367721,508.968748881207
1.55596489327121,1022.16858707129,1020.46671941853,-1.70186765276117,-1021.31765324491,511.935227362026,509.382425882885
1.55813197529526,1022.39319843861,1020.61078848028,-1.78240995832766,-1021.50199345945,512.08780419847,509.414189260979
1.56029905731932,1022.28697343792,1020.4457801782,-1.84119325972688,-1021.36637680806,512.064083348825,509.302293459235
1.56246613934337,1022.4796019929,1021.13581852954,-1.34378346335552,-1021.80771026122,511.911692728127,509.896017533093
1.56463322136743,1022.62019074716,1021.0991263101,-1.52106443706293,-1021.85965852863,512.070627592112,509.789030936518
1.56680030339148,1022.72279857614,1021.07234672167,-1.65045185447673,-1021.8975726489,512.18662521531,509.710947433595
1.56896738541554,1022.79768626274,1020.78264559353,-2.01504066920972,-1021.79016592813,512.406363465974,509.383802462159
1.57113446743959,1022.58218636373,1020.30105281287,-2.28113355086373,-1021.4416195883,512.431659957299,509.009959631003
1.57330154946365,1021.88459267736,1021.03019016099,-0.854402516374194,-1021.45739141917,511.369497596868,510.087893822306
1.5754686314877,1021.6456144706,1021.02203410146,-0.623580369136903,-1021.33382428603,511.134597419866,510.199226866161
1.57763571351176,1021.47119771089,1021.01608145208,-0.455116258813405,-1021.24363958148,510.963156984852,510.280482596632
1.57980279553581,1021.61405693415,1021.28189315977,-0.332163774371224,-1021.44797504696,510.973110354258,510.474864692701
1.58196987755987,1021.98847806269,1021.47589418345,-0.512583879237809,-1021.73218612307,511.250530970962,510.481655152105
1.58413695958392,1022.2617469975,1021.3473284136,-0.91441858389976,-1021.80453770555,511.588082790698,510.216454914848
1.58630404160798,1021.65072199644,1021.52365169698,-0.127070299465004,-1021.58718684671,510.888896147953,510.698290698755
1.58847112363203,1021.74508161877,1021.65234015005,-0.092741468720078,-1021.69871088441,510.918911543746,510.779799340666
1.59063820565608,1021.54379319111,1021.47610640626,-0.0676867848471829,-1021.50994979869,510.805739987978,510.704209810708
1.59280528768014,1021.39688408256,1021.3474833031,-0.0494007794590061,-1021.37218369283,510.723142431008,510.64904126182
1.59497236970419,1021.829975806,1021.25360853024,-0.576367275760163,-1021.54179216812,511.203171540883,510.338620627242
1.59713945172825,1022.14606511005,1020.91493839854,-1.23112671150898,-1021.5305017543,511.688595910781,509.841905843517
1.5993065337523,1022.10660471323,1021.20807453044,-0.898530182793706,-1021.65733962184,511.502567448014,510.154772173823
1.60147361577636,1022.07780478774,1020.07123705602,-2.00656773171602,-1021.07452092188,512.042186259728,509.032334662154
1.60364069780041,1022.32694155289,1020.59230434657,-1.73463720632344,-1021.45962294973,512.030789379607,509.428833570121
1.60580777982447,1021.96846004959,1021.24275828364,-0.725701765948202,-1021.60560916661,511.347080907767,510.258528258845
1.60797486184852,1021.97698076311,1021.4473318372,-0.529648925911033,-1021.71215630016,511.253314844512,510.458841455645
1.61014194387258,1022.25335576482,1021.32648236261,-0.92687340220823,-1021.78991906372,511.590114583515,510.199804480203
1.61230902589663,1021.91475391927,1021.23828112429,-0.676472794983169,-1021.57651752178,511.295613357127,510.280904164652
1.61447610792068,1022.20793988939,1021.17390799839,-1.03403189099959,-1021.69092394389,511.620985890194,510.069938053695
1.61664318994474,1021.8816074247,1016.53427007051,-5.34733735419059,-1019.20793874761,513.614472389447,505.593466358161
1.61881027196879,1021.64343570249,1009.63602839536,-12.007407307132,-1015.63973204892,516.82542150481,498.814310544112
1.62097735399285,1022.00991997426,1003.79092092412,-18.2189990501448,-1012.90042044919,520.114459512204,492.785960936987
1.6231444360169,1022.00724003159,1000.06521796904,-21.9420220625572,-1011.03622900032,521.974631047076,489.06159795324
1.62531151804096,1021.73512788021,999.777442717705,-21.9576851625088,-1010.75628529896,521.846406521361,488.909878777598
1.62747860006501,1021.80668472873,1000.9181927975,-20.8884919312248,-1011.36243876311,521.347588329975,490.014850433138
1.62964568208907,1021.85891005011,1002.56123079266,-19.2976792574484,-1012.21007042139,520.578294653779,491.631775767607
1.63181276411312,1021.62687016463,1003.76039186709,-17.8664782975452,-1012.69363101586,519.746674231089,492.946956784772
1.63397984613718,1021.18736108375,1004.9057483401,-16.2816127436531,-1013.04655471192,518.734486913701,494.312067798222
1.63614692816123,1021.67705674685,1007.90292934209,-13.7741274047683,-1014.78999304447,517.725592075811,497.064400968659
1.63831401018529,1021.22398944903,1011.71134054952,-9.5126488995154,-1016.46766499927,515.368319174273,501.099345825
1.64048109220934,1021.16347730798,1013.14010475254,-8.02337255544387,-1017.15179103026,514.593424931713,502.558366098547
1.64264817423339,1021.65962532147,1010.94100488835,-10.7186204331198,-1016.30031510491,516.189122877297,500.111192227617
1.64481525625745,1021.2112672315,1008.52553687739,-12.6857303541077,-1014.86840205444,516.948498792803,497.919903261641
1.6469823382815,1021.15419207654,1006.49246634229,-14.6617257342497,-1013.82332920942,517.907958905397,495.915370304022
1.64914942030556,1021.65284855299,1007.98036077202,-13.6724877809718,-1014.8166046625,517.66266816698,497.153936495522
1.65131650232961,1021.74663367286,1011.22754097391,-10.5190926989465,-1016.48708732338,516.132863185902,500.354224137483
1.65348358435367,1022.08523837189,1013.32731906133,-8.75791931055892,-1017.70627871661,515.421578841223,502.284699875384
1.65565066637772,1022.3323669081,1011.88811072429,-10.4442561838155,-1017.1102388162,516.388311545959,500.721927270236
1.65781774840178,1021.97241971139,1010.02724482406,-11.9451748873252,-1015.99983226772,516.958797299356,499.041034968368
1.65998483042583,1021.70971448581,1009.47957204186,-12.2301424439524,-1015.59464326383,516.969928464881,498.624714798952
1.66215191244989,1021.78813692068,1009.07985646384,-12.7082804568468,-1015.43399669226,517.248208688766,498.185788003495
1.66431899447394,1021.57521683576,1010.13890759156,-11.4363092441957,-1015.85706221366,516.505763039976,499.351299173682
1.666486076498,1021.4198184344,1010.10138084282,-11.3184375915793,-1015.76059963861,516.369128012991,499.391471625622
1.66865315852205,1021.57655808836,1009.8038359665,-11.7727221218639,-1015.69019702743,516.674640105113,499.015556922317
1.6708202405461,1021.42079733929,1009.58667468682,-11.8341226524633,-1015.50373601306,516.627459995875,498.87627601718
1.67298732257016,1021.30711632414,1007.26693118086,-14.0401851432823,-1014.2870237525,517.673650733711,496.613373018787
1.67515440459421,1021.49430315328,1003.68278730987,-17.8115158434026,-1012.58854523158,519.65290949834,492.935635733236
1.67732148661827,1021.36076408587,999.44598489865,-21.9147791872215,-1010.40337449226,521.637771636547,488.765602855714
1.67948856864232,1021.8036138508,997.164249612906,-24.6393642378907,-1009.48393173185,523.221489044344,486.262442687508
1.68165565066638,1021.85666878893,996.579564135939,-25.2771046529909,-1009.21811646243,523.56688672096,485.651229741474
1.68382273269043,1021.62523439408,996.422991284437,-25.2022431096468,-1009.02411283926,523.413738751865,485.610374087395
1.68598981471449,1021.45632343865,996.038561349507,-25.4177620891392,-1008.74744239408,523.437042763893,485.310399630184
1.68815689673854,1021.33304482707,994.40720649017,-26.9258383369036,-1007.87012565862,524.129441581988,483.740684076633
1.6903239787626,1021.51322691008,995.377821974822,-26.1354049352569,-1008.44552444245,523.824315922668,484.621208519783
1.69249106078665,1021.64473168409,999.057937987546,-22.5867936965478,-1010.35133483582,522.115762690321,488.235572145499
1.69465814281071,1021.47055341465,1003.63494128212,-17.8356121325204,-1012.55274734838,519.653082773583,492.899664574802
1.69682522483476,1021.07327427479,1007.51575112866,-13.5575231461301,-1014.29451270172,517.31539871046,496.979113991265
1.69899230685881,1021.32363498616,1011.69891714742,-9.62471783873787,-1016.51127606679,515.474176412447,501.03709965434
1.70115938888287,1021.50635919614,1013.9415062453,-7.56485295083428,-1017.72393272072,514.535606073487,503.188326647235
1.70332647090692,1021.90987553761,1016.11855839146,-5.79131714614255,-1019.01421696454,513.850596341875,505.163620622661
1.70549355293098,1021.66406700909,1017.4373101649,-4.22675684419346,-1019.550688587,512.945411926643,506.605276660353
1.70766063495503,1021.75482139336,1018.39979295482,-3.35502843853521,-1020.07730717409,512.554924915947,507.522382258144
1.70982771697909,1022.09121412883,1019.64256746397,-2.44864666485898,-1020.8668907964,512.269930396846,508.596960399557
1.71199479900314,1022.06657206532,1020.27944250765,-1.78712955766855,-1021.17300728648,511.926850811493,509.24615647499
1.7141618810272,1021.23811857272,1019.93379316648,-1.30432540624497,-1020.5859558696,511.271221989483,509.314733880115
1.71632896305125,1020.90363314927,1020.22183556569,-0.68179758357428,-1020.56273435748,510.79271536642,509.770018991059
1.71849604507531,1021.46997967635,1020.43206152148,-1.03791815487591,-1020.95102059892,511.253948915615,509.697071683301
1.72066312709936,1021.34301174733,1020.31533741754,-1.0276743297934,-1020.82917458244,511.185343038563,509.643831543873
1.72283020912342,1021.79065741679,1020.23014705536,-1.56051036143367,-1021.01040223607,511.675583889112,509.334818346961
1.72499729114747,1022.11736882792,1020.43812761058,-1.67924121734563,-1021.27774821925,511.898305022635,509.379443196617
1.72716437317152,1022.08566090998,1021.1302333506,-0.955427559377085,-1021.60794713029,511.520544234679,510.087402895613
1.72933145519558,1022.33267529491,1020.82489379007,-1.50778150483291,-1021.57878454249,511.92022839987,509.65855614262
1.73149853721963,1021.70248857371,1021.41251224417,-0.289976329542242,-1021.55750040894,510.996232451625,510.561267957312
1.73366561924369,1021.78286313362,1021.84138192267,0.0585187890510497,-1021.81212252815,510.862172172286,510.949950355863
1.73583270126774,1022.11168021877,1021.61407736971,-0.497602849065629,-1021.86287879424,511.304641533919,510.558237260321
1.7379997832918,1022.3516653258,1019.55708707061,-2.79457825519034,-1020.9543761982,512.573121790495,508.38125440771
1.74016686531585,1022.52681696541,1015.35424335986,-7.1725736055505,-1018.94053016263,514.849695285479,504.090834877153
1.74233394733991,1022.11433787781,1011.74651156135,-10.3678263164657,-1016.93042471958,516.241082097138,500.68934262244
1.74450102936396,1021.27298015425,1010.46421197833,-10.8087681759259,-1015.86859606629,516.04087416509,499.827721901201
1.74666811138802,1021.73954529361,1010.8791146525,-10.8604306411071,-1016.30932997305,516.299987967357,500.009342005697
1.74883519341207,1021.80990875045,1012.53270985128,-9.27719889916909,-1017.17130930087,515.54355382481,501.627755476056
1.75100227543613,1021.86126308234,1015.09035709455,-6.77090598778977,-1018.47581008844,514.316084535064,504.15972555338
1.75316935746018,1022.16889993433,1017.22719625914,-4.9417036751895,-1019.69804809674,513.555301804761,506.142746291977
1.75533643948423,1021.31280193227,1017.70613020216,-3.60667173010813,-1019.50946606722,512.459736831191,507.049729236028
1.75750352150829,1021.22829654718,1018.32583337727,-2.90246316990931,-1019.77706496223,512.065379858547,507.711685103683
1.75967060353234,1021.70693324056,1018.77811989011,-2.92881335044456,-1020.24252656533,512.317873295501,507.924653269834
1.7618376855564,1021.24579462237,1019.6485308157,-1.59726380666609,-1020.44716271904,511.421529214518,509.025633504519
1.76400476758045,1021.71970410204,1019.74348239912,-1.97622170291243,-1020.73159325058,511.847962902474,508.883630348105
1.76617184960451,1021.79542778003,1018.19184495122,-3.60358282880827,-1019.99363636563,512.699505304421,507.294131061208
1.76833893162856,1021.58053802416,1016.24892336283,-5.33161466132822,-1018.9147306935,513.456076342745,505.458654350753
1.77050601365262,1021.15354585884,1014.29058168698,-6.86296417185258,-1017.72206377291,514.008255015344,503.713808757565
1.77267309567667,1021.65237691501,1013.40161060357,-8.25076631143384,-1017.52699375929,514.95157161322,502.57542214607
1.77484017770073,1022.01644566268,1013.83342542801,-8.18302023467186,-1017.92493554534,515.099732948676,502.825202596668
1.77700725972478,1021.74184655288,1015.4993638546,-6.24248269827558,-1018.62060520374,513.992164625576,504.628440578163
1.77917434174884,1021.54143209836,1016.44508245478,-5.09634964357838,-1018.99325727657,513.31889087097,505.674366405602
1.78134142377289,1021.66531706555,1017.67562172419,-3.98969534136745,-1019.67046939487,512.827506203461,506.84296319141
1.78350850579694,1021.21542131556,1017.22294210665,-3.99247920890832,-1019.2191817111,512.603950262234,506.615231448871
1.785675587821,1021.42738012086,1016.08208806416,-5.3452920566981,-1018.75473409251,513.38633608878,505.368398003733
1.78784266984505,1021.58207693825,1014.16881798061,-7.4132589576443,-1017.87544745943,514.497667947948,503.377779511482
1.79000975186911,1021.96513766134,1013.58289833073,-8.38223933061158,-1017.77401799603,515.173688495976,502.600329500058
1.79217683389316,1021.70439972682,1012.07464366643,-9.62975606038344,-1016.88952169663,515.6670778936,501.222443803025
1.79434391591722,1021.78425797685,1009.08275988568,-12.7014980911667,-1015.43350893127,517.242878034008,498.190630897258
1.79651099794127,1021.84254202456,1008.52008936473,-13.3224526598368,-1015.18131569465,517.582497342201,497.598818352446
1.79867807996533,1021.07461163912,1009.73036505148,-11.3442465876459,-1015.4024883453,516.209429113384,499.193059231915
1.80084516198938,1020.78429862946,1011.42414587899,-9.36015275047623,-1016.10422225423,515.07222568997,501.031996564256
1.80301224401344,1021.1127279065,1012.6603412944,-8.45238661209748,-1016.88653460045,514.782557259296,502.10397734115
1.80517932603749,1020.81211755043,1014.10288326299,-6.70923428744186,-1017.45750040671,513.760675918937,503.696824487774
1.80734640806155,1020.86287516128,1016.23633840537,-4.62653675591559,-1018.54960678333,512.7447059586,505.804900824727
1.8095134900856,1021.44023271201,1017.25311496454,-4.18711774746737,-1019.34667383828,512.813675229738,506.532998608537
1.81168057210965,1021.32130111019,1018.26535923204,-3.05594187815109,-1019.79333017112,512.188621494171,507.604708676944
1.81384765413371,1021.77481204313,1018.73398321087,-3.04082883226476,-1020.254397627,512.4078204377,507.846577189303
1.81601473615776,1022.10580418039,1019.07600551079,-3.02979866960504,-1020.59090484559,512.567801424999,508.023103420591
1.81818181818182,1022.34737673569,1019.86594078553,-2.48143595016245,-1021.10665876061,512.414406342926,508.692252417682
1.82034890020587,1021.71321832894,1020.71262635069,-1.00059197824953,-1021.21292233981,511.356905153595,509.85601718622
1.82251598222993,1021.79069417883,1021.06041833905,-0.730275839776482,-1021.42555625894,511.260485009302,510.165071249637
1.82468306425398,1021.8472394466,1020.5037835257,-1.34345592089596,-1021.17551148615,511.595347683747,509.580163802403
1.82685014627804,1022.1586648709,1019.28705842931,-2.87160644159167,-1020.7228616501,512.515135656246,508.207725993858
1.82901722830209,1022.38595678229,1020.01997644708,-2.3659803352167,-1021.20296661468,512.375968558754,508.826998055929
1.83118431032615,1021.7413757363,1020.82504832142,-0.916327414876832,-1021.28321202886,511.328851575588,509.954360453273
1.8333513923502,1021.27093226394,1021.41262502791,0.141692763975357,-1021.34177864592,510.56461974998,510.777158895943
1.83551847437426,1021.46789444171,1021.03099560158,-0.436898840133153,-1021.24944502164,510.952396640921,510.297048380721
1.83768555639831,1021.61164606365,1021.29277815914,-0.318867904511649,-1021.4522121114,510.965256984082,510.486955127314
1.83985263842236,1021.17624986822,1021.21368232075,0.0374324525303109,-1021.19496609448,510.569408707844,510.625557386639
1.84201972044642,1020.85847865961,1021.69626713817,0.837788478568541,-1021.27737289889,510.010345090519,511.267027808371
1.84418680247047,1020.89671152883,1021.77832245755,0.88161092872042,-1021.33751699319,510.007550300053,511.329966693133
1.84635388449453,1021.46492797467,1022.10836623454,0.643438259872596,-1021.78664710461,510.410744857399,511.375902247208
1.84852096651858,1021.60948100611,1022.349246635,0.739765628883788,-1021.97936382055,510.434857688614,511.54450613194
1.85068804854264,1021.98513835004,1021.71458306333,-0.270555286703257,-1021.84986070669,511.12784681837,510.722013888315
1.85285513056669,1022.25930952896,1021.79169022175,-0.467619307217319,-1022.02549987536,511.363464418091,510.662035457265
1.85502221259075,1022.45941166079,1021.30765397859,-1.15175768219638,-1021.88353281969,511.805584671493,510.077948148198
1.8571892946148,1022.06514253495,1021.22453934517,-0.840603189780154,-1021.64484094006,511.452872862365,510.191968077694
1.85935637663886,1022.31770008635,1021.16387864626,-1.15382144008527,-1021.7407893663,511.735760763216,510.005028603088
1.86152345866291,1022.23187143451,1021.65991823572,-0.571953198783945,-1021.94589483512,511.401912316646,510.54398251847
1.86369054068697,1021.89907371425,1021.21148101314,-0.687592701104222,-1021.5552773637,511.293333207676,510.26194415602
1.86585762271102,1021.65618336541,1020.88419189188,-0.771991473534968,-1021.27018762865,511.214087419474,510.056100209172
1.86802470473507,1021.74906756499,1020.6453219598,-1.10374560519085,-1021.1971947624,511.426406585092,509.770788177305
1.87019178675913,1021.81685852107,1021.28145285932,-0.535405661750929,-1021.54915569019,511.17613209141,510.373023598784
1.87235886878318,1022.13649154113,1021.4755728329,-0.660918708229246,-1021.80603218701,511.398705124677,510.407327062334
1.87452595080724,1022.36977371529,1021.61725008976,-0.752523625530557,-1021.99351190253,511.561148670412,510.432363232117
1.87669303283129,1022.54003326099,1021.72065235561,-0.819380905384946,-1022.1303428083,511.679707083189,510.450635725111
1.87886011485535,1022.66429613279,1021.25580743327,-1.40848869952106,-1021.96005178303,512.036392416155,509.923659366874
1.8810271968794,1021.94451998225,1021.456855678,-0.487664304251211,-1021.70068783013,511.216092143251,510.484595686874
1.88319427890346,1021.95950825368,1021.33343327866,-0.626074975021425,-1021.64647076617,511.292791614351,510.353679151819
1.88536136092751,1021.97044735048,1020.97319799531,-0.997249355165309,-1021.4718226729,511.483848352822,509.987974320074
1.88752844295157,1021.97843118232,1021.25059493524,-0.72783624708245,-1021.61451305878,511.353133714703,510.26137934408
1.88969552497562,1022.25441434427,1021.45305136869,-0.801362975579423,-1021.85373285648,511.527888659926,510.325844196557
1.89186260699967,1021.91552651691,1021.06050051527,-0.855026001634428,-1021.48801351609,511.385276259271,510.102737256819
1.89402968902373,1022.20850376497,1020.77399971338,-1.43450405159604,-1021.49125173918,511.821503908285,509.669747830891
1.89619677104778,1021.61186275392,1020.56489888282,-1.04696387110243,-1021.08838081837,511.329413312514,509.75896750586
1.89836385307184,1020.9062518064,1020.95260036429,0.0463485578959535,-1020.92942608534,510.42995162425,510.499474461094
1.90053093509589,1021.20173467512,1021.50571809406,0.303983418940675,-1021.35372638459,510.44887562809,510.904850756501
1.90269801711995,1021.68754722323,1021.63925142137,-0.0482958018637873,-1021.6633993223,510.867921512547,510.795477809752
1.904865099144,1022.04211449366,1022.00686610268,-0.0352483909830426,-1022.02449029817,511.038681442323,510.985808855849
1.90703218116806,1021.49042457785,1022.27516739426,0.78474281641445,-1021.88279598605,510.352840880716,511.529955105338
1.90919926319211,1021.62808954356,1022.2008292134,0.57273966983837,-1021.91445937848,510.52767493686,511.386784441618
1.91136634521617,1021.18825103988,1021.876417742,0.688166702117883,-1021.53233439094,510.250042168883,511.282292222059
1.91353342724022,1020.59708142832,1021.6396480448,1.04256661648083,-1021.11836473656,509.777257405922,511.341107330643
1.91570050926428,1020.43577617147,1021.73699936396,1.30122319249176,-1021.08638776771,509.567276489489,511.519111278226
1.91786759128833,1020.58820474363,1021.53789440764,0.949689664008588,-1021.06304957564,509.819257539812,511.243792035825
1.92003467331238,1020.96961000203,1021.39257889209,0.422968890054676,-1021.18109444706,510.273320555988,510.90777389107
1.92220175533644,1020.70766383689,1021.82683368948,1.1191698525929,-1021.26724876319,509.794246992148,511.473001771038
1.92436883736049,1021.32695269105,1021.60345943208,0.276506741032222,-1021.46520606157,510.52522297501,510.939983086558
1.92653591938455,1021.50878060245,1021.44043111789,-0.0683494845536643,-1021.47460586017,510.788565043501,510.68604081667
1.9287030014086,1021.91164278596,1021.59160212737,-0.320040658594962,-1021.75162245666,511.115841722277,510.635780734385
1.93087008343266,1021.66535682432,1021.70193334957,0.0365765252475967,-1021.68364508695,510.814390149539,510.86925493741
1.93303716545671,1021.48560654512,1021.24214548299,-0.24346106212829,-1021.36387601406,510.864533803625,510.499342210433
1.93520424748077,1021.35441692043,1021.71704080033,0.36262387989791,-1021.53572886038,510.495896520267,511.039832340114
1.93737132950482,1021.25866898778,1022.0636401977,0.804971209913788,-1021.66115459274,510.226848888936,511.434305703806
1.93953841152888,1020.64847553017,1021.77629119109,1.12781566092099,-1021.21238336063,509.760329934626,511.452053426007
1.94170549355293,1021.28375447306,1021.83672751547,0.55297304240537,-1021.56024099427,510.36539071533,511.194850278938
1.94387257557699,1021.47725265139,1021.88083659139,0.403583940002022,-1021.67904462139,510.536834355695,511.142210265698
1.94603965760104,1021.34831988299,1021.91302932646,0.564709443470406,-1021.63067460472,510.391805219758,511.238869384963
1.94820673962509,1021.25421910288,1022.20668120604,0.952462103157586,-1021.73045015446,510.150878499861,511.579571654597
1.95037382164915,1021.7258526568,1021.88068878248,0.15483612567391,-1021.80327071964,510.785508265565,511.017762454075
1.9525409036732,1022.07007147641,1022.18307766091,0.113006184500932,-1022.12657456866,510.978532645953,511.148041922705
1.95470798569726,1021.78098501991,1022.40377430543,0.622789285521321,-1022.09237966267,510.579097867194,511.513281795476
1.95687506772131,1021.84015327727,1022.5648483805,0.724695103222302,-1022.20250082888,510.557729087026,511.644771741859
1.95904214974537,1021.61318065049,1022.41225108174,0.799070431245468,-1022.01271586612,510.407055109624,511.605660756492
1.96120923176942,1021.44752608876,1022.03072267929,0.583196590521538,-1021.73912438402,510.432164749121,511.306959634903
1.96337631379348,1021.59678034778,1021.21195412102,-0.384826226765085,-1021.4043672344,510.990803287273,510.413563947125
1.96554339581753,1021.70571264158,1020.61438097485,-1.09133166672825,-1021.16004680821,511.398522154152,509.76152465406
1.96771047784159,1021.51505998766,1020.17824592617,-1.33681406149265,-1020.84665295691,511.425937024576,509.420715932337
1.96987755986564,1021.37591333251,1020.40024789384,-0.9756654386631,-1020.88808061317,511.175789385585,509.71229122759
1.9720446418897,1021.81467043435,1021.10258707465,-0.712083359699818,-1021.4586287545,511.263376897024,510.195251857474
1.97421172391375,1021.59458215588,1021.07487253917,-0.51970961670645,-1021.33472734753,511.057145886293,510.277581461234
1.9763788059378,1021.433952093,1020.51433283387,-0.919619259126989,-1020.97414246344,511.176785676064,509.797356787374
1.97854588796186,1021.85702966317,1021.18585125945,-0.671178403717022,-1021.52144046131,511.264104033441,510.257336427866
1.98071296998591,1022.16581019965,1021.13564238722,-1.03016781242206,-1021.65072629344,511.597989006034,510.052737287401
1.98288005200997,1021.85085933235,1021.63931017747,-0.211549154882732,-1021.74508475491,511.031204243616,510.713880511292
1.98504713403402,1021.62099439829,1021.73675277358,0.11575837529665,-1021.67887358593,510.752618011495,510.926255574439
1.98721421605808,1020.91291648031,1021.53771443519,0.624797954877408,-1021.22531545775,510.144059262715,511.081256195031
1.98938129808213,1020.9364426341,1021.39244754031,0.456004906202566,-1021.16444508721,510.240218863951,510.924226223255
1.99154838010619,1020.95361305131,1021.8267378232,0.873124771891298,-1021.39017543726,510.04024413971,511.349931297547
1.99371546213024,1020.69598856178,1021.3332332528,0.637244691025899,-1021.01461090729,510.029371935376,510.985238971915
1.9958825441543,1021.31843156404,1021.51336443143,0.194932867391458,-1021.41589799773,510.561749348323,510.85414864941
1.99804962617835,1021.50256151083,1021.10451962945,-0.398041881375548,-1021.30354057014,510.950301696102,510.353238874038
2.00021670820241,1021.90710382057,1021.34643921416,-0.560664606408523,-1021.62677151737,511.233884213491,510.392887303878
2.00238379022646,1021.66204408863,1021.52300272029,-0.139041368339122,-1021.59252340446,510.900542728486,510.691980675977
2.00455087225051,1022.0235011893,1021.92202271032,-0.101478478975196,-1021.97276194981,511.062489834137,510.910272115674
2.00671795427457,1022.01715219702,1021.94308875951,-0.0740634375086984,-1021.98012047827,511.045607817266,510.934512661003
2.00888503629862,1022.28267463632,1018.7165891422,-3.56608549412454,-1020.49963188926,512.924380065223,507.575251824037
2.01105211832268,1021.93615211551,1014.74081116787,-7.19534094763935,-1018.33848164169,514.565746531574,503.772735110115
2.01321920034673,1022.22355722999,1011.56895809846,-10.654599131533,-1016.89625766422,516.439078180762,500.457179483463
2.01538628237079,1022.43331806747,1010.87493811012,-11.5583799573502,-1016.6541280888,516.995849012411,499.658279076386
2.01755336439484,1022.04609828796,1010.90872435654,-11.1373739314158,-1016.47741132225,516.591736109686,499.885675212562
2.0197204464189,1022.03364454911,1008.77213334364,-13.2615112054677,-1015.40288894637,517.647577877288,497.755311069086
2.02188752844295,1022.29471147704,1006.13213081762,-16.1625806594246,-1014.21342114733,519.228646068234,494.984775079097
2.02405461046701,1021.94493712894,1005.28596622084,-16.6589709080943,-1013.61545167489,519.301954018516,494.313497656375
2.02622169249106,1021.68965649373,1005.74902309364,-15.9406334000865,-1013.71933979368,518.815144946907,494.904194846777
2.02838877451512,1022.04365393163,1009.05870060639,-12.9849533252428,-1015.55117726901,517.514303628438,498.036873640574
2.03055585653917,1022.03186055083,1012.82502923914,-9.20683131169346,-1017.42844489498,515.619345931261,501.809098963721
2.03272293856322,1022.02325322511,1014.76339216018,-7.25986106492837,-1018.39332269265,514.641557145019,503.751765547626
2.03489002058728,1021.74681501003,1016.71840672099,-5.02840828904129,-1019.23261086551,513.387611649535,505.844999215973
2.03705710261133,1021.81521450782,1018.14526195389,-3.66995255392987,-1019.98023823086,512.742583530876,507.237654699981
2.03922418463539,1021.32482303265,1016.48508126347,-4.83974176918468,-1018.90495214806,513.082282400919,505.822669747142
2.04139126665944,1021.23707007262,1014.73309627565,-6.50397379697279,-1017.98508317414,513.870521934798,504.114561239339
2.0435583486835,1021.7133365436,1010.48270258481,-11.2306339587896,-1016.0980195642,516.471985251194,499.62603431301
2.04572543070755,1021.79078045706,1009.00151642368,-12.7892640333839,-1015.39614844037,517.290022245223,498.106126195147
2.04789251273161,1022.1174586281,1011.97282508299,-10.1446335451136,-1017.04514185555,516.131046086609,500.914095768938
2.05005959475566,1021.81557023821,1014.41157246247,-7.40399777573975,-1018.11357135034,514.609784006976,503.503787343366
2.05222667677972,1021.86539508401,1016.1914770882,-5.67391799581151,-1019.02843608611,513.769656539912,505.258779546195
2.05439375880377,1021.90175943822,1017.76068563462,-4.1410738035928,-1019.83122253642,513.021416620904,506.809805915515
2.05656084082783,1021.92829973624,1018.36565032076,-3.56264941547659,-1020.1469750285,512.745474575858,507.401500452643
2.05872792285188,1021.67751379602,1019.07733625085,-2.60017754516468,-1020.37742502343,512.13884567059,508.238579352843
2.06089500487593,1022.03479165914,1019.8669120179,-2.16787964124092,-1020.95085183852,512.101335650189,508.849516188327
2.06306208689999,1022.29554868817,1020.17302277486,-2.12252591331287,-1021.23428573151,512.209037300742,509.025248430773
2.06522916892404,1021.94554816228,1020.39643580931,-1.54911235297277,-1021.17099198579,511.747330257626,509.423661728167
2.0673962509481,1022.23041487636,1020.82964863656,-1.40076623980178,-1021.53003175646,511.81559055808,509.714441198378
2.06956333297215,1022.43832307807,1020.87567011559,-1.5626529624825,-1021.65699659683,512.000488020279,509.656508576555
2.07173041499621,1021.50943874011,1020.63910239431,-0.870336345796545,-1021.07427056721,511.189887542954,509.884383024259
2.07389749702026,1021.10165448803,1020.46644491247,-0.63520957556193,-1020.78404970025,510.868432031796,509.915617668453
2.07606457904432,1021.07419189662,1019.52996328625,-1.54422861037017,-1020.30207759144,511.309210253497,508.992867337942
2.07823166106837,1021.05414849488,1016.68522829369,-4.36892020118853,-1018.86968839429,512.711534348035,506.158154046252
2.08039874309243,1021.3096761545,1013.79854749488,-7.51112865961215,-1017.55411182469,514.410402407055,503.143709417636
2.08256582511648,1021.22601521769,1010.07078417434,-11.1552310433553,-1015.64839969601,516.190623130523,499.45777656549
2.08473290714054,1021.43511201453,1006.80978684748,-14.6253251670489,-1014.122449431,518.030218590787,496.092230840214
2.08689998916459,1021.04740758907,1004.97008062911,-16.0773269599608,-1013.00874410909,518.562367274516,494.446376834574
2.08906707118864,1020.76444392252,1005.24831974488,-15.516124177639,-1013.0063818337,518.14028405008,494.866097783622
2.0912341532127,1021.09823707197,1006.8021718945,-14.2960651774661,-1013.95020448323,517.697151124717,496.253053358518
2.09340123523675,1021.07169771674,1008.47655365731,-12.5951440594248,-1014.77412568703,516.833420888082,497.940704798945
2.09556831726081,1021.59264055693,1010.2389032096,-11.353737347326,-1015.91577188327,516.473188952127,499.442582931138
2.09773539928486,1021.43253502907,1010.17436202349,-11.2581730055749,-1015.80344852628,516.345354017321,499.458094508959
2.09990248130892,1021.85599542786,1009.58694461599,-12.2690508118678,-1015.72147002192,517.062523119862,498.65894690206
2.10206956333297,1021.89489915756,1007.53728439885,-14.3576147587057,-1014.71609177821,518.126256958132,496.589834820074
2.10423664535703,1022.19344901489,1007.12197746909,-15.0714715457993,-1014.65771324199,518.632460280344,496.025252961645
2.10640372738108,1021.87103134996,1007.62933692185,-14.2416944281147,-1014.75018413591,518.05636288904,496.693821246868
2.10857080940514,1021.36556060816,1009.8907235499,-11.4748370582682,-1015.62814207903,516.420198833217,499.207943245814
2.11073789142919,1021.53695835093,1012.89196359229,-8.64499475863374,-1017.21446097161,515.090976554779,502.123484416829
2.11290497345325,1021.39189571691,1015.08239999392,-6.30949572299107,-1018.23714785541,513.850695719949,504.386452135462
2.1150720554773,1021.55617886645,1016.9512326068,-4.60494625964748,-1019.25370573663,513.080562563049,506.173143173578
2.11723913750135,1021.67607990264,1017.77487605663,-3.90120384601198,-1019.72547797963,512.788641874325,506.936836105307
2.11940621952541,1021.76358892909,1018.91631953586,-2.84726939323423,-1020.33995423247,512.305429161162,508.034525071311
2.12157330154946,1021.55730063658,1019.20908254493,-2.34821809165157,-1020.38319159075,511.952759364116,508.430432226639
2.12374038357352,1021.94705483147,1019.69291002037,-2.2541448111059,-1020.81998242592,512.100599821289,508.71938260463
2.12590746559757,1022.23151450951,1020.31618470971,-1.915329799799,-1021.27384960961,512.073422154654,509.200427454956
2.12807454762163,1022.16896942663,1018.33967196318,-3.82929746344519,-1020.2543206949,512.999133445036,507.255187249868
2.13024162964568,1021.58300886266,1013.92540808238,-7.65760078028075,-1017.75420847252,514.620304821472,503.133903651051
2.13240871166974,1021.42550539684,1011.24399743357,-10.1815079632728,-1016.3347514152,515.803506680056,500.531244735147
2.13457579369379,1021.85086489444,1011.44823622308,-10.4026286713621,-1016.64955055876,516.126746782902,500.522803775859
2.13674287571785,1021.62099845774,1012.94807969426,-8.67291876348622,-1017.284539076,515.146958610615,502.137580465386
2.1389099577419,1021.72338807869,1015.66366840609,-6.05971967260064,-1018.69352824239,513.891553875647,504.801974366746
2.14107703976596,1021.52796029564,1017.10531153479,-4.42264876084676,-1019.31663591522,512.975304528244,506.341331386974
2.14324412179001,1021.9256409659,1018.15748581697,-3.76815514892087,-1020.04156339143,512.846898057408,507.194665334027
2.14541120381406,1021.675573309,1018.92540868085,-2.75016462814381,-1020.30049099492,512.21286896857,508.087622026354
