t,leadI,leadII,leadIII,aVR,aVL,aVF
0,348,295,-278.577435650618,12.8136794474831,202.526237014222,-215.339916461705
0.00470256289677874,330,293,-200.376067126669,61.6895347749513,119.437282957526,-181.126817732477
0.00940512579355749,316,294,-127.062284135466,93.4588407378056,48.5672927326969,-142.026133470503
0.0141076886903362,308,293,-92.8491854062385,115.452975635166,11.9104012370957,-127.363376872262
0.018810251587115,302,291,-73.2988432752513,135.003317766154,-12.5275264266383,-122.475791339515
0.0235128144838937,295,289,-48.8609156115172,156.997452663514,-41.8530396231193,-115.144413040395
0.0282153773806725,288,281,-53.7485011442642,193.654344159116,-56.5157962213596,-137.138547937756
0.0329179402774512,278,273,-43.9733300787704,237.642613953837,-85.8413094178407,-151.801304535996
0.03762050317423,279,275,-39.0857445460236,230.311235654717,-85.8413094178407,-144.469926236876
0.0423230660710087,283,283,-19.5354024150363,200.985722458236,-85.8413094178407,-115.144413040395
0.0470256289677874,291,300,24.4528673796851,139.8909032989,-88.2851021842141,-51.6058011146864
0.0517281918645662,302,312,29.3404529124319,83.683669672312,-63.8471745204799,-19.8364951518321
0.0564307547613449,315,329,48.8907950434192,10.3698866811097,-41.8530396231193,31.4831529420095
0.0611333176581237,330,346,58.6659661089128,-67.8314818428394,-10.0837336602649,77.9152155031043
0.0658358805549024,347,370,92.879064838141,-168.026985264149,14.3541940034689,153.67279126068
0.0705384434516812,372,400,117.316992501875,-302.435587414687,63.2300493309376,239.20553808375
0.0752410063484599,401,437,156.417676763849,-463.725909995332,114.549697424779,349.176212570553
0.0799435692452387,434,471,161.305262296596,-627.46002534235,192.751065948728,434.708959393622
0.0846461321420174,466,509,190.630775493077,-798.525518988489,256.289677874437,542.235841114053
0.0893486950387961,500,542,185.74318996033,-962.259634335508,341.822424697506,620.437209638002
0.0940512579355749,528,570,185.74318996033,-1099.11202925242,410.248622155962,688.863407096457
0.0987538208323536,545,578,141.754920165609,-1160.20684841175,473.78723408167,686.419614330084
0.103456383729132,549,570,83.1038937726469,-1150.43167734626,512.887918343645,637.543759002616
0.108158946625911,538,549,34.2280384451788,-1072.23030882231,510.444125577272,561.78618324504
0.11286150952269,521,519,-29.3105734805299,-957.372048802761,500.668954511778,456.703094290983
0.117564072419469,496,487,-63.5236722097577,-818.075861119477,456.680684717057,361.39517640242
0.122266635316247,468,453,-92.8491854062386,-666.560709604325,402.917243856841,263.643465747484
0.126969198213026,442,427,-92.8491854062385,-539.483485752908,339.378631931133,200.104853821775
0.131671761109805,421,411,-68.4112577425045,-449.063153397092,275.840020005424,173.223133391667
0.136374324006584,403,392,-73.2988432752513,-358.642821041276,234.295542977076,124.347278064199
0.141076886903362,388,381,-53.748501144264,-295.104209115567,187.863480415981,107.240728699585
0.145779449800141,378,373,-43.9733300787704,-251.115939320846,158.537967219501,92.577972101345
0.15048201269692,375,373,-29.3105734805299,-243.784561021725,143.87521062126,99.9093504004652
0.155184575593699,374,377,-4.87264581679582,-251.115939320846,129.21245402302,121.903485297826
0.159887138490477,375,376,-14.6478168822894,-251.115939320846,136.54383232214,114.572106998706
0.164589701387256,372,375,-4.8726458167958,-241.340768255352,124.324868490273,117.015899765079
0.169292264284035,370,372,-9.76023134954264,-229.121804423485,121.881075723899,107.240728699585
0.173994827180814,364,366,-9.76023134954261,-199.796291227004,107.218319125659,92.577972101345
0.178697390077592,359,354,-43.9733300787703,-158.251814198656,112.105904658406,46.1459095402502
0.183399952974371,351,345,-48.8609156115172,-116.707337170308,94.9993552937917,21.7079818765159
0.18810251587115,345,341,-39.0857445460235,-92.2694095065735,75.4490131628044,16.8203963437691
0.192805078767929,339,336,-34.1981590132767,-65.387689076466,58.3424637981905,7.04522527827545
0.197507641664707,336,335,-24.4229879477831,-55.6125180109723,46.1234999663235,9.48901804464886
0.202210204561486,334,334,-19.5354024150363,-48.2811397118521,38.7921216672032,9.48901804464886
0.206912767458265,330,332,-9.76023134954262,-33.6183831136116,24.1293650689628,9.48901804464886
0.211615330355043,329,331,-9.76023134954262,-28.7307975808648,21.6855723025894,7.04522527827545
0.216317893251822,324,325,-14.6478168822894,-1.84907715075733,11.9104012370957,-10.0613240863384
0.221020456148601,321,321,-19.5354024150363,15.2574722138565,7.02281570434893,-22.2802879182055
0.22572301904538,317,317,-19.5354024150363,34.8078143448438,-2.75235536114471,-32.0554589836991
0.230425581942158,314,311,-34.1981590132767,56.8019492422045,-2.75235536114471,-54.0495938810598
0.235128144838937,310,307,-34.1981590132767,76.3522913731918,-12.5275264266383,-63.8247649465534
0.239830707735716,310,309,-24.4229879477831,71.464705840445,-17.4151119593852,-54.0495938810598
0.244533270632495,312,313,-14.6478168822894,56.8019492422045,-17.4151119593852,-39.3868372828193
0.249235833529273,311,311,-19.5354024150363,64.1333275413247,-17.4151119593852,-46.7182155819396
0.253938396426052,310,308,-29.3105734805299,73.9084986068184,-14.9713191930118,-58.9371794138066
0.258640959322831,307,309,-9.76023134954264,78.7960841395652,-32.0778685576256,-46.7182155819396
0.26334352221961,306,309,-4.87264581679581,81.2398769059386,-36.9654540903724,-44.2744228155662
0.268046085116388,307,310,-4.87264581679581,76.3522913731918,-34.521661323999,-41.8306300491927
0.272748648013167,306,312,9.79011078144465,73.9084986068184,-44.2968323894927,-29.6116662173257
0.277451210909946,311,318,14.6776963141915,47.0267781767109,-34.521661323999,-12.5051168527118
0.282153773806725,314,319,4.90252524869783,37.2516071112172,-22.302697492132,-14.9489096190852
0.286856336703503,317,321,0.0149397159510158,25.0326432793502,-12.5275264266383,-12.5051168527118
0.291558899600282,319,326,14.6776963141915,7.92609391473631,-14.9713191930118,7.04522527827545
0.296261462497061,318,321,-4.8726458167958,22.5888505129768,-7.63994089389153,-14.9489096190852
0.30096402539384,314,316,-9.76023134954262,44.5829854103375,-14.9713191930118,-29.6116662173257
0.305666588290618,313,314,-14.6478168822894,51.9143637094577,-14.9713191930118,-36.9430445164459
0.310369151187397,310,312,-9.76023134954262,64.1333275413247,-24.7464902585054,-39.3868372828193
0.315071714084176,310,312,-9.76023134954262,64.1333275413247,-24.7464902585054,-39.3868372828193
0.319774276980955,310,316,9.79011078144465,54.3581564758311,-34.521661323999,-19.8364951518321
0.324476839877733,313,315,-9.76023134954262,49.4705709430843,-17.4151119593852,-32.0554589836991
0.329179402774512,316,320,0.0149397159510158,29.920228812097,-14.9713191930118,-14.9489096190852
0.333881965671291,318,321,-4.8726458167958,22.5888505129768,-7.63994089389153,-14.9489096190852
0.33858452856807,323,326,-4.87264581679581,-1.84907715075733,4.57902293797552,-2.72994578721819
0.343287091464848,326,329,-4.8726458167958,-16.5118337489978,11.9104012370957,4.60143251190204
0.347989654361627,327,329,-9.76023134954262,-18.9556265153712,16.7979867698426,2.15763974552863
0.352692217258406,324,327,-4.87264581679581,-6.73666268350415,7.02281570434893,-0.286153020844782
0.357394780155185,321,323,-9.76023134954263,10.3698866811097,2.13523017160211,-12.5051168527118
0.362097343051963,319,318,-24.4229879477831,27.4764360457236,4.57902293797552,-32.0554589836991
0.366799905948742,318,318,-19.5354024150363,29.920228812097,-0.308562594771303,-29.6116662173257
0.371502468845521,316,320,0.0149397159510158,29.920228812097,-14.9713191930118,-14.9489096190852
0.3762050317423,317,322,4.90252524869783,22.5888505129768,-14.9713191930118,-7.61753131996501
0.380907594639078,317,319,-9.76023134954262,29.920228812097,-7.63994089389153,-22.2802879182055
0.385610157535857,315,316,-14.6478168822894,42.139192643964,-10.0837336602649,-32.0554589836991
0.390312720432636,313,317,0.0149397159510158,44.5829854103375,-22.302697492132,-22.2802879182055
0.395015283329415,320,326,9.79011078144465,5.4823011483629,-10.0837336602649,4.60143251190204
0.399717846226193,327,336,24.4528673796851,-36.0621758799851,-0.308562594771303,36.3707384747564
0.404420409122972,334,342,19.5652818469383,-67.8314818428394,19.241779536216,48.5897023066234
0.409122972019751,335,341,9.79011078144465,-67.8314818428394,26.5731578353362,41.2583240075032
0.41382553491653,332,336,0.0149397159510158,-48.2811397118521,24.1293650689628,24.1517746428893
0.418528097813308,329,332,-4.8726458167958,-31.1745903472382,19.241779536216,11.9328108110223
0.423230660710087,329,331,-9.76023134954262,-28.7307975808648,21.6855723025894,7.04522527827545
0.427933223606866,328,331,-4.8726458167958,-26.2870048144914,16.7979867698426,9.48901804464886
0.432635786503644,325,330,4.90252524869783,-16.5118337489978,4.57902293797552,11.9328108110223
0.437338349400423,326,327,-14.6478168822894,-11.624248216251,16.7979867698426,-5.1737385535916
0.442040912297202,327,328,-14.6478168822894,-16.5118337489978,19.241779536216,-2.72994578721819
0.446743475193981,329,332,-4.8726458167958,-31.1745903472382,19.241779536216,11.9328108110223
0.451446038090759,330,336,9.79011078144465,-43.3935541791053,14.3541940034692,29.0393601756361
0.456148600987538,332,340,19.5652818469383,-58.0563107773457,14.3541940034692,43.7021167738766
0.460851163884317,333,335,-9.76023134954262,-48.2811397118521,31.460743368083,16.8203963437691
0.465553726781096,329,329,-19.5354024150363,-23.843212048118,26.5731578353362,-2.72994578721819
0.470256289677874,329,331,-9.76023134954262,-28.7307975808648,21.6855723025894,7.04522527827545
0.474958852574653,329,331,-9.76023134954262,-28.7307975808648,21.6855723025894,7.04522527827545
0.479661415471432,330,337,14.6776963141915,-45.8373469454787,11.9104012370957,33.926945708383
0.484363978368211,337,342,4.90252524869783,-75.1628601419596,33.9045361344564,41.2583240075032
0.489066541264989,339,349,29.3404529124319,-97.1569950393203,26.5731578353362,70.5838372039841
0.493769104161768,341,349,19.5652818469383,-102.044580572067,36.3483289008298,65.6962516712373
0.498471667058547,341,347,9.79011078144464,-97.1569950393203,41.2359144335767,55.9210806057436
0.503174229955326,340,344,0.0149397159510158,-87.3818239738267,43.6797071999501,43.7021167738766
0.507876792852104,337,339,-9.76023134954263,-67.8314818428394,41.2359144335767,26.5955674092627
0.512579355748883,336,339,-4.8726458167958,-65.387689076466,36.3483289008298,29.0393601756361
0.517281918645662,338,344,9.79011078144465,-82.4942384410798,33.9045361344564,48.5897023066234
0.521984481542441,342,349,14.6776963141915,-104.488373338441,41.2359144335767,63.2524589048639
0.526687044439219,345,351,9.79011078144464,-116.707337170308,51.0110854990703,65.6962516712373
0.531389607335998,348,356,19.5652818469387,-136.257679301295,53.4548782654435,82.8028010358516
0.536092170232777,350,354,0.0149397159514706,-136.257679301295,68.1176348636839,68.1400444376111
0.540794733129556,350,354,0.0149397159514706,-136.257679301295,68.1176348636839,68.1400444376111
0.545497296026334,349,356,14.6776963141919,-138.701472067668,58.3424637981903,80.3590082694782
0.550199858923113,351,357,9.79011078144509,-146.032850366789,65.6738420973105,80.3590082694782
0.554902421819892,355,363,19.5652818469383,-170.470778030523,70.5614276300578,99.9093504004652
0.559604984716671,356,364,19.5652818469383,-175.35836356327,73.0052203964312,102.353143166839
0.564307547613449,358,363,4.90252524869783,-177.802156329643,85.2241842282983,92.577972101345
0.569010110510228,356,361,4.90252524869783,-168.02698526415,80.3365986955514,87.6903865685982
0.573712673407007,356,361,4.90252524869783,-168.02698526415,80.3365986955514,87.6903865685982
0.578415236303786,361,368,14.6776963141915,-197.35249846063,87.6679769946716,109.684521465959
0.583117799200564,362,367,4.90252524869783,-197.352498460631,94.9993552937919,102.353143166839
0.587820362097343,361,364,-4.8726458167958,-187.577327395137,97.4431480601653,90.1341793349716
0.592522924994122,359,363,0.0149397159510158,-180.245949096017,90.1117697610451,90.1341793349716
0.597225487890901,360,364,0.0149397159510158,-185.133534628763,92.5555625274185,92.577972101345
0.601928050787679,359,363,0.0149397159510158,-180.245949096017,90.1117697610451,90.1341793349716
0.606630613684458,359,363,0.0149397159510158,-180.245949096017,90.1117697610451,90.1341793349716
0.611333176581237,362,366,0.0149397159510158,-194.908705694257,97.4431480601653,97.4655576340918
0.616035739478015,362,367,4.90252524869783,-197.352498460631,94.9993552937919,102.353143166839
0.620738302374794,363,366,-4.8726458167958,-197.352498460631,102.330733592912,95.0217648677184
0.625440865271573,362,365,-4.87264581679582,-192.464912927884,99.8869408265387,92.577972101345
0.630143428168352,362,363,-14.6478168822894,-187.577327395137,104.774526359286,82.8028010358514
0.634845991065131,361,361,-19.5354024150363,-180.245949096017,104.774526359286,75.4714227367311
0.639548553961909,356,355,-24.4229879477831,-153.364228665909,94.9993552937919,58.3648733721173
0.644251116858688,351,347,-39.0857445460235,-121.594922703054,90.1117697610448,31.4831529420095
0.648953679755467,348,347,-24.4229879477831,-114.263544403934,75.4490131628044,38.8145312411298
0.653656242652245,348,348,-19.5354024150363,-116.707337170308,73.005220396431,43.7021167738766
0.658358805549024,351,352,-14.647816882289,-133.813886534922,77.8928059291776,55.9210806057441
0.663061368445803,352,354,-9.76023134954261,-141.145264834042,77.892805929178,63.2524589048641
0.667763931342582,353,355,-9.76023134954261,-146.032850366789,80.3365986955514,65.6962516712375
0.67246649423936,351,352,-14.647816882289,-133.813886534922,77.8928059291776,55.9210806057441
0.677169057136139,346,343,-34.1981590132767,-99.6007878056937,75.4490131628044,24.1517746428893
0.681871620032918,338,334,-39.0857445460235,-58.0563107773457,58.3424637981905,-0.286153020844779
0.686574182929697,330,324,-48.8609156115172,-14.0680409826244,43.6797071999501,-29.6116662173257
0.691276745826475,326,323,-34.1981590132767,-1.84907715075733,26.5731578353362,-24.7240806845789
0.695979308723254,323,321,-29.3105734805299,10.3698866811097,16.7979867698426,-27.1678734509523
0.700681871620033,321,319,-29.3105734805299,20.1450577466034,11.9104012370957,-32.0554589836991
0.705384434516812,315,314,-24.4229879477831,47.0267781767109,-5.19614812751812,-41.8306300491927
0.71008699741359,315,316,-14.6478168822894,42.139192643964,-10.0837336602649,-32.0554589836991
0.714789560310369,316,321,4.90252524869783,27.4764360457236,-17.4151119593852,-10.0613240863384
0.719492123207148,318,323,4.90252524869783,17.7012649802299,-12.5275264266383,-5.1737385535916
0.724194686103927,317,318,-14.6478168822894,32.3640215784704,-5.19614812751812,-27.1678734509523
0.728897249000705,314,315,-14.6478168822894,47.0267781767109,-12.5275264266383,-34.4992517500725
0.733599811897484,309,310,-14.6478168822894,71.4647058404449,-24.7464902585054,-46.7182155819396
0.738302374794263,305,305,-19.5354024150363,93.4588407378056,-32.0778685576256,-61.38097218018
0.743004937691042,299,299,-19.5354024150363,122.784353934287,-46.7406251558661,-76.0437287784205
0.74770750058782,296,296,-19.5354024150363,137.447110532527,-54.0720034549863,-83.3751070775407
0.752410063484599,294,295,-14.6478168822894,144.778488831647,-61.4033817541065,-83.3751070775407
0.757112626381378,298,301,-4.87264581679581,120.340561167913,-56.5157962213597,-63.8247649465534
0.761815189278157,301,304,-4.87264581679581,105.677804569673,-49.1844179222395,-56.4933866474332
0.766517752174935,303,306,-4.87264581679581,95.9026335041791,-44.2968323894927,-51.6058011146864
0.771220315071714,298,303,4.90252524869783,115.452975635166,-61.4033817541065,-54.0495938810598
0.775922877968493,296,299,-4.87264581679581,130.115732233407,-61.4033817541065,-68.7123504793003
0.780625440865272,295,297,-9.76023134954261,137.447110532527,-61.4033817541065,-76.0437287784205
0.78532800376205,291,293,-9.76023134954261,156.997452663514,-71.1785528196002,-85.8188998439141
0.790030566658829,289,291,-9.76023134954264,166.772623729008,-76.066138352347,-90.7064853766609
0.794733129555608,288,291,-4.87264581679582,169.216416495381,-80.9537238850938,-88.2626926102875
0.799435692452387,290,294,0.0149397159510158,156.997452663514,-78.5099311187204,-78.4875215447939
0.804138255349165,291,296,4.90252524869783,149.666074364394,-78.5099311187204,-71.1561432456737
0.808840818245944,291,295,0.0149397159510158,152.109867130767,-76.066138352347,-76.0437287784205
0.813543381142723,295,301,9.79011078144465,127.671939467033,-71.1785528196002,-56.4933866474332
0.818245944039501,298,302,0.0149397159510158,117.89676840154,-58.9595889877331,-58.9371794138066
0.82294850693628,297,301,0.0149397159510016,122.784353934287,-61.4033817541065,-61.38097218018
0.827651069833059,296,297,-14.6478168822894,135.003317766154,-56.5157962213597,-78.4875215447939
0.832353632729838,290,288,-29.3105734805299,171.660209261755,-63.8471745204799,-107.813034741275
0.837056195626616,282,282,-19.5354024150363,205.873307990983,-88.2851021842142,-117.588205806769
0.841758758523395,279,281,-9.76023134954264,215.648479056476,-100.504066016081,-115.144413040395
0.846461321420174,283,288,4.90252524869805,188.766758626369,-98.0602732497079,-90.7064853766608
0.851163884316953,286,293,14.6776963141917,169.216416495381,-95.6164804833345,-73.5999360120469
0.855866447213732,292,300,19.5652818469383,137.447110532527,-83.3975166514672,-54.0495938810598
0.86056901011051,295,300,4.90252524869784,130.115732233407,-68.7347600532268,-61.38097218018
0.865271573007289,294,302,19.5652818469383,127.671939467033,-78.5099311187204,-49.162008348313
0.869974135904068,295,295,-19.5354024150363,142.334696065274,-56.5157962213597,-85.8188998439141
0.874676698800846,290,291,-14.6478168822894,164.328830962635,-71.1785528196002,-93.1502781430343
0.879379261697625,290,290,-19.5354024150363,166.772623729008,-68.7347600532268,-98.0378636757812
0.884081824594404,290,294,0.0149397159510158,156.997452663514,-78.5099311187204,-78.4875215447939
0.888784387491183,295,297,-9.76023134954261,137.447110532527,-61.4033817541065,-76.0437287784205
0.893486950387961,295,303,19.5652818469383,122.784353934287,-76.066138352347,-46.7182155819396
0.89818951328474,297,301,0.0149397159510016,122.784353934287,-61.4033817541065,-61.38097218018
0.902892076181519,298,302,0.0149397159510158,117.89676840154,-58.9595889877331,-58.9371794138066
0.907594639078298,300,304,0.0149397159510158,108.121597336046,-54.0720034549863,-54.0495938810598
0.912297201975076,300,304,0.0149397159510158,108.121597336046,-54.0720034549863,-54.0495938810598
0.916999764871855,300,303,-4.87264581679581,110.56539010242,-51.6282106886129,-58.9371794138066
0.921702327768634,296,300,0.0149397159510158,127.671939467033,-63.8471745204799,-63.8247649465534
0.926404890665413,291,296,4.90252524869783,149.666074364394,-78.5099311187204,-71.1561432456737
0.931107453562191,291,289,-29.3105734805299,166.772623729008,-61.4033817541065,-105.369241974901
0.93581001645897,287,287,-19.5354024150363,181.435380327249,-76.0661383523471,-105.369241974902
0.940512579355749,289,294,4.90252524869783,159.441245429888,-83.3975166514672,-76.0437287784205
0.945215142252528,291,296,4.90252524869783,149.666074364394,-78.5099311187204,-71.1561432456737
0.949917705149306,293,296,-4.87264581679582,144.778488831647,-68.7347600532268,-76.0437287784205
0.954620268046085,295,302,14.6776963141915,125.22814670066,-73.6223455859736,-51.6058011146864
0.959322830942864,299,304,4.90252524869783,110.565390102419,-58.9595889877331,-51.6058011146864
0.964025393839643,301,305,0.0149397159510016,103.234011803299,-51.6282106886129,-51.6058011146864
0.968727956736421,303,306,-4.87264581679581,95.9026335041791,-44.2968323894927,-51.6058011146864
0.9734305196332,301,307,9.79011078144464,98.3464262705525,-56.5157962213597,-41.8306300491927
0.978133082529979,298,302,0.0149397159510158,117.89676840154,-58.9595889877331,-58.9371794138066
0.982835645426758,298,299,-14.6478168822894,125.22814670066,-51.6282106886129,-73.5999360120471
0.987538208323536,299,303,0.0149397159510016,113.009182868793,-56.5157962213597,-56.4933866474332
0.992240771220315,296,302,9.79011078144465,122.784353934287,-68.7347600532268,-54.0495938810598
0.996943334117094,297,301,0.0149397159510016,122.784353934287,-61.4033817541065,-61.38097218018
1.00164589701387,297,302,4.90252524869783,120.340561167913,-63.8471745204799,-56.4933866474332
1.00634845991065,299,300,-14.6478168822894,120.340561167913,-49.1844179222395,-71.1561432456737
1.01105102280743,299,302,-4.87264581679581,115.452975635166,-54.0720034549863,-61.38097218018
1.01575358570421,296,298,-9.76023134954262,132.55952499978,-58.9595889877331,-73.5999360120471
1.02045614860099,294,293,-24.4229879477831,149.666074364394,-56.5157962213597,-93.1502781430343
1.02515871149777,288,290,-9.76023134954264,171.660209261755,-78.5099311187204,-93.1502781430343
1.02986127439455,287,291,0.0149397159512148,171.660209261755,-85.8413094178408,-85.818899843914
1.03456383729132,287,292,4.90252524869803,169.216416495381,-88.2851021842142,-80.9313143111672
1.0392664001881,291,295,0.0149397159510158,152.109867130767,-76.066138352347,-76.0437287784205
1.04396896308488,294,301,14.6776963141915,130.115732233407,-76.066138352347,-54.0495938810598
1.04867152598166,297,301,0.0149397159510016,122.784353934287,-61.4033817541065,-61.38097218018
1.05337408887844,298,302,0.0149397159510158,117.89676840154,-58.9595889877331,-58.9371794138066
1.05807665177522,297,302,4.90252524869783,120.340561167913,-63.8471745204799,-56.4933866474332
1.062779214672,295,296,-14.6478168822894,139.8909032989,-58.9595889877331,-80.9313143111673
1.06748177756878,293,297,0.0149397159510158,142.334696065274,-71.1785528196002,-71.1561432456736
1.07218434046555,296,301,4.90252524869783,125.22814670066,-66.2909672868533,-58.9371794138066
1.07688690336233,300,306,9.79011078144465,103.234011803299,-58.9595889877331,-44.2744228155661
1.08158946625911,298,308,29.3404529124319,103.234011803299,-73.6223455859736,-29.6116662173257
1.08629202915589,300,308,19.5652818469383,98.3464262705525,-63.8471745204799,-34.4992517500725
1.09099459205267,301,308,14.6776963141915,95.9026335041791,-58.9595889877331,-36.9430445164459
1.09569715494945,303,306,-4.87264581679581,95.9026335041791,-44.2968323894927,-51.6058011146864
1.10039971784623,300,305,4.90252524869783,105.677804569673,-56.5157962213597,-49.162008348313
1.105102280743,298,300,-9.76023134954262,122.784353934287,-54.0720034549863,-68.7123504793002
1.10980484363978,297,297,-19.5354024150363,132.55952499978,-51.6282106886129,-80.9313143111673
1.11450740653656,294,296,-9.76023134954264,142.334696065274,-63.8471745204799,-78.4875215447939
1.11920996943334,293,296,-4.87264581679582,144.778488831647,-68.7347600532268,-76.0437287784205
1.12391253233012,294,296,-9.76023134954264,142.334696065274,-63.8471745204799,-78.4875215447939
1.1286150952269,298,303,4.90252524869783,115.452975635166,-61.4033817541065,-54.0495938810598
1.13331765812368,301,308,14.6776963141915,95.9026335041791,-58.9595889877331,-36.9430445164459
1.13802022102046,305,311,9.79011078144464,78.7960841395652,-46.7406251558661,-32.0554589836991
1.14272278391723,308,313,4.90252524869783,66.5771203076981,-36.9654540903724,-29.6116662173257
1.14742534681401,306,313,14.6776963141915,71.464705840445,-46.7406251558661,-24.7240806845789
1.15212790971079,307,312,4.90252524869783,71.4647058404449,-39.4092468567458,-32.0554589836991
1.15683047260757,304,307,-4.87264581679581,91.0150479714322,-41.8530396231193,-49.162008348313
1.16153303550435,300,303,-4.87264581679581,110.56539010242,-51.6282106886129,-58.9371794138066
1.16623559840113,299,299,-19.5354024150363,122.784353934287,-46.7406251558661,-76.0437287784205
1.17093816129791,298,301,-4.87264581679581,120.340561167913,-56.5157962213597,-63.8247649465534
1.17564072419469,298,301,-4.87264581679581,120.340561167913,-56.5157962213597,-63.8247649465534
1.18034328709146,297,297,-19.5354024150363,132.55952499978,-51.6282106886129,-80.9313143111673
1.18504584998824,294,297,-4.8726458167958,139.8909032989,-66.2909672868534,-73.5999360120471
1.18974841288502,293,296,-4.87264581679582,144.778488831647,-68.7347600532268,-76.0437287784205
1.1944509757818,295,298,-4.8726458167958,135.003317766154,-63.84717452048,-71.1561432456736
1.19915353867858,293,296,-4.87264581679582,144.778488831647,-68.7347600532268,-76.0437287784205
1.20385610157536,294,296,-9.76023134954264,142.334696065274,-63.8471745204799,-78.4875215447939
1.20855866447214,296,302,9.79011078144465,122.784353934287,-68.7347600532268,-54.0495938810598
1.21326122736892,298,305,14.6776963141915,110.56539010242,-66.2909672868533,-44.2744228155662
1.21796379026569,301,305,0.0149397159510016,103.234011803299,-51.6282106886129,-51.6058011146864
1.22266635316247,297,303,9.79011078144464,117.89676840154,-66.2909672868533,-51.6058011146864
1.22736891605925,298,302,0.0149397159510158,117.89676840154,-58.9595889877331,-58.9371794138066
1.23207147895603,300,304,0.0149397159510158,108.121597336046,-54.0720034549863,-54.0495938810598
1.23677404185281,300,305,4.90252524869783,105.677804569673,-56.5157962213597,-49.162008348313
1.24147660474959,299,305,9.79011078144464,108.121597336046,-61.4033817541065,-46.7182155819396
1.24617916764637,299,304,4.90252524869783,110.565390102419,-58.9595889877331,-51.6058011146864
1.25088173054315,299,304,4.90252524869783,110.565390102419,-58.9595889877331,-51.6058011146864
1.25558429343992,296,299,-4.87264581679581,130.115732233407,-61.4033817541065,-68.7123504793003
1.2602868563367,297,298,-14.6478168822894,130.115732233407,-54.0720034549863,-76.0437287784205
1.26498941923348,299,303,0.0149397159510016,113.009182868793,-56.5157962213597,-56.4933866474332
1.26969198213026,302,308,9.79011078144465,93.4588407378056,-54.0720034549863,-39.3868372828193
1.27439454502704,307,310,-4.87264581679581,76.3522913731918,-34.521661323999,-41.8306300491927
1.27909710792382,307,314,14.6776963141915,66.5771203076981,-44.2968323894927,-22.2802879182055
1.2837996708206,307,315,19.5652818469383,64.1333275413247,-46.7406251558661,-17.3927023854586
1.28850223371738,304,310,9.79011078144465,83.683669672312,-49.1844179222395,-34.4992517500725
1.29320479661415,301,302,-14.6478168822894,110.565390102419,-44.2968323894927,-66.2685577129268
1.29790735951093,298,296,-29.3105734805299,132.55952499978,-44.2968323894927,-88.2626926102875
1.30260992240771,296,298,-9.76023134954262,132.55952499978,-58.9595889877331,-73.5999360120471
1.30731248530449,299,303,0.0149397159510016,113.009182868793,-56.5157962213597,-56.4933866474332
1.31201504820127,304,309,4.90252524869783,86.1274624386854,-46.7406251558661,-39.3868372828193
1.31671761109805,305,308,-4.87264581679581,86.1274624386854,-39.4092468567458,-46.7182155819396
1.32142017399483,302,308,9.79011078144465,93.4588407378056,-54.0720034549863,-39.3868372828193
1.32612273689161,304,310,9.79011078144465,83.683669672312,-49.1844179222395,-34.4992517500725
1.33082529978838,306,312,9.79011078144465,73.9084986068184,-44.2968323894927,-29.6116662173257
1.33552786268516,306,311,4.90252524869783,76.3522913731918,-41.8530396231193,-34.4992517500725
1.34023042558194,308,313,4.90252524869783,66.5771203076981,-36.9654540903724,-29.6116662173257
1.34493298847872,309,315,9.79011078144465,59.2457420085779,-36.9654540903724,-22.2802879182055
1.3496355513755,309,315,9.79011078144465,59.2457420085779,-36.9654540903724,-22.2802879182055
1.35433811427228,309,312,-4.87264581679581,66.5771203076981,-29.6340757912522,-36.9430445164459
1.35904067716906,309,314,4.90252524869783,61.6895347749513,-34.521661323999,-27.1678734509523
1.36374324006584,310,315,4.90252524869783,56.8019492422045,-32.0778685576256,-24.7240806845789
1.36844580296261,313,319,9.79011078144465,39.6953998775906,-27.1902830248788,-12.5051168527118
1.37314836585939,315,321,9.79011078144465,29.920228812097,-22.302697492132,-7.61753131996501
1.37785092875617,314,319,4.90252524869783,37.2516071112172,-22.302697492132,-14.9489096190852
1.38255349165295,317,323,9.79011078144465,20.1450577466034,-17.4151119593852,-2.72994578721819
1.38725605454973,316,322,9.79011078144465,25.0326432793502,-19.8589047257586,-5.1737385535916
1.39195861744651,320,325,4.90252524869783,7.92609391473631,-7.63994089389153,-0.286153020844782
1.39666118034329,320,326,9.79011078144465,5.4823011483629,-10.0837336602649,4.60143251190204
1.40136374324007,317,322,4.90252524869783,22.5888505129768,-14.9713191930118,-7.61753131996501
1.40606630613684,317,320,-4.8726458167958,27.4764360457236,-10.0837336602649,-17.3927023854586
1.41076886903362,318,322,0.0149397159510158,20.1450577466034,-10.0837336602649,-10.0613240863384
1.4154714319304,319,325,9.79011078144465,10.3698866811097,-12.5275264266383,2.15763974552863
1.42017399482718,317,324,14.6776963141915,17.7012649802299,-19.8589047257586,2.15763974552863
1.42487655772396,317,321,0.0149397159510158,25.0326432793502,-12.5275264266383,-12.5051168527118
1.42957912062074,317,322,4.90252524869783,22.5888505129768,-14.9713191930118,-7.61753131996501
1.43428168351752,319,323,0.0149397159510123,15.2574722138565,-7.63994089389153,-7.61753131996501
1.4389842464143,317,323,9.79011078144465,20.1450577466034,-17.4151119593852,-2.72994578721819
1.44368680931107,319,321,-9.76023134954262,20.1450577466034,-2.75235536114471,-17.3927023854586
1.44838937220785,316,321,4.90252524869783,27.4764360457236,-17.4151119593852,-10.0613240863384
1.45309193510463,313,313,-19.5354024150363,54.3581564758311,-12.5275264266383,-41.8306300491927
1.45779449800141,307,306,-24.4229879477831,86.1274624386854,-24.7464902585054,-61.38097218018
1.46249706089819,301,299,-29.3105734805299,117.89676840154,-36.9654540903724,-80.9313143111673
1.46719962379497,299,298,-24.4229879477831,125.22814670066,-44.2968323894927,-80.9313143111673
1.47190218669175,295,299,0.0149397159510158,132.55952499978,-66.2909672868534,-66.2685577129268
1.47660474958853,300,305,4.90252524869783,105.677804569673,-56.5157962213597,-49.162008348313
1.4813073124853,304,311,14.6776963141915,81.2398769059386,-51.6282106886129,-29.6116662173257
1.48600987538208,302,306,0.0149397159510158,98.3464262705525,-49.1844179222395,-49.162008348313
1.49071243827886,301,306,4.90252524869783,100.790219036926,-54.0720034549863,-46.7182155819396
1.49541500117564,303,304,-14.6478168822894,100.790219036926,-39.4092468567458,-61.38097218018
1.50011756407242,302,308,9.79011078144465,93.4588407378056,-54.0720034549863,-39.3868372828193
1.5048201269692,304,309,4.90252524869783,86.1274624386854,-46.7406251558661,-39.3868372828193
1.50952268986598,302,307,4.90252524869783,95.9026335041791,-51.6282106886129,-44.2744228155662
1.51422525276276,302,306,0.0149397159510158,98.3464262705525,-49.1844179222395,-49.162008348313
1.51892781565953,301,306,4.90252524869783,100.790219036926,-54.0720034549863,-46.7182155819396
1.52363037855631,302,303,-14.6478168822894,105.677804569673,-41.8530396231193,-63.8247649465534
1.52833294145309,300,303,-4.87264581679581,110.56539010242,-51.6282106886129,-58.9371794138066
1.53303550434987,295,297,-9.76023134954261,137.447110532527,-61.4033817541065,-76.0437287784205
1.53773806724665,293,293,-19.5354024150363,152.109867130767,-61.4033817541065,-90.7064853766609
1.54244063014343,292,295,-4.87264581679582,149.666074364394,-71.1785528196002,-78.4875215447939
1.54714319304021,290,294,0.0149397159510158,156.997452663514,-78.5099311187204,-78.4875215447939
1.55184575593699,293,296,-4.87264581679582,144.778488831647,-68.7347600532268,-76.0437287784205
1.55654831883376,295,299,0.0149397159510158,132.55952499978,-66.2909672868534,-66.2685577129268
1.56125088173054,297,301,0.0149397159510016,122.784353934287,-61.4033817541065,-61.38097218018
1.56595344462732,297,298,-14.6478168822894,130.115732233407,-54.0720034549863,-76.0437287784205
1.5706560075241,296,300,0.0149397159510158,127.671939467033,-63.8471745204799,-63.8247649465534
1.57535857042088,294,296,-9.76023134954264,142.334696065274,-63.8471745204799,-78.4875215447939
1.58006113331766,297,302,4.90252524869783,120.340561167913,-63.8471745204799,-56.4933866474332
1.58476369621444,301,304,-4.87264581679581,105.677804569673,-49.1844179222395,-56.4933866474332
1.58946625911122,305,312,14.6776963141915,76.3522913731918,-49.1844179222395,-27.1678734509523
1.59416882200799,305,308,-4.87264581679581,86.1274624386854,-39.4092468567458,-46.7182155819396
1.59887138490477,302,305,-4.87264581679581,100.790219036926,-46.7406251558661,-54.0495938810598
1.60357394780155,297,300,-4.87264581679581,125.22814670066,-58.9595889877331,-66.2685577129268
1.60827651069833,292,293,-14.6478168822894,154.553659897141,-66.2909672868533,-88.2626926102875
1.61297907359511,287,291,0.0149397159512148,171.660209261755,-85.8413094178408,-85.818899843914
1.61768163649189,290,293,-4.8726458167958,159.441245429888,-76.066138352347,-83.3751070775407
1.62238419938867,290,295,4.90252524869783,154.553659897141,-80.9537238850938,-73.5999360120471
1.62708676228545,289,293,0.0149397159510158,161.885038196261,-80.9537238850938,-80.9313143111673
1.63178932518222,289,291,-9.76023134954264,166.772623729008,-76.066138352347,-90.7064853766609
1.636491888079,289,294,4.90252524869783,159.441245429888,-83.3975166514672,-76.0437287784205
1.64119445097578,289,294,4.90252524869783,159.441245429888,-83.3975166514672,-76.0437287784205
1.64589701387256,292,298,9.79011078144464,142.334696065274,-78.5099311187204,-63.8247649465534
1.65059957676934,303,312,24.4528673796851,81.2398769059386,-58.9595889877331,-22.2802879182055
1.65530213966612,325,343,68.4411371744065,-48.2811397118521,-27.1902830248788,75.4714227367309
1.6600047025629,356,385,122.204578034621,-226.678011657111,21.6855723025896,204.992439354522
1.66470726545968,393,429,156.417676763849,-424.625225733358,94.9993552937919,329.625870439566
1.66940982835645,433,478,200.405946558571,-642.122781940591,170.756931051368,471.365850889223
1.67411239125323,470,516,205.293532091318,-825.407239418597,258.73347064081,566.673768777787
1.67881495415001,505,552,210.181117624064,-998.916525831109,341.822424697506,657.094101133603
1.68351751704679,534,576,185.74318996033,-1128.4375424489,424.911378754202,703.526163694698
1.68822007994357,553,591,166.192847829343,-1211.5264965056,481.118612380791,730.407884124805
1.69292264284035,558,583,102.654235903635,-1204.19511820648,525.106882175512,679.088236030964
1.69762520573713,545,555,29.3404529124321,-1103.99961478517,529.994467708259,574.005147076907
1.70232776863391,523,520,-34.1981590132767,-964.703427101882,508.000332810898,456.703094290983
1.70703033153068,496,486,-68.4112577425045,-815.632068353103,459.12447748343,356.507590869673
1.71173289442746,468,454,-87.9615998734918,-669.004502370698,400.473451090468,268.53105128023
1.71643545732424,439,426,-83.0740143407449,-529.708314687414,327.159668099266,202.548646588148
1.72113802022102,414,400,-87.9615998734917,-405.07488360237,268.508641706304,136.566241896066
1.7258405831178,399,387,-78.1864288079981,-336.648686143915,226.964164677956,109.684521465959
1.73054314601458,387,380,-53.748501144264,-290.21662358282,185.419687649608,104.796935933212
1.73524570891136,383,381,-29.3105734805299,-282.8852452837,163.425552752247,119.459692531453
1.73994827180814,381,384,-4.8726458167958,-285.329038050073,146.319003387633,139.01003466244
1.74465083470491,380,381,-14.6478168822894,-275.55386698458,148.762796154007,126.791070830573
1.74935339760169,380,383,-4.8726458167958,-280.441452517326,143.87521062126,136.566241896066
1.75405596049847,381,385,0.0149397159510158,-287.772830816447,143.87521062126,143.897620195187
1.75875852339525,381,385,0.0149397159510158,-287.772830816447,143.87521062126,143.897620195187
1.76346108629203,379,379,-19.5354024150363,-268.222488685459,148.762796154007,119.459692531452
1.76816364918881,373,373,-19.5354024150363,-238.896975488978,134.100039555766,104.796935933212
1.77286621208559,363,363,-19.5354024150363,-190.02112016151,109.662111892032,80.359008269478
1.77756877498237,358,356,-29.3105734805299,-160.695606965029,102.330733592912,58.3648733721173
1.78227133787914,355,353,-29.3105734805299,-146.032850366789,94.9993552937919,51.033495072997
1.78697390077592,351,350,-24.4229879477831,-128.926301002175,82.7803914619246,46.14590954025
1.7916764636727,348,344,-39.0857445460235,-106.932166104814,82.7803914619246,24.1517746428893
1.79637902656948,343,342,-24.4229879477831,-89.8256167402001,63.2300493309373,26.5955674092627
1.80108158946626,340,338,-29.3105734805299,-72.7190673755862,58.3424637981905,14.3766035773957
1.80578415236304,336,339,-4.8726458167958,-65.387689076466,36.3483289008298,29.0393601756361
1.81048671525982,335,332,-34.1981590132767,-45.8373469454787,48.5672927326969,-2.72994578721819
1.8151892781566,331,328,-34.1981590132767,-26.2870048144914,38.7921216672032,-12.5051168527118
1.81989184105337,328,327,-24.4229879477831,-16.5118337489978,26.5731578353362,-10.0613240863384
1.82459440395015,325,323,-29.3105734805299,0.594715615616082,21.6855723025894,-22.2802879182055
1.82929696684693,320,319,-24.4229879477831,22.5888505129768,7.02281570434893,-29.6116662173257
1.83399952974371,318,316,-29.3105734805299,34.8078143448438,4.57902293797552,-39.3868372828193
1.83870209264049,314,316,-9.76023134954262,44.5829854103375,-14.9713191930118,-29.6116662173257
1.84340465553727,314,316,-9.76023134954262,44.5829854103375,-14.9713191930118,-29.6116662173257
1.84810721843405,312,308,-39.0857445460235,69.0209130740715,-5.19614812751812,-63.8247649465534
1.85280978133083,305,303,-29.3105734805299,98.3464262705525,-27.1902830248788,-71.1561432456737
1.8575123442276,305,302,-34.1981590132767,100.790219036926,-24.7464902585054,-76.0437287784205
1.86221490712438,309,310,-14.6478168822894,71.4647058404449,-24.7464902585054,-46.7182155819396
1.86691747002116,314,322,19.5652818469383,29.920228812097,-29.6340757912522,-0.286153020844779
1.87162003291794,319,327,19.5652818469383,5.4823011483629,-17.4151119593852,11.9328108110223
1.87632259581472,318,323,4.90252524869783,17.7012649802299,-12.5275264266383,-5.1737385535916
1.8810251587115,317,319,-9.76023134954262,29.920228812097,-7.63994089389153,-22.2802879182055
1.88572772160828,316,319,-4.8726458167958,32.3640215784704,-12.5275264266383,-19.8364951518321
1.89043028450506,315,318,-4.8726458167958,37.2516071112172,-14.9713191930118,-22.2802879182055
1.89513284740183,316,317,-14.6478168822894,37.2516071112172,-7.63994089389153,-29.6116662173257
1.89983541029861,313,315,-9.76023134954262,49.4705709430843,-17.4151119593852,-32.0554589836991
1.90453797319539,311,314,-4.8726458167958,56.8019492422045,-24.7464902585054,-32.0554589836991
1.90924053609217,311,312,-14.6478168822894,61.6895347749513,-19.8589047257586,-41.8306300491927
1.91394309898895,311,312,-14.6478168822894,61.6895347749513,-19.8589047257586,-41.8306300491927
1.91864566188573,313,319,9.79011078144465,39.6953998775906,-27.1902830248788,-12.5051168527118
1.92334822478251,317,323,9.79011078144465,20.1450577466034,-17.4151119593852,-2.72994578721819
1.92805078767929,319,323,0.0149397159510123,15.2574722138565,-7.63994089389153,-7.61753131996501
1.93275335057606,319,324,4.90252524869783,12.8136794474831,-10.0837336602649,-2.72994578721819
1.93745591347284,323,326,-4.87264581679581,-1.84907715075733,4.57902293797552,-2.72994578721819
1.94215847636962,325,332,14.6776963141915,-21.3994192817446,-0.308562594771301,21.7079818765159
1.9468610392664,326,334,19.5652818469383,-28.7307975808648,-0.308562594771303,29.0393601756361
1.95156360216318,326,331,4.90252524869783,-21.3994192817446,7.02281570434893,14.3766035773957
1.95626616505996,323,325,-9.76023134954263,0.594715615616082,7.02281570434893,-7.61753131996501
1.96096872795674,321,323,-9.76023134954263,10.3698866811097,2.13523017160211,-12.5051168527118
1.96567129085352,318,322,0.0149397159510158,20.1450577466034,-10.0837336602649,-10.0613240863384
1.97037385375029,318,322,0.0149397159510158,20.1450577466034,-10.0837336602649,-10.0613240863384
1.97507641664707,321,322,-14.6478168822894,12.8136794474831,4.57902293797552,-17.3927023854586
1.97977897954385,319,319,-19.5354024150363,25.0326432793502,2.13523017160211,-27.1678734509523
1.98448154244063,315,318,-4.8726458167958,37.2516071112172,-14.9713191930118,-22.2802879182055
1.98918410533741,318,323,4.90252524869783,17.7012649802299,-12.5275264266383,-5.1737385535916
1.99388666823419,323,326,-4.87264581679581,-1.84907715075733,4.57902293797552,-2.72994578721819
1.99858923113097,323,328,4.90252524869783,-6.73666268350415,-0.3085625947713,7.04522527827545
2.00329179402775,325,331,9.79011078144465,-18.9556265153712,2.13523017160211,16.8203963437691
2.00799435692452,326,329,-4.8726458167958,-16.5118337489978,11.9104012370957,4.60143251190204
2.0126969198213,328,330,-9.76023134954262,-23.843212048118,19.241779536216,4.60143251190204
2.01739948271808,328,333,4.90252524869783,-31.1745903472382,11.9104012370957,19.2641891101425
2.02210204561486,329,335,9.79011078144465,-38.5059686463585,11.9104012370957,26.5955674092627
2.02680460851164,334,341,14.6776963141915,-65.387689076466,21.6855723025894,43.7021167738766
2.03150717140842,337,341,0.0149397159510016,-72.7190673755862,36.3483289008298,36.3707384747564
2.0362097343052,332,340,19.5652818469383,-58.0563107773457,14.3541940034692,43.7021167738766
2.04091229720198,332,338,9.79011078144465,-53.1687252445989,19.241779536216,33.926945708383
2.04561486009875,330,337,14.6776963141915,-45.8373469454787,11.9104012370957,33.926945708383
2.05031742299553,330,335,4.90252524869783,-40.9497614127319,16.7979867698426,24.1517746428893
2.05501998589231,327,331,0.0149397159510158,-23.843212048118,11.9104012370957,11.9328108110223
2.05972254878909,327,329,-9.76023134954262,-18.9556265153712,16.7979867698426,2.15763974552863
2.06442511168587,327,326,-24.4229879477831,-11.624248216251,24.1293650689628,-12.5051168527118
2.06912767458265,325,329,0.0149397159510123,-14.0680409826244,7.02281570434893,7.04522527827545
2.07383023747943,327,332,4.90252524869783,-26.2870048144914,9.46660847072233,16.8203963437691
2.0785328003762,333,343,29.3404529124319,-67.8314818428394,11.9104012370957,55.9210806057436
2.08323536327298,341,350,24.4528673796851,-104.488373338441,33.9045361344564,70.5838372039841
2.08793792616976,343,348,4.90252524869783,-104.488373338441,48.5672927326969,55.9210806057436
2.09264048906654,343,349,9.79011078144464,-106.932166104814,46.1234999663235,60.8086661384904
2.09734305196332,345,347,-9.76023134954264,-106.932166104814,60.7862565645639,46.14590954025
2.1020456148601,345,348,-4.87264581679581,-109.375958871187,58.3424637981905,51.0334950729968
2.10674817775688,344,346,-9.76023134954262,-102.044580572067,58.3424637981905,43.7021167738766
2.11145074065366,340,343,-4.87264581679581,-84.9380312074532,46.1234999663235,38.8145312411298
2.11615330355043,340,345,4.90252524869783,-89.8256167402001,41.2359144335767,48.5897023066234
2.12085586644721,343,351,19.5652818469383,-111.819751637561,41.2359144335767,70.5838372039841
2.12555842934399,348,354,9.79011078144511,-131.370093768548,58.3424637981903,73.027629970358
2.13026099224077,350,358,19.5652818469387,-146.032850366789,58.3424637981903,87.6903865685984
2.13496355513755,353,360,14.6776963141915,-158.251814198656,68.1176348636844,90.1341793349716
2.13966611803433,351,351,-19.5354024150363,-131.370093768548,80.3365986955512,51.0334950729968
2.14436868093111,347,348,-14.6478168822894,-114.263544403934,68.1176348636842,46.14590954025
2.14907124382789,344,346,-9.76023134954262,-102.044580572067,58.3424637981905,43.7021167738766
2.15377380672467,344,344,-19.5354024150363,-97.1569950393203,63.2300493309373,33.926945708383
2.15847636962144,348,352,0.0149397159514564,-126.482508235801,63.2300493309371,63.2524589048643
2.16317893251822,354,364,29.3404529124319,-170.470778030523,63.2300493309376,107.240728699585
2.167881495415,361,371,29.3404529124319,-204.683876759751,80.3365986955514,124.347278064199
2.17258405831178,365,372,14.6776963141915,-216.902840591618,97.4431480601653,119.459692531453
2.17728662120856,364,373,24.4528673796851,-216.902840591618,90.1117697610451,126.791070830573
2.18198918410534,364,371,14.6776963141915,-212.015255058871,94.9993552937919,117.015899765079
2.18669174700212,363,367,0.0149397159510158,-199.796291227004,99.8869408265387,99.9093504004652
2.19139430989889,361,367,9.79011078144467,-194.908705694257,90.1117697610451,104.796935933212
2.19609687279567,363,370,14.6776963141915,-207.127669526124,92.5555625274185,114.572106998706
2.20079943569245,363,369,9.79011078144464,-204.683876759751,94.9993552937919,109.684521465959
2.20550199858923,362,367,4.90252524869783,-197.352498460631,94.9993552937919,102.353143166839
2.21020456148601,360,364,0.0149397159510158,-185.133534628763,92.5555625274185,92.577972101345
2.21490712438279,359,362,-4.8726458167958,-177.802156329643,92.5555625274185,85.2465938022248
2.21960968727957,358,363,4.90252524869783,-177.802156329643,85.2241842282983,92.577972101345
2.22431225017635,357,359,-9.76023134954261,-165.583192497776,90.1117697610451,75.4714227367311
2.22901481307312,356,357,-14.6478168822894,-158.251814198656,90.1117697610451,68.1400444376109
2.2337173759699,357,360,-4.8726458167958,-168.02698526415,87.6679769946716,80.359008269478
2.23841993886668,358,365,14.6776963141915,-182.68974186239,80.3365986955514,102.353143166839
2.24312250176346,359,366,14.6776963141915,-187.577327395137,82.7803914619248,104.796935933212
2.24782506466024,358,363,4.90252524869783,-177.802156329643,85.2241842282983,92.577972101345
2.25252762755702,355,356,-14.6478168822894,-153.364228665909,87.6679769946717,65.6962516712375
2.2572301904538,351,351,-19.5354024150363,-131.370093768548,80.3365986955512,51.0334950729968
2.26193275335058,345,343,-29.3105734805299,-97.1569950393203,70.5614276300576,26.5955674092627
2.26663531624735,334,331,-34.1981590132767,-40.9497614127319,46.1234999663235,-5.1737385535916
2.27133787914413,328,323,-43.9733300787704,-6.73666268350415,36.3483289008298,-29.6116662173257
2.27604044204091,321,316,-43.9733300787704,27.4764360457236,19.241779536216,-46.7182155819396
2.28074300493769,318,316,-29.3105734805299,34.8078143448438,4.57902293797552,-39.3868372828193
2.28544556783447,320,322,-9.76023134954262,15.2574722138565,-0.308562594771301,-14.9489096190852
2.29014813073125,323,327,0.0149397159510123,-4.29286991713074,2.13523017160211,2.15763974552863
2.29485069362803,326,331,4.90252524869783,-21.3994192817446,7.02281570434893,14.3766035773957
2.29955325652481,327,331,0.0149397159510158,-23.843212048118,11.9104012370957,11.9328108110223
2.30425581942158,326,327,-14.6478168822894,-11.624248216251,16.7979867698426,-5.1737385535916
2.30895838231836,321,320,-24.4229879477831,17.7012649802299,9.46660847072234,-27.1678734509523
2.31366094521514,318,317,-24.4229879477831,32.3640215784704,2.13523017160211,-34.4992517500725
2.31836350811192,312,314,-9.76023134954262,54.3581564758311,-19.8589047257586,-34.4992517500725
2.3230660710087,307,307,-19.5354024150363,83.683669672312,-27.1902830248788,-56.4933866474332
2.32776863390548,303,302,-24.4229879477831,105.677804569673,-34.521661323999,-71.1561432456737
2.33247119680226,297,296,-24.4229879477831,135.003317766154,-49.1844179222395,-85.8188998439141
2.33717375969904,294,292,-29.3105734805299,152.109867130767,-54.0720034549863,-98.0378636757812
2.34187632259581,297,296,-24.4229879477831,135.003317766154,-49.1844179222395,-85.8188998439141
2.34657888549259,298,303,4.90252524869783,115.452975635166,-61.4033817541065,-54.0495938810598
2.35128144838937,300,304,0.0149397159510158,108.121597336046,-54.0720034549863,-54.0495938810598
2.35598401128615,301,304,-4.87264581679581,105.677804569673,-49.1844179222395,-56.4933866474332
2.36068657418293,299,304,4.90252524869783,110.565390102419,-58.9595889877331,-51.6058011146864
2.36538913707971,298,303,4.90252524869783,115.452975635166,-61.4033817541065,-54.0495938810598
2.37009169997649,297,299,-9.76023134954264,127.671939467033,-56.5157962213597,-71.1561432456737
2.37479426287327,294,297,-4.8726458167958,139.8909032989,-66.2909672868534,-73.5999360120471
2.37949682577004,290,294,0.0149397159510158,156.997452663514,-78.5099311187204,-78.4875215447939
2.38419938866682,287,289,-9.76023134954241,176.547794794502,-80.953723885094,-95.5940709094076
2.3889019515636,284,282,-29.3105734805299,200.985722458236,-78.5099311187205,-122.475791339515
2.39360451446038,284,285,-14.6478168822894,193.654344159116,-85.8413094178407,-107.813034741275
2.39830707735716,287,290,-4.8726458167956,174.104002028128,-83.3975166514674,-90.7064853766608
2.40300964025394,289,295,9.79011078144464,156.997452663514,-85.8413094178406,-71.1561432456737
2.40771220315072,290,292,-9.76023134954264,161.885038196261,-73.6223455859736,-88.2626926102875
2.4124147660475,290,296,9.79011078144464,152.109867130767,-83.3975166514672,-68.7123504793003
2.41711732894427,291,297,9.79011078144467,147.222281598021,-80.9537238850938,-66.2685577129268
2.42181989184105,293,297,0.0149397159510158,142.334696065274,-71.1785528196002,-71.1561432456736
2.42652245473783,291,291,-19.5354024150363,161.885038196261,-66.2909672868534,-95.5940709094077
2.43122501763461,289,291,-9.76023134954264,166.772623729008,-76.066138352347,-90.7064853766609
2.43592758053139,287,288,-14.6478168822892,178.991587560875,-78.5099311187206,-100.481656442154
2.44063014342817,289,293,0.0149397159510158,161.885038196261,-80.9537238850938,-80.9313143111673
2.44533270632495,293,299,9.79011078144464,137.447110532527,-76.066138352347,-61.38097218018
2.45003526922173,295,301,9.79011078144465,127.671939467033,-71.1785528196002,-56.4933866474332
2.4547378321185,297,302,4.90252524869783,120.340561167913,-63.8471745204799,-56.4933866474332
2.45944039501528,296,300,0.0149397159510158,127.671939467033,-63.8471745204799,-63.8247649465534
2.46414295791206,295,299,0.0149397159510158,132.55952499978,-66.2909672868534,-66.2685577129268
2.46884552080884,292,295,-4.87264581679582,149.666074364394,-71.1785528196002,-78.4875215447939
2.47354808370562,291,295,0.0149397159510158,152.109867130767,-76.066138352347,-76.0437287784205
2.4782506466024,293,294,-14.6478168822894,149.666074364394,-63.8471745204799,-85.8188998439141
2.48295320949918,292,294,-9.76023134954264,152.109867130767,-68.7347600532268,-83.3751070775407
2.48765577239596,290,294,0.0149397159510158,156.997452663514,-78.5099311187204,-78.4875215447939
2.49235833529273,291,294,-4.8726458167958,154.553659897141,-73.6223455859736,-80.9313143111673
2.49706089818951,289,292,-4.87264581679582,164.328830962635,-78.5099311187204,-85.8188998439141
2.50176346108629,291,296,4.90252524869783,149.666074364394,-78.5099311187204,-71.1561432456737
2.50646602398307,293,295,-9.76023134954264,147.222281598021,-66.2909672868533,-80.9313143111673
2.51116858687985,295,298,-4.8726458167958,135.003317766154,-63.84717452048,-71.1561432456736
2.51587114977663,294,298,0.0149397159510158,137.447110532527,-68.7347600532268,-68.7123504793002
2.52057371267341,293,296,-4.87264581679582,144.778488831647,-68.7347600532268,-76.0437287784205
2.52527627557019,293,295,-9.76023134954264,147.222281598021,-66.2909672868533,-80.9313143111673
2.52997883846696,292,299,14.6776963141915,139.8909032989,-80.9537238850938,-58.9371794138066
2.53468140136374,297,301,0.0149397159510016,122.784353934287,-61.4033817541065,-61.38097218018
2.53938396426052,298,303,4.90252524869783,115.452975635166,-61.4033817541065,-54.0495938810598
2.5440865271573,295,296,-14.6478168822894,139.8909032989,-58.9595889877331,-80.9313143111673
2.54878909005408,292,292,-19.5354024150363,156.997452663514,-63.8471745204799,-93.1502781430344
2.55349165295086,290,293,-4.8726458167958,159.441245429888,-76.066138352347,-83.3751070775407
2.55819421584764,295,297,-9.76023134954261,137.447110532527,-61.4033817541065,-76.0437287784205
2.56289677874442,298,308,29.3404529124319,103.234011803299,-73.6223455859736,-29.6116662173257
2.56759934164119,303,309,9.79011078144464,88.5712552050588,-51.6282106886129,-36.9430445164459
2.57230190453797,300,306,9.79011078144465,103.234011803299,-58.9595889877331,-44.2744228155661
2.57700446743475,297,301,0.0149397159510016,122.784353934287,-61.4033817541065,-61.38097218018
2.58170703033153,293,291,-29.3105734805299,156.997452663514,-56.5157962213597,-100.481656442155
2.58640959322831,289,288,-24.4229879477831,174.104002028128,-68.7347600532268,-105.369241974901
2.59111215612509,291,295,0.0149397159510158,152.109867130767,-76.066138352347,-76.0437287784205
2.59581471902187,295,301,9.79011078144465,127.671939467033,-71.1785528196002,-56.4933866474332
2.60051728191865,299,305,9.79011078144464,108.121597336046,-61.4033817541065,-46.7182155819396
2.60521984481542,302,308,9.79011078144465,93.4588407378056,-54.0720034549863,-39.3868372828193
2.6099224077122,305,310,4.90252524869783,81.2398769059386,-44.2968323894927,-36.9430445164459
2.61462497060898,305,308,-4.87264581679581,86.1274624386854,-39.4092468567458,-46.7182155819396
2.61932753350576,301,303,-9.76023134954264,108.121597336046,-46.7406251558661,-61.38097218018
2.62403009640254,294,295,-14.6478168822894,144.778488831647,-61.4033817541065,-83.3751070775407
2.62873265929932,292,294,-9.76023134954264,152.109867130767,-68.7347600532268,-83.3751070775407
2.6334352221961,293,294,-14.6478168822894,149.666074364394,-63.8471745204799,-85.8188998439141
2.63813778509288,293,297,0.0149397159510158,142.334696065274,-71.1785528196002,-71.1561432456736
2.64284034798965,292,296,0.0149397159509874,147.222281598021,-73.6223455859736,-73.5999360120471
2.64754291088643,294,298,0.0149397159510158,137.447110532527,-68.7347600532268,-68.7123504793002
2.65224547378321,294,298,0.0149397159510158,137.447110532527,-68.7347600532268,-68.7123504793002
2.65694803667999,292,299,14.6776963141915,139.8909032989,-80.9537238850938,-58.9371794138066
2.66165059957677,294,299,4.90252524869783,135.003317766154,-71.1785528196002,-63.8247649465534
2.66635316247355,293,301,19.5652818469383,132.55952499978,-80.9537238850938,-51.6058011146864
2.67105572537033,296,305,24.4528673796851,115.452975635166,-76.066138352347,-39.3868372828193
2.67575828826711,301,306,4.90252524869783,100.790219036926,-54.0720034549863,-46.7182155819396
2.68046085116388,303,308,4.90252524869783,91.0150479714322,-49.1844179222395,-41.8306300491927
2.68516341406066,304,307,-4.87264581679581,91.0150479714322,-41.8530396231193,-49.162008348313
2.68986597695744,303,306,-4.87264581679581,95.9026335041791,-44.2968323894927,-51.6058011146864
2.69456853985422,301,307,9.79011078144464,98.3464262705525,-56.5157962213597,-41.8306300491927
2.699271102751,300,300,-19.5354024150363,117.89676840154,-44.2968323894927,-73.5999360120471
2.70397366564778,292,294,-9.76023134954264,152.109867130767,-68.7347600532268,-83.3751070775407
2.70867622854456,289,289,-19.5354024150363,171.660209261755,-71.1785528196002,-100.481656442155
2.71337879144134,286,288,-9.76023134954241,181.435380327248,-83.3975166514674,-98.0378636757811
2.71808135433811,289,292,-4.87264581679582,164.328830962635,-78.5099311187204,-85.8188998439141
2.72278391723489,293,298,4.90252524869783,139.8909032989,-73.6223455859736,-66.2685577129268
2.72748648013167,294,301,14.6776963141915,130.115732233407,-76.066138352347,-54.0495938810598
2.73218904302845,297,303,9.79011078144464,117.89676840154,-66.2909672868533,-51.6058011146864
2.73689160592523,297,298,-14.6478168822894,130.115732233407,-54.0720034549863,-76.0437287784205
2.74159416882201,296,299,-4.87264581679581,130.115732233407,-61.4033817541065,-68.7123504793003
2.74629673171879,296,301,4.90252524869783,125.22814670066,-66.2909672868533,-58.9371794138066
2.75099929461557,298,301,-4.87264581679581,120.340561167913,-56.5157962213597,-63.8247649465534
2.75570185751234,296,301,4.90252524869783,125.22814670066,-66.2909672868533,-58.9371794138066
2.76040442040912,296,301,4.90252524869783,125.22814670066,-66.2909672868533,-58.9371794138066
2.7651069833059,297,301,0.0149397159510016,122.784353934287,-61.4033817541065,-61.38097218018
2.76980954620268,296,301,4.90252524869783,125.22814670066,-66.2909672868533,-58.9371794138066
2.77451210909946,298,305,14.6776963141915,110.56539010242,-66.2909672868533,-44.2744228155662
2.77921467199624,300,306,9.79011078144465,103.234011803299,-58.9595889877331,-44.2744228155661
2.78391723489302,301,307,9.79011078144464,98.3464262705525,-56.5157962213597,-41.8306300491927
2.7886197977898,300,305,4.90252524869783,105.677804569673,-56.5157962213597,-49.162008348313
2.79332236068657,300,301,-14.6478168822894,115.452975635166,-46.7406251558661,-68.7123504793003
2.79802492358335,297,297,-19.5354024150363,132.55952499978,-51.6282106886129,-80.9313143111673
2.80272748648013,296,297,-14.6478168822894,135.003317766154,-56.5157962213597,-78.4875215447939
2.80743004937691,291,294,-4.8726458167958,154.553659897141,-73.6223455859736,-80.9313143111673
2.81213261227369,290,293,-4.8726458167958,159.441245429888,-76.066138352347,-83.3751070775407
2.81683517517047,290,295,4.90252524869783,154.553659897141,-80.9537238850938,-73.5999360120471
2.82153773806725,293,300,14.6776963141915,135.003317766154,-78.5099311187204,-56.4933866474332
2.82624030096403,296,304,19.5652818469383,117.89676840154,-73.6223455859736,-44.2744228155661
2.8309428638608,301,310,24.4528673796851,91.0150479714322,-63.8471745204799,-27.1678734509523
2.83564542675758,302,309,14.6776963141915,91.0150479714322,-56.5157962213597,-34.4992517500725
2.84034798965436,303,308,4.90252524869783,91.0150479714322,-49.1844179222395,-41.8306300491927
2.84505055255114,305,311,9.79011078144464,78.7960841395652,-46.7406251558661,-32.0554589836991
2.84975311544792,306,312,9.79011078144465,73.9084986068184,-44.2968323894927,-29.6116662173257
2.8544556783447,307,312,4.90252524869783,71.4647058404449,-39.4092468567458,-32.0554589836991
2.85915824124148,305,311,9.79011078144464,78.7960841395652,-46.7406251558661,-32.0554589836991
2.86386080413826,300,300,-19.5354024150363,117.89676840154,-44.2968323894927,-73.5999360120471
2.86856336703503,293,294,-14.6478168822894,149.666074364394,-63.8471745204799,-85.8188998439141
2.87326592993181,295,298,-4.8726458167958,135.003317766154,-63.84717452048,-71.1561432456736
2.87796849282859,297,299,-9.76023134954264,127.671939467033,-56.5157962213597,-71.1561432456737
2.88267105572537,296,301,4.90252524869783,125.22814670066,-66.2909672868533,-58.9371794138066
2.88737361862215,296,301,4.90252524869783,125.22814670066,-66.2909672868533,-58.9371794138066
2.89207618151893,297,299,-9.76023134954264,127.671939467033,-56.5157962213597,-71.1561432456737
2.89677874441571,295,301,9.79011078144465,127.671939467033,-71.1785528196002,-56.4933866474332
2.90148130731249,297,301,0.0149397159510016,122.784353934287,-61.4033817541065,-61.38097218018
2.90618387020926,299,301,-9.76023134954264,117.89676840154,-51.6282106886129,-66.2685577129268
2.91088643310604,298,304,9.79011078144465,113.009182868793,-63.8471745204799,-49.162008348313
2.91558899600282,302,308,9.79011078144465,93.4588407378056,-54.0720034549863,-39.3868372828193
2.9202915588996,305,309,0.0149397159510016,83.683669672312,-41.8530396231193,-41.8306300491927
2.92499412179638,304,309,4.90252524869783,86.1274624386854,-46.7406251558661,-39.3868372828193
2.92969668469316,303,306,-4.87264581679581,95.9026335041791,-44.2968323894927,-51.6058011146864
2.93439924758994,297,296,-24.4229879477831,135.003317766154,-49.1844179222395,-85.8188998439141
2.93910181048672,294,295,-14.6478168822894,144.778488831647,-61.4033817541065,-83.3751070775407
2.94380437338349,296,303,14.6776963141915,120.340561167913,-71.1785528196002,-49.162008348313
2.94850693628027,303,308,4.90252524869783,91.0150479714322,-49.1844179222395,-41.8306300491927
2.95320949917705,307,316,24.4528673796851,61.6895347749513,-49.1844179222395,-12.5051168527118
2.95791206207383,309,314,4.90252524869783,61.6895347749513,-34.521661323999,-27.1678734509523
2.96261462497061,306,311,4.90252524869783,76.3522913731918,-41.8530396231193,-34.4992517500725
2.96731718786739,305,307,-9.76023134954264,88.5712552050588,-36.9654540903724,-51.6058011146864
2.97201975076417,305,312,14.6776963141915,76.3522913731918,-49.1844179222395,-27.1678734509523
2.97672231366095,312,320,19.5652818469383,39.6953998775906,-34.521661323999,-5.1737385535916
2.98142487655772,316,325,24.4528673796851,17.7012649802299,-27.1902830248788,9.48901804464886
2.9861274394545,318,326,19.5652818469383,10.3698866811097,-19.8589047257586,9.48901804464886
2.99083000235128,319,325,9.79011078144465,10.3698866811097,-12.5275264266383,2.15763974552863
2.99553256524806,316,322,9.79011078144465,25.0326432793502,-19.8589047257586,-5.1737385535916
3.00023512814484,312,314,-9.76023134954262,54.3581564758311,-19.8589047257586,-34.4992517500725
3.00493769104162,309,310,-14.6478168822894,71.4647058404449,-24.7464902585054,-46.7182155819396
3.0096402539384,304,303,-24.4229879477831,100.790219036926,-32.0778685576256,-68.7123504793003
3.01434281683518,300,302,-9.76023134954262,113.009182868793,-49.1844179222395,-63.8247649465534
3.01904537973195,305,306,-14.6478168822894,91.0150479714322,-34.521661323999,-56.4933866474332
3.02374794262873,310,317,14.6776963141915,51.9143637094577,-36.9654540903724,-14.9489096190852
3.02845050552551,317,323,9.79011078144465,20.1450577466034,-17.4151119593852,-2.72994578721819
3.03315306842229,325,333,19.5652818469383,-23.843212048118,-2.75235536114471,26.5955674092627
3.03785563131907,329,337,19.5652818469383,-43.3935541791053,7.02281570434893,36.3707384747564
3.04255819421585,332,340,19.5652818469383,-58.0563107773457,14.3541940034692,43.7021167738766
3.04726075711263,329,336,14.6776963141915,-40.9497614127319,9.46660847072233,31.4831529420095
3.0519633200094,325,330,4.90252524869783,-16.5118337489978,4.57902293797552,11.9328108110223
3.05666588290618,321,324,-4.87264581679581,7.92609391473631,-0.3085625947713,-7.61753131996501
3.06136844580296,318,320,-9.76023134954262,25.0326432793502,-5.19614812751812,-19.8364951518321
3.06607100869974,317,317,-19.5354024150363,34.8078143448438,-2.75235536114471,-32.0554589836991
3.07077357159652,313,316,-4.8726458167958,47.0267781767109,-19.8589047257586,-27.1678734509523
3.0754761344933,313,313,-19.5354024150363,54.3581564758311,-12.5275264266383,-41.8306300491927
3.08017869739008,311,316,4.90252524869783,51.9143637094577,-29.6340757912522,-22.2802879182055
3.08488126028686,310,317,14.6776963141915,51.9143637094577,-36.9654540903724,-14.9489096190852
3.08958382318363,314,317,-4.8726458167958,42.139192643964,-17.4151119593852,-24.7240806845789
3.09428638608041,317,324,14.6776963141915,17.7012649802299,-19.8589047257586,2.15763974552863
3.09898894897719,319,322,-4.8726458167958,17.7012649802299,-5.19614812751812,-12.5051168527118
3.10369151187397,315,319,0.0149397159510158,34.8078143448438,-17.4151119593852,-17.3927023854586
3.10839407477075,313,312,-24.4229879477831,56.8019492422045,-10.0837336602649,-46.7182155819396
3.11309663766753,309,311,-9.76023134954264,69.0209130740715,-27.1902830248788,-41.8306300491927
3.11779920056431,309,311,-9.76023134954264,69.0209130740715,-27.1902830248788,-41.8306300491927
3.12250176346109,307,306,-24.4229879477831,86.1274624386854,-24.7464902585054,-61.38097218018
3.12720432635787,302,300,-29.3105734805299,113.009182868793,-34.521661323999,-78.4875215447939
3.13190688925464,299,302,-4.87264581679581,115.452975635166,-54.0720034549863,-61.38097218018
3.13660945215142,302,306,0.0149397159510158,98.3464262705525,-49.1844179222395,-49.162008348313
3.1413120150482,303,307,0.0149397159510016,93.4588407378056,-46.7406251558661,-46.7182155819396
3.14601457794498,304,308,0.0149397159510158,88.5712552050588,-44.2968323894927,-44.2744228155661
3.15071714084176,301,306,4.90252524869783,100.790219036926,-54.0720034549863,-46.7182155819396
3.15541970373854,300,304,0.0149397159510158,108.121597336046,-54.0720034549863,-54.0495938810598
3.16012226663532,300,300,-19.5354024150363,117.89676840154,-44.2968323894927,-73.5999360120471
3.16482482953209,297,303,9.79011078144464,117.89676840154,-66.2909672868533,-51.6058011146864
3.16952739242887,301,303,-9.76023134954264,108.121597336046,-46.7406251558661,-61.38097218018
3.17422995532565,301,307,9.79011078144464,98.3464262705525,-56.5157962213597,-41.8306300491927
3.17893251822243,301,303,-9.76023134954264,108.121597336046,-46.7406251558661,-61.38097218018
3.18363508111921,300,304,0.0149397159510158,108.121597336046,-54.0720034549863,-54.0495938810598
3.18833764401599,300,303,-4.87264581679581,110.56539010242,-51.6282106886129,-58.9371794138066
3.19304020691277,300,303,-4.87264581679581,110.56539010242,-51.6282106886129,-58.9371794138066
3.19774276980955,298,300,-9.76023134954262,122.784353934287,-54.0720034549863,-68.7123504793002
3.20244533270632,295,297,-9.76023134954261,137.447110532527,-61.4033817541065,-76.0437287784205
3.2071478956031,292,295,-4.87264581679582,149.666074364394,-71.1785528196002,-78.4875215447939
3.21185045849988,296,302,9.79011078144465,122.784353934287,-68.7347600532268,-54.0495938810598
3.21655302139666,301,308,14.6776963141915,95.9026335041791,-58.9595889877331,-36.9430445164459
3.22125558429344,305,312,14.6776963141915,76.3522913731918,-49.1844179222395,-27.1678734509523
3.22595814719022,305,311,9.79011078144464,78.7960841395652,-46.7406251558661,-32.0554589836991
3.230660710087,304,309,4.90252524869783,86.1274624386854,-46.7406251558661,-39.3868372828193
3.23536327298378,302,305,-4.87264581679581,100.790219036926,-46.7406251558661,-54.0495938810598
3.24006583588055,296,298,-9.76023134954262,132.55952499978,-58.9595889877331,-73.5999360120471
3.24476839877733,294,296,-9.76023134954264,142.334696065274,-63.8471745204799,-78.4875215447939
3.24947096167411,288,289,-14.6478168822894,174.104002028128,-76.066138352347,-98.0378636757812
3.25417352457089,287,287,-19.5354024150363,181.435380327249,-76.0661383523471,-105.369241974902
3.25887608746767,288,293,4.90252524869783,164.328830962634,-85.8413094178406,-78.4875215447939
3.26357865036445,291,296,4.90252524869783,149.666074364394,-78.5099311187204,-71.1561432456737
3.26828121326123,292,295,-4.87264581679582,149.666074364394,-71.1785528196002,-78.4875215447939
3.27298377615801,292,298,9.79011078144464,142.334696065274,-78.5099311187204,-63.8247649465534
3.27768633905478,295,302,14.6776963141915,125.22814670066,-73.6223455859736,-51.6058011146864
3.28238890195156,303,312,24.4528673796851,81.2398769059386,-58.9595889877331,-22.2802879182055
3.28709146484834,317,330,44.0032095106724,3.03850838198949,-34.521661323999,31.4831529420095
3.29179402774512,335,356,83.1038937726474,-104.488373338441,-10.0837336602652,114.572106998706
3.2964965906419,361,390,122.204578034622,-251.115939320846,33.9045361344566,217.211403186389
3.30119915353868,393,431,166.192847829343,-429.512811266104,90.1117697610451,339.401041505059
3.30590171643546,430,471,180.855604427583,-617.684854276857,173.200723817741,444.484130459116
3.31060427933224,469,513,195.518361025824,-815.632068353103,261.177263407183,554.45480494592
3.31530684222901,505,555,224.843874222305,-1006.24790413023,334.491046398386,671.756857731843
3.32000940512579,537,583,205.293532091318,-1152.87547011263,422.467585987829,730.407884124806
3.32471196802257,557,593,156.41767676385,-1226.18925310384,495.781368979031,730.407884124805
3.32941453091935,561,584,92.8790648381409,-1213.97028927197,537.325846007379,676.64444326459
3.33411709381613,552,560,19.5652818469382,-1133.32512798165,551.98860260562,581.336525376027
3.33881965671291,533,534,-14.6478168822895,-1023.35445349484,522.663089409139,500.691364085705
3.34352221960969,505,497,-58.6360866770108,-864.507923680572,476.231026848044,388.276896832528
3.34822478250647,471,454,-102.624356471732,-676.335880669819,415.136207688709,261.19967298111
3.35292734540324,440,420,-117.287113069973,-517.489350855547,346.710010230253,170.779340625294
3.35762990830002,417,402,-92.8491854062386,-417.293847434237,278.283812771798,139.01003466244
3.3623324711968,399,391,-58.6360866770108,-346.423857209408,217.188993612462,129.234863596946
3.36703503409358,387,379,-58.6360866770108,-287.772830816447,187.863480415981,99.9093504004652
3.37173759699036,379,378,-24.4229879477831,-265.778695919086,151.20658892038,114.572106998706
3.37644015988714,379,380,-14.6478168822894,-270.666281451833,146.319003387633,124.347278064199
3.38114272278392,380,384,0.0149397159510158,-282.8852452837,141.431417854887,141.453827428813
3.3858452856807,378,386,19.5652818469383,-282.8852452837,126.768661256646,156.116584027054
3.39054784857747,381,385,0.0149397159510158,-287.772830816447,143.87521062126,143.897620195187
3.39525041147425,380,385,4.90252524869783,-285.329038050073,138.987625088513,146.34141296156
3.39995297437103,376,380,0.0149397159510158,-263.334903152713,131.656246789393,131.67865636332
3.40465553726781,373,374,-14.6478168822894,-241.340768255352,131.656246789393,109.684521465959
3.40935810016459,367,367,-19.5354024150363,-209.571462292498,119.437282957526,90.1341793349716
3.41406066306137,358,353,-43.9733300787704,-153.364228665909,109.662111892032,43.7021167738768
3.41876322595815,349,349,-19.5354024150363,-121.594922703054,75.4490131628044,46.14590954025
3.42346578885493,350,349,-24.4229879477831,-124.038715469428,80.3365986955512,43.7021167738766
3.4281683517517,349,352,-4.87264581679537,-128.926301002175,68.1176348636839,60.8086661384909
3.43287091464848,349,350,-14.6478168822894,-124.038715469428,73.005220396431,51.0334950729968
3.43757347754526,343,343,-19.5354024150363,-92.2694095065735,60.7862565645639,31.4831529420095
3.44227604044204,340,337,-34.1981590132767,-70.2752746092128,60.7862565645639,9.48901804464886
3.44697860333882,337,335,-29.3105734805299,-58.0563107773457,51.0110854990703,7.04522527827545
3.4516811662356,335,334,-24.4229879477831,-50.7249324782255,43.6797071999501,7.04522527827545
3.45638372913238,333,333,-19.5354024150363,-43.3935541791053,36.3483289008298,7.04522527827545
3.46108629202916,332,331,-24.4229879477831,-36.0621758799851,36.3483289008298,-0.286153020844779
3.46578885492593,330,329,-24.4229879477831,-26.2870048144914,31.460743368083,-5.1737385535916
3.47049141782271,326,326,-19.5354024150363,-9.18045544987756,19.241779536216,-10.0613240863384
3.47519398071949,322,321,-24.4229879477831,12.8136794474831,11.9104012370957,-24.7240806845789
3.47989654361627,319,317,-29.3105734805299,29.920228812097,7.02281570434893,-36.9430445164459
3.48459910651305,314,311,-34.1981590132767,56.8019492422045,-2.75235536114471,-54.0495938810598
3.48930166940983,312,313,-14.6478168822894,56.8019492422045,-17.4151119593852,-39.3868372828193
3.49400423230661,313,314,-14.6478168822894,51.9143637094577,-14.9713191930118,-36.9430445164459
3.49870679520339,315,317,-9.76023134954262,39.6953998775906,-12.5275264266383,-27.1678734509523
3.50340935810016,316,315,-24.4229879477831,42.139192643964,-2.75235536114471,-39.3868372828193
3.50811192099694,311,315,0.0149397159510158,54.3581564758311,-27.1902830248788,-27.1678734509523
3.51281448389372,310,311,-14.6478168822894,66.5771203076981,-22.302697492132,-44.2744228155662
3.5175170467905,311,310,-24.4229879477831,66.5771203076981,-14.9713191930118,-51.6058011146864
3.52221960968728,315,318,-4.8726458167958,37.2516071112172,-14.9713191930118,-22.2802879182055
3.52692217258406,317,321,0.0149397159510158,25.0326432793502,-12.5275264266383,-12.5051168527118
3.53162473548084,316,322,9.79011078144465,25.0326432793502,-19.8589047257586,-5.1737385535916
3.53632729837762,320,323,-4.87264581679581,12.8136794474831,-2.75235536114471,-10.0613240863384
3.54102986127439,320,321,-14.6478168822894,17.7012649802299,2.13523017160211,-19.8364951518321
3.54573242417117,322,329,14.6776963141915,-6.73666268350415,-7.63994089389153,14.3766035773957
3.55043498706795,324,329,4.90252524869783,-11.624248216251,2.13523017160211,9.48901804464886
3.55513754996473,325,329,0.0149397159510123,-14.0680409826244,7.02281570434893,7.04522527827545
3.55984011286151,323,328,4.90252524869783,-6.73666268350415,-0.3085625947713,7.04522527827545
3.56454267575829,322,326,0.0149397159510123,0.594715615616082,-0.3085625947713,-0.286153020844782
3.56924523865507,320,326,9.79011078144465,5.4823011483629,-10.0837336602649,4.60143251190204
3.57394780155185,321,325,0.0149397159510123,5.4823011483629,-2.75235536114471,-2.72994578721819
3.57865036444862,321,325,0.0149397159510123,5.4823011483629,-2.75235536114471,-2.72994578721819
3.5833529273454,317,315,-29.3105734805299,39.6953998775906,2.13523017160211,-41.8306300491927
3.58805549024218,311,310,-24.4229879477831,66.5771203076981,-14.9713191930118,-51.6058011146864
3.59275805313896,314,317,-4.8726458167958,42.139192643964,-17.4151119593852,-24.7240806845789
3.59746061603574,319,324,4.90252524869783,12.8136794474831,-10.0837336602649,-2.72994578721819
3.60216317893252,323,330,14.6776963141915,-11.624248216251,-5.19614812751812,16.8203963437691
3.6068657418293,325,332,14.6776963141915,-21.3994192817446,-0.308562594771301,21.7079818765159
3.61156830472608,328,334,9.79011078144465,-33.6183831136116,9.46660847072233,24.1517746428893
3.61627086762285,329,334,4.90252524869783,-36.0621758799851,14.3541940034692,21.7079818765159
3.62097343051963,330,336,9.79011078144465,-43.3935541791053,14.3541940034692,29.0393601756361
3.62567599341641,330,334,0.0149397159510158,-38.5059686463585,19.241779536216,19.2641891101425
3.63037855631319,330,332,-9.76023134954262,-33.6183831136116,24.1293650689628,9.48901804464886
3.63508111920997,331,333,-9.76023134954262,-38.5059686463585,26.5731578353362,11.9328108110223
3.63978368210675,332,334,-9.76023134954262,-43.3935541791053,29.0169506017096,14.3766035773957
3.64448624500353,332,337,4.90252524869783,-50.7249324782255,21.6855723025894,29.0393601756361
3.64918880790031,331,334,-4.8726458167958,-40.9497614127319,24.1293650689628,16.8203963437691
3.65389137079708,327,328,-14.6478168822894,-16.5118337489978,19.241779536216,-2.72994578721819
3.65859393369386,324,323,-24.4229879477831,3.03850838198949,16.7979867698426,-19.8364951518321
3.66329649659064,322,324,-9.76023134954263,5.4823011483629,4.57902293797552,-10.0613240863384
3.66799905948742,326,330,0.0149397159510158,-18.9556265153712,9.46660847072233,9.48901804464886
3.6727016223842,329,334,4.90252524869783,-36.0621758799851,14.3541940034692,21.7079818765159
3.67740418528098,336,343,14.6776963141915,-75.1628601419596,26.5731578353362,48.5897023066234
3.68210674817776,339,342,-4.87264581679581,-80.0504456747064,43.6797071999501,36.3707384747564
3.68680931107454,338,342,0.0149397159510158,-77.606652908333,38.7921216672032,38.8145312411298
3.69151187397131,335,338,-4.8726458167958,-60.5001035437191,33.9045361344564,26.5955674092627
3.69621443686809,333,339,9.79011078144465,-58.0563107773457,21.6855723025894,36.3707384747564
3.70091699976487,335,341,9.79011078144465,-67.8314818428394,26.5731578353362,41.2583240075032
3.70561956266165,340,347,14.6776963141915,-94.7132022729469,36.3483289008298,58.364873372117
3.71032212555843,343,349,9.79011078144464,-106.932166104814,46.1234999663235,60.8086661384904
3.71502468845521,346,354,19.5652818469387,-126.482508235801,48.5672927326967,77.9152155031048
3.71972725135199,347,352,4.90252524869827,-124.038715469428,58.3424637981903,65.6962516712377
3.72442981424877,347,350,-4.87264581679581,-119.151129936681,63.2300493309373,55.9210806057436
3.72913237714554,346,349,-4.87264581679581,-114.263544403934,60.7862565645639,53.4772878393702
3.73383494004232,344,346,-9.76023134954262,-102.044580572067,58.3424637981905,43.7021167738766
3.7385375029391,341,343,-9.76023134954264,-87.3818239738267,51.0110854990703,36.3707384747564
3.74324006583588,341,341,-19.5354024150363,-82.4942384410798,55.8986710318171,26.5955674092627
3.74794262873266,341,347,9.79011078144464,-97.1569950393203,41.2359144335767,55.9210806057436
3.75264519162944,346,350,0.0149397159510158,-116.707337170308,58.3424637981905,58.364873372117
3.75734775452622,351,358,14.6776963141919,-148.476643133162,63.2300493309371,85.246593802225
3.762050317423,355,360,4.90252524869783,-163.139399731403,77.892805929178,85.2465938022248
3.76675288031977,358,366,19.5652818469383,-185.133534628763,77.892805929178,107.240728699585
3.77145544321655,360,364,0.0149397159510158,-185.133534628763,92.5555625274185,92.577972101345
3.77615800611333,361,363,-9.76023134954261,-185.133534628763,99.8869408265387,85.2465938022248
3.78086056901011,359,362,-4.8726458167958,-177.802156329643,92.5555625274185,85.2465938022248
3.78556313190689,357,361,0.0149397159510158,-170.470778030523,85.2241842282982,85.2465938022248
3.79026569480367,356,358,-9.76023134954261,-160.695606965029,87.6679769946716,73.0276299703577
3.79496825770045,354,358,0.0149397159510158,-155.808021432283,77.892805929178,77.9152155031045
3.79967082059723,355,361,9.79011078144464,-165.583192497776,75.4490131628046,90.1341793349716
3.804373383494,359,365,9.79011078144464,-185.133534628763,85.2241842282983,99.9093504004652
3.80907594639078,360,365,4.90252524869783,-187.577327395137,90.1117697610451,97.4655576340918
3.81377850928756,358,360,-9.76023134954264,-170.470778030523,92.5555625274185,77.9152155031045
3.81848107218434,351,351,-19.5354024150363,-131.370093768548,80.3365986955512,51.0334950729968
3.82318363508112,346,348,-9.76023134954262,-111.819751637561,63.2300493309373,48.5897023066234
3.8278861979779,350,353,-4.87264581679537,-133.813886534922,70.5614276300574,63.2524589048643
3.83258876087468,354,362,19.5652818469383,-165.583192497776,68.1176348636844,97.4655576340918
3.83729132377146,362,373,34.2280384451787,-212.015255058871,80.3365986955514,131.67865636332
3.84199388666823,368,380,39.1156239779256,-243.784561021725,92.5555625274185,151.228998494307
3.84669644956501,371,381,29.3404529124319,-253.559732087219,104.774526359286,148.785205727933
3.85139901246179,375,379,0.0149397159510158,-258.447317619966,129.21245402302,129.234863596946
3.85610157535857,374,376,-9.76023134954264,-248.672146554472,131.656246789393,117.015899765079
3.86080413825535,368,367,-24.4229879477831,-212.015255058871,124.324868490273,87.6903865685982
3.86550670115213,358,359,-14.6478168822894,-168.02698526415,94.9993552937919,73.0276299703577
3.87020926404891,352,351,-24.4229879477835,-133.813886534922,85.2241842282985,48.5897023066232
3.87491182694569,347,347,-19.5354024150363,-111.819751637561,70.5614276300576,41.2583240075032
3.87961438984246,346,347,-14.6478168822894,-109.375958871187,65.6738420973108,43.7021167738766
3.88431695273924,346,351,4.90252524869783,-119.151129936681,55.8986710318171,63.2524589048639
3.88901951563602,345,346,-14.6478168822894,-104.488373338441,63.2300493309373,41.2583240075032
3.8937220785328,343,348,4.90252524869783,-104.488373338441,48.5672927326969,55.9210806057436
3.89842464142958,346,351,4.90252524869783,-119.151129936681,55.8986710318171,63.2524589048639
3.90312720432636,349,355,9.79011078144509,-136.257679301295,60.7862565645637,75.4714227367314
3.90782976722314,350,353,-4.87264581679537,-133.813886534922,70.5614276300574,63.2524589048643
3.91253233011992,345,347,-9.76023134954264,-106.932166104814,60.7862565645639,46.14590954025
3.91723489301669,341,341,-19.5354024150363,-82.4942384410798,55.8986710318171,26.5955674092627
3.92193745591347,334,334,-19.5354024150363,-48.2811397118521,38.7921216672032,9.48901804464886
3.92664001881025,328,328,-19.5354024150363,-18.9556265153712,24.1293650689628,-5.1737385535916
3.93134258170703,323,322,-24.4229879477831,7.92609391473631,14.3541940034692,-22.2802879182055
3.93604514460381,321,322,-14.6478168822894,12.8136794474831,4.57902293797552,-17.3927023854586
3.94074770750059,319,320,-14.6478168822894,22.5888505129768,-0.308562594771301,-22.2802879182055
3.94545027039737,316,317,-14.6478168822894,37.2516071112172,-7.63994089389153,-29.6116662173257
3.95015283329415,312,314,-9.76023134954262,54.3581564758311,-19.8589047257586,-34.4992517500725
3.95485539619092,309,312,-4.87264581679581,66.5771203076981,-29.6340757912522,-36.9430445164459
3.9595579590877,307,307,-19.5354024150363,83.683669672312,-27.1902830248788,-56.4933866474332
3.96426052198448,303,306,-4.87264581679581,95.9026335041791,-44.2968323894927,-51.6058011146864
3.96896308488126,301,300,-24.4229879477831,115.452975635166,-39.4092468567458,-76.0437287784205
3.97366564777804,299,299,-19.5354024150363,122.784353934287,-46.7406251558661,-76.0437287784205
3.97836821067482,297,300,-4.87264581679581,125.22814670066,-58.9595889877331,-66.2685577129268
3.9830707735716,297,301,0.0149397159510016,122.784353934287,-61.4033817541065,-61.38097218018
3.98777333646838,299,300,-14.6478168822894,120.340561167913,-49.1844179222395,-71.1561432456737
3.99247589936515,296,297,-14.6478168822894,135.003317766154,-56.5157962213597,-78.4875215447939
3.99717846226193,294,294,-19.5354024150363,147.222281598021,-58.9595889877331,-88.2626926102875
4.00188102515871,292,295,-4.87264581679582,149.666074364394,-71.1785528196002,-78.4875215447939
4.00658358805549,288,288,-19.5354024150363,176.547794794502,-73.6223455859736,-102.925449208528
4.01128615095227,287,291,0.0149397159512148,171.660209261755,-85.8413094178408,-85.818899843914
4.01598871384905,287,293,9.79011078144487,166.772623729008,-90.7288949505877,-76.0437287784204
4.02069127674583,285,291,9.79011078144487,176.547794794502,-95.6164804833345,-80.9313143111672
4.02539383964261,287,292,4.90252524869803,169.216416495381,-88.2851021842142,-80.9313143111672
4.03009640253938,289,293,0.0149397159510158,161.885038196261,-80.9537238850938,-80.9313143111673
4.03479896543616,291,295,0.0149397159510158,152.109867130767,-76.066138352347,-76.0437287784205
4.03950152833294,293,294,-14.6478168822894,149.666074364394,-63.8471745204799,-85.8188998439141
4.04420409122972,293,298,4.90252524869783,139.8909032989,-73.6223455859736,-66.2685577129268
4.0489066541265,294,299,4.90252524869783,135.003317766154,-71.1785528196002,-63.8247649465534
4.05360921702328,293,298,4.90252524869783,139.8909032989,-73.6223455859736,-66.2685577129268
4.05831177992006,293,297,0.0149397159510158,142.334696065274,-71.1785528196002,-71.1561432456736
4.06301434281684,292,297,4.90252524869783,144.778488831647,-76.066138352347,-68.7123504793002
4.06771690571361,292,296,0.0149397159509874,147.222281598021,-73.6223455859736,-73.5999360120471
4.07241946861039,291,296,4.90252524869783,149.666074364394,-78.5099311187204,-71.1561432456737
4.07712203150717,292,295,-4.87264581679582,149.666074364394,-71.1785528196002,-78.4875215447939
4.08182459440395,291,295,0.0149397159510158,152.109867130767,-76.066138352347,-76.0437287784205
4.08652715730073,290,293,-4.8726458167958,159.441245429888,-76.066138352347,-83.3751070775407
4.09122972019751,293,297,0.0149397159510158,142.334696065274,-71.1785528196002,-71.1561432456736
4.09593228309429,296,299,-4.87264581679581,130.115732233407,-61.4033817541065,-68.7123504793003
4.10063484599107,294,297,-4.8726458167958,139.8909032989,-66.2909672868534,-73.5999360120471
4.10533740888784,290,293,-4.8726458167958,159.441245429888,-76.066138352347,-83.3751070775407
4.11003997178462,288,294,9.79011078144464,161.885038196261,-88.285102184214,-73.5999360120471
4.1147425346814,291,296,4.90252524869783,149.666074364394,-78.5099311187204,-71.1561432456737
4.11944509757818,291,298,14.6776963141915,144.778488831647,-83.3975166514672,-61.38097218018
4.12414766047496,293,297,0.0149397159510158,142.334696065274,-71.1785528196002,-71.1561432456736
4.12885022337174,294,300,9.79011078144465,132.55952499978,-73.6223455859736,-58.9371794138066
4.13355278626852,296,300,0.0149397159510158,127.671939467033,-63.8471745204799,-63.8247649465534
4.13825534916529,295,302,14.6776963141915,125.22814670066,-73.6223455859736,-51.6058011146864
4.14295791206207,294,299,4.90252524869783,135.003317766154,-71.1785528196002,-63.8247649465534
4.14766047495885,293,296,-4.87264581679582,144.778488831647,-68.7347600532268,-76.0437287784205
4.15236303785563,292,295,-4.87264581679582,149.666074364394,-71.1785528196002,-78.4875215447939
4.15706560075241,288,293,4.90252524869783,164.328830962634,-85.8413094178406,-78.4875215447939
4.16176816364919,289,293,0.0149397159510158,161.885038196261,-80.9537238850938,-80.9313143111673
4.16647072654597,287,292,4.90252524869803,169.216416495381,-88.2851021842142,-80.9313143111672
4.17117328944275,288,292,0.0149397159509874,166.772623729008,-83.3975166514672,-83.3751070775407
4.17587585233952,292,297,4.90252524869783,144.778488831647,-76.066138352347,-68.7123504793002
4.1805784152363,294,302,19.5652818469383,127.671939467033,-78.5099311187204,-49.162008348313
4.18528097813308,298,305,14.6776963141915,110.56539010242,-66.2909672868533,-44.2744228155662
4.18998354102986,300,307,14.6776963141915,100.790219036926,-61.4033817541065,-39.3868372828193
4.19468610392664,302,309,14.6776963141915,91.0150479714322,-56.5157962213597,-34.4992517500725
4.19938866682342,303,308,4.90252524869783,91.0150479714322,-49.1844179222395,-41.8306300491927
4.2040912297202,300,306,9.79011078144465,103.234011803299,-58.9595889877331,-44.2744228155661
4.20879379261698,297,300,-4.87264581679581,125.22814670066,-58.9595889877331,-66.2685577129268
4.21349635551375,292,291,-24.4229879477831,159.441245429888,-61.4033817541065,-98.0378636757812
4.21819891841053,291,293,-9.76023134954261,156.997452663514,-71.1785528196002,-85.8188998439141
4.22290148130731,292,299,14.6776963141915,139.8909032989,-80.9537238850938,-58.9371794138066
4.22760404420409,298,305,14.6776963141915,110.56539010242,-66.2909672868533,-44.2744228155662
4.23230660710087,300,307,14.6776963141915,100.790219036926,-61.4033817541065,-39.3868372828193
4.23700916999765,301,304,-4.87264581679581,105.677804569673,-49.1844179222395,-56.4933866474332
4.24171173289443,299,302,-4.87264581679581,115.452975635166,-54.0720034549863,-61.38097218018
4.24641429579121,294,298,0.0149397159510158,137.447110532527,-68.7347600532268,-68.7123504793002
4.25111685868799,289,292,-4.87264581679582,164.328830962635,-78.5099311187204,-85.8188998439141
4.25581942158476,287,289,-9.76023134954241,176.547794794502,-80.953723885094,-95.5940709094076
4.26052198448154,289,292,-4.87264581679582,164.328830962635,-78.5099311187204,-85.8188998439141
4.26522454737832,290,294,0.0149397159510158,156.997452663514,-78.5099311187204,-78.4875215447939
4.2699271102751,291,291,-19.5354024150363,161.885038196261,-66.2909672868534,-95.5940709094077
4.27462967317188,291,294,-4.8726458167958,154.553659897141,-73.6223455859736,-80.9313143111673
4.27933223606866,295,303,19.5652818469383,122.784353934287,-76.066138352347,-46.7182155819396
4.28403479896544,300,310,29.3404529124319,93.4588407378056,-68.7347600532268,-24.7240806845789
4.28873736186222,302,310,19.5652818469383,88.5712552050588,-58.9595889877331,-29.6116662173257
4.29343992475899,298,300,-9.76023134954262,122.784353934287,-54.0720034549863,-68.7123504793002
4.29814248765577,294,299,4.90252524869783,135.003317766154,-71.1785528196002,-63.8247649465534
4.30284505055255,294,299,4.90252524869783,135.003317766154,-71.1785528196002,-63.8247649465534
4.30754761344933,297,298,-14.6478168822894,130.115732233407,-54.0720034549863,-76.0437287784205
4.31225017634611,297,303,9.79011078144464,117.89676840154,-66.2909672868533,-51.6058011146864
4.31695273924289,298,302,0.0149397159510158,117.89676840154,-58.9595889877331,-58.9371794138066
4.32165530213967,300,305,4.90252524869783,105.677804569673,-56.5157962213597,-49.162008348313
4.32635786503644,302,311,24.4528673796851,86.1274624386854,-61.4033817541065,-24.7240806845789
4.33106042793322,305,310,4.90252524869783,81.2398769059386,-44.2968323894927,-36.9430445164459
4.33576299083,305,309,0.0149397159510016,83.683669672312,-41.8530396231193,-41.8306300491927
4.34046555372678,303,305,-9.76023134954264,98.3464262705525,-41.8530396231193,-56.4933866474332
4.34516811662356,298,301,-4.87264581679581,120.340561167913,-56.5157962213597,-63.8247649465534
4.34987067952034,297,300,-4.87264581679581,125.22814670066,-58.9595889877331,-66.2685577129268
4.35457324241712,297,298,-14.6478168822894,130.115732233407,-54.0720034549863,-76.0437287784205
4.3592758053139,294,300,9.79011078144465,132.55952499978,-73.6223455859736,-58.9371794138066
4.36397836821067,295,296,-14.6478168822894,139.8909032989,-58.9595889877331,-80.9313143111673
4.36868093110745,295,299,0.0149397159510158,132.55952499978,-66.2909672868534,-66.2685577129268
4.37338349400423,296,300,0.0149397159510158,127.671939467033,-63.8471745204799,-63.8247649465534
4.37808605690101,296,302,9.79011078144465,122.784353934287,-68.7347600532268,-54.0495938810598
4.38278861979779,298,303,4.90252524869783,115.452975635166,-61.4033817541065,-54.0495938810598
4.38749118269457,299,304,4.90252524869783,110.565390102419,-58.9595889877331,-51.6058011146864
4.39219374559135,299,300,-14.6478168822894,120.340561167913,-49.1844179222395,-71.1561432456737
4.39689630848813,297,297,-19.5354024150363,132.55952499978,-51.6282106886129,-80.9313143111673
4.4015988713849,295,294,-24.4229879477831,144.778488831647,-54.0720034549863,-90.7064853766609
4.40630143428168,294,301,14.6776963141915,130.115732233407,-76.066138352347,-54.0495938810598
4.41100399717846,298,302,0.0149397159510158,117.89676840154,-58.9595889877331,-58.9371794138066
4.41570656007524,296,299,-4.87264581679581,130.115732233407,-61.4033817541065,-68.7123504793003
4.42040912297202,297,300,-4.87264581679581,125.22814670066,-58.9595889877331,-66.2685577129268
4.4251116858688,298,300,-9.76023134954262,122.784353934287,-54.0720034549863,-68.7123504793002
4.42981424876558,300,304,0.0149397159510158,108.121597336046,-54.0720034549863,-54.0495938810598
4.43451681166236,301,304,-4.87264581679581,105.677804569673,-49.1844179222395,-56.4933866474332
4.43921937455913,299,304,4.90252524869783,110.565390102419,-58.9595889877331,-51.6058011146864
4.44392193745591,297,299,-9.76023134954264,127.671939467033,-56.5157962213597,-71.1561432456737
4.44862450035269,292,292,-19.5354024150363,156.997452663514,-63.8471745204799,-93.1502781430344
4.45332706324947,287,286,-24.4229879477831,183.879173093622,-73.6223455859737,-110.256827507648
4.45802962614625,288,293,4.90252524869783,164.328830962634,-85.8413094178406,-78.4875215447939
4.46273218904303,294,299,4.90252524869783,135.003317766154,-71.1785528196002,-63.8247649465534
4.46743475193981,297,305,19.5652818469383,113.009182868793,-71.1785528196002,-41.8306300491927
4.47213731483659,299,302,-4.87264581679581,115.452975635166,-54.0720034549863,-61.38097218018
4.47683987773336,301,303,-9.76023134954264,108.121597336046,-46.7406251558661,-61.38097218018
4.48154244063014,301,306,4.90252524869783,100.790219036926,-54.0720034549863,-46.7182155819396
4.48624500352692,301,305,0.0149397159510016,103.234011803299,-51.6282106886129,-51.6058011146864
4.4909475664237,299,301,-9.76023134954264,117.89676840154,-51.6282106886129,-66.2685577129268
4.49565012932048,297,299,-9.76023134954264,127.671939467033,-56.5157962213597,-71.1561432456737
4.50035269221726,296,299,-4.87264581679581,130.115732233407,-61.4033817541065,-68.7123504793003
4.50505525511404,295,296,-14.6478168822894,139.8909032989,-58.9595889877331,-80.9313143111673
4.50975781801082,296,298,-9.76023134954262,132.55952499978,-58.9595889877331,-73.5999360120471
4.51446038090759,299,302,-4.87264581679581,115.452975635166,-54.0720034549863,-61.38097218018
4.51916294380437,301,307,9.79011078144464,98.3464262705525,-56.5157962213597,-41.8306300491927
4.52386550670115,301,304,-4.87264581679581,105.677804569673,-49.1844179222395,-56.4933866474332
4.52856806959793,300,303,-4.87264581679581,110.56539010242,-51.6282106886129,-58.9371794138066
4.53327063249471,302,305,-4.87264581679581,100.790219036926,-46.7406251558661,-54.0495938810598
4.53797319539149,300,306,9.79011078144465,103.234011803299,-58.9595889877331,-44.2744228155661
4.54267575828827,304,310,9.79011078144465,83.683669672312,-49.1844179222395,-34.4992517500725
4.54737832118505,303,311,19.5652818469383,83.683669672312,-56.5157962213597,-27.1678734509523
4.55208088408182,306,311,4.90252524869783,76.3522913731918,-41.8530396231193,-34.4992517500725
4.5567834469786,304,309,4.90252524869783,86.1274624386854,-46.7406251558661,-39.3868372828193
4.56148600987538,304,307,-4.87264581679581,91.0150479714322,-41.8530396231193,-49.162008348313
4.56618857277216,301,306,4.90252524869783,100.790219036926,-54.0720034549863,-46.7182155819396
4.57089113566894,302,304,-9.76023134954262,103.234011803299,-44.2968323894927,-58.9371794138066
4.57559369856572,303,305,-9.76023134954264,98.3464262705525,-41.8530396231193,-56.4933866474332
4.5802962614625,303,309,9.79011078144464,88.5712552050588,-51.6282106886129,-36.9430445164459
4.58499882435928,309,318,24.4528673796851,51.9143637094577,-44.2968323894927,-7.61753131996501
4.58970138725605,315,321,9.79011078144465,29.920228812097,-22.302697492132,-7.61753131996501
4.59440395015283,315,320,4.90252524869783,32.3640215784704,-19.8589047257586,-12.5051168527118
4.59910651304961,309,313,0.0149397159510016,64.1333275413247,-32.0778685576256,-32.0554589836991
4.60380907594639,306,309,-4.87264581679581,81.2398769059386,-36.9654540903724,-44.2744228155662
4.60851163884317,304,309,4.90252524869783,86.1274624386854,-46.7406251558661,-39.3868372828193
4.61321420173995,307,312,4.90252524869783,71.4647058404449,-39.4092468567458,-32.0554589836991
4.61791676463673,311,317,9.79011078144465,49.4705709430843,-32.0778685576256,-17.3927023854586
4.62261932753351,314,318,0.0149397159510158,39.6953998775906,-19.8589047257586,-19.8364951518321
4.62732189043028,311,314,-4.8726458167958,56.8019492422045,-24.7464902585054,-32.0554589836991
4.63202445332706,311,313,-9.76023134954263,59.2457420085779,-22.302697492132,-36.9430445164459
4.63672701622384,314,318,0.0149397159510158,39.6953998775906,-19.8589047257586,-19.8364951518321
4.64142957912062,317,322,4.90252524869783,22.5888505129768,-14.9713191930118,-7.61753131996501
4.6461321420174,319,326,14.6776963141915,7.92609391473631,-14.9713191930118,7.04522527827545
4.65083470491418,322,323,-14.6478168822894,7.92609391473631,7.02281570434893,-14.9489096190852
4.65553726781096,321,325,0.0149397159510123,5.4823011483629,-2.75235536114471,-2.72994578721819
4.66023983070774,322,325,-4.87264581679581,3.03850838198949,2.13523017160211,-5.1737385535916
4.66494239360451,319,322,-4.8726458167958,17.7012649802299,-5.19614812751812,-12.5051168527118
4.66964495650129,316,318,-9.76023134954262,34.8078143448438,-10.0837336602649,-24.7240806845789
4.67434751939807,315,321,9.79011078144465,29.920228812097,-22.302697492132,-7.61753131996501
4.67905008229485,316,320,0.0149397159510158,29.920228812097,-14.9713191930118,-14.9489096190852
4.68375264519163,316,318,-9.76023134954262,34.8078143448438,-10.0837336602649,-24.7240806845789
4.68845520808841,314,317,-4.8726458167958,42.139192643964,-17.4151119593852,-24.7240806845789
4.69315777098519,311,317,9.79011078144465,49.4705709430843,-32.0778685576256,-17.3927023854586
4.69786033388197,311,311,-19.5354024150363,64.1333275413247,-17.4151119593852,-46.7182155819396
4.70256289677874,306,309,-4.87264581679581,81.2398769059386,-36.9654540903724,-44.2744228155662
4.70726545967552,303,304,-14.6478168822894,100.790219036926,-39.4092468567458,-61.38097218018
4.7119680225723,299,301,-9.76023134954264,117.89676840154,-51.6282106886129,-66.2685577129268
4.71667058546908,296,299,-4.87264581679581,130.115732233407,-61.4033817541065,-68.7123504793003
4.72137314836586,301,301,-19.5354024150363,113.009182868793,-41.8530396231193,-71.1561432456737
4.72607571126264,303,306,-4.87264581679581,95.9026335041791,-44.2968323894927,-51.6058011146864
4.73077827415942,306,311,4.90252524869783,76.3522913731918,-41.8530396231193,-34.4992517500725
4.7354808370562,307,311,0.0149397159510016,73.9084986068184,-36.9654540903724,-36.9430445164459
4.74018339995297,303,307,0.0149397159510016,93.4588407378056,-46.7406251558661,-46.7182155819396
4.74488596284975,297,296,-24.4229879477831,135.003317766154,-49.1844179222395,-85.8188998439141
4.74958852574653,287,282,-43.9733300787704,193.654344159116,-63.84717452048,-129.807169638636
4.75429108864331,279,275,-39.0857445460236,230.311235654717,-85.8413094178407,-144.469926236876
4.75899365154009,281,282,-14.6478168822894,208.317100757356,-93.172687716961,-115.144413040395
4.76369621443687,291,299,19.5652818469383,142.334696065274,-85.8413094178406,-56.4933866474332
4.76839877733365,299,307,19.5652818469383,103.234011803299,-66.2909672868533,-36.9430445164459
4.77310134023043,305,312,14.6776963141915,76.3522913731918,-49.1844179222395,-27.1678734509523
4.7778039031272,304,312,19.5652818469383,78.7960841395652,-54.0720034549863,-24.7240806845789
4.78250646602398,305,308,-4.87264581679581,86.1274624386854,-39.4092468567458,-46.7182155819396
4.78720902892076,302,307,4.90252524869783,95.9026335041791,-51.6282106886129,-44.2744228155662
4.79191159181754,303,302,-24.4229879477831,105.677804569673,-34.521661323999,-71.1561432456737
4.79661415471432,298,303,4.90252524869783,115.452975635166,-61.4033817541065,-54.0495938810598
4.8013167176111,296,301,4.90252524869783,125.22814670066,-66.2909672868533,-58.9371794138066
4.80601928050788,295,296,-14.6478168822894,139.8909032989,-58.9595889877331,-80.9313143111673
4.81072184340466,294,297,-4.8726458167958,139.8909032989,-66.2909672868534,-73.5999360120471
4.81542440630143,297,299,-9.76023134954264,127.671939467033,-56.5157962213597,-71.1561432456737
4.82012696919821,298,305,14.6776963141915,110.56539010242,-66.2909672868533,-44.2744228155662
4.82482953209499,301,306,4.90252524869783,100.790219036926,-54.0720034549863,-46.7182155819396
4.82953209499177,301,305,0.0149397159510016,103.234011803299,-51.6282106886129,-51.6058011146864
4.83423465788855,300,302,-9.76023134954262,113.009182868793,-49.1844179222395,-63.8247649465534
4.83893722078533,296,297,-14.6478168822894,135.003317766154,-56.5157962213597,-78.4875215447939
4.84363978368211,290,293,-4.8726458167958,159.441245429888,-76.066138352347,-83.3751070775407
4.84834234657889,285,286,-14.6478168822894,188.766758626369,-83.3975166514673,-105.369241974901
4.85304490947566,284,285,-14.6478168822894,193.654344159116,-85.8413094178407,-107.813034741275
4.85774747237244,285,286,-14.6478168822894,188.766758626369,-83.3975166514673,-105.369241974901
4.86245003526922,286,291,4.90252524869805,174.104002028128,-90.7288949505877,-83.3751070775406
4.867152598166,292,297,4.90252524869783,144.778488831647,-76.066138352347,-68.7123504793002
4.87185516106278,298,305,14.6776963141915,110.56539010242,-66.2909672868533,-44.2744228155662
4.87655772395956,307,320,44.0032095106724,51.9143637094577,-58.9595889877331,7.04522527827545
4.88126028685634,321,337,58.6659661089128,-23.843212048118,-32.0778685576256,55.9210806057436
4.88596284975312,342,363,83.1038937726474,-138.701472067668,7.0228157043487,131.67865636332
4.89066541264989,366,396,127.092163567368,-277.997659750953,43.6797071999503,234.317952551003
4.89536797554667,395,428,141.754920165609,-427.069018499731,107.218319125659,319.850699374072
4.90007053844345,424,459,151.530091231102,-573.696584482136,173.200723817741,400.495860664395
4.90477310134023,455,495,175.968018894837,-737.430699829154,236.739335743449,500.691364085705
4.90947566423701,492,539,210.181117624064,-935.377913905401,310.053118734652,625.324795170748
4.91417822713379,527,575,215.068703156811,-1108.88720031791,393.142072791348,715.745127526564
4.91888079003057,552,588,156.41767676385,-1201.7513254401,483.562405147164,718.188920292938
4.92358335292734,559,583,97.7666503708879,-1206.63891097285,529.994467708259,676.644443264591
4.92828591582412,553,564,34.2280384451788,-1145.54409181351,547.101017072873,598.443074740641
4.9329884787209,535,536,-14.6478168822894,-1033.12962456034,527.550674941886,505.578949618451
4.93769104161768,508,501,-53.748501144264,-881.614473045186,481.118612380791,400.495860664395
4.94239360451446,476,460,-97.7367709389854,-703.217601099926,424.911378754202,278.306222345724
4.94709616741124,445,429,-97.7367709389854,-551.702449584775,349.153802996626,202.548646588148
4.95179873030802,421,407,-87.9615998734917,-439.287982331598,285.615191070918,153.67279126068
4.9565012932048,402,393,-63.5236722097576,-358.642821041276,226.964164677956,131.67865636332
4.96120385610158,390,384,-48.8609156115172,-307.323172947434,190.307273182355,117.015899765079
4.96590641899835,382,379,-34.1981590132767,-275.55386698458,163.425552752247,112.128314232332
4.97060898189513,379,381,-9.76023134954261,-273.110074218206,143.87521062126,129.234863596946
4.97531154479191,381,383,-9.76023134954261,-282.8852452837,148.762796154007,134.122449129693
4.98001410768869,381,383,-9.76023134954261,-282.8852452837,148.762796154007,134.122449129693
4.98471667058547,379,384,4.90252524869783,-280.441452517326,136.54383232214,143.897620195187
4.98941923348225,376,380,0.0149397159510158,-263.334903152713,131.656246789393,131.67865636332
4.99412179637903,373,372,-24.4229879477831,-236.453182722605,136.54383232214,99.9093504004652
4.99882435927581,368,371,-4.8726458167958,-221.790426124365,114.549697424779,107.240728699585
5.00352692217258,364,366,-9.76023134954261,-199.796291227004,107.218319125659,92.577972101345
5.00822948506936,361,364,-4.8726458167958,-187.577327395137,97.4431480601653,90.1341793349716
5.01293204796614,356,359,-4.8726458167958,-163.139399731403,85.2241842282982,77.9152155031045
5.01763461086292,353,354,-14.6478168822894,-143.589057600416,82.7803914619248,60.8086661384907
5.0223371737597,347,347,-19.5354024150363,-111.819751637561,70.5614276300576,41.2583240075032
5.02703973665648,345,341,-39.0857445460235,-92.2694095065735,75.4490131628044,16.8203963437691
5.03174229955326,341,338,-34.1981590132767,-75.1628601419596,63.2300493309373,11.9328108110223
5.03644486245004,338,334,-39.0857445460235,-58.0563107773457,58.3424637981905,-0.286153020844779
5.04114742534681,334,334,-19.5354024150363,-48.2811397118521,38.7921216672032,9.48901804464886
5.04584998824359,331,332,-14.6478168822894,-36.0621758799851,29.0169506017096,7.04522527827545
5.05055255114037,329,325,-39.0857445460235,-14.0680409826244,36.3483289008298,-22.2802879182055
5.05525511403715,323,323,-19.5354024150363,5.4823011483629,11.9104012370957,-17.3927023854586
5.05995767693393,320,317,-34.1981590132767,27.4764360457236,11.9104012370957,-39.3868372828193
5.06466023983071,312,312,-19.5354024150363,59.2457420085779,-14.9713191930118,-44.2744228155661
5.06936280272749,310,306,-39.0857445460235,78.7960841395652,-10.0837336602649,-68.7123504793002
5.07406536562427,308,311,-4.87264581679581,71.464705840445,-32.0778685576256,-39.3868372828193
5.07876792852104,313,313,-19.5354024150363,54.3581564758311,-12.5275264266383,-41.8306300491927
5.08347049141782,315,319,0.0149397159510158,34.8078143448438,-17.4151119593852,-17.3927023854586
5.0881730543146,319,318,-24.4229879477831,27.4764360457236,4.57902293797552,-32.0554589836991
5.09287561721138,319,320,-14.6478168822894,22.5888505129768,-0.308562594771301,-22.2802879182055
5.09757818010816,318,320,-9.76023134954262,25.0326432793502,-5.19614812751812,-19.8364951518321
5.10228074300494,315,319,0.0149397159510158,34.8078143448438,-17.4151119593852,-17.3927023854586
5.10698330590172,315,317,-9.76023134954262,39.6953998775906,-12.5275264266383,-27.1678734509523
5.11168586879849,314,316,-9.76023134954262,44.5829854103375,-14.9713191930118,-29.6116662173257
5.11638843169527,313,316,-4.8726458167958,47.0267781767109,-19.8589047257586,-27.1678734509523
5.12109099459205,314,317,-4.8726458167958,42.139192643964,-17.4151119593852,-24.7240806845789
5.12579355748883,316,321,4.90252524869783,27.4764360457236,-17.4151119593852,-10.0613240863384
5.13049612038561,321,326,4.90252524869783,3.03850838198949,-5.19614812751812,2.15763974552863
5.13519868328239,326,333,14.6776963141915,-26.2870048144914,2.13523017160211,24.1517746428893
5.13990124617917,329,334,4.90252524869783,-36.0621758799851,14.3541940034692,21.7079818765159
5.14460380907595,327,329,-9.76023134954262,-18.9556265153712,16.7979867698426,2.15763974552863
5.14930637197272,321,323,-9.76023134954263,10.3698866811097,2.13523017160211,-12.5051168527118
5.1540089348695,316,316,-19.5354024150363,39.6953998775906,-5.19614812751812,-34.4992517500725
5.15871149776628,309,309,-19.5354024150363,73.9084986068184,-22.302697492132,-51.6058011146864
5.16341406066306,304,304,-19.5354024150363,98.3464262705525,-34.521661323999,-63.8247649465534
5.16811662355984,307,308,-14.6478168822894,81.2398769059386,-29.6340757912522,-51.6058011146864
5.17281918645662,312,319,14.6776963141915,42.139192643964,-32.0778685576256,-10.0613240863384
5.1775217493534,318,325,14.6776963141915,12.8136794474831,-17.4151119593852,4.60143251190204
5.18222431225018,323,327,0.0149397159510123,-4.29286991713074,2.13523017160211,2.15763974552863
5.18692687514695,324,329,4.90252524869783,-11.624248216251,2.13523017160211,9.48901804464886
5.19162943804373,323,326,-4.87264581679581,-1.84907715075733,4.57902293797552,-2.72994578721819
5.19633200094051,319,321,-9.76023134954262,20.1450577466034,-2.75235536114471,-17.3927023854586
5.20103456383729,317,319,-9.76023134954262,29.920228812097,-7.63994089389153,-22.2802879182055
5.20573712673407,317,319,-9.76023134954262,29.920228812097,-7.63994089389153,-22.2802879182055
5.21043968963085,316,319,-4.8726458167958,32.3640215784704,-12.5275264266383,-19.8364951518321
5.21514225252763,316,322,9.79011078144465,25.0326432793502,-19.8589047257586,-5.1737385535916
5.21984481542441,320,328,19.5652818469383,0.594715615616082,-14.9713191930118,14.3766035773957
5.22454737832119,326,335,24.4528673796851,-31.1745903472382,-2.75235536114471,33.926945708383
5.22924994121796,331,335,0.0149397159510158,-43.3935541791053,21.6855723025894,21.7079818765159
5.23395250411474,333,337,0.0149397159510158,-53.1687252445989,26.5731578353362,26.5955674092627
5.23865506701152,337,346,24.4528673796851,-84.9380312074532,24.1293650689628,60.8086661384905
5.2433576299083,340,345,4.90252524869783,-89.8256167402001,41.2359144335767,48.5897023066234
5.24806019280508,339,342,-4.87264581679581,-80.0504456747064,43.6797071999501,36.3707384747564
5.25276275570186,334,340,9.79011078144465,-62.9438963100926,24.1293650689628,38.8145312411298
5.25746531859864,335,337,-9.76023134954262,-58.0563107773457,36.3483289008298,21.7079818765159
5.26216788149542,333,338,4.90252524869783,-55.6125180109723,24.1293650689628,31.4831529420095
5.26687044439219,334,336,-9.76023134954262,-53.1687252445989,33.9045361344564,19.2641891101425
5.27157300728897,336,341,4.90252524869783,-70.2752746092128,31.460743368083,38.8145312411298
5.27627557018575,340,342,-9.76023134954262,-82.4942384410798,48.5672927326969,33.926945708383
5.28097813308253,340,345,4.90252524869783,-89.8256167402001,41.2359144335767,48.5897023066234
5.28568069597931,340,341,-14.6478168822894,-80.0504456747064,51.0110854990703,29.0393601756361
5.29038325887609,334,332,-29.3105734805299,-43.3935541791053,43.6797071999501,-0.286153020844779
5.29508582177287,326,325,-24.4229879477831,-6.73666268350415,21.6855723025894,-14.9489096190852
5.29978838466964,322,319,-34.1981590132767,17.7012649802299,16.7979867698426,-34.4992517500725
5.30449094756642,323,323,-19.5354024150363,5.4823011483629,11.9104012370957,-17.3927023854586
5.3091935104632,328,331,-4.8726458167958,-26.2870048144914,16.7979867698426,9.48901804464886
5.31389607335998,332,341,24.4528673796851,-60.5001035437191,11.9104012370957,48.5897023066234
5.31859863625676,337,344,14.6776963141915,-80.0504456747064,29.0169506017096,51.0334950729968
5.32330119915354,340,350,29.3404529124319,-102.044580572067,29.0169506017096,73.0276299703575
5.32800376205032,344,350,9.79011078144465,-111.819751637561,48.5672927326969,63.2524589048639
5.3327063249471,347,355,19.5652818469387,-131.370093768548,51.0110854990701,80.3590082694782
5.33740888784387,347,351,0.0149397159510016,-121.594922703054,60.7862565645639,60.8086661384904
5.34211145074065,346,352,9.79011078144509,-121.594922703055,53.4548782654435,68.1400444376111
5.34681401363743,348,349,-14.6478168822894,-119.151129936681,70.5614276300576,48.5897023066234
5.35151657653421,348,353,4.90252524869827,-128.926301002175,60.7862565645637,68.1400444376111
5.35621913943099,350,357,14.6776963141919,-143.589057600415,60.7862565645637,82.8028010358516
5.36092170232777,353,360,14.6776963141915,-158.251814198656,68.1176348636844,90.1341793349716
5.36562426522455,351,356,4.90252524869828,-143.589057600415,68.1176348636839,75.4714227367314
5.37032682812133,348,351,-4.87264581679581,-124.038715469428,65.6738420973108,58.364873372117
5.3750293910181,347,349,-9.76023134954264,-116.707337170308,65.6738420973108,51.0334950729968
5.37973195391488,347,354,14.6776963141919,-128.926301002175,53.4548782654435,75.4714227367314
5.38443451681166,351,357,9.79011078144509,-146.032850366789,65.6738420973105,80.3590082694782
5.38913707970844,358,368,29.3404529124319,-190.02112016151,73.0052203964312,117.015899765079
5.39383964260522,369,381,39.1156239779256,-248.672146554472,94.9993552937919,153.67279126068
5.398542205502,373,384,34.2280384451788,-265.778695919086,107.218319125659,158.560376793427
5.40324476839878,375,383,19.5652818469383,-268.222488685459,119.437282957526,148.785205727933
5.40794733129556,370,373,-4.87264581679582,-231.565597189858,119.437282957526,112.128314232332
5.41264989419233,365,368,-4.8726458167958,-207.127669526124,107.218319125659,99.9093504004652
5.41735245708911,367,372,4.90252524869783,-221.790426124365,107.218319125659,114.572106998706
5.42205501998589,368,372,0.0149397159510158,-224.234218890738,112.105904658406,112.128314232332
5.42675758288267,365,371,9.79011078144467,-214.459047825244,99.8869408265387,114.572106998706
5.43146014577945,364,366,-9.76023134954261,-199.796291227004,107.218319125659,92.577972101345
5.43616270867623,364,366,-9.76023134954261,-199.796291227004,107.218319125659,92.577972101345
5.44086527157301,363,365,-9.76023134954264,-194.908705694257,104.774526359286,90.1341793349716
5.44556783446979,359,362,-4.8726458167958,-177.802156329643,92.5555625274185,85.2465938022248
5.45027039736656,354,351,-34.1981590132772,-138.701472067668,94.9993552937921,43.7021167738764
5.45497296026334,349,344,-43.9733300787704,-109.375958871187,87.6679769946714,21.7079818765159
5.45967552316012,346,345,-24.4229879477831,-104.488373338441,70.5614276300576,33.9269457083829
5.4643780860569,345,342,-34.1981590132767,-94.7132022729469,73.005220396431,21.7079818765159
5.46908064895368,346,350,0.0149397159510158,-116.707337170308,58.3424637981905,58.364873372117
5.47378321185046,348,356,19.5652818469387,-136.257679301295,53.4548782654435,82.8028010358516
5.47848577474724,349,352,-4.87264581679537,-128.926301002175,68.1176348636839,60.8086661384909
5.48318833764402,350,353,-4.87264581679537,-133.813886534922,70.5614276300574,63.2524589048643
5.48789090054079,349,351,-9.76023134954264,-126.482508235801,70.5614276300576,55.9210806057436
5.49259346343757,348,354,9.79011078144511,-131.370093768548,58.3424637981903,73.027629970358
5.49729602633435,349,350,-14.6478168822894,-124.038715469428,73.005220396431,51.0334950729968
5.50199858923113,346,346,-19.5354024150363,-106.932166104814,68.1176348636842,38.8145312411298
5.50670115212791,340,341,-14.6478168822894,-80.0504456747064,51.0110854990703,29.0393601756361
5.51140371502469,333,329,-39.0857445460235,-33.6183831136116,46.1234999663235,-12.5051168527118
5.51610627792147,323,322,-24.4229879477831,7.92609391473631,14.3541940034692,-22.2802879182055
5.52080884081825,317,315,-29.3105734805299,39.6953998775906,2.13523017160211,-41.8306300491927
5.52551140371502,316,317,-14.6478168822894,37.2516071112172,-7.63994089389153,-29.6116662173257
5.5302139666118,318,317,-24.4229879477831,32.3640215784704,2.13523017160211,-34.4992517500725
5.53491652950858,319,320,-14.6478168822894,22.5888505129768,-0.308562594771301,-22.2802879182055
5.53961909240536,319,322,-4.8726458167958,17.7012649802299,-5.19614812751812,-12.5051168527118
5.54432165530214,315,319,0.0149397159510158,34.8078143448438,-17.4151119593852,-17.3927023854586
5.54902421819892,312,312,-19.5354024150363,59.2457420085779,-14.9713191930118,-44.2744228155661
5.5537267810957,308,309,-14.6478168822894,76.3522913731918,-27.1902830248788,-49.162008348313
5.55842934399248,305,304,-24.4229879477831,95.9026335041791,-29.6340757912522,-66.2685577129268
5.56313190688925,303,305,-9.76023134954264,98.3464262705525,-41.8530396231193,-56.4933866474332
5.56783446978603,305,310,4.90252524869783,81.2398769059386,-44.2968323894927,-36.9430445164459
5.57253703268281,307,310,-4.87264581679581,76.3522913731918,-34.521661323999,-41.8306300491927
5.57723959557959,303,308,4.90252524869783,91.0150479714322,-49.1844179222395,-41.8306300491927
5.58194215847637,300,300,-19.5354024150363,117.89676840154,-44.2968323894927,-73.5999360120471
5.58664472137315,294,296,-9.76023134954264,142.334696065274,-63.8471745204799,-78.4875215447939
5.59134728426993,293,293,-19.5354024150363,152.109867130767,-61.4033817541065,-90.7064853766609
5.59604984716671,293,295,-9.76023134954264,147.222281598021,-66.2909672868533,-80.9313143111673
5.60075241006348,292,298,9.79011078144464,142.334696065274,-78.5099311187204,-63.8247649465534
5.60545497296026,295,298,-4.8726458167958,135.003317766154,-63.84717452048,-71.1561432456736
5.61015753585704,294,299,4.90252524869783,135.003317766154,-71.1785528196002,-63.8247649465534
5.61486009875382,293,294,-14.6478168822894,149.666074364394,-63.8471745204799,-85.8188998439141
5.6195626616506,291,290,-24.4229879477831,164.328830962635,-63.84717452048,-100.481656442155
5.62426522454738,288,289,-14.6478168822894,174.104002028128,-76.066138352347,-98.0378636757812
5.62896778744416,288,285,-34.1981590132769,183.879173093622,-66.2909672868532,-117.588205806769
5.63367035034094,286,287,-14.6478168822894,183.879173093622,-80.9537238850939,-102.925449208528
5.63837291323771,284,289,4.90252524869805,183.879173093622,-95.6164804833345,-88.2626926102874
5.64307547613449,284,287,-4.87264581679582,188.766758626369,-90.7288949505875,-98.0378636757813
5.64777803903127,281,285,0.0149397159510158,200.985722458236,-100.504066016081,-100.481656442155
5.65248060192805,285,292,14.6776963141917,174.104002028128,-98.0602732497079,-76.0437287784204
5.65718316482483,293,300,14.6776963141915,135.003317766154,-78.5099311187204,-56.4933866474332
5.66188572772161,298,306,19.5652818469383,108.121597336046,-68.7347600532268,-39.3868372828193
5.66658829061839,299,307,19.5652818469383,103.234011803299,-66.2909672868533,-36.9430445164459
5.67129085351517,300,307,14.6776963141915,100.790219036926,-61.4033817541065,-39.3868372828193
5.67599341641194,301,304,-4.87264581679581,105.677804569673,-49.1844179222395,-56.4933866474332
5.68069597930872,297,301,0.0149397159510016,122.784353934287,-61.4033817541065,-61.38097218018
5.6853985422055,292,292,-19.5354024150363,156.997452663514,-63.8471745204799,-93.1502781430344
5.69010110510228,285,281,-39.0857445460235,200.985722458236,-71.1785528196003,-129.807169638636
5.69480366799906,277,275,-29.3105734805299,235.198821187464,-95.6164804833344,-139.582340704129
5.69950623089584,274,276,-9.76023134954261,240.08640672021,-112.723029847948,-127.363376872262
5.70420879379262,283,290,14.6776963141917,183.879173093622,-102.947858782455,-80.9313143111672
5.7089113566894,293,301,19.5652818469383,132.55952499978,-80.9537238850938,-51.6058011146864
5.71361391958617,298,309,34.2280384451787,100.790219036926,-76.066138352347,-24.7240806845789
5.71831648248295,298,305,14.6776963141915,110.56539010242,-66.2909672868533,-44.2744228155662
5.72301904537973,295,298,-4.8726458167958,135.003317766154,-63.84717452048,-71.1561432456736
5.72772160827651,292,294,-9.76023134954264,152.109867130767,-68.7347600532268,-83.3751070775407
5.73242417117329,291,294,-4.8726458167958,154.553659897141,-73.6223455859736,-80.9313143111673
5.73712673407007,293,296,-4.87264581679582,144.778488831647,-68.7347600532268,-76.0437287784205
5.74182929696685,294,297,-4.8726458167958,139.8909032989,-66.2909672868534,-73.5999360120471
5.74653185986363,294,298,0.0149397159510158,137.447110532527,-68.7347600532268,-68.7123504793002
5.7512344227604,294,297,-4.8726458167958,139.8909032989,-66.2909672868534,-73.5999360120471
5.75593698565718,296,300,0.0149397159510158,127.671939467033,-63.8471745204799,-63.8247649465534
5.76063954855396,299,301,-9.76023134954264,117.89676840154,-51.6282106886129,-66.2685577129268
5.76534211145074,297,301,0.0149397159510016,122.784353934287,-61.4033817541065,-61.38097218018
5.77004467434752,298,301,-4.87264581679581,120.340561167913,-56.5157962213597,-63.8247649465534
5.7747472372443,298,304,9.79011078144465,113.009182868793,-63.8471745204799,-49.162008348313
5.77944980014108,296,299,-4.87264581679581,130.115732233407,-61.4033817541065,-68.7123504793003
5.78415236303786,294,299,4.90252524869783,135.003317766154,-71.1785528196002,-63.8247649465534
5.78885492593463,295,298,-4.8726458167958,135.003317766154,-63.84717452048,-71.1561432456736
5.79355748883141,291,297,9.79011078144467,147.222281598021,-80.9537238850938,-66.2685577129268
5.79826005172819,293,296,-4.87264581679582,144.778488831647,-68.7347600532268,-76.0437287784205
5.80296261462497,291,297,9.79011078144467,147.222281598021,-80.9537238850938,-66.2685577129268
5.80766517752175,294,302,19.5652818469383,127.671939467033,-78.5099311187204,-49.162008348313
5.81236774041853,298,302,0.0149397159510158,117.89676840154,-58.9595889877331,-58.9371794138066
5.81707030331531,298,304,9.79011078144465,113.009182868793,-63.8471745204799,-49.162008348313
5.82177286621209,299,302,-4.87264581679581,115.452975635166,-54.0720034549863,-61.38097218018
5.82647542910886,294,298,0.0149397159510158,137.447110532527,-68.7347600532268,-68.7123504793002
5.83117799200564,295,298,-4.8726458167958,135.003317766154,-63.84717452048,-71.1561432456736
5.83588055490242,294,297,-4.8726458167958,139.8909032989,-66.2909672868534,-73.5999360120471
5.8405831177992,293,297,0.0149397159510158,142.334696065274,-71.1785528196002,-71.1561432456736
5.84528568069598,296,300,0.0149397159510158,127.671939467033,-63.8471745204799,-63.8247649465534
5.84998824359276,300,304,0.0149397159510158,108.121597336046,-54.0720034549863,-54.0495938810598
5.85469080648954,301,306,4.90252524869783,100.790219036926,-54.0720034549863,-46.7182155819396
5.85939336938632,304,310,9.79011078144465,83.683669672312,-49.1844179222395,-34.4992517500725
5.86409593228309,304,306,-9.76023134954262,93.4588407378056,-39.4092468567459,-54.0495938810598
5.86879849517987,301,305,0.0149397159510016,103.234011803299,-51.6282106886129,-51.6058011146864
5.87350105807665,300,302,-9.76023134954262,113.009182868793,-49.1844179222395,-63.8247649465534
5.87820362097343,300,301,-14.6478168822894,115.452975635166,-46.7406251558661,-68.7123504793003
5.88290618387021,298,300,-9.76023134954262,122.784353934287,-54.0720034549863,-68.7123504793002
5.88760874676699,295,300,4.90252524869784,130.115732233407,-68.7347600532268,-61.38097218018
5.89231130966377,294,294,-19.5354024150363,147.222281598021,-58.9595889877331,-88.2626926102875
5.89701387256054,293,295,-9.76023134954264,147.222281598021,-66.2909672868533,-80.9313143111673
5.90171643545732,294,299,4.90252524869783,135.003317766154,-71.1785528196002,-63.8247649465534
5.9064189983541,298,304,9.79011078144465,113.009182868793,-63.8471745204799,-49.162008348313
5.91112156125088,300,309,24.4528673796851,95.9026335041791,-66.2909672868533,-29.6116662173257
5.91582412414766,302,311,24.4528673796851,86.1274624386854,-61.4033817541065,-24.7240806845789
5.92052668704444,304,312,19.5652818469383,78.7960841395652,-54.0720034549863,-24.7240806845789
5.92522924994122,303,309,9.79011078144464,88.5712552050588,-51.6282106886129,-36.9430445164459
5.929931812838,301,307,9.79011078144464,98.3464262705525,-56.5157962213597,-41.8306300491927
