t,leadI,leadII,leadIII,aVR,aVL,aVF
0,404.833739291787,549.254358992293,144.420619700506,-477.04404914204,130.20655979564,346.837489346399
0.00215982721382289,402.854668015375,525.437285660193,122.582617644819,-464.145976837784,140.136025185278,324.009951652506
0.00431965442764579,401.582638917463,513.788569578147,112.205930660684,-457.685604247805,144.68835412839,312.997250119415
0.00647948164146868,398.934809071673,504.610604238291,105.675795166618,-451.772706654982,146.629506952527,305.143199702455
0.00863930885529158,401.434182547477,500.058412095159,98.6242295476819,-450.746297321318,151.404976499897,299.34132082142
0.0107991360691145,404.240259731075,493.639800714129,89.3995409830542,-448.940030222602,157.42035937401,291.519670848592
0.0129589632829374,407.084934043079,483.017385436527,75.9324513934487,-445.051159739803,165.576241324815,279.474918414988
0.0151187904967603,408.885809295896,470.7722821372,61.8864728413041,-439.829045716548,173.499668227296,266.329377489252
0.0172786177105832,407.134841829407,459.501235197572,52.3663933681653,-433.318038513489,177.384224230621,255.933814282869
0.019438444924406,407.504439803801,454.849118861579,47.3446790577773,-431.17677933269,180.079880373012,251.096898959678
0.0215982721382289,405.498919889274,454.338209594666,48.8392897053919,-429.91856474197,178.329815091941,251.588749650029
0.0237580993520518,403.758184448161,456.184016093871,52.4258316457094,-429.971100271016,175.666176401226,254.30492386979
0.0259179265658747,406.335769312252,459.434883202908,53.099113890656,-432.88532625758,176.618327710798,256.266998546782
0.0280777537796976,405.944001041308,460.893276659146,54.9492756178385,-433.418638850227,175.497362711735,257.921276138492
0.0302375809935205,409.471829592045,457.497912642508,48.0260830504632,-433.484871117276,180.722873270791,252.761997846486
0.0323974082073434,407.969836187324,451.790649008056,43.8208128207321,-429.88024259769,182.074511683296,247.805730914394
0.0345572354211663,406.966472763359,446.239038209026,39.2725654456669,-426.602755486192,183.846953658846,242.755801827346
0.0367170626349892,407.408840379929,446.359348986553,38.9505086066242,-426.884094683241,184.229165886652,242.654928796589
0.0388768898488121,407.138928572665,447.263003512244,40.1240749395794,-427.200966042454,183.507426816543,243.693539225912
0.041036717062635,409.487019586212,454.417774470467,44.9307548842552,-431.952397028339,182.278132350978,249.674264677361
0.0431965442764579,408.887865227711,462.274404009166,53.3865387814553,-435.581134618438,177.750663223128,257.830471395311
0.0453563714902808,406.790396901749,468.551356605102,61.760959703353,-437.670876753425,172.514718599198,265.156158154228
0.0475161987041037,408.577318950704,471.762493096165,63.1851741454609,-440.169906023434,172.696072402622,267.473833620813
0.0496760259179266,409.373981244164,474.295404608991,64.9214233648264,-441.834692926577,172.226278939669,269.608413986908
0.0518358531317495,414.759505425715,476.828996901248,62.069491475533,-445.794251163481,176.345006975091,269.44924418839
0.0539956803455724,420.883106063077,483.182367409158,62.2992613460817,-452.032736736117,179.291922358497,272.74081437762
0.0561555075593952,424.71030750162,494.089734468136,69.3794269665158,-459.400020984878,177.665440267552,281.734580717326
0.0583153347732181,424.734893008193,510.452362666816,85.7174696586233,-467.593627837504,169.508711674785,298.08491616272
0.060475161987041,421.728801468783,530.905235402545,109.176433933762,-476.317018435664,156.27618376751,320.040834668153
0.0626349892008639,418.758293225381,550.869796273764,132.111503048383,-484.814044749572,143.323395088499,341.490649661074
0.0647948164146868,416.485909228078,567.962860476571,151.476951248493,-492.224384852324,132.504478989793,359.719905862532
0.0669546436285097,412.460080541154,573.226212645172,160.766132104018,-492.843146593163,125.846974218568,366.996172374595
0.0691144708423326,407.515352390813,576.665264734577,169.149912343764,-492.090308562695,119.182720023524,372.90758853917
0.0712742980561555,406.535307389639,574.091169721082,167.555862331443,-490.31323855536,119.489722529098,370.823516026262
0.0734341252699784,405.661256993097,572.705826338867,167.044569345771,-489.183541665982,119.308343823663,369.875197842319
0.0755939524838013,406.520973469528,575.218356978424,168.697383508897,-490.869665223976,118.911794980316,371.95787024366
0.0777537796976242,409.061444635132,580.456619512627,171.395174877494,-494.75903207388,118.833134878819,375.925897195061
0.0799136069114471,407.620488757933,582.314448792997,174.693960035064,-494.967468775465,116.463264361434,378.50420441403
0.08207343412527,407.678062558829,583.868825544671,176.190762985841,-495.77344405175,115.743649786494,380.029794265256
0.0842332613390929,408.422400354254,576.750441851872,168.328041497619,-492.586421103063,120.047179428317,372.539241674746
0.0863930885529158,409.896727378921,570.770763367378,160.874035988457,-490.33374537315,124.511345695232,365.822399677918
0.0885529157667387,412.964390965896,561.672189462972,148.707798497076,-487.318290214434,132.12829623441,355.189993980024
0.0907127429805616,412.913169345965,554.372621077167,141.459451731201,-483.642895211566,135.726858807382,347.916036404184
0.0928725701943845,409.760961665207,547.823638799717,138.06267713451,-478.792300232462,135.849142265348,342.943157967114
0.0950323974082073,404.283491221325,545.02830948187,140.744818260545,-474.655900351598,131.76933648039,342.886563871208
0.0971922246220302,400.407950610157,547.088142754759,146.680192144602,-473.748046682458,126.863879232777,346.884167449681
0.0993520518358531,400.465008447166,545.831572857762,145.366564410596,-473.148290652464,127.549222018285,345.599068634179
0.101511879049676,398.861609742063,540.603822274295,141.742212532232,-469.732716008179,128.559698604915,341.173017403264
0.103671706263499,398.784423115786,533.088315947534,134.303892831748,-465.93636953166,132.240265142019,333.696104389641
0.105831533477322,398.690006146695,522.973271695328,124.283265548633,-460.831638921011,137.203370299031,323.62826862198
0.107991360691145,398.631443985084,512.145296829749,113.513852844665,-455.388370407416,142.558795570209,312.829574837207
0.110151187904968,394.670541568427,504.542154266201,109.871612697774,-449.606347917314,142.399464435327,307.206883481987
0.11231101511879,391.569769174923,502.525540942391,110.955771767468,-447.047655058657,140.306998703727,306.74065635493
0.114470842332613,391.668024436679,505.603866483047,113.935842046368,-448.635945459863,138.866091195156,309.769854264707
0.116630669546436,394.107885549764,508.63383086344,114.525945313675,-451.370858206602,139.790970118044,311.579888088558
0.118790496760259,398.054704182728,506.794020507203,108.739316324475,-452.424362344965,144.657693929127,307.766668415839
0.120950323974082,401.13911818804,504.031968528793,102.892850340753,-452.585543358416,149.123133923643,303.462409434773
0.123110151187905,404.217413751451,496.089188912877,91.8717751614262,-450.153301332164,156.172819295012,293.980482037152
0.125269978401728,403.388284459336,486.585180895731,83.1968964363955,-444.986732677533,160.09569401147,284.891038666063
0.127429805615551,401.06592701033,481.211092071483,80.145165061153,-441.138509540907,160.460380974589,280.678128566318
0.129589632829374,398.804324731613,480.02705583856,81.2227311069469,-439.415690285087,158.790796812333,280.624893472753
0.131749460043197,398.108181139894,483.294278356391,85.1860972164964,-440.701229748142,156.461041961699,284.240187786443
0.133909287257019,398.106702092897,487.330720734254,89.2240186413571,-442.718711413575,154.44134172577,288.277369687806
0.136069114470842,397.995271933623,490.360418350688,92.3651464170649,-444.177845142155,152.815062758279,291.362782383876
0.138228941684665,400.225909173781,485.157666447574,84.931757273793,-442.691787810677,157.647075949994,285.044711860683
0.140388768898488,397.755813407492,477.846945938299,80.0911325308075,-437.801379672896,158.832340438342,278.969039234553
0.142548596112311,397.011511518911,466.602209021853,69.5906975029421,-431.806860270382,163.710407007984,268.096453262397
0.144708423326134,394.795257192476,461.176836376108,66.3815791836317,-427.986046784292,164.206839004422,263.77920777987
0.146868250539957,391.794597058762,459.260797277464,67.4662002187016,-425.527697168113,162.16419842003,263.363498748083
0.14902807775378,388.680964147239,461.849210242812,73.1682460955726,-425.265087195026,157.756359025833,267.508728169192
0.151187904967603,386.193806333799,465.972391257279,79.7785849234801,-426.083098795539,153.20761070516,272.87548809038
0.153347732181425,384.389118542836,468.21923119998,83.830112657144,-426.304174871408,150.279502942846,276.024671928562
0.155507559395248,386.578756104939,466.141540341916,79.5627842369767,-426.360148223428,153.507985933981,272.852162289446
0.157667386609071,389.711386801375,460.352232946348,70.6408461449735,-425.031809873861,159.535270328201,265.496539545661
0.159827213822894,393.823140846349,453.043320575273,59.2201797289245,-423.433230710811,167.301480558712,256.131750152099
0.161987041036717,398.04031689248,448.422028453622,50.3817115611423,-423.231172673051,173.829302665669,249.401870007382
0.16414686825054,399.832698524032,448.13030615126,48.2976076272276,-423.981502337646,175.767545448402,248.213956889244
0.166306695464363,402.253425342981,452.335722841863,50.0822974988824,-427.294574092422,176.085563922049,251.209010170373
0.168466522678186,406.069524283887,459.636034971052,53.5665106871654,-432.85277962747,176.251506798361,256.601272829109
0.170626349892009,413.74872933192,470.594257831874,56.8455284999541,-442.171493581897,178.451600415983,263.719893165914
0.172786177105832,426.23228759273,477.222436260307,50.9901486675761,-451.727361926518,187.621069462577,264.106292463941
0.174946004319654,443.645138672383,479.366766061749,35.7216273893666,-461.505952367066,203.961755641508,257.544196725558
0.177105831533477,465.22707480462,484.792784166438,19.5657093618183,-475.009929485529,222.830682721401,252.179246764128
0.1792656587473,486.141108160564,492.130531826585,5.98942366602091,-489.135819993574,240.075842247271,249.059977746303
0.181425485961123,507.841993001531,502.19575358578,-5.64623941575167,-505.018873293656,256.744116208642,248.274757085014
0.183585313174946,530.200267296492,520.693341344245,-9.50692595224621,-525.446804320369,269.853596624369,255.593207696
0.185745140388769,549.977730369836,540.66076516288,-9.31696520695664,-545.319247766358,279.647347788397,265.671899977962
0.187904967602592,557.689780507639,557.132743981513,-0.557036526125785,-557.411262244576,279.123408516882,278.287853727694
0.190064794816415,551.889074547049,561.377847613761,9.48877306671159,-556.633461080405,271.200150740169,285.433310340236
0.192224622030238,535.906555081369,557.239834624647,21.3332795432781,-546.573194853008,257.286637769045,289.286557083962
0.19438444924406,514.569744884021,543.715944848467,29.1461999644451,-529.142844866244,242.711772459788,286.431072406456
0.196544276457883,491.770639418677,528.099463333647,36.3288239149695,-509.935051376162,227.720907751854,282.214143624308
0.198704103671706,472.895282441255,513.512889480954,40.6176070396987,-493.204085961105,216.138837700778,277.065248260326
0.200863930885529,452.23527917279,506.432477337038,54.1971981642487,-479.333878254914,199.019040504271,280.314837750644
0.203023758099352,436.134727709901,501.551062627781,65.41633491788,-468.842895168841,185.35919639601,283.48369877283
0.205183585313175,423.938107369612,501.181059536073,77.2429521664609,-462.559583452842,173.347577601575,289.212005851267
0.207343412526998,416.633613313987,496.699036668099,80.0654233541117,-456.666324991043,168.284094979938,288.382230011105
0.209503239740821,408.779605541293,487.990268596556,79.2106630552633,-448.384937068925,164.784471243015,283.60046582591
0.211663066954644,403.513387307276,477.12980703555,73.6164197282744,-440.321597171413,164.948483789501,275.373113381912
0.213822894168467,403.032967854349,465.688364468319,62.6553966139699,-434.360666161334,170.188785620189,264.171880541144
0.215982721382289,403.945405640263,458.249099749673,54.3036941094097,-431.097252694968,174.820855765427,256.276396929541
0.218142548596112,402.979036548428,454.925764871282,51.9467283228537,-428.952400709855,175.516154112787,253.436246597068
0.220302375809935,402.619998223288,457.685376774229,55.0653785509403,-430.152687498759,173.777309836174,256.375377662585
0.222462203023758,403.899571743766,461.876654535982,57.9770827922156,-432.888113139874,172.961244475775,259.926868664099
0.224622030237581,403.060163967512,466.157020836961,63.0968568694489,-434.608592402237,169.981653549032,264.626938853205
0.226781857451404,401.737599342962,462.462607603286,60.7250082603235,-432.100103473124,170.506295541319,261.593807931805
0.228941684665227,401.358992711686,457.490795062391,56.1318023507051,-429.424893887039,172.613595180491,256.811298706548
0.23110151187905,400.855817952667,448.643037966162,47.7872200134946,-424.749427959414,176.534298969586,248.215128989828
0.233261339092873,399.228353157645,442.75294967265,43.5245965150054,-420.990651415148,177.85187832132,243.138773093828
0.235421166306695,396.484843851145,436.77423711859,40.2893932674451,-416.629540484867,178.09772529185,238.531815193017
0.237580993520518,392.058595931941,439.18805591374,47.1294599817996,-415.623325922841,172.464567975071,243.15875794777
0.239740820734341,391.016537941673,443.164763640495,52.1482256988226,-417.090650791084,169.434156121425,247.656494669659
0.241900647948164,391.147015958794,445.902391549949,54.755375591155,-418.524703754372,168.19582018382,250.328883570552
0.244060475161987,389.198716295274,444.873658252687,55.6749419574134,-417.03618727398,166.76188716893,250.27430010505
0.24622030237581,387.280791694263,441.84206509108,54.5612733968168,-414.561428392671,166.359759148723,248.201669243948
0.248380129589633,388.266830559261,436.380166077415,48.1133355181549,-412.323498318338,170.076747520553,242.246750797785
0.250539956803456,389.634703509583,429.636056461141,40.0013529515581,-409.635379985362,174.816675279013,234.81870470635
0.252699784017279,389.922305097079,423.368154262526,33.4458491654468,-406.645229679803,178.238227965816,228.407001713987
0.254859611231102,387.865517505778,425.438967759229,37.5734502534507,-406.652242632504,175.146033626164,231.50620900634
0.257019438444924,387.751008201992,430.016963777577,42.2659555755848,-408.883985989785,172.742526313204,236.141459676581
0.259179265658747,387.287749479061,435.204967794563,47.9172183155011,-411.246358636812,169.68526558178,241.561093055032
0.26133909287257,391.037892014275,436.841237880036,45.8033458657612,-413.939564947156,172.617273074257,241.322291872899
0.263498920086393,390.684569717086,435.725725114499,45.0411553974135,-413.205147415792,172.821707159836,240.383440255956
0.265658747300216,390.69762816513,431.241413958759,40.5437857936295,-410.969521061945,175.07692118575,235.892599876194
0.267818574514039,391.055440743953,425.229558080294,34.1741173363419,-408.142499412124,178.440661703805,229.701837708318
0.269978401727862,389.648410859798,419.489494073425,29.8410832136274,-404.568952466612,179.903663823085,224.665288643526
0.272138228941685,389.258121665653,419.657818231511,30.3996965658581,-404.457969948582,179.429212549898,225.028757398685
0.274298056155508,390.941829987198,424.850180110618,33.9083501234198,-407.896005048908,178.516739931889,229.379265117019
0.27645788336933,393.854313601958,430.885283144941,37.0309695429829,-412.36979837345,178.411672029488,233.958126343962
0.278617710583153,396.863970493723,435.94639341669,39.0824229229666,-416.405181955207,178.890773785378,237.514408169828
0.280777537796976,399.56332095086,436.714838351647,37.1515174007876,-418.139079651254,181.205901775036,236.933177876217
0.282937365010799,399.358119178612,432.407800741189,33.0496815625769,-415.8829599599,183.154218808018,232.728741151883
0.285097192224622,398.758192310374,428.745116216632,29.9869239062573,-413.751654263503,184.385634202058,229.366020061444
0.287257019438445,394.973258700013,421.990881672331,27.0176229723183,-408.482070186172,183.977817863847,224.504252322325
0.289416846652268,392.372820117587,418.704914088455,26.3320939708677,-405.538867103021,183.02036307336,222.518504029661
0.291576673866091,393.484373396895,422.132206941094,28.6478335441992,-407.808290168995,182.418269926348,225.390020242647
0.293736501079914,394.922804937573,426.596378273915,31.6735733363423,-410.759591605744,181.624615800615,229.134975805129
0.295896328293737,395.472400262861,432.643397694296,37.1709974314355,-414.057898978578,179.150701415713,234.907197562866
0.298056155507559,394.776078219032,432.073927392427,37.2978491733947,-413.42500280573,178.739114522819,234.685888282911
0.300215982721382,394.360705526823,430.319488066725,35.9587825399028,-412.340096796774,179.20096149346,233.139135303314
0.302375809935205,394.496673978541,426.655542026012,32.1588680474716,-410.576108002276,181.168902965535,229.407205036742
0.304535637149028,396.403735675328,420.531892886141,24.1281572108137,-408.467814280734,186.137789232257,222.330025048477
0.306695464362851,398.005434763983,417.810996804539,19.8055620405555,-407.908215784261,189.099936361714,218.808279422547
0.308855291576674,400.088658160956,420.277664492048,20.1890063310921,-410.183161326502,189.949825914932,220.23333541157
0.311015118790497,403.924514833347,427.11024496242,23.1857301290736,-415.517379897884,190.369392352137,225.147987545747
0.31317494600432,407.498920625296,434.090117633806,26.5911970085102,-420.794519129551,190.453861808393,230.340657321158
0.315334773218143,404.996894446093,436.908091485383,31.9111970392905,-420.952492965738,186.542848703401,234.409644262337
0.317494600431965,402.06207546617,435.32005821438,33.2579827482103,-418.691066840275,184.40204635898,234.289020481295
0.319654427645788,399.054617011376,429.31228173729,30.2576647259135,-414.183449374333,184.398476142731,229.784973231602
0.321814254859611,401.136643846383,423.881321644353,22.7446777979699,-412.508982745368,189.195983024206,223.312999721161
0.323974082073434,402.926657268855,418.58963173238,15.662974463525,-410.758144500618,193.631841402665,217.126303097953
0.326133909287257,405.078224544967,418.49610866698,13.4178841220134,-411.787166605973,195.830170211477,215.956996394497
0.32829373650108,404.849377827344,423.664556905682,18.8151790783384,-414.256967366513,193.017099374503,221.23986799201
0.330453563714903,403.481739070673,429.914522153235,26.4327830825618,-416.698130611954,188.524477994056,228.173652617898
0.332613390928726,403.233815615645,432.903408116554,29.6695925009089,-418.068611866099,186.782111557368,231.286500308731
0.334773218142549,402.680999725391,433.092448023986,30.4114482985946,-417.886723874688,186.134775713398,231.75194816129
0.336933045356371,403.755633942726,430.366580992811,26.6109470500851,-417.061107467768,188.57234344632,228.488764021448
0.339092872570194,402.797327151506,426.48563796648,23.6883108149743,-414.641482558993,189.554508168266,225.086974390727
0.341252699784017,403.870113633241,417.062494829134,13.1923811958921,-410.466304231187,195.338866218675,215.127438012513
0.34341252699784,406.000269564407,415.1923993178,9.19212975339275,-410.596334441103,198.404069905507,212.192264535596
0.345572354211663,405.67545512482,420.24846455276,14.57300942794,-412.96195983879,195.55122284844,217.41073699035
0.347732181425486,408.173374157541,428.104683455651,19.9313092981097,-418.139028806596,194.121032429716,224.01799637688
0.349892008639309,409.459208679684,434.400174718662,24.9409660389773,-421.929691699173,192.259121320354,229.670570378819
0.352051835853132,411.311941552992,436.345712239302,25.0337706863108,-423.828826896147,193.13908543334,230.689741462807
0.354211663066955,410.880667790741,435.330514753294,24.449846962553,-423.105591272017,193.215410414094,229.890180857923
0.356371490280778,409.2239136185,429.883093160948,20.6591795424488,-419.553503389724,194.282367038025,225.271136351699
0.3585313174946,407.971015996256,422.75988423414,14.7888682378843,-415.365450115198,196.591073879186,218.774376236012
0.360691144708423,409.294509392676,419.152227893562,9.85771850088599,-414.223368643119,199.718395445895,214.504973197224
0.362850971922246,411.27339082154,420.88759999164,9.61420917009963,-416.08049540659,200.82959082572,215.25090458087
0.365010799136069,412.868589401452,427.883692113208,15.0151027117558,-420.37614075733,198.926743344848,221.449397412482
0.367170626349892,410.902503648108,434.224496625964,23.3219929778559,-422.563500137036,193.790255335126,228.77324480191
0.369330453563715,413.559382750501,437.892976415409,24.3335936649079,-425.726179582955,194.612894542796,231.113285040158
0.371490280777538,413.221277781804,437.828874201316,24.6075964195111,-425.52507599156,194.306840681147,231.218235310413
0.373650107991361,416.450334958214,434.07043799156,17.6201030333463,-425.260386474887,199.415115962434,225.845270512453
0.375809935205184,417.649670919524,427.731828859655,10.082157940131,-422.69074988959,203.783756489697,218.906993399893
0.377969762419006,418.155244044878,424.798643882447,6.64339983756992,-421.476943963663,205.755922103654,215.721021860009
0.380129589632829,421.626788620699,424.774248517887,3.14745989718813,-423.200518569293,209.239664361756,213.960854207538
0.382289416846652,421.528752057571,430.051481720309,8.52272966273762,-425.79011688894,206.503011197417,219.287105691523
0.384449244060475,421.102498931381,437.965524045065,16.8630251136849,-429.534011488223,202.119736908848,227.414274579375
0.386609071274298,419.027027077931,439.363614455424,20.3365873774927,-429.195320766677,199.345219850219,229.850100916458
0.388768898488121,416.399182067686,438.691210272729,22.2920282050437,-427.545196170207,197.053576931321,230.491619238886
0.390928725701944,416.544057589288,436.679712334329,20.135654745041,-426.611884961809,198.204201422124,228.407683539685
0.393088552915767,419.361933344128,431.169429599338,11.8074962552103,-425.265681471733,203.777218544459,221.488462927274
0.39524838012959,421.396944184766,425.734633360961,4.33768917619557,-423.565788772864,208.529627504285,215.036161268578
0.397408207343413,424.755612089624,425.502443618243,0.746831528618486,-425.129027853934,212.004390280503,213.124637573431
0.399568034557235,426.951937200232,430.601245159065,3.64930795883299,-428.776591179649,211.6513146207,217.125276558949
0.401727861771058,426.527334124808,436.0909724677,9.56363834289164,-431.309153296254,208.481847890958,222.827305405296
0.403887688984881,422.964167820231,440.793762519677,17.8295946994467,-431.878965169954,202.567286560392,229.311678609562
0.406047516198704,422.858236197737,442.728243926546,19.870007728809,-432.793240062142,201.494114234464,231.299125827678
0.408207343412527,423.082198472192,440.90539252138,17.8231940491883,-431.993795496786,202.629502211502,229.364293285284
0.41036717062635,425.856020773188,436.23243797937,10.3764172061818,-431.044229376279,207.739801783503,223.304427592776
0.412526997840173,426.156625410549,429.874357680183,3.71773226963444,-428.015491545366,211.219446570457,216.796044974909
0.414686825053996,424.599926659126,424.651508838581,0.0515821794548401,-424.625717748853,212.274172239835,212.351545509018
0.416846652267819,425.162555977583,427.975148947734,2.81259297015151,-426.568852462658,211.174981503716,215.393870958943
0.419006479481641,425.626557396669,435.01012360206,9.38356620539065,-430.318340499365,208.121495595639,222.196844903725
0.421166306695464,428.582536758928,442.210479948836,13.6279431899081,-435.396508353882,207.47729678451,227.919211569372
0.423326133909287,428.591654657862,446.727208783534,18.1355541256726,-437.659431720698,205.228050266095,232.431381454604
0.42548596112311,425.629587619929,445.077494638344,19.4479070184141,-435.353541129136,203.090840300758,232.262700828379
0.427645788336933,425.11418704688,438.878005990044,13.7638189431636,-431.996096518462,205.675184051858,226.320912466604
0.429805615550756,421.315891708933,430.861202223878,9.54531051494553,-426.088546966406,205.885290596994,220.203256369412
0.431965442764579,418.907856883251,423.889624910982,4.9817680277306,-421.398740897117,206.96304442776,214.435696469356
0.434125269978402,417.919121614974,423.866043891757,5.94692227678325,-420.892582753365,205.986099669095,214.90648308427
0.436285097192225,419.264163754648,429.213220039691,9.9490562850433,-424.238691897169,204.657553734802,219.581138162367
0.438444924406048,420.696797961165,437.223024444682,16.5262264835168,-428.959911202924,202.085285738824,226.874625464099
0.44060475161987,416.740018783466,437.889881775082,21.1498629916166,-427.314950279274,197.795077895925,229.519872383349
0.442764578833693,414.533811826612,435.62258802908,21.0887762024683,-425.078199927846,196.722517812072,228.355682115774
0.444924406047516,411.59639940965,431.159845905313,19.5634464956626,-421.378122657481,196.016476456994,225.361646200488
0.447084233261339,414.143603144916,426.356083623686,12.2124804787702,-420.249843384301,200.965561333073,219.284282051228
0.449244060475162,414.131724208626,418.481154795582,4.34943058695598,-416.306439502104,204.891146810835,211.415292691269
0.451403887688985,412.359114472445,413.490412288132,1.13129781568745,-412.924763380289,205.613908328379,207.31085505191
0.453563714902808,412.112158193885,416.275249157846,4.16309096396088,-414.193703675865,203.974533614962,210.219170060903
0.455723542116631,411.15394649742,424.231555428692,13.0776089312716,-417.692750963056,199.038168783074,218.654582179982
0.457883369330454,407.994723296439,425.796535377167,17.8018120807276,-416.895629336803,195.096455607856,221.799173728947
0.460043196544276,405.012224034361,425.321527722749,20.3093036883883,-415.166875878555,192.351460172986,222.815415705569
0.462203023758099,402.88942363841,421.843389476835,18.9539658384248,-412.366406557622,191.967728899992,220.39867765763
0.464362850971922,401.470168626025,414.729724199885,13.2595555738602,-408.099946412955,194.105306526082,213.994639886873
0.466522678185745,399.058781108898,404.390302208715,5.33152109981756,-401.724541658806,196.86363000454,204.860911654266
0.468682505399568,397.253817670954,398.412800430421,1.15898275946711,-397.833309050688,198.047417455744,199.785891594944
0.470842332613391,393.797343302167,398.611385609253,4.81404230708517,-396.20436445571,194.491650497541,201.712713958169
0.473002159827214,392.034491079308,400.903968062111,8.86947698280244,-396.469229570709,191.582507048253,204.886722522456
0.475161987041037,388.897535930308,403.320421339913,14.4228854096041,-396.10897863511,187.237325260352,208.871653374758
0.47732181425486,387.547062558279,406.207750591234,18.6606880329547,-396.877406574756,184.443187262662,212.434219312094
0.479481641468682,387.844221573117,403.731198305382,15.8869767322654,-395.78770993925,185.978622420426,209.809087518824
0.481641468682505,390.400976283971,397.529045343872,7.1280690599001,-393.965010813922,191.636453612036,202.328557201886
0.483801295896328,391.926679574665,389.538855699977,-2.38782387468854,-390.732767637321,197.157251724677,193.575515912644
0.485961123110151,390.071743200723,384.190168338567,-5.88157486215596,-387.130955769645,197.976659031439,189.154296738205
0.488120950323974,388.17837607293,381.006912907363,-7.17146316556705,-384.592644490146,197.674919619248,186.917724870898
0.490280777537797,386.438025612817,387.140942414525,0.702916801708341,-386.789484013671,192.867554405554,193.921929608117
0.49244060475162,383.35915986053,389.56874858104,6.20958872051068,-386.463954220785,188.574785570009,197.889168650775
0.494600431965443,385.236076501542,393.395361462377,8.15928496083529,-389.31571898196,188.538395770353,200.777323211606
0.496760259179266,387.912914170116,394.297106432959,6.3841922628427,-391.105010301537,190.764360953637,200.340649347901
0.498920086393089,389.612872634139,389.831117895892,0.218245261752827,-389.721995265016,194.697313686193,195.024681578823
0.501079913606911,391.062029323294,383.443076221153,-7.61895310214157,-387.252552772223,199.340491212718,187.912061559506
0.503239740820734,386.795970021071,376.378809177142,-10.4171608439291,-381.587389599107,198.6065654325,182.980824166607
0.505399568034557,384.159314940276,371.410948046703,-12.7483668935737,-377.78513149349,198.453840916925,179.331290576564
0.50755939524838,383.312323730285,374.211464503422,-9.10085922686329,-378.761894116854,196.206591478574,182.555302638279
0.509719222462203,382.687067304127,378.988562940652,-3.69850436347474,-380.837815122389,193.192785833801,187.645029288589
0.511879049676026,382.956158308843,382.915709215299,-0.0404490935433728,-382.935933762071,191.498303701193,191.437630060878
0.514038876889849,384.736266538506,383.995331181502,-0.74093535700456,-384.365798860004,192.738600947755,191.627197912248
0.516198704103672,387.909559932253,383.661869997986,-4.24768993426653,-385.78571496512,196.07862493326,189.70709003186
0.518358531317495,392.489547939794,378.126418243048,-14.3631296967451,-385.307983091421,203.426338818269,181.881644273152
0.520518358531317,394.635582907282,372.577266232664,-22.0583166746178,-383.606424569973,208.34694979095,175.259474779023
0.52267818574514,393.715198426034,369.827480601929,-23.8877178241059,-381.771339513982,208.80145812507,172.969881388911
0.524838012958963,392.196045118717,370.07811817971,-22.1179269390072,-381.137081649213,207.156986028862,173.980095620351
0.526997840172786,390.820926319818,373.986251177136,-16.8346751426821,-382.403588748477,203.82780073125,178.575788017227
0.529157667386609,387.850174369886,377.973928987017,-9.87624538286929,-382.912051678451,198.863209876378,184.048841802074
0.531317494600432,387.903928993988,380.007851487617,-7.89607750637066,-383.955890240803,197.900003250179,186.055886990623
0.533477321814255,386.175434276646,377.460185591366,-8.71524868527962,-381.817809934006,197.445341480963,184.372468453043
0.535637149028078,385.936738088947,371.214875477963,-14.7218626109839,-378.575806783455,200.329300349965,178.246506433489
0.537796976241901,387.352507577454,364.823743425191,-22.5287641522629,-376.088125501323,204.940635864858,171.147489636464
0.539956803455723,385.779054771907,357.947703672909,-27.8313510989978,-371.863379222408,206.805202935452,165.058176286956
0.542116630669546,387.567362419675,357.228866269659,-30.3384961500167,-372.398114344667,208.952929284846,163.445185059821
0.544276457883369,384.643650117269,360.24348913564,-24.4001609816282,-372.443569626455,204.521905549448,167.921664077006
0.546436285097192,386.36840585684,365.849784652578,-20.5186212042623,-376.109095254709,203.443513530551,172.665581724158
0.548596112311015,387.08142853313,368.820310183678,-18.2611183494522,-377.950869358404,202.671273441291,175.279595917113
0.550755939524838,388.414859610433,369.627379763165,-18.7874798472679,-379.021119686799,203.601169728851,175.419949957949
0.552915766738661,388.946304243299,365.880726548245,-23.0655776950542,-377.413515395772,206.005940969176,171.407574426595
0.555075593952484,390.444615189753,355.512111481007,-34.9325037087452,-372.97836333538,212.688559449249,160.289803886131
0.557235421166307,392.185979586208,347.724072996751,-44.4619065894565,-369.955026291479,218.323943087832,151.631083203647
0.55939524838013,393.284419315714,343.663011286058,-49.6214080296556,-368.473715300886,221.452913672685,147.020801628201
0.561555075593952,392.749026222164,345.754181074619,-46.9948451475452,-369.251603648391,219.871935684854,149.379667963537
0.563714902807775,392.788861925412,348.152649370036,-44.6362125553758,-370.470755647724,218.712537240394,151.75821840733
0.565874730021598,392.573189597688,351.205435742405,-41.3677538552833,-371.889312670047,216.970471726486,154.918840943561
0.568034557235421,389.851148765814,348.196038905767,-41.6551098600477,-369.023593835791,215.753129312931,153.270464522859
0.570194384449244,388.020880085449,340.63233239102,-47.3885476944288,-364.326606238234,217.704713889939,146.621892348296
0.572354211663067,388.039145033825,328.751027688821,-59.2881173450046,-358.395086361323,223.663631189415,134.731455171908
0.57451403887689,390.691777097323,316.940742086924,-73.7510350103989,-353.816259592123,232.221406053861,121.594853538262
0.576673866090713,393.419763131269,306.364639987779,-87.0551231434894,-349.892201559524,240.237443137379,109.654758422145
0.578833693304536,392.027786650959,305.88209532443,-86.1456913265291,-348.954940987695,239.086738988744,109.868201998951
0.580993520518359,392.746978865798,308.15850076036,-84.5884781054377,-350.452739813079,238.667728485618,111.785011327461
0.583153347732181,392.45134800951,313.608359109602,-78.8429888999084,-353.029853559556,235.647168454709,117.382685104847
0.585313174946004,391.332310751668,317.103179560758,-74.2291311909101,-354.217745156213,232.780720971289,121.437024184924
0.587473002159827,391.980704972305,316.106110368376,-75.8745946039285,-354.043407670341,233.927649788117,120.115757882224
0.58963282937365,392.102833999121,313.12647098816,-78.9763630109608,-352.61465249364,235.539598505041,117.0750539886
0.591792656587473,390.821947286759,306.902770216403,-83.9191770703557,-348.862358751581,237.370562178557,111.491796573024
0.593952483801296,390.323095236859,304.933076647454,-85.3900185894046,-347.628085942157,237.856556913132,109.771529029025
0.596112311015119,392.005657188413,307.404898303822,-84.6007588845914,-349.705277746117,238.303208036502,111.402069709615
0.598272138228942,394.219711961916,316.63695565874,-77.5827563031758,-355.428333810328,235.901234132546,119.527099677782
0.600431965442765,395.485670646972,326.79928608278,-68.6863845641915,-361.142478364876,232.086027605582,129.056450759294
0.602591792656587,396.809428309955,334.389890634332,-62.4195376756234,-365.599659472143,229.614482992789,135.985176479354
0.60475161987041,399.160135653884,339.19450269562,-59.9656329582633,-369.177319174752,229.562884306073,139.614434868679
0.606911447084233,398.589525868522,338.029902191875,-60.5596236766474,-368.309714030199,229.574574772585,138.735139257614
0.609071274298056,400.513658450919,334.269700777413,-66.2439576735054,-367.391679614166,233.378808062212,134.012871551954
0.611231101511879,399.152212176245,330.591968932941,-68.5602432433039,-364.872090554593,233.856227709775,131.015862844819
0.613390928725702,395.944788829742,330.421340252159,-65.5234485775829,-363.18306454095,230.734118703662,132.448945837288
0.615550755939525,393.294480375338,336.221205585278,-57.0732747900601,-364.757842980308,225.183877582699,139.573965397609
0.617710583153348,391.373857242476,343.103782550234,-48.2700746922424,-367.238819896355,219.821965967359,147.416853928996
0.619870410367171,390.39533750417,350.807485549228,-39.5878519549422,-370.601411526699,214.991594729556,155.609816797143
0.622030237580994,392.85651566499,354.290213313046,-38.5663023519435,-373.573364489018,215.711409008467,157.861955480551
0.624190064794816,392.34858731308,355.775765522357,-36.5728217907229,-374.062176417718,214.460704551901,159.601471865817
0.626349892008639,395.04227347125,350.537920590734,-44.5043528805159,-372.790097030992,219.773313175883,153.016783855109
0.628509719222462,395.974910870133,345.955364021056,-50.0195468490763,-370.965137445595,222.997228859604,147.96790858599
0.630669546436285,398.239217559341,345.515816965128,-52.7234005942133,-371.877517262234,225.481309076777,146.396208185457
0.632829373650108,399.532565956676,350.247983950156,-49.2845820065194,-374.890274953416,224.408573981598,150.481700971819
0.634989200863931,399.253819183268,356.217512192756,-43.0363069905117,-377.735665688012,221.14506308689,156.590602601122
0.637149028077754,399.173037117311,363.235204221616,-35.937832895695,-381.204120669464,217.555435006503,163.648685662961
0.639308855291577,396.164689222778,367.78786488129,-28.3768243414881,-381.976277052034,212.270756782133,169.705520269901
0.6414686825054,397.264574257908,370.350099216007,-26.9144750419019,-383.807336736957,212.089524649905,171.717812087052
0.643628509719222,395.911999592268,364.440425041456,-31.4715745508128,-380.176212316862,213.691787071541,166.484425245321
0.645788336933045,393.537259527403,358.159299567266,-35.3779599601364,-375.848279547335,214.45760974377,161.390669803565
0.647948164146868,390.931710861731,353.470937842976,-37.4607730187547,-372.201324352354,214.196241940243,158.005082412111
0.650107991360691,391.422456586202,354.745273249418,-36.6771833367844,-373.08386491781,214.049819961493,159.034044956317
0.652267818574514,393.620240512122,360.592873141497,-33.0273673706246,-377.10655682681,213.323803941373,163.782752885436
0.654427645788337,396.84955600044,368.505567583869,-28.3439884165712,-382.677561792155,212.596772208506,170.080789583649
0.65658747300216,397.104617275194,375.699336688622,-21.4052805865719,-386.401976981908,209.254948930883,177.147028051025
0.658747300215983,395.019065546933,376.146278942254,-18.8727866046785,-385.582672244593,206.945926075806,178.636746168788
0.660907127429806,396.758584569032,374.339192065818,-22.4193925032135,-385.548888317425,209.588988536123,175.959899781302
0.663066954643629,395.867043020594,367.982183467384,-27.8848595532099,-381.924613243989,211.875951286902,170.048661957087
0.665226781857451,393.990462943783,361.469196342533,-32.5212666012498,-377.729829643158,213.255864772516,164.473964870641
0.667386609071274,393.695600812011,359.308314190664,-34.387286621347,-376.501957501338,214.041443716679,162.460513784659
0.669546436285097,391.996648728947,365.020960560331,-26.9756881686166,-378.508804644639,209.486168448782,169.022636195857
0.67170626349892,394.527886112188,372.195479508296,-22.3324066038912,-383.361682810242,208.430146358039,174.931536452203
0.673866090712743,398.015548211525,378.802786729654,-19.2127614818707,-388.409167470589,208.614154846698,179.795012623892
0.676025917926566,401.461267080137,384.253759400104,-17.2075076800332,-392.857513240121,209.334387380085,183.523125860036
0.678185745140389,403.101989510566,382.580873136849,-20.5211163737176,-392.841431323707,211.811552942142,181.029878381566
0.680345572354212,399.733285483991,376.982049056144,-22.7512364278468,-388.357667270067,211.242260955919,177.115406314148
0.682505399568035,400.226645399408,369.50075220225,-30.7258931971581,-384.863698800829,215.476269298283,169.387429502546
0.684665226781857,398.425647678182,367.131023039887,-31.294624638295,-382.778335359035,214.860136158239,167.918199200796
0.68682505399568,398.43465104207,368.742552064739,-29.6920989773315,-383.588601553405,214.063375009701,169.525226543704
0.688984881209503,401.030608258032,375.931001740506,-25.0996065175255,-388.480804999269,213.065107387779,175.41569761149
0.691144708423326,400.503295411788,383.469755027515,-17.0335403842728,-391.986525219651,208.76841789803,183.218107321621
0.693304535637149,399.061558579363,388.302659266243,-10.7588993131202,-393.682108922803,204.910228946242,188.771879976562
0.695464362850972,397.41444036463,386.752110734025,-10.6623296306048,-392.083275549327,204.038384997617,188.04489055171
0.697624190064795,394.818739416492,381.165924131104,-13.6528152853881,-387.992331773798,204.23577735094,183.756554422858
0.699784017278618,398.566696953306,374.384127863975,-24.1825690893314,-386.475412408641,211.374633021319,175.100779387322
0.701943844492441,400.057904150588,370.277269974028,-29.7806341765605,-385.167587062308,214.919269163574,170.248317898734
0.704103671706264,404.108939784166,372.556697140357,-31.5522426438092,-388.332818462262,217.830591213988,170.502227248274
0.706263498920086,406.688592267542,381.287658032211,-25.4009342353315,-393.988125149876,216.044763251437,177.94336189844
0.708423326133909,407.671809122547,388.878670107864,-18.793139014683,-398.275239615205,213.232474068615,185.04276554659
0.710583153347732,403.773952594185,394.632525521299,-9.14142707288636,-399.203239057742,206.457689833536,192.745549224206
0.712742980561555,406.083309197346,394.81360827848,-11.2697009188661,-400.448458737913,208.676505058106,191.771953679807
0.714902807775378,404.322925491661,391.699168146409,-12.6237573452511,-398.011046819035,208.473341418456,189.537705400579
0.717062634989201,406.535763888056,384.108969679884,-22.426794208173,-395.32236678397,214.481279048115,180.841087735855
0.719222462203024,404.079236411489,378.299133360467,-25.7801030510215,-391.189184885978,214.929669731255,176.259515154723
0.721382289416847,403.348077798833,377.242702218548,-26.1053755802852,-390.295390008691,214.726726689559,175.568663319131
0.72354211663067,402.715602112424,381.088694654371,-21.6269074580524,-391.902148383397,212.171254785238,179.730893598159
0.725701943844492,403.673642062874,389.459742208184,-14.2138998546898,-396.566692135529,208.943770958782,187.622921176747
0.727861771058315,404.53524037233,396.104873564574,-8.43036680775651,-400.320056968452,206.482803590043,193.837253378409
0.730021598272138,404.46659967896,399.617833216291,-4.84876646266815,-402.042216447625,204.657683070814,197.384533376812
0.732181425485961,401.130908851261,394.253136332894,-6.87777251836695,-397.692022592078,204.004340684814,193.687681907264
0.734341252699784,401.777638054775,388.298263185968,-13.4793748688064,-395.037950620372,207.628506461791,187.409444158581
0.736501079913607,404.109510261628,381.63096134993,-22.4785489116975,-392.870235805779,213.294029586663,179.576206219116
0.73866090712743,408.146527462623,380.429645737034,-27.7168817255883,-394.288086599829,217.931704594105,176.356382005723
0.740820734341253,410.663661252792,385.706757115883,-24.9569041369088,-398.185209184338,217.81028269485,180.374926489487
0.742980561555076,414.758324973721,393.987311568767,-20.7710134049533,-404.372818271244,217.764669189337,186.608149081907
0.745140388768899,418.775936229759,403.045477424941,-15.7304588048179,-410.91070682735,217.253197517289,193.657509310062
0.747300215982721,421.905046997259,408.292645509055,-13.6124014882043,-415.098846253157,217.758724242732,197.340122010425
0.749460043196544,421.801498436364,408.678728384354,-13.1227700520103,-415.240113410359,217.462134244187,197.777979166172
0.751619870410367,420.121849532821,402.856143769768,-17.2657057630529,-411.488996651295,218.693777647937,192.795219003358
0.75377969762419,416.918426418988,393.805182492177,-23.1132439268117,-405.361804455583,220.0158351729,185.345969282683
0.755939524838013,413.784792154901,388.495214120803,-25.2895780340979,-401.140003137852,219.537185094499,181.602818043352
0.758099352051836,409.886420494476,389.596048432887,-20.2903720615889,-399.741234463682,215.088396278033,184.652838185649
0.760259179265659,406.75853371071,392.945166537437,-13.8133671732733,-399.851850124074,210.285950441992,189.565899682082
0.762419006479482,405.164853508463,399.583801075573,-5.58105243289032,-402.374327292018,205.372952970677,197.001374321341
0.764578833693304,404.320874448934,403.357660798483,-0.963213650451223,-403.839267623709,202.642044049693,201.197223574016
0.766738660907127,405.061163249781,403.95223133495,-1.10893191483137,-404.506697292366,203.085047582306,201.421649710059
0.76889848812095,405.043765349249,398.319873053575,-6.72389229567415,-401.681819201412,205.883828822462,195.79799037895
0.771058315334773,402.695176478097,390.923428232211,-11.7717482458864,-396.809302355154,207.233462361992,189.575839993162
0.773218142548596,403.552702762061,383.925503844501,-19.6271989175598,-393.739103303281,211.58995083981,182.149152463471
0.775377969762419,402.007512577726,384.019752920621,-17.9877596571054,-393.013632749174,209.997636117416,183.015996631758
0.777537796976242,401.199991353297,385.573010879495,-15.6269804738016,-393.386501116396,208.413485913549,184.973015202847
0.779697624190065,401.133415568309,392.92096574045,-8.21244982785862,-397.02719065438,204.672932698084,192.354257956296
0.781857451403888,398.675135266582,397.575918512127,-1.09921675445452,-398.125526889355,199.887176010518,198.238350878836
0.784017278617711,397.854727269017,400.765268537107,2.91054126808984,-399.309997903062,197.472093000464,201.837904902599
0.786177105831533,397.110045968053,395.352917158109,-1.75712880994382,-396.231481563081,199.433587388998,196.797894174083
0.788336933045356,398.79436251288,388.857020558388,-9.93734195449161,-393.825691535634,204.365852233686,189.459839301948
0.790496760259179,398.868219024999,381.790179874891,-17.0780391501081,-390.329199449945,207.973129087553,182.356070362391
0.792656587473002,396.482403939517,376.911280165624,-19.5711237738927,-386.69684205257,208.026763856705,178.670078195866
0.794816414686825,392.431731887922,379.822905072047,-12.6088268158744,-386.127318479985,202.520279351898,183.607039128086
0.796976241900648,390.741220086475,385.45422787036,-5.28699221611527,-388.097723978418,198.014106151295,190.083617827122
0.799136069114471,389.09452382447,390.948416629579,1.85389280510907,-390.021470227024,193.62031550968,196.401154717344
0.801295896328294,392.291789382215,396.715614424132,4.42382504191625,-394.503701903173,193.93398217015,200.569719733024
0.803455723542117,394.753625970884,393.924155486573,-0.829470484311514,-394.338890728729,197.791548227598,196.547342501131
0.805615550755939,396.427710150159,387.579413863112,-8.84829628704711,-392.003562006635,202.638003218603,189.365558788032
0.807775377969762,395.678732367767,382.083457434604,-13.5952749331631,-388.881094901186,204.637003650465,184.24409125072
0.809935205183585,396.461644801108,375.437752773146,-21.0238920279616,-385.949698787127,208.742768414535,177.206930372592
0.812095032397408,397.994956230674,378.106979616127,-19.8879766145466,-388.050967923401,208.94146642261,179.10950150079
0.814254859611231,397.132470394374,384.356956103043,-12.7755142913311,-390.744713248708,204.953992342853,185.790720905856
0.816414686825054,398.673717168091,390.632115174612,-8.04160199347893,-394.652916171352,203.357659580785,191.295256590567
0.818574514038877,396.284878775746,397.353507780875,1.06862900512891,-396.81919327831,197.608124885309,199.211068393002
0.8207343412527,396.322312399786,395.607680309356,-0.714632090430314,-395.964996354571,198.518472245108,197.446524109463
0.822894168466523,396.383575706826,391.058931871597,-5.32464383522921,-393.721253789211,200.854109771028,192.867144018184
0.825053995680346,395.642971919471,384.814801185503,-10.8281707339679,-390.228886552487,203.235571326719,186.993315225767
0.827213822894168,395.66251088947,378.815716400191,-16.846794489279,-387.23911364483,206.254652689374,180.984460955456
0.829373650107991,395.63708805784,377.247408718619,-18.3896793392211,-386.442248388229,207.01338369853,179.428864689699
0.831533477321814,392.40202841448,380.879095425627,-11.5229329888527,-386.640561920053,201.962480701666,184.678081218387
0.833693304535637,390.754818668882,386.291363094801,-4.46345557408097,-388.523090881841,197.609137121481,190.91395376036
0.83585313174946,389.931381466391,391.565295608733,1.63391414234223,-390.748338537562,194.148733662024,196.599604875538
0.838012958963283,386.768678965029,392.476312389791,5.70763342476226,-389.62249567741,190.530522770133,199.091972907277
0.840172786177106,385.232382864634,387.383612357222,2.15122949258824,-386.307997610928,191.540576686023,194.767420924905
0.842332613390929,385.295302087592,381.222525431063,-4.07277665652947,-383.258913759328,194.684039372061,188.574874387267
0.844492440604752,388.507786910072,375.883258635924,-12.624528274148,-382.195522772998,200.56615759211,181.629365180888
0.846652267818574,389.284621363844,372.447445294535,-16.8371760693091,-380.866033329189,203.060898716576,177.805134612613
0.848812095032397,390.812545002771,375.815191730745,-14.9973532720261,-383.313868366758,202.904949137399,180.40891922936
0.85097192224622,392.335860315009,383.513418501151,-8.82244181385778,-387.92463940808,200.579151064433,187.345488343647
0.853131749460043,397.866155894982,391.296373364327,-6.56978253065478,-394.581264629655,202.217969212818,192.363295416836
0.855291576673866,408.210081463008,400.426904266558,-7.78317719645037,-404.318492864783,207.996629329729,196.321863535054
0.857451403887689,423.345652763765,406.717249965649,-16.6284027981166,-415.031451364707,219.987027780941,195.044423583766
0.859611231101512,442.443085656121,411.768651724172,-30.6744339319491,-427.105868690147,236.558759794035,190.547108896112
0.861771058315335,466.275627698637,416.626431781348,-49.6491959172891,-441.451029739993,257.962411807963,183.48861793203
0.863930885529158,488.498262339261,425.633349924526,-62.8649124147351,-457.065806131894,275.681587376998,181.384218754896
0.866090712742981,511.526578319015,443.056233961424,-68.4703443575908,-477.291406140219,289.998461338303,187.292944801917
0.868250539956803,531.414102998754,462.593076557266,-68.8210264414884,-497.00358977801,300.117564720121,196.886025057889
0.870410367170626,544.977894231863,482.4259942156,-62.5519000162628,-513.701944223732,303.764897124063,209.937047099669
0.872570194384449,551.389783986266,497.387445855621,-54.0023381306452,-524.388614920944,302.696061058456,221.692553862488
0.874730021598272,547.434358818981,500.75986373778,-46.6744950812008,-524.09711127838,297.054426950091,227.04268432829
0.876889848812095,537.068293547496,496.392467550199,-40.675825997297,-516.730380548848,288.872059772397,227.858320776451
0.879049676025918,517.927624708887,484.479238936894,-33.4483857719929,-501.203431822891,275.68800524044,225.515426582451
0.881209503239741,494.026525086416,468.616474332947,-25.4100507534691,-481.321499709681,259.718287919942,221.603211789739
0.883369330453564,467.7856714501,457.169817545262,-10.6158539048377,-462.477744497681,239.200762677469,223.276981820212
0.885529157667387,444.770097417358,449.533502828878,4.76340541151961,-447.151800123118,220.003346002919,227.148454120199
0.88768898488121,423.360906215632,445.550236797044,22.1893305814117,-434.455571506338,200.58578781711,233.869783689228
0.889848812095032,408.284979142773,440.824173866553,32.5391947237798,-424.554576504663,187.872892209497,236.681684295166
0.892008639308855,400.318035905218,434.89245862549,34.5744227202712,-417.605247265354,182.871806592474,234.73344067288
0.894168466522678,396.299832534062,426.713946784646,30.4141142505841,-411.506889659354,182.942859141739,228.564030517615
0.896328293736501,396.274239529352,417.195757906542,20.9215183771898,-406.734998717947,187.676360576081,219.058638141866
0.898488120950324,401.864430492646,408.348948375643,6.48451788299667,-405.106689434145,197.689956304825,207.41673312932
0.900647948164147,404.327670230712,403.062594092842,-1.2650761378697,-403.695132161777,202.796373184291,200.898758977486
0.90280777537797,406.798683542879,404.819270963642,-1.97941257923702,-405.808977253261,204.389048061058,201.419929192203
0.904967602591793,410.014727827064,411.158616085345,1.14388825828121,-410.586671956204,204.435419784391,206.151252171813
0.907127429805616,405.206437986353,416.095314935206,10.8888769488523,-410.650876460779,197.15878051875,213.492095942029
0.909287257019438,404.310222828949,415.915508757244,11.6052859282944,-410.112865793096,196.352468450327,213.760397342769
0.911447084233261,399.443067971303,411.06490825499,11.6218402836866,-405.253988113147,193.910613843808,211.343374269338
0.913606911447084,396.227641840746,402.372862418905,6.14522057815844,-399.300252129825,195.041210631294,204.259041498532
0.915766738660907,392.306060045987,393.421523598572,1.11546355258491,-392.86379182228,195.595298246701,197.268493575579
0.91792656587473,391.617972276957,384.768542117579,-6.84943015937824,-388.193257197268,199.233701218168,188.9595559791
0.920086393088553,392.503518625509,384.75866002213,-7.74485860337921,-388.631089323819,200.124188614444,188.506900709375
0.922246220302376,391.724175414312,390.228154382588,-1.49602103172418,-390.97616489845,196.610098223018,194.366066675432
0.924406047516199,390.068771433321,396.819320132364,6.75054869904318,-393.444045782842,191.659111367139,201.784934415704
0.926565874730022,391.559162627127,399.990938983565,8.43177635643787,-395.775050805346,191.563693135345,204.211357670002
0.928725701943845,390.702442990563,400.89307785626,10.1906348656971,-395.797760423412,190.255904062433,205.541856360979
0.930885529157667,390.716732447776,393.901102938428,3.18437049065255,-392.308917693102,193.766180978562,198.54273671454
0.93304535637149,388.413215740672,384.925874073525,-3.48734166714706,-386.669544907099,195.95027870391,190.719266203189
0.935205183585313,384.532226475611,377.716286288924,-6.81594018668682,-381.124256382267,195.674083331149,185.450173051118
0.937365010799136,382.190026867969,375.128924807825,-7.06110206014438,-378.659475837897,194.625564464057,184.03391137384
0.939524838012959,381.355439545269,378.071285720427,-3.28415382484172,-379.713362632848,192.319796685055,187.393565947793
0.941684665226782,382.842687632669,384.64462190594,1.80193427327038,-383.743654769304,190.520376679699,193.223278089605
0.943844492440605,385.125369000887,391.904070836085,6.77870183519849,-388.514719918486,189.173333582844,199.341386335642
0.946004319654428,388.271363357441,393.7885039638,5.51714060635936,-391.02993366062,191.377111375541,199.65282228508
0.948164146868251,390.721379167969,391.725636556523,1.00425738855313,-391.223507862246,194.858560889708,196.364946972538
0.950323974082073,392.443137580867,384.393400404799,-8.04973717606822,-388.418268992833,200.246437378468,188.171831614365
0.952483801295896,392.563580970328,377.896192216683,-14.6673887536449,-385.229886593506,203.615484861987,181.614401731519
0.954643628509719,391.004911187279,374.340271821196,-16.6646393660829,-382.672591504238,203.834775276681,178.837816227557
0.956803455723542,390.122891016214,377.900713472209,-12.2221775440047,-384.011802244212,201.172534280109,182.839267964102
0.958963282937365,390.754711212637,385.17977748826,-5.57493372437699,-387.967244350448,198.164822468507,189.802421881941
0.961123110151188,390.610432269562,393.278713002699,2.66828073313746,-391.944572636131,193.971075768212,197.973496867918
0.963282937365011,389.782839444056,395.323125971982,5.54028652792613,-392.552982708019,192.121276458065,200.431706249954
0.965442764578834,390.687403299408,393.457430278276,2.77002697886792,-392.072416788842,193.95868816027,198.113728628572
0.967602591792657,393.265258652125,388.638526801036,-4.62673185108906,-390.951892726581,198.945995251607,192.005897474974
0.96976241900648,392.631849180427,382.126674476726,-10.5051747037014,-387.379261828576,201.568511942064,185.810749886512
0.971922246220302,392.656063262394,375.23299853817,-17.4230647242245,-383.944530900282,205.039563993309,178.904966906973
0.974082073434125,391.727363142765,377.776770367835,-13.9505927749302,-384.7520667553,202.838977958848,181.913088796452
0.976241900647948,392.30419478943,384.099136989062,-8.20505780036842,-388.201665889246,200.254626294899,187.947039594347
0.978401727861771,392.134344356248,391.395507178694,-0.738837177554672,-391.764925767471,196.436590766902,195.32833500057
0.980561555075594,391.326733639799,397.568311128236,6.24157748843686,-394.447522384018,192.542578075681,201.904944308336
0.982721382289417,393.075043852547,396.734817678696,3.65977382614886,-394.904930765621,194.707635013199,200.197295752422
0.98488120950324,395.695799208783,392.898813289444,-2.79698591933919,-394.297306249113,199.246392564061,195.050913685052
0.987041036717063,399.038923488601,388.008201725041,-11.0307217635601,-393.523562606821,205.034822626081,188.488739980741
0.989200863930886,399.819525532938,381.760126660671,-18.0593988722669,-390.789826096805,208.939462202602,181.850363894202
0.991360691144708,397.252652737911,380.874950293372,-16.3777024445394,-389.063801515642,206.815177591225,182.248623924416
0.993520518358531,397.812351105349,384.604181613465,-13.2081694918842,-391.208266359407,205.510260298617,185.69800606079
0.995680345572354,396.88048928266,391.855522346763,-5.02496693589688,-394.368005814712,200.952728109279,193.415277705433
0.997840172786177,397.717305746814,398.175625970899,0.458320224085185,-397.946465858856,198.629492761364,199.316973097492
1,397.9079784835,401.5672468523,3.65926836879925,-399.7376126679,197.124355057351,202.613257610549
1.00215982721382,397.329711049614,397.148928554492,-0.180782495121832,-397.239319802053,198.755246772368,198.484073029685
1.00431965442765,398.230649201847,392.309860044474,-5.92078915737295,-395.27025462316,202.07571917961,193.19453544355
1.00647948164147,396.57615769821,382.751889353595,-13.8242683446157,-389.664023525902,205.200213021413,184.463810504489
1.00863930885529,396.385180769642,380.041031999105,-16.3441487705373,-388.213106384374,206.36466477009,181.848441614284
1.01079913606911,396.985961410815,383.56078903158,-13.4251723792352,-390.273375221198,205.205566895025,185.067808326172
1.01295896328294,397.702474978231,393.121954570362,-4.58052040786811,-395.412214774297,201.141497693049,194.270717081247
1.01511879049676,400.165378701391,397.951051206529,-2.21432749486206,-399.05821495396,201.189853098127,197.868361855833
1.01727861771058,401.93491756271,403.148410291823,1.21349272911243,-402.541663927267,200.360712416799,202.180951510468
1.01943844492441,402.103123493256,401.334917326356,-0.7682061669002,-401.719020409806,201.435664830078,200.283355579728
1.02159827213823,400.573296906191,395.809433555022,-4.76386335116928,-398.191365230606,202.66858012868,195.522785101926
1.02375809935205,399.703113520172,388.56964085032,-11.1334726698526,-394.136377185246,205.418293095013,188.718084090234
1.02591792656587,401.926275664086,383.270147845587,-18.6561278184989,-392.598211754837,210.291201741292,182.307010013544
1.0280777537797,403.362386643763,386.552949144442,-16.8094374993208,-394.957667894103,210.085912071542,184.871755822561
1.03023758099352,405.682620056756,392.798867221813,-12.8837528349432,-399.240743639284,209.28318644585,189.957557193435
1.03239740820734,408.123609496079,401.637814379503,-6.48579511657545,-404.880711937791,207.304702306327,197.576009631464
1.03455723542117,409.85645687474,407.028639165043,-2.82781770969751,-408.442548019891,206.342137292219,202.100410727673
1.03671706263499,407.627540994732,407.048642261567,-0.57889873316492,-407.338091628149,204.103219863948,203.234871764201
1.03887688984881,410.888433906282,404.863918890778,-6.02451501550416,-407.87617639853,208.456474460893,199.419701937637
1.04103671706263,409.265549041499,398.407985007351,-10.8575640341481,-403.836767024425,210.061556537824,193.775210486602
1.04319654427646,409.128835754053,390.545780679758,-18.5830550742955,-399.837308216905,213.855945414174,185.981362802731
1.04535637149028,407.373716275735,390.404297204877,-16.9694190708576,-398.889006740306,212.171567673296,186.71743906701
1.0475161987041,406.474269298674,395.679518619862,-10.7947506788115,-401.076893959268,208.634509988743,192.442383970525
1.04967602591793,406.489969912245,403.712593881016,-2.77737603122955,-405.10128189663,204.633672971737,200.467608924893
1.05183585313175,406.619975696185,408.465259697177,1.84528400099265,-407.542617696681,202.387345847596,205.155271849085
1.05399568034557,408.382450397347,410.310334711616,1.92788431426948,-409.346392554481,203.227283041539,206.119109512943
1.0561555075594,409.297381331917,406.724503278731,-2.57287805318589,-408.010942305324,205.935129692551,202.075812612773
1.05831533477322,410.884343387133,402.689245886477,-8.19509750065527,-406.786794636805,209.539720443894,197.247074192911
1.06047516198704,413.934862938598,396.280992972635,-17.6538699659633,-405.107927955617,215.794366452281,189.313561503336
1.06263498920086,417.720760180055,394.315896355325,-23.4048638247299,-406.01832826769,220.562812002392,185.455516265297
1.06479481641469,416.787431553583,400.975848821598,-15.8115827319844,-408.88164018759,216.299507142784,192.582133044807
1.06695464362851,418.372317630358,409.744835822388,-8.62748180797036,-414.058576726373,213.499899719164,200.558677007209
1.06911447084233,420.89738252988,415.413899437528,-5.48348309235161,-418.155640983704,213.190432811116,204.965208172588
1.07127429805616,422.693543241953,421.467401228592,-1.22614201336029,-422.080472235273,211.959842627656,210.120629607616
1.07343412526998,424.431184324619,420.482552709946,-3.9486316146731,-422.456868517282,214.189907969646,208.266960547636
1.0755939524838,424.429058366044,414.936054303328,-9.49300406271561,-419.682556334686,216.96103121438,202.721525120306
1.07775377969762,424.272559043487,409.21759732101,-15.0549617224768,-416.745078182249,219.663760382982,197.081317799267
1.07991360691145,424.051608297745,405.434343088491,-18.6172652092548,-414.742975693118,221.3344367535,193.408538939618
1.08207343412527,420.721637962505,405.513552437146,-15.2080855253594,-413.117595199825,217.964861743932,195.152733455893
1.08423326133909,418.351701217108,411.012637885566,-7.33906333154204,-414.682169551337,212.845382274325,201.836787277012
1.08639308855292,417.732780121178,416.772339017388,-0.96044110378989,-417.252559569283,209.346610612484,207.905948956799
1.08855291576674,420.344261803052,422.246469381699,1.90220757864762,-421.295365592375,209.221027112202,212.074338480173
1.09071274298056,422.067415461636,423.857001490468,1.7895860288329,-422.962208476052,210.138914716401,212.823293759651
1.09287257019438,422.021903500153,419.988553175377,-2.03335032477628,-421.005228337765,212.027626912465,208.9776014253
1.09503239740821,424.210283014691,411.811112077594,-12.3991709370966,-418.010697546143,218.304726975894,199.705970570249
1.09719222462203,423.992038183446,406.254681474424,-17.737356709022,-415.123359828935,220.864697446234,194.258662382701
1.09935205183585,422.303578498186,406.94506736397,-15.3585111342157,-414.624322931078,218.831044816201,195.793278114877
1.10151187904968,423.976333153327,413.151147880428,-10.8251852728997,-418.563740516877,217.400759213113,201.162981303764
1.1036717062635,423.393191819814,419.748401495971,-3.6447903238427,-421.570796657892,213.518991071828,208.051805586064
1.10583153347732,423.592511761852,424.570363579967,0.977851818115539,-424.08143767091,211.307329971868,212.774107699041
1.10799136069114,422.856184000646,426.347168435261,3.49098443461446,-424.601676217953,209.682599783016,214.919076434938
1.11015118790497,423.529675336362,421.793585345785,-1.73608999057666,-422.661630341074,212.632882663469,210.028747677604
1.11231101511879,420.926580743489,414.410279423445,-6.51630132004345,-417.668430083467,213.721441031766,203.946989051701
1.11447084233261,420.752564977563,407.155144215093,-13.5974207624698,-413.953854596328,217.174992870016,196.778861726311
1.11663066954644,419.150052463929,404.503186748822,-14.6468657151079,-411.826619606376,216.898459089519,194.928160516857
1.11879049676026,417.716415890654,407.397216685749,-10.3191992049052,-412.556816288202,214.01780754778,198.539008740422
1.12095032397408,419.525429214562,413.959549416025,-5.56587979853776,-416.742489315293,212.54565450655,204.196834808743
1.1231101511879,420.45606651334,421.244831150318,0.788764636977874,-420.850448831829,209.833650938181,211.016797893648
1.12526997840173,418.035019963913,423.968790045853,5.93377008193988,-421.001905004883,206.050624940986,214.951280063896
1.12742980561555,418.646698944212,421.947842175057,3.30114323084553,-420.297270559634,207.672777856683,212.624492702951
1.12958963282937,416.855455396599,413.050289621823,-3.80516577477601,-414.952872509211,210.330310585688,204.622561923524
1.1317494600432,415.974700009077,407.346315648602,-8.62838436047559,-411.66050782884,212.301542184777,199.358965644063
1.13390928725702,415.266755607138,401.382532940419,-13.8842226667183,-408.324644273778,214.575489136928,193.74915513685
1.13606911447084,413.083144310795,404.108110964257,-8.97503334653788,-408.595627637526,211.029088828666,197.566538808859
1.13822894168467,411.672488354497,406.581194041429,-5.09129431306781,-409.126841197963,208.381891333782,200.744949864181
1.14038876889849,409.326218531909,413.071526709868,3.74530817795937,-411.198872620888,202.790455176975,208.408417443914
1.14254859611231,407.607322014185,415.919880105257,8.31255809107245,-411.763601059721,199.647381961556,212.116219098165
1.14470842332613,402.631941081986,414.087407730505,11.4554666485187,-408.359674406245,195.588237216734,212.771437189512
1.14686825053996,401.691045728464,407.723760780167,6.03271505170324,-404.707403254315,197.82916533838,206.878237915935
1.14902807775378,398.528268745485,398.075174554681,-0.453094190804848,-398.301721650083,199.490681468145,198.811040181938
1.1511879049676,398.692904902528,390.40748038413,-8.28542451839837,-394.550192643329,203.489164710463,191.061027932866
1.15334773218143,397.306736934352,388.963507874737,-8.3432290596154,-393.135122404545,202.824982996984,190.310139407561
1.15550755939525,395.822221274498,393.642586572842,-2.17963470165597,-394.73240392367,199.000927988077,195.731475935593
1.15766738660907,394.171177312088,398.482434449466,4.31125713737816,-396.326805880777,194.929960087355,201.396845793422
1.15982721382289,393.984682658173,403.01212336833,9.02744071015707,-398.498403013252,192.478620974008,206.019782039244
1.16198704103672,392.209900287744,403.768254868919,11.5583545811754,-397.989077578332,190.325772853284,207.663304725047
1.16414686825054,391.35523236018,399.204370190974,7.84913783079406,-395.279801275577,191.753047264693,203.526754010884
1.16630669546436,391.462142422091,390.450406133504,-1.01173628858658,-390.956274277798,196.236939355339,194.719334922459
1.16846652267819,389.283035795065,382.710692235613,-6.57234355945167,-385.996864015339,197.927689677258,188.069174338081
1.17062634989201,386.273359152355,377.877504868961,-8.39585428339427,-382.075432010658,197.334606717875,184.740825292783
1.17278617710583,385.49901682984,380.730315226204,-4.76870160363575,-383.114666028022,195.133859216738,187.980806811284
1.17494600431965,383.763857390544,387.026485415125,3.26262802458166,-385.395171402835,190.250614682981,195.144556719854
1.17710583153348,384.33474008621,392.398173591975,8.06343350576503,-388.366456839093,188.135653290223,200.23080354887
1.1792656587473,384.971652845676,394.950331437635,9.97867859195929,-389.960992141656,187.496487126858,202.464505014797
1.18142548596112,384.98691927823,392.234377156668,7.24745787843727,-388.610648217449,188.869730699897,199.740917517553
1.18358531317495,386.763082571192,386.0322398667,-0.730842704492602,-386.397661218946,193.746962637842,192.650698581104
1.18574514038877,387.009268331972,378.2718802809,-8.73738805107178,-382.640574306436,197.873328191522,184.767246114914
1.18790496760259,387.951172403885,376.407887644238,-11.5432847596479,-382.179530024061,199.747228581767,182.432301442295
1.19006479481641,387.89931798233,377.385238262524,-10.5140797198063,-382.642278122427,199.206698851068,183.435579271359
1.19222462203024,387.672005286213,381.891803034971,-5.78020225124186,-384.781904160592,196.726103768727,188.055800391865
1.19438444924406,384.233086407381,388.861072292435,4.62798588505393,-386.547079349908,189.802550261163,196.744529088744
1.19654427645788,384.901553177633,393.222922306103,8.32136912846988,-389.062237741868,188.290092024582,200.772145717286
1.19870410367171,384.996369062213,392.404744145137,7.40837508292333,-388.700556603675,188.793996989645,199.90655961403
1.20086393088553,386.843360762823,388.008525789235,1.16516502641224,-387.425943276029,192.839097868205,194.586845407824
1.20302375809935,387.102085236815,381.036442911366,-6.06564232544946,-384.06926407409,196.583863781132,187.485400292958
1.20518358531317,389.577764327847,376.558884199501,-13.018880128346,-383.068324263674,201.298322228097,181.770002035578
1.207343412527,391.823010408144,375.626441389891,-16.1965690182531,-383.724725899017,204.009789713198,179.714936185819
1.20950323974082,389.951023598028,380.703318689854,-9.24770490817446,-385.327171143941,199.599364253101,185.72780689084
1.21166306695464,388.913245883374,387.675768509351,-1.23747737402329,-388.294507196362,195.075361628699,193.219145567664
1.21382289416847,384.902313329033,391.474070581191,6.57175725215728,-388.188191955112,189.165278038438,199.022913916674
1.21598272138229,385.891590910546,394.953377124251,9.06178621370458,-390.422484017398,188.414902348421,202.007581668978
1.21814254859611,386.190448445503,389.992591164164,3.80214271866083,-388.091519804833,191.194152863421,196.897366941412
1.22030237580994,386.390393272221,383.020652673617,-3.36974059860398,-384.705522972919,194.880066935412,189.825456037506
1.22246220302376,387.14889228605,375.932711567056,-11.216180718994,-381.540801926553,199.182536502522,182.358265424031
1.22462203023758,388.486505055523,374.677995985141,-13.8085090703816,-381.582250520332,201.147507062952,180.43474345738
1.2267818574514,387.393825139312,377.934073380103,-9.45975175920853,-382.663949259708,198.42678844926,184.237160810447
1.22894168466523,388.841529483195,384.102875485772,-4.73865399742317,-386.472202484484,196.790091740309,189.682110744174
1.23110151187905,390.546612353296,392.088778625883,1.54216627258688,-391.31769548959,194.502223040355,196.815472449235
1.23326133909287,391.640542352471,399.056523384982,7.41598103251096,-395.348532868727,192.11228065998,203.236252208747
1.2354211663067,394.305902032514,395.117105959318,0.811203926803842,-394.711503995916,196.747349052855,197.964154943061
1.23758099352052,392.789906141337,389.75408113126,-3.03582501007679,-391.271993636298,197.912865575707,193.359128060592
1.23974082073434,391.806498685109,382.476537450377,-9.32996123473276,-387.141518067743,200.568229959921,186.573288107822
1.24190064794816,389.096916180624,377.759411550127,-11.3375046304968,-383.428163865376,200.21721040556,183.210953459815
1.24406047516199,389.643592907044,380.003581949245,-9.6400109577998,-384.823587428144,199.641801932422,185.181785495722
1.24622030237581,390.43282264785,386.93079540091,-3.50202724694014,-388.68180902438,196.967424947395,191.714384076985
1.24838012958963,394.644043276561,394.275400423106,-0.368642853455128,-394.459721849833,197.506343065008,196.953378784825
1.25053995680346,394.970522556879,402.287303354466,7.31678079758643,-398.628912955672,193.826870879646,204.802042076026
1.25269978401728,395.17385999561,400.145511037024,4.97165104141425,-397.659685516317,195.101104477098,202.558581039219
1.2548596112311,391.950619836361,395.636080635471,3.68546079911022,-393.793350235916,194.132579518625,199.660770717291
1.25701943844492,390.895146616063,385.863184552992,-5.03196206307086,-388.379165584527,197.963554339567,190.415611244961
1.25917926565875,390.584750767637,380.137794491982,-10.4469562756558,-385.361272629809,200.515853521647,184.845419108163
1.26133909287257,390.416925021634,380.593264816996,-9.82366020463883,-385.505094919315,200.120292613137,185.384802306178
1.26349892008639,390.492981273464,385.84540404177,-4.64757723169396,-388.169192657617,197.570279252579,190.598913405038
1.26565874730022,389.969242670429,392.460576479383,2.49133380895461,-391.214909574906,193.738954430737,197.475955144169
1.26781857451404,391.853750059981,399.855878845817,8.00212878583574,-395.854814452899,191.925810637073,203.929003815826
1.26997840172786,391.99026872438,401.088212758279,9.09794403389884,-396.53924074133,191.446162345241,205.093078396089
1.27213822894168,392.678337032162,396.693346180547,4.01500914838425,-394.685841606355,194.331663941889,200.354177664465
1.27429805615551,393.986272936923,392.454679960427,-1.53159297649586,-393.220476448675,197.75893295671,195.461543491966
1.27645788336933,395.295281090897,386.575635295905,-8.7196457949924,-390.935458193401,202.007463442945,188.927994750456
1.27861771058315,394.39805332271,381.275975539354,-13.1220777833561,-387.837014431032,203.760065553033,184.076948877999
1.28077753779698,395.332713799633,387.197772133179,-8.13494166645398,-391.265242966406,201.733827733043,189.531415233362
1.2829373650108,397.216219197925,395.409410870766,-1.80680832715871,-396.312815034345,199.511513762542,196.801301271804
1.28509719222462,398.271276251039,401.342652682402,3.07137643136286,-399.806964466721,197.599949909838,202.207014556883
1.28725701943844,397.538301165219,405.925611188573,8.38731002335339,-401.731956176896,194.575495570933,207.156460605963
1.28941684665227,397.363650405578,403.246235398838,5.88258499326008,-400.304942902208,195.740532706159,204.564410196049
1.29157667386609,395.477457093138,396.6435345115,1.16607741836253,-396.060495802319,197.155689837388,198.904805964931
1.29373650107991,393.658850767761,388.294180704035,-5.36467006372595,-390.976515735898,199.511760415743,191.464755320154
1.29589632829374,395.228823633118,385.23260819658,-9.99621543653711,-390.230715914849,202.612519534827,187.618196380022
1.29805615550756,395.426452693212,387.841709566821,-7.58474312639106,-391.634081130017,201.505597909802,190.128483220215
1.30021598272138,395.710386859483,394.402586005242,-1.30780085424152,-395.056486432363,198.509093856862,196.5473925755
1.30237580993521,395.107733383567,401.172413743986,6.06468036041855,-398.140073563776,194.521526511574,203.618547052202
1.30453563714903,395.091326681917,405.882709668883,10.791382986966,-400.4870181754,192.149971847475,208.337046327924
1.30669546436285,394.089081697893,403.356613453303,9.26753175541018,-398.722847575598,192.410774971241,206.312072604357
1.30885529157667,391.44310617856,398.446728227419,7.0036220488584,-394.944917202989,192.219742064851,202.725175138139
1.3110151187905,392.085573469887,389.300655299322,-2.78491817056516,-390.693114384605,197.435245820226,193.257868564379
1.31317494600432,392.926658851466,385.329216351777,-7.59744249968929,-389.127937601621,200.262050675578,188.865886926044
1.31533477321814,394.719594392521,383.792812035279,-10.9267823572419,-389.2562032139,202.823188374881,186.433014839019
1.31749460043197,394.946909524717,390.212675659617,-4.73423386509984,-392.579792592167,199.840571694909,192.739220897259
1.31965442764579,397.440579982699,396.951904269865,-0.488675712833867,-397.196242126282,198.964627847766,198.231614278516
1.32181425485961,397.375301752163,404.14645559376,6.77115384159782,-400.760878672961,195.302073955282,205.458804717679
1.32397408207343,397.188296478946,405.775685930077,8.58738945113123,-401.481991204512,194.300453513908,207.181537690604
1.32613390928726,400.180750255477,401.830268456748,1.64951820127186,-401.005509356112,199.265616027102,201.73989332901
1.32829373650108,400.10829196957,395.926282268733,-4.18200970083649,-398.017287119151,202.145150835203,195.872136283948
1.3304535637149,398.595093850376,390.286343022044,-8.30875082833239,-394.44071843621,203.451922339354,190.988796096856
1.33261339092873,396.381173350819,384.594692556641,-11.7864807941784,-390.48793295373,204.083827072499,186.404105881231
1.33477321814255,394.946319672456,389.238425866189,-5.70789380626701,-392.092372769323,200.327106739362,191.765266029961
1.33693304535637,394.194879515796,395.885788510057,1.69090899426055,-395.040334012927,196.251985260768,198.788348752159
1.33909287257019,394.897245948376,401.54374959552,6.64650364714396,-398.220497771948,194.125371150616,204.095126621332
1.34125269978402,397.907745499956,405.725672505014,7.81792700505815,-401.816709002485,195.044909247449,206.771799755036
1.34341252699784,394.597671570277,401.978016941922,7.38034537164452,-398.287844256099,193.608663099316,204.679181156783
1.34557235421166,395.383718858443,395.401266770733,0.0175479122898423,-395.392492814588,197.683085473076,197.709407341511
1.34773218142549,397.887314929966,389.741435334241,-8.14587959572572,-393.814375132104,203.016597262846,190.797777869258
1.34989200863931,398.051460826899,385.481447928434,-12.5700128984647,-391.766454377667,205.310736862682,186.455717514985
1.35205183585313,400.529866544078,386.732236573273,-13.797629970805,-393.631051558675,207.163748257441,186.467303301234
1.35421166306695,400.493536654062,395.605518616519,-4.88801803754319,-398.04952763529,202.690777345803,195.358750289488
1.35637149028078,401.149127918635,402.048998424563,0.899870505927879,-401.599063171599,200.124628706354,201.474434465246
1.3585313174946,401.801538960845,406.383797258369,4.58225829752473,-404.092668109607,198.60964033166,205.483027777947
1.36069114470842,404.136738947953,406.846420940376,2.70968199242282,-405.491579944164,200.713528477765,204.778051466399
1.36285097192225,404.212695143987,401.255977532713,-2.95671761127329,-402.73433633835,203.58470637763,199.14962996072
1.36501079913607,399.594548789433,394.041159356641,-5.55338943279247,-396.817854073037,202.573969111113,194.243884961924
1.36717062634989,396.539734434657,385.66186941515,-10.8778650195071,-391.100801924903,203.708799727082,187.392002197821
1.36933045356371,393.375671497461,383.485370575097,-9.8903009223647,-388.430521036279,201.632986209913,186.797534826366
1.37149028077754,390.087506209506,388.172160501897,-1.91534570760831,-389.129833355702,196.001425958557,193.128407397145
1.37365010799136,390.713840370404,392.967353565756,2.25351319535196,-391.84059696808,194.230163587526,197.610433380554
1.37580993520518,392.183253251932,398.225842180152,6.04258892822014,-395.204547716042,193.070332161856,202.134215554186
1.37796976241901,391.399629186271,400.522879944067,9.12325075779603,-395.961254565169,191.138189214238,204.823065350932
1.38012958963283,394.720326175471,397.5404476332,2.82012145772848,-396.130386904335,195.950102358871,200.180284545464
1.38228941684665,398.880032523115,391.200140070639,-7.6798924524752,-395.040086296877,203.279962487795,191.760123809082
1.38444924406048,398.990616650183,386.683877734878,-12.3067389153052,-392.837247192531,205.648677782744,187.188569409786
1.3866090712743,400.540027224879,384.269921445365,-16.2701057795145,-392.404974335122,208.405066502197,183.999907832925
1.38876889848812,398.786895513188,388.725379195509,-10.0615163176786,-393.756137354348,204.424205915433,189.331931438915
1.39092872570194,399.397456322458,395.016828872178,-4.38062745027941,-397.207142597318,201.889041886369,195.318100710949
1.39308855291577,398.517899177173,400.374509719148,1.85661054197578,-399.446204448161,198.330644317598,201.115560130562
1.39524838012959,396.997187604505,403.700783259648,6.7035956551436,-400.348985432076,195.146795974681,205.202189457396
1.39740820734341,395.586116699785,400.955455559075,5.36933885929,-398.27078612943,195.108388920247,203.162397209182
1.39956803455724,397.344080142227,394.71824551417,-2.62583462805685,-396.031162828199,199.984957385142,196.046205443057
1.40172786177106,398.183214871719,387.728218421176,-10.454996450543,-392.955716646447,204.319105661131,188.636610985316
1.40388768898488,397.277903175239,385.08022645652,-12.1976767187188,-391.17906481588,204.737789946979,186.441274868901
1.4060475161987,397.88315935408,386.907417150888,-10.9757422031921,-392.395288252484,204.429450778636,187.965837473848
1.40820734341253,399.335317971455,394.669984759414,-4.66533321204105,-397.002651365435,202.000325591748,195.002325773687
1.41036717062635,402.521259915592,404.073775593027,1.5525156774346,-403.29751775431,200.484372119079,202.813145635231
1.41252699784017,405.844019663369,407.623550654071,1.7795309907022,-406.73378515872,202.032244336333,204.701540822387
1.414686825054,408.408013471458,406.719035343674,-1.68897812778408,-407.563524407566,205.048495799621,202.515028607945
1.41684665226782,408.502497490735,403.00847291086,-5.49402457987549,-405.755485200797,206.998261035305,198.757224165492
1.41900647948164,406.863029518584,396.765906496596,-10.0971230219887,-401.81446800759,208.480076270286,193.334391737303
1.42116630669546,405.119379324734,390.727495602384,-14.39188372235,-397.923437463559,209.755631523542,188.167805940017
1.42332613390929,403.379600633965,390.706244966432,-12.6733556675332,-397.042922800198,208.026478150749,189.016444649449
1.42548596112311,404.918974937556,395.130358099574,-9.78861683798135,-400.024666518565,207.353795887769,192.670870630796
1.42764578833693,404.200683940472,402.972554322228,-1.22812961824405,-403.58661913135,202.714406779358,200.872212351992
1.42980561555076,403.548909109028,407.514393833475,3.96548472444749,-405.531651471251,199.79171219229,205.739939278961
1.43196544276458,404.453583129951,408.451785301505,3.99820217155411,-406.452684215728,200.227690479198,206.224993736529
1.4341252699784,403.66480689159,404.906774708052,1.24196781646236,-404.285790799821,201.211419537564,203.074371262257
1.43628509719222,404.362722309168,397.065987129144,-7.29673518002386,-400.714354719156,205.829728744596,194.88462597456
1.43844492440605,404.237554260535,393.236789446999,-11.0007648135365,-398.737171853767,207.619159537036,191.118012316731
1.44060475161987,406.556264851963,392.180048247717,-14.3762166042452,-399.36815654984,210.466240728104,188.901915821736
1.44276457883369,410.565539462034,397.221922478606,-13.3436169834287,-403.89373097032,211.954578222732,191.939152747589
1.44492440604752,415.435929726002,407.4301811136,-8.00574861240244,-411.433055419801,211.720839169202,199.712216250599
1.44708423326134,414.734869860549,412.916572335156,-1.81829752539306,-413.825721097853,208.276583692971,205.549137404882
1.44924406047516,413.962594886648,416.473594798148,2.51099991150079,-415.218094842398,205.725797487573,209.492297354825
1.45140388768898,413.906681151492,414.71313149428,0.806450342787912,-414.309906322886,206.550115404352,207.759790918534
1.45356371490281,413.816318934772,409.303220671386,-4.51309826338627,-411.559769803079,209.164708599079,202.395061204
1.45572354211663,413.754409613001,402.169954102363,-11.584455510638,-407.962181857682,212.669432561819,195.292749295862
1.45788336933045,413.761003427439,397.706194852053,-16.0548085753861,-405.733599139746,214.907906001412,190.825693138333
1.46004319654428,413.827054406267,400.158929424965,-13.6681249813022,-406.992991915616,213.747589693785,193.245402221831
1.4622030237581,410.726653480387,407.11695616564,-3.60969731474717,-408.921804823014,207.168175397567,201.753629425447
1.46436285097192,409.172386572064,411.111609223451,1.93922265138741,-410.141997897757,203.616581960338,206.525415937419
1.46652267818575,406.756940184241,414.086148143465,7.32920795922342,-410.421544163853,199.713866112509,210.707678051344
1.46868250539957,405.884124108533,412.536423029901,6.65229892136813,-409.210273569217,199.615912593582,209.594360975635
1.47084233261339,405.018637757584,409.603613341561,4.58497558397698,-407.311125549572,200.216831086803,207.094294462769
1.47300215982721,406.593426847202,400.807849508097,-5.78557733910509,-403.700638177649,206.189502093153,197.511136084496
1.47516198704104,407.443334202018,395.351749738755,-12.0915844632635,-401.397541970386,209.767459332641,191.630082637746
1.47732181425486,407.534597040717,395.211742683707,-12.3228543570102,-401.373169862212,209.928725698864,191.444444163348
1.47948164146868,403.633306894393,398.094683437201,-5.5386234571917,-400.863995165797,204.585965175792,196.278029990005
1.48164146868251,400.46108749626,405.324077729505,4.86299023324415,-402.892582612883,197.799048631508,205.093533981374
1.48380129589633,398.009874180856,407.682354761779,9.67248058092287,-402.846114471317,194.168696799967,208.677417671351
1.48596112311015,393.932437012931,407.917284176545,13.9848471636141,-400.924860594738,189.973794924658,210.951065670079
1.48812095032397,393.851404031295,402.711774328861,8.86037029756596,-398.281589180078,192.495516866865,205.786072313214
1.4902807775378,394.639257742104,396.270132874506,1.63087513240242,-395.454695308305,196.504191304851,198.950504003454
1.49244060475162,396.303035441155,389.869885311162,-6.43315012999267,-393.086460376159,201.368092785574,191.718367590585
1.49460043196544,398.80168050961,388.745413828985,-10.0562666806249,-393.773547169297,204.428973595117,189.34457357418
1.49676025917927,399.68524355803,393.08709891531,-6.59814464272057,-396.38617123667,203.141694100375,193.244477136295
1.49892008639309,400.48927299695,399.520002866743,-0.969270130206837,-400.004637931847,200.729271563578,199.275366368268
1.50107991360691,397.236617186943,405.182894178628,7.94627699168439,-401.209755682785,194.645170097629,206.564585585156
1.50323974082073,394.740452071283,406.402671582017,11.6622195107345,-400.57156182665,191.539116280274,209.032445546376
1.50539956803456,392.275040869125,402.146289634496,9.87124876537058,-397.21066525181,191.201896051877,206.008769199933
1.50755939524838,391.475088213415,395.742355236021,4.26726702260589,-393.608721724718,193.603910595405,200.004811129314
1.5097192224622,390.749147318114,387.651110805754,-3.09803651235973,-389.200129061934,196.923591915237,192.276537146697
1.51187904967603,391.638848522303,382.363847424843,-9.27500109746006,-387.001347973573,200.456924809881,186.544423163691
1.51403887688985,388.52610712131,383.349364826462,-5.17674229484817,-385.937735973886,196.851424708079,189.086311265807
1.51619870410367,389.321317534811,389.710593949933,0.389276415122424,-389.515955742372,194.466020559844,195.049935182528
1.51835853131749,390.851333710702,397.034117176346,6.18278346564449,-393.942725443524,192.334275122529,201.608450320995
1.52051835853132,393.151953473309,402.401764725756,9.24981125244727,-397.776859099533,191.951071110431,205.825787989102
1.52267818574514,396.271558945657,401.51076521557,5.23920626991321,-398.891162080613,195.516176337872,203.374985742742
1.52483801295896,397.861354758943,397.593917604284,-0.267437154658637,-397.727636181613,199.064395956801,198.663240224813
1.52699784017279,399.510981479785,390.266234991779,-9.24474648800589,-394.888608235782,204.377863983895,190.510744251886
1.52915766738661,400.391136495682,386.41833011286,-13.9728063828213,-393.404733304271,207.181971439252,186.22276186502
1.53131749460043,399.656232012625,386.416565321992,-13.2396666906326,-393.036398667308,206.447949351629,186.58844931568
1.53347732181425,397.270822367292,391.052514643013,-6.21830772427859,-394.161668505153,201.744565045785,192.417103459367
1.53563714902808,392.443834563316,395.988621743536,3.54478718021971,-394.216228153426,194.449523691548,199.766704461878
1.5377969762419,390.77298767166,399.903852848142,9.13086517648208,-395.338420259901,190.821061247589,204.517359012312
1.53995680345572,388.331952627932,399.219406064683,10.8874534367509,-393.775679346308,188.722249595591,205.053429750717
1.54211663066955,384.356725859651,392.288240297422,7.93151443777055,-388.322483078536,188.21260571094,200.109877367596
1.54427645788337,382.025306397453,385.779222180565,3.75391578311178,-383.902264289009,189.135695307171,194.766568981839
1.54643628509719,384.480415210739,377.029790410007,-7.45062480073216,-380.755102810373,195.965520005736,184.789582804637
1.54859611231102,387.699957249431,377.597223267161,-10.1027339822708,-382.648590258296,198.901345615851,183.747244642445
1.55075593952484,392.449711934096,382.041885940392,-10.407825993704,-387.245798937244,201.4287689639,185.817029973344
1.55291576673866,396.363044649795,390.900767879185,-5.46227677060978,-393.63190626449,200.912660710202,192.719245554288
1.55507559395248,401.871795650611,401.296070977714,-0.575724672897024,-401.583933314162,201.223760161754,200.360173152408
1.55723542116631,413.780756349035,409.582324464075,-4.19843188496003,-411.681540406555,208.989594116997,202.691946289557
1.55939524838013,425.731718470755,413.982257027713,-11.7494614430419,-419.856987749234,218.740589956898,201.116397792336
1.56155507559395,443.246363650046,416.279320014977,-26.967043635069,-429.762841832511,235.106703642557,194.656138189954
1.56371490280778,460.724850574037,419.331961557242,-41.392889016795,-440.02840606564,251.058869795416,188.969536270224
1.5658747300216,476.57653673344,425.230779254716,-51.345757478724,-450.903657994078,263.961147106082,186.942510887996
1.56803455723542,494.019595694404,441.378418263466,-52.6411774309377,-467.699006978935,273.330386562671,194.368620416264
1.57019438444924,513.098199808133,460.48792401821,-52.6102757899231,-486.793061913172,282.854237799028,203.938824114144
1.57235421166307,529.052535326454,478.92894718168,-50.1235881447736,-503.990741254067,289.588061735614,214.402679518453
1.57451403887689,542.63658553896,494.590961715332,-48.0456238236286,-518.613773627146,295.341104681294,223.272668945852
1.57667386609071,542.67471640528,499.222201821092,-43.452514584188,-520.948459113186,293.063615494734,227.884843618452
1.57883369330454,534.703709328554,496.075548508335,-38.6281608202182,-515.389628918444,286.665935074386,228.723693844059
1.58099352051836,520.333513165065,483.982095145808,-36.3514180192568,-502.157804155436,278.342465592161,223.815338563276
1.58315334773218,497.228041031609,473.800489061725,-23.4275519698843,-485.514265046667,260.327796500747,225.18646854592
1.585313174946,473.370629744766,462.70486478991,-10.6657649548565,-468.037747267338,242.018197349811,226.019549917527
1.58747300215983,453.52730640353,458.617347935549,5.09004153201914,-456.072327169539,224.218632435755,231.853694733784
1.58963282937365,432.895256341306,455.596270601944,22.7010142606381,-444.245763471625,205.097121040334,239.148642431291
1.59179265658747,419.381854686785,451.524956247781,32.1431015609956,-435.453405467283,193.619376562895,241.834028904388
1.5939524838013,407.42465032135,442.845888599979,35.4212382786288,-425.135269460665,186.001706021361,239.133563439304
1.59611231101512,401.032517511215,432.709717964002,31.6772004527874,-416.871117737609,184.677658529214,232.193459208395
1.59827213822894,400.250755270922,420.657953342731,20.4071980718087,-410.454354306826,189.921778599557,220.53257570727
1.60043196544276,402.707406164308,411.968260836481,9.26085467217348,-407.337833500394,196.723275746067,210.614557754327
1.60259179265659,405.18865579458,409.429994633413,4.24133883883229,-407.309325213997,200.473658477874,206.835666736122
1.60475161987041,407.632811438554,411.535397920872,3.90258648231799,-409.584104679713,201.865112478118,207.718992201595
1.60691144708423,407.611715301825,417.206167162561,9.59445186073549,-412.408941232193,199.008631720545,213.400309511648
1.60907127429806,406.719156551342,420.390658772883,13.6715022215411,-413.554907662113,196.523827164901,217.031080497212
1.61123110151188,400.248291679362,420.656743458166,20.4084517788046,-410.452517568764,189.919919950279,220.532597618485
1.6133909287257,396.219977797428,414.685497310688,18.4655195132601,-405.452737554058,188.877229142084,216.575508411974
1.61555075593952,393.084776049924,405.084125967492,11.9993499175681,-399.084451008708,190.542713066178,208.54173794253
1.61771058315335,391.608347935799,395.498147392737,3.88979945693825,-393.553247664268,193.85927423943,199.693973424838
1.61987041036717,394.095496866402,389.56326585285,-4.53223101355195,-391.829381359626,199.313863939977,192.515517419649
1.62203023758099,394.118114472403,392.24480478835,-1.87330968405291,-393.181459630377,197.995712078228,195.185747552149
1.62419006479482,390.870361762784,397.021984640572,6.15162287778804,-393.946173201678,192.359369442498,201.58680375918
1.62634989200864,389.969300532141,401.870704994381,11.9014044622401,-395.920002763261,189.033948034951,206.886054728311
1.62850971922246,391.489981524574,404.732819574805,13.2428380502301,-398.11140054969,189.123571737172,208.987828812517
1.63066954643629,389.119806542178,403.763231321776,14.6434247795983,-396.441518931977,187.23819088129,209.203328050687
1.63282937365011,389.200996294151,395.879100202444,6.67810390829362,-392.540048248297,191.261446192928,201.278602055369
1.63498920086393,389.292431241484,387.038391179205,-2.25404006227899,-388.165411210345,195.773235651882,192.392175558463
1.63714902807775,388.536481793357,380.903605276235,-7.6328765171221,-384.720043534796,198.084679155239,186.635364379556
1.63930885529158,386.910009355375,380.960632747583,-5.94937660779226,-383.935321051479,196.429692981584,187.505628069895
1.6414686825054,384.443706056257,385.587092922771,1.14338686651314,-385.015399489514,191.650159594872,193.365239894642
1.64362850971922,385.961083126803,391.251189017836,5.29010589103319,-388.60613607232,190.335488617885,198.270647454435
1.64578833693305,386.738389468209,395.881324552459,9.14293508424976,-391.309857010334,188.79772719198,202.512129818354
1.64794816414687,387.574968544833,396.740367852549,9.16539930771597,-392.157668198691,189.204784618559,202.952883580133
1.65010799136069,387.647844969212,391.410199151186,3.76235418197314,-389.529022060199,191.94274539362,197.586276666579
1.65226781857451,389.296384665498,385.754658533617,-3.54172613188069,-387.525521599557,196.419055398689,191.106466200868
1.65442764578834,390.103810422352,381.046080048315,-9.05773037403685,-385.574945235333,199.580770398194,185.994174837139
1.65658747300216,391.653392543945,380.858797511006,-10.7945950329382,-386.256095027475,201.223993788441,185.032101239034
1.65874730021598,392.380883023609,382.121363026959,-10.2595199966505,-387.251123025284,201.32020151013,185.930921515154
1.66090712742981,391.53216369772,390.148309080478,-1.38385461724209,-390.840236389099,196.458009157481,194.382227231618
1.66306695464363,388.347636098949,395.728991016987,7.38135491803791,-392.038313557968,190.483140590455,201.555172967512
1.66522678185745,387.599721218277,397.624038057804,10.0243168395273,-392.61187963804,188.787702189375,203.824177448666
1.66738660907127,386.081285443273,394.072271561952,7.99098611867913,-390.076778502613,189.045149662297,201.031628840316
1.6695464362851,385.334056113786,386.859397669444,1.52534155565843,-386.096726891615,191.904357279064,194.192369612551
1.67170626349892,388.500001416282,379.626641982953,-8.87335943332886,-384.063321699617,198.686680424805,185.376641274812
1.67386609071274,390.018565681734,376.825276623173,-13.1932890585609,-383.421921152453,201.605927370147,181.815993782306
1.67602591792657,392.315203710558,380.27595365526,-12.0392500552985,-386.295578682909,202.177226882928,184.118351799981
1.67818574514039,394.656224968634,388.245027351413,-6.41119761722098,-391.450626160024,200.533711292928,190.916914867096
1.68034557235421,397.078636273133,396.316685743789,-0.761950529343608,-396.697661008461,198.920293401238,197.777367607223
1.68250539956803,397.185712729554,401.606010426881,4.42029769732721,-399.395861578218,196.382707516114,203.013154062104
1.68466522678186,398.093350247703,401.443059528948,3.34970928124551,-399.768204888325,197.371820483229,202.396384405097
1.68682505399568,398.930741522459,396.707490124929,-2.22325139753036,-397.819115823694,200.576996459995,197.242119363699
1.6889848812095,398.861988149584,388.608068831879,-10.253919317705,-393.735028490732,204.557953733644,189.177074757087
1.69114470842333,397.122386340288,382.430939123052,-14.6914472172367,-389.77666273167,205.906916778763,183.869745952908
1.69330453563715,393.803874197405,381.693275322864,-12.1105988745418,-387.748574760135,202.957236535974,184.791338224161
1.69546436285097,392.181209481905,387.158845754953,-5.02236372695239,-389.670027618429,198.601786604429,191.068241014
1.69762419006479,391.493966793484,394.470960334829,2.97699354134545,-392.982463564157,194.258486626069,198.723976938087
1.69978401727862,394.064704796618,398.338837010339,4.27413221372097,-396.201770903478,194.895286291448,201.30648461203
1.70194384449244,397.388401318022,401.562307831995,4.17390651397375,-399.475354575009,196.607247402024,202.868107172985
1.70410367170626,399.773605322381,397.760420693046,-2.01318462933546,-398.767013007714,200.893394975858,197.873618031855
1.70626349892009,398.035048365803,392.041243055015,-5.99380531078725,-395.038145710409,202.014426838295,193.023718872114
1.70842332613391,398.623667598212,384.930205823266,-13.6934617749459,-391.776936710739,206.158564686579,185.61837202416
1.71058315334773,399.291086934493,383.200740246413,-16.0903466880803,-391.245913590453,207.690716811287,183.555196779166
1.71274298056156,400.122248082856,388.518275069667,-11.6039730131889,-394.320261576262,205.863110548023,188.457151028239
1.71490280777538,401.098292290775,398.189896595983,-2.90839569479266,-399.644094443379,202.003343992784,197.640750450595
1.7170626349892,404.487752030814,403.753971819315,-0.733780211499152,-404.120861925065,202.610766121157,201.510095803908
1.71922246220302,405.386291132374,407.158165921391,1.77187478901647,-406.272228526882,201.807208171679,204.465020355204
1.72138228941685,405.31272549279,403.520004612362,-1.79272088042796,-404.416365052576,203.552723186609,200.863641865967
1.72354211663067,402.72462203686,397.071618058746,-5.6530039781137,-399.898120047803,204.188813007487,195.709307040316
1.72570194384449,400.931269270918,390.684879416838,-10.2463898540805,-395.808074343878,205.588829562499,190.219244781379
1.72786177105832,400.857086099392,387.984270186022,-12.87281591337,-394.420678142707,206.864951006381,187.555727136326
1.73002159827214,402.545837199627,388.341472878818,-14.2043643208092,-395.443655039222,208.375100760218,187.068554279004
1.73218142548596,404.341977827676,397.908551431312,-6.43342639636404,-401.125264629494,205.38770211202,195.737562517474
1.73434125269978,406.908388089783,405.106647955943,-1.80174013383981,-406.007518022863,204.355064111811,201.652453911052
1.73650107991361,408.543888154856,410.272794394224,1.7289062393686,-409.40834127454,203.407490957744,206.000850316796
1.73866090712743,406.842644454277,406.846251485175,0.00360703089825165,-406.844447969726,203.419518711689,203.424929258037
1.74082073434125,405.060167834924,401.330483582786,-3.72968425213759,-403.195325708855,204.394926043531,198.800399665324
1.74298056155508,404.907250222768,395.724669733838,-9.18258048892937,-400.315959978303,207.044915355848,193.271044622454
1.7451403887689,404.882325053545,391.270102336829,-13.6122227167153,-398.076213695187,209.24727388513,188.828939810057
1.74730021598272,408.959653587598,392.982289896055,-15.9773636915434,-400.970971741827,212.468508639571,188.502463102256
1.74946004319654,411.503769052628,399.990941580596,-11.5128274720318,-405.747355316612,211.50829826233,194.239057054282
1.75161987041037,416.387767532602,408.763800824573,-7.6239667080286,-412.575784178587,212.005867120315,200.569917058272
1.75377969762419,417.990638763906,415.68286187695,-2.30777688695576,-416.836750320428,210.149207825431,206.687542494997
1.75593952483801,415.528663614546,414.895772233098,-0.632891381448417,-415.212217923822,208.080777497997,207.131440425825
1.75809935205184,413.831800310545,410.38057328906,-3.45122702148569,-412.106186799803,208.641513666016,203.464673133787
1.76025917926566,411.375612604087,402.429936377777,-8.94567622631047,-406.902774490932,210.160644415199,196.742130075733
1.76241900647948,409.774276336702,398.61264816362,-11.1616281730818,-404.193462250161,210.467952254892,193.725509995269
1.7645788336933,410.599080874,394.493862866867,-16.1052180071327,-402.546471870433,213.352149440566,189.194322429867
1.76673866090713,413.020133511726,400.474593616606,-12.5455398951196,-406.747363564166,212.782836703423,193.964526860743
1.76889848812095,414.634257558573,408.389149443601,-6.24510811497203,-411.511703501087,210.439682836773,201.072020664315
1.77105831533477,415.449375749329,416.246389131565,0.797013382235832,-415.847882440447,207.326181183547,208.521701256901
1.7732181425486,416.276028892652,418.116151345668,1.84012245301585,-417.19609011916,207.217953219818,209.978136899342
1.77537796976242,416.315231643095,414.647333404615,-1.66789823847972,-415.481282523855,208.991564940787,206.489717583068
1.77753779697624,417.917189547379,410.756307667267,-7.1608818801115,-414.336748607323,212.539035713745,201.797712893578
1.77969762419006,415.488302067157,403.634428840645,-11.8538732265118,-409.561365453901,213.671087646834,195.890277807067
1.78185745140389,416.975741828331,399.245849559683,-17.7298922686477,-408.110795694007,217.352817048489,190.757978645518
1.78401727861771,417.664450687228,404.171517914662,-13.4929327725666,-410.917984300945,215.578691729898,195.339292571048
1.78617710583153,418.422480844455,411.184675419353,-7.23780542510275,-414.803578131904,212.830143134779,201.973434997125
1.78833693304536,421.678025855583,419.148489686281,-2.52953616930182,-420.413257770932,212.103781012442,208.30947675849
1.79049676025918,425.019886767924,425.249168557386,0.229281789461766,-425.134527662655,212.395302489231,212.739225173424
1.792656587473,425.177211943114,423.633210791464,-1.54400115165049,-424.405211367289,213.360606547382,211.044604819907
1.79481641468683,426.812803044295,419.071411110681,-7.74139193361418,-422.942107077488,217.277097488955,205.665009588534
1.79697624190065,428.290646402016,412.663269056155,-15.6273773458607,-420.476957729085,221.959011873938,198.517945855147
1.79913606911447,428.071886309939,408.829841988414,-19.2420443215242,-418.450864149176,223.656965315731,194.793898833445
1.80129589632829,427.081101902349,409.51761278643,-17.5634891159197,-418.29935734439,222.322295509135,195.977061835255
1.80345572354212,426.244806921652,416.385580212529,-9.85922670912316,-421.315193567091,218.052016815388,203.263176751703
1.80561555075594,426.400287249395,422.816241382831,-3.58404586656371,-424.608264316113,214.992166557979,209.616097758134
1.80777537796976,426.66834536721,428.34738005426,1.67903468704975,-427.507862710735,212.49465534008,215.013207370655
1.80993520518359,426.088553937979,427.795032084639,1.70647814666034,-426.941793011309,212.191037895659,214.75075511565
1.81209503239741,423.72478764246,422.601998067799,-1.12278957466123,-423.163392855129,212.423788608561,210.739604246569
1.81425485961123,421.142770545576,415.36506244084,-5.77770810473635,-418.253916493208,213.460239325156,204.793677168052
1.81641468682505,420.046014567334,408.935707343853,-11.1103072234811,-414.490860955594,215.578160895408,198.912700060186
1.81857451403888,419.824220537042,406.174284519352,-13.6499360176909,-412.999252528197,216.737078277367,196.26217425083
1.8207343412527,420.61802233824,410.481450447861,-10.1365718903783,-415.549736393051,215.377297114309,200.172439278742
1.82289416846652,423.229324877019,418.514483669671,-4.71484120734812,-420.871904273345,213.972083042184,206.899821231162
1.82505399568035,425.140861706546,426.620878306407,1.48001659986176,-425.880870006476,211.830422553342,214.050447453135
1.82721382289417,424.570345816754,427.124613393637,2.55426757688355,-425.847479605196,211.008039119935,214.83944048526
1.82937365010799,422.972406971553,423.710709144036,0.738302172482918,-423.341558057794,211.117052399535,212.224505658259
1.83153347732181,421.939818853259,418.081494881606,-3.85832397165274,-420.010656867432,212.899071412456,207.111585454977
1.83369330453564,419.228746660266,409.109623937124,-10.1191227231416,-414.169185298695,214.673934691704,199.495250606991
1.83585313174946,413.446191559769,403.717138504464,-9.72905305530492,-408.581665032116,211.587622307537,196.99404272458
1.83801295896328,410.287614939331,403.057978042992,-7.22963689633826,-406.672796491162,208.758625917835,197.914170573327
1.84017278617711,408.151844184879,407.868592271774,-0.283251913105175,-408.010218228327,204.217548048992,203.792670179334
1.84233261339093,405.298163724403,414.516128473007,9.21796474860395,-409.907146098705,198.0400994879,211.867046610806
1.84449244060475,407.088922488646,418.422521793494,11.3335993048479,-412.75572214107,197.877661591899,214.878060549171
1.84665226781857,407.839144974665,414.406598956835,6.56745398217009,-411.12287196575,200.635845496247,210.487026469503
1.8488120950324,404.402424717672,408.836966455797,4.43454173812501,-406.619695586735,199.983941489774,206.635754096961
1.85097192224622,401.71373493928,399.770266054491,-1.94346888478901,-400.742000496885,201.828601912034,198.913398584851
1.85313174946004,398.37801404195,391.805060497395,-6.57295354455488,-395.091537269673,202.475483793252,192.61605347642
1.85529157667387,396.077090241006,390.171380050959,-5.90571019004756,-393.124235145983,200.991400215527,192.132834930456
1.85745140388769,393.954328612185,393.314055092315,-0.640273519870334,-393.63419185225,197.297301066028,196.336890786222
1.85961123110151,394.219848469411,400.017075425619,5.79722695620819,-397.118461947515,194.211310756602,202.907151190914
1.86177105831533,393.527586807089,404.078407223319,10.5508204162298,-398.802997015204,191.48838319543,207.314613819774
1.86393088552916,393.410675824772,404.20446964693,10.7937938221571,-398.807572735851,191.308441001308,207.499131734543
1.86609071274298,391.574685966604,397.939147698811,6.36446173220696,-394.756916832707,192.605112117198,202.151804715509
1.8682505399568,389.776214320744,392.031425405202,2.25521108445844,-390.903819862973,193.760501618143,197.14331824483
1.87041036717063,391.323439764819,383.150554206313,-8.17288555850632,-387.236996985566,199.748162661663,187.488834323903
1.87257019438445,392.254111869743,381.356962218657,-10.8971496510867,-386.8055370442,201.575630760415,185.229906283785
1.87473002159827,392.463735101189,385.970380984557,-6.49335411663134,-389.217058042873,199.47854460891,189.738513433963
1.8768898488121,390.226720267013,393.448184695734,3.22146442872122,-391.837452481374,193.502627919146,198.334824562228
1.87904967602592,387.053319148901,397.598694472682,10.5453753237807,-392.326006810791,188.25397191256,204.072034898231
1.88120950323974,385.345473077329,397.882605229341,12.5371321520121,-391.614039153335,186.404170462658,205.209868690676
1.88336933045356,385.190042768112,394.148902139469,8.95885937135699,-389.669472453791,188.115591698378,201.553880755413
1.88552915766739,385.08986201922,385.9182607914,0.828398772179867,-385.50406140531,192.13073162352,193.37332978179
1.88768898488121,384.294806413052,377.765746674184,-6.5290597388684,-381.030276543618,195.41193307596,185.618343467658
1.88984881209503,381.993610517663,374.217372823123,-7.77623769454016,-378.105491670393,194.884924106101,183.220567564291
1.89200863930886,383.688516986058,377.059200625962,-6.62931636009648,-380.37385880601,195.158916673077,185.214942132933
1.89416846652268,382.964769312323,383.644736646618,0.679967334294588,-383.304752979471,191.142400989014,192.162351990456
1.8963282937365,384.561877405001,391.019946348056,6.45806894305508,-387.790911876529,189.051904230973,198.739007645556
1.89848812095032,389.284506310361,396.241370550002,6.95686423964094,-392.762938430181,191.16382103536,201.599117394821
1.90064794816415,391.602177694576,393.507151856435,1.90497416185906,-392.554664775505,194.848601766358,197.706063009147
1.90280777537797,390.755397202131,389.376764121423,-1.37863308070774,-390.066080661777,196.067015141419,193.999065520358
1.90496760259179,389.945118083801,380.409070665437,-9.53604741836324,-385.177094374619,199.740582751082,185.436511623537
1.90712742980562,386.7898829615,373.522078206539,-13.267804754961,-380.15598058402,200.028843858231,180.127136725789
1.90928725701944,386.03816309811,376.148631222535,-9.88953187557513,-381.093397160322,197.963847486842,183.12954967348
1.91144708423326,386.869384540268,381.783910072824,-5.08547446744416,-384.326647306546,195.977429503856,188.34921780269
1.91360691144708,390.057155919745,389.939698124104,-0.117457795640803,-389.998427021924,195.087306857693,194.911120164232
1.91576673866091,390.834039205097,396.094204849161,5.26016564406376,-393.464122027129,192.786936780517,200.677185246612
1.91792656587473,393.98318611234,395.963971596372,1.9807854840322,-394.973578854356,196.001200314154,198.972378540202
1.92008639308855,393.965082934733,392.814698697588,-1.15038423714492,-393.38989081616,197.557733585939,195.832157230221
1.92224622030238,394.761799310516,384.692172392292,-10.0696269182241,-389.726985851404,202.41571311437,187.311272737034
1.9244060475162,393.190895584694,380.069130596304,-13.12176498839,-386.630013090499,203.156330286542,183.473682803957
1.92656587473002,392.414800422718,379.287352963719,-13.1274474589987,-385.851076693218,202.771123940858,183.07995275236
1.92872570194384,390.831732719071,381.530667900356,-9.30106481871491,-386.181200309713,200.066398768893,186.114801540821
1.93088552915767,386.852219413711,387.231143833588,0.378924419877592,-387.041681623649,193.236647496917,193.805034126733
1.93304535637149,384.458314320286,391.118944012502,6.66062969221571,-387.788629166394,188.898842314035,198.889786852359
1.93520518358531,385.244718703074,393.611202452096,8.36648374902143,-389.427960577585,188.439117477026,200.988843100559
1.93736501079914,386.029369799576,391.476682218254,5.44731241867794,-388.753026008915,190.291028690449,198.461997318466
1.93952483801296,389.190042761739,385.012401886939,-4.17764087480037,-387.101222324339,196.68384181827,190.417380506069
1.94168466522678,390.76169548979,378.680043673534,-12.0816518162558,-384.720869581662,201.421673653023,183.299195928639
1.9438444924406,390.765218935961,376.075096180489,-14.6901227554716,-383.420157558225,202.727670845716,180.692486712509
1.94600431965443,392.394745719736,378.90542145608,-13.4893242636567,-385.650083587908,202.942034991696,182.708048596211
1.94816414686825,394.049062381458,388.513315724044,-5.53574665741388,-391.281189052751,199.792404519436,191.488784533315
1.95032397408207,394.891476799648,394.096674572282,-0.794802227366006,-394.494075685965,197.843139513507,196.650936172458
1.9524838012959,392.496649583109,398.390739307052,5.89408972394256,-395.44369444508,193.301279929583,202.142414515497
1.95464362850972,391.622311251151,395.664686591829,4.04237534067846,-393.64349892149,193.789967955236,199.853530966254
1.95680345572354,387.541985479849,389.286310696384,1.74432521653512,-388.414148088117,192.898830131657,195.51531795646
1.95896328293737,387.473018985257,382.084436899339,-5.38858208591756,-384.778727942298,196.430800535587,188.347927406711
1.96112311015119,389.083200210721,376.106570766845,-12.976629443876,-382.594885488783,201.029914827298,181.564970661484
1.96328293736501,391.574309364942,378.724527734165,-12.8497816307767,-385.149418549554,202.212045497859,182.937373051694
1.96544276457883,394.886413490393,387.419283197805,-7.46713029258746,-391.152848344099,201.17677189149,189.976076452609
1.96760259179266,397.348234074281,394.627867784288,-2.72036628999325,-395.988050929285,200.034300182137,195.953750747147
1.96976241900648,396.524662329996,399.097469682095,2.57280735209901,-397.811066006046,196.975927488949,200.835138517097
1.9719222462203,395.607331895977,398.980947227814,3.37361533183656,-397.294139561895,196.11685828207,201.177281279825
1.97408207343413,391.49306743472,394.349961159265,2.8568937245447,-392.921514296993,194.318086855088,198.603427441905
1.97624190064795,390.624676243693,387.150999364345,-3.47367687934747,-388.887837804019,197.04917656152,191.838661242499
1.97840172786177,393.044813081167,381.012752593137,-12.0320604880297,-387.028782837152,202.538436784598,184.490346052554
1.98056155507559,395.547206793055,382.593000055255,-12.9542067378005,-389.070103424155,204.250706765428,184.819396658727
1.98272138228942,398.850281456777,387.121714267085,-11.728567189692,-392.985997861931,205.289424323235,187.696573538697
1.98488120950324,401.291948279232,395.885674272692,-5.40627400654012,-398.588811275962,203.349111142886,195.239700133076
1.98704103671706,402.844738249853,401.300440848075,-1.54429740177801,-402.072589548964,202.194517825816,199.878071723149
1.98920086393089,401.951719455575,403.820982729142,1.86926327356633,-402.886351092358,200.041228091004,202.845123001354
1.99136069114471,401.85591472125,400.201789229003,-1.65412549224772,-401.028851975126,201.755020106749,199.273831868377
1.99352051835853,401.023526571028,396.237408345894,-4.78611822513403,-398.630467458461,202.904822398081,195.72564506038
1.99568034557235,401.849429773428,387.577129161127,-14.2723006123003,-394.713279467277,208.060865192864,186.652414274413
1.99784017278618,401.125225963367,384.135385323497,-16.9898406398694,-392.630305643432,209.057533301618,183.572772341814
2,398.805323857254,387.643976174345,-11.1613476829094,-393.2246500158,204.983335770082,188.241314245718
2.00215982721382,396.448249156586,394.748336880154,-1.69991227643226,-395.59829301837,199.074080716509,196.524212301861
2.00431965442765,394.843933448836,397.900720205758,3.05678675692161,-396.372326827297,195.893573345957,200.47875348134
2.00647948164147,394.00728224024,402.252783662932,8.24550142269146,-398.130032951586,192.880890408774,205.249142542812
2.00863930885529,394.75382897974,400.448107265882,5.69427828614198,-397.600968122811,194.529775346799,203.071192776012
2.01079913606911,395.512952397544,394.183598623061,-1.32935377448314,-394.848275510303,198.421153086014,196.427122424289
2.01295896328294,395.503445095686,387.010484635881,-8.49296045980537,-391.256964865784,201.998202777746,189.258762088038
2.01511879049676,393.938741343003,380.960002389995,-12.9787389530082,-387.449371866499,203.458740148006,183.990631718493
2.01727861771058,394.785475429361,382.658014676234,-12.1274607531277,-388.721745052798,203.456468091245,185.265276961553
2.01943844492441,394.842655155344,389.667294147034,-5.17536100830955,-392.254974651189,200.009008081827,192.245966569362
2.02159827213823,394.078423417187,396.075077946857,1.9966545296702,-395.076750682022,196.040884443758,199.035866238264
2.02375809935205,395.647804496903,400.628867221901,4.98106272499774,-398.138335859402,195.333370885953,202.804964973449
2.02591792656587,395.581497871911,400.628001205465,5.04650333355318,-398.104749538688,195.267497269179,202.837252269509
2.0280777537797,398.677317635855,396.067567268191,-2.60975036766371,-397.372442452023,200.643534001759,196.728908450264
2.03023758099352,398.628537960062,390.438819529217,-8.18971843084466,-394.533678744639,203.409128195453,191.124550549186
2.03239740820734,400.238689568925,384.209207660956,-16.0294819079681,-392.223948614941,208.134085738446,184.089862876494
2.03455723542117,400.32945739026,384.102516428628,-16.2269409616319,-392.215986909444,208.278199175946,183.937787733498
2.03671706263499,398.854942818868,387.801273972776,-11.0536688460912,-393.328108395822,204.954305832479,188.373802563343
2.03887688984881,398.129839541421,397.407749929532,-0.722089611889032,-397.768794735477,199.425964576655,198.342830158822
2.04103671706264,397.307767218739,400.532216955552,3.22444973681263,-398.919992087146,197.041658740963,201.878333346182
2.04319654427646,397.97837471345,403.916235400498,5.93786068704793,-400.947305056974,196.020257013201,204.927048043773
2.04535637149028,397.822349688408,401.086196328416,3.26384664000801,-399.454273008412,197.2792515242,202.175021484212
2.0475161987041,399.318092302934,394.664249921033,-4.65384238190052,-396.991171111984,201.985967342417,195.005203769566
2.04967602591793,400.945084249181,387.506647897226,-13.4384363519551,-394.225866073204,207.191760300568,187.034105772636
2.05183585313175,404.28337831031,386.413463745128,-17.8699145651827,-395.348421027719,211.076646437746,184.271774589972
2.05399568034557,405.273297131026,391.551107253071,-13.7221898779545,-398.412202192048,209.49774350449,188.914458687558
2.0561555075594,406.973969415389,399.536738033524,-7.43723138186556,-403.255353724456,207.205600398627,196.049753325829
2.05831533477322,403.750158383302,404.350892040898,0.600733657596322,-404.0505252121,201.574712362853,202.475812849247
2.06047516198704,402.769477222379,407.123006218146,4.35352899576731,-404.946241720263,199.207974113306,205.738267606957
2.06263498920086,399.37043118064,404.46362231837,5.09319113772995,-401.917026749505,197.138620021455,204.77840672805
2.06479481641469,397.655969846771,397.317163928679,-0.33880591809185,-397.486566887725,198.997387882431,198.489179005294
2.06695464362851,397.704744025993,390.087067913172,-7.61767611282107,-393.895905969583,202.661210069407,191.234695900176
2.06911447084233,400.285214977697,386.427701852908,-13.8575131247898,-393.356458415303,207.071364051244,186.285094364059
2.07127429805616,402.898114093023,388.98352741133,-13.9145866816932,-395.940820752176,208.406350387358,187.534470364818
2.07343412526998,403.026062605829,396.863767825315,-6.16229478051434,-399.944915215572,204.594178693172,195.3507365224
2.0755939524838,404.568251070464,403.315406237737,-1.25284483272685,-403.941828654101,202.910547951595,201.031280702505
2.07775377969762,405.16948657087,407.857470053718,2.68798348284821,-406.513478312294,201.240751544011,205.272726768283
2.07991360691145,400.178175485129,407.006664074897,6.82848858976854,-403.592419780013,196.67484344768,206.917576332333
2.08207343412527,402.43626634884,401.588712255636,-0.847554093203996,-402.012489302238,201.641910221022,200.370579081216
2.08423326133909,402.478400917982,395.131867552548,-7.34653336543391,-398.805134235265,204.912467141708,193.892667093557
2.08639308855292,405.831882951476,390.500909765811,-15.330973185665,-398.166396358643,210.58142806857,187.584968290073
2.08855291576674,407.625426473362,390.434435908819,-17.190990564543,-399.029931191091,212.408208518953,186.621722672138
2.09071274298056,406.953004825279,396.55899355031,-10.3940112749686,-401.755999187795,208.673508050124,193.082491137671
2.09287257019438,405.347391295695,401.425175929244,-3.9222153664507,-403.386283612469,204.634803331073,198.751480281397
2.09503239740821,402.034810738929,406.143742952041,4.10893221311159,-404.089276845485,198.962939262909,205.126337582576
2.09719222462203,400.267951433817,407.133064772608,6.86511333879116,-403.700508103212,196.701419047513,206.9990890557
2.09935205183585,396.956694159391,403.484263464187,6.52756930479609,-400.220478811789,195.214562427297,205.005916384492
2.10151187904968,400.895324132491,397.030230053258,-3.86509407923324,-398.962777092875,202.380209105862,196.582567987012
2.1036717062635,400.969747997678,390.633864321421,-10.3358836762574,-395.80180615955,205.652815836968,190.148990322582
2.10583153347732,402.70687019792,388.726590202621,-13.980279995299,-395.716730200271,208.34357509661,187.373155103661
2.10799136069114,406.046200650032,392.288375887785,-13.7578247622466,-399.167288268908,209.902012706139,189.265275562769
2.11015118790497,406.944612018148,400.325957029651,-6.61865498849704,-403.635284523899,206.781633503322,196.853651020577
2.11231101511879,410.112665776014,407.590919564487,-2.52174621152705,-408.851792670251,206.317205993771,202.53458667648
2.11447084233261,411.566301783749,411.990633733751,0.424331950001886,-411.77846775875,205.570984916873,206.207482841876
2.11663066954644,411.35710017811,410.102473077038,-1.254627101072,-410.729786627574,206.305863639591,204.423922987983
2.11879049676026,410.385843439259,404.465402703725,-5.9204407355341,-407.425623071492,208.153142087397,199.272480984096
2.12095032397408,409.556411879727,397.146112451259,-12.4102994284676,-403.351262165493,210.983355654097,192.367906511396
2.1231101511879,412.882139542517,395.035936726237,-17.8462028162803,-403.959038134377,215.364171179399,188.594866954978
2.12526997840173,417.911582635462,399.222319382062,-18.6892632533994,-408.566951008762,218.300422944431,190.266528064331
2.12742980561555,419.730336775366,407.99987166969,-11.7304651056753,-413.865104222528,215.73040094052,198.134703282008
2.12958963282937,419.786447800444,413.760342327284,-6.02610547315999,-416.773395063864,212.906276636802,203.867118427062
2.1317494600432,418.033264036813,419.134089135127,1.10082509831426,-418.58367658597,208.466219469249,210.117457116721
2.13390928725702,413.759807716571,417.430453072168,3.67064535559734,-415.59513039437,205.044581180487,210.550549213883
2.13606911447084,411.110619622942,411.887736155852,0.777116532910327,-411.499177889397,205.166751545016,206.332426344381
2.13822894168467,412.628264039895,404.520715942118,-8.10754809777757,-408.574489991006,210.367906068836,198.20658392217
2.14038876889849,414.389642672289,399.857726518667,-14.5319161536214,-407.123684595478,214.460779412955,192.662905182523
2.14254859611231,417.890149687103,399.868507686454,-18.021642000649,-408.879328686779,217.955895843876,190.923432842903
2.14470842332613,420.561760279643,406.136070460658,-14.4256898189852,-413.348915370151,217.493725049314,195.855190320836
2.14686825053996,422.233481186047,415.886213185746,-6.34726800030109,-419.059847185896,214.290374593174,204.769472592722
2.14902807775378,422.05638594609,422.205244408846,0.14885846275547,-422.130815177468,210.953763741667,211.177051435801
2.1511879049676,422.510944817908,423.883944046883,1.37299922897449,-423.197444432395,210.568972794467,212.628471637928
