t,leadI,leadII,leadIII,aVR,aVL,aVF
0,140.126126126126,141.036036036036,0.909909909909913,-140.581081081081,69.6081081081081,70.972972972973
0.00216356555603635,140.06275212909,147.047512326311,6.98476019722099,-143.555132227701,66.5389959659345,77.016136261766
0.0043271311120727,138.535313697519,147.781572543425,9.24625884590642,-143.158443120472,64.6445274258063,78.5139156946659
0.00649069666810904,136.750310325942,147.207058943925,10.4567486179835,-141.978684634934,63.1467808539791,78.8319037809544
0.00865426222414539,135.636467323236,146.84856216854,11.2120948453043,-141.242514745888,62.2121862389656,79.030328506922
0.0108178277801817,134.887234719107,146.039056345066,11.1518216259591,-140.463145532087,61.8677065465739,78.5954389855126
0.0129813933362181,133.530778476115,144.362911008928,10.8321325328127,-138.946844742521,61.3493229716512,77.5975217708702
0.0151449588922544,132.56308391634,143.44122455639,10.87814064005,-138.002154236365,60.842471638145,77.15968259822
0.0173085244482908,132.137554398727,142.776632529688,10.639078130961,-137.457093464207,60.749238133883,76.7078553303245
0.0194720900043271,131.828977990433,141.480908904164,9.65193091373058,-136.654943447299,61.0885235383514,75.5664199089473
0.0216356555603635,131.333790821181,140.809214513169,9.47542369198865,-136.071502667175,60.9291835645961,75.1423191025791
0.0237992211163998,130.702570743727,140.590346376812,9.88777563308494,-135.64645856027,60.4073975553212,75.2390610049486
0.0259627866724362,130.242326294803,139.349469046838,9.10714275203489,-134.79589767082,60.5675917713839,74.2283058994362
0.0281263522284725,129.095858082479,138.174046022731,9.07818794025169,-133.634952052605,60.0088350711136,73.6261169814912
0.0302899177845089,128.529549689779,137.046203773321,8.51665408354143,-132.78787673155,60.0064478031189,72.7814289284311
0.0324534833405452,127.575930830639,136.493357467308,8.91742663666925,-132.034644148973,59.3292520969846,72.7053920519885
0.0346170488965816,126.879992483758,135.549558281419,8.66956579766156,-131.214775382589,59.1052133430482,72.1095620395405
0.0367806144526179,126.372087372732,134.590597642698,8.21851026996551,-130.481342507715,59.0767885513833,71.4045539563316
0.0389441800086543,125.461084158765,134.1608817414,8.69979758263577,-129.810982950083,58.3806432880644,71.4303396620181
0.0411077455646906,125.066360228374,133.036785237443,7.97042500906858,-129.051572732909,58.5479676096528,70.5036051232557
0.043271311120727,124.508117940179,132.216375554548,7.7082576143688,-128.362246747364,58.3999301629052,69.9623165844584
0.0454348766767633,124.100689640915,131.887763441229,7.7870738003144,-127.994226541072,58.1568079203003,69.8374186207719
0.0475984422327997,123.533174640072,131.107615322315,7.57444068224265,-127.320394981193,57.9793669789148,69.3410280022787
0.049762007788836,123.118977736365,129.99791685506,6.87893911869492,-126.558447295713,58.1200193088352,68.4384279868776
0.0519255733448723,123.086835151444,129.458167031768,6.37133188032355,-126.272501091606,58.3577516355604,67.9147494560457
0.0540891389009087,122.523063575267,129.334390340795,6.81132676552778,-125.928726958031,57.8558684048695,68.0728585531612
0.056252704456945,122.111598451676,128.703740231579,6.59214177990305,-125.407669341628,57.7597283358865,67.6479410057411
0.0584162700129814,121.541136985167,127.703151752081,6.16201476691326,-124.622144368624,57.689561109127,66.9325832594969
0.0605798355690177,120.854633025581,126.972878495661,6.11824547008013,-123.913755760621,57.3681937777503,66.5455619828705
0.0627434011250541,120.083436170439,126.169736891809,6.08630072137043,-123.126586531124,56.9985677245342,66.1280188065898
0.0649069666810904,119.790739156672,125.313412774179,5.52267361750708,-122.552075965425,57.1340327695823,65.4180431958429
0.0670705322371268,119.036803634824,124.418273727226,5.38147009240193,-121.727538681025,56.8276667712112,64.8998719098141
0.0692340977931631,118.7567046918,123.764962056444,5.00825736464441,-121.260833374122,56.8742236635778,64.3866097105444
0.0713976633491995,118.282120006358,123.017990380475,4.73587037411706,-120.650055193416,56.7731248161203,63.8769303772959
0.0735612289052358,118.476059746134,123.283286379465,4.80722663333098,-120.879673062799,56.8344165564013,64.0452565063977
0.0757247944612722,118.077293036496,122.936598592332,4.85930555583649,-120.506945814414,56.6089937403297,63.8979520740844
0.0778883600173085,117.516099418714,121.87310202879,4.35700261007527,-119.694600723752,56.5795484043195,63.1150523194324
0.0800519255733449,117.106515742897,121.367071880197,4.2605561373004,-119.236793811547,56.4229798027983,62.8138140087489
0.0822154911293812,117.07773985329,120.997748919669,3.92000906637951,-119.03774438648,56.5788653934552,62.4588789930244
0.0843790566854176,116.246269313378,119.91773221549,3.67146290211252,-118.082000764434,56.2874032056325,61.7945975588013
0.0865426222414539,115.639425704824,118.859332521011,3.2199068161877,-117.249379112918,56.209759444318,61.0396196685996
0.0887061877974903,115.466680878634,118.627178502395,3.16049762376126,-117.046929690515,56.1530916274363,60.8938380630782
0.0908697533535266,115.610760352181,118.45774233402,2.84698198183867,-117.034251343101,56.3818891851714,60.6523621579294
0.093033318909563,114.90544722533,117.793767975303,2.88832074997333,-116.349607600317,56.0085632376783,60.3410443626383
0.0951968844655993,114.660835032885,117.57932662599,2.91849159310523,-116.120080829438,55.8711717198898,60.2489091095477
0.0973604500216357,114.212150131857,117.152661727404,2.94051159554763,-115.682405929631,55.6358192681545,60.046586661476
0.099524015577672,113.344367820271,116.300950577816,2.95658275754478,-114.822659199043,55.1938925313631,59.6287666676803
0.101687581133708,112.440866078841,115.409178274137,2.96831219529639,-113.925022176489,54.7362769417723,59.1887452347169
0.103851146689745,111.781450945295,115.298636221616,3.51718527632099,-113.540043583456,54.1321328344872,59.4079107489686
0.106014712245781,111.570337118151,114.947801579385,3.37746446123431,-113.259069348768,54.0964363284582,59.1626330203097
0.108178277801817,110.875944579078,114.691747095092,3.81580251601437,-112.783845837085,53.5300710315319,59.2537748055534
0.110341843357854,110.369146497913,114.504867320309,4.13572082239587,-112.437006909111,53.1167128377587,59.3202940713525
0.11250540891389,110.269419278411,114.098318065685,3.82889878727364,-112.183868672048,53.2202602455688,58.9636084264793
0.114668974469926,109.656321563007,113.261288193886,3.60496663087879,-111.458804878447,53.0256774660642,58.4331274123824
0.116832540025963,109.749168427647,112.380230929604,2.63106250195689,-111.064699678626,53.5590529628451,57.5056467157805
0.118996105581999,109.54677592318,112.277509182026,2.73073325884563,-110.912142552603,53.4080213321673,57.5041212204357
0.121159671138035,109.12890479916,112.20253835265,3.07363355349057,-110.665721575905,53.0276356228345,57.6380859530703
0.123323236694072,108.823924155055,111.607508934796,2.78358477974126,-110.215716544926,53.0201696876568,57.1955468572687
0.125486802250108,108.601335926456,111.983699046037,3.382363119581,-110.292517486246,52.6094864034374,57.6830310828089
0.127650367806145,108.979193714245,112.528415273753,3.54922155950722,-110.753804493999,52.7149860773691,58.0388184166299
0.129813933362181,108.174346025973,111.575191969486,3.40084594351251,-109.874768997729,52.3867500412303,57.488018956499
0.131977498918217,108.127245364041,111.149644074039,3.0223987099974,-109.63844471904,52.5524233270219,57.0860213920181
0.134141064474254,108.092869238514,111.649529221611,3.55665998309698,-109.871199230062,52.2681046277083,57.6030946023538
0.13630463003029,108.337936248709,111.203898655729,2.86596240701968,-109.770917452219,52.7359869208447,57.0349305313742
0.138468195586326,107.976484460032,110.068189319805,2.0917048597727,-109.022336889918,52.9423898001297,56.0799470897887
0.140631761142363,107.442524905487,110.319923763348,2.87739885786122,-108.881224334417,52.2825630238127,56.5986613106045
0.142795326698399,107.05281784149,109.693181947611,2.64036410612093,-108.37299989455,52.2062268676845,56.1667730268659
0.144958892254435,107.308704985385,109.776070750378,2.46736576499272,-108.542387867882,52.4206696101963,56.1217182576854
0.147122457810472,107.495462627819,109.836566628183,2.34110400036379,-108.666014628001,52.5771793137278,56.0888353142735
0.149286023366508,107.091454109292,109.880719168807,2.78926505951452,-108.486086639049,52.1510945248888,56.3349921141606
0.151449588922544,106.526434789822,109.372631202567,2.84619641274507,-107.949532996195,51.8401191885387,56.1094138076563
0.153613154478581,106.384215161207,108.731650144713,2.34743498350686,-107.55793265296,52.0183900888498,55.5395425641101
0.155776720034617,106.280417048711,108.533990313202,2.25357326449095,-107.407203680957,52.0134218921102,55.3937817888466
0.157940285590653,106.204660641087,107.849417089268,1.64475644818086,-107.027038865178,52.2799520964532,54.7470867687245
0.16010385114669,105.609057873829,107.349785574261,1.74072770043215,-106.479421724045,51.9341650866982,54.5452566373464
0.162267416702726,105.714673317696,107.795601252294,2.08092793459829,-106.755137284995,51.8168726915489,54.9382645934463
0.164430982258762,105.521599881462,108.120977055558,2.59937717409591,-106.82128846851,51.4611113536828,55.3601771148267
0.166594547814799,105.650842645245,108.088294352505,2.43745170725983,-106.869568498875,51.6066954689925,55.2628730298823
0.168758113370835,105.475013461681,107.524128660959,2.04911519927809,-106.49957106132,51.7129491312015,54.7866219301186
0.170921678926871,105.346685624285,107.382532047381,2.0358464230958,-106.364608835833,51.6554196005947,54.7091892352384
0.173085244482908,105.253026349318,107.009032426669,1.75600607735144,-106.131029387994,51.7485101359833,54.3825192520104
0.175248810038944,104.914513497411,106.736436048625,1.82192255121387,-105.825474773018,51.5462954730985,54.2791792999193
0.177412375594981,104.397295783373,106.267327063571,1.87003128019771,-105.332311423472,51.2636322515878,54.0686791718843
0.179575941151017,104.560120071416,106.195106996746,1.63498692532966,-105.377613534081,51.4625665730433,53.9150469610377
0.181739506707053,104.678956366601,106.142397629595,1.46344126299456,-105.410676998098,51.6077575518031,53.8029194462949
0.18390307226309,104.225375874702,106.374084237276,2.14870836257387,-105.299730055989,51.0383337560641,54.2613962999249
0.186066637819126,104.164489182145,106.273023056813,2.10853387466727,-105.218756119479,51.027977653739,54.1907784657399
0.188230203375162,104.120051407803,105.929107970159,1.80905656235578,-105.024579688981,51.1554974227237,53.8690822662573
0.190393768931199,103.547306350498,105.948259892393,2.40095354189478,-104.747783121445,50.5731764043015,54.1746067171437
0.192557334487235,103.129291928242,105.692081591994,2.56278966375162,-104.410686760118,50.2832511322454,54.1274356278728
0.194720900043271,102.824206698811,104.964799027052,2.14059232824033,-103.894502862931,50.3418071852854,53.5526956776459
0.196884465599308,102.33138592739,104.704152576686,2.37276664929635,-103.517769252038,49.9793096390466,53.5384596129911
0.199048031155344,102.241859960578,105.594546231475,3.35268627089694,-103.918203096027,49.4445868448407,54.4736162511861
0.20121159671138,102.446676201697,105.704082085669,3.25740588397228,-104.075379143683,49.5946351588622,54.4807439848207
0.203375162267417,102.326003851113,105.243713724686,2.91770987357322,-103.7848587879,49.70414698877,54.0807117991298
0.205538727823453,102.508088097512,105.177872948044,2.66978485053147,-103.842980522778,49.9191516234905,53.9238288992877
0.207702293379489,102.640981153663,105.399975678078,2.75899452441452,-104.02047841587,49.9409933146243,54.0794851012461
0.209865858935526,102.197659901437,104.481451128432,2.28379122699573,-103.339555514935,49.9569343372205,53.3826211777141
0.212029424491562,101.603948427482,104.081227903502,2.4772794760198,-102.842588165492,49.5633344757313,53.279253689761
0.214192990047598,101.71094422002,104.329439892665,2.61849567264585,-103.020192056342,49.5462242736868,53.4739677826556
0.216356555603635,102.329346858302,104.510595871095,2.1812490127932,-103.419971364699,50.0740489227544,53.3459224419442
0.218520121159671,101.9702155468,103.832342801019,1.86212725421987,-102.90127917391,50.0540441462899,52.8472350276197
0.220683686715707,101.437949578106,103.877636434789,2.43968685668347,-102.657793006447,49.4991313607111,53.1586616457363
0.222847252271744,101.589790990965,103.370381288294,1.78059029732881,-102.48008613963,49.9046003468183,52.5754857928115
0.22501081782778,101.43045529105,103.000164270629,1.56970897957869,-102.21530978084,49.9303731557358,52.2849366251038
0.227174383383817,101.044008908368,103.000119891898,1.95611098352974,-102.022064400133,49.5439489624193,52.4781154377139
0.229337948939853,101.032119628395,103.5403999261,2.50828029770541,-102.286259777248,49.2619196653448,53.0243401119029
0.231501514495889,100.753286099389,103.664563741041,2.91127764165161,-102.208924920215,48.9210042288689,53.2879206913463
0.233665080051926,100.819937392194,103.755183930086,2.93524653789133,-102.28756066114,48.9423454271516,53.3452152339885
0.235828645607962,101.408894847962,103.551166300267,2.14227145230525,-102.480030574115,49.6333116978285,52.8467188762864
0.237992211163998,101.568585576655,103.942577724219,2.37399214756464,-102.755581650437,49.597296714545,53.1582849358919
0.240155776720035,101.144822439269,103.68793449685,2.54311205758049,-102.416378468059,49.3008551908443,53.115523277215
0.242319342276071,101.105697757682,104.042397142908,2.93669938522602,-102.574047450295,49.084499186228,53.4895482640671
0.244482907832107,101.617455275607,103.760787079514,2.14333180390757,-102.68912117756,49.7370617358496,52.9520594417109
0.246646473388144,101.450645897349,103.555255724072,2.10460982672318,-102.50295081071,49.6730180353127,52.8299327753975
0.24881003894418,101.058744896954,103.135093729165,2.0763488322111,-102.096919313059,49.4911980323713,52.605721280688
0.250973604500216,101.042874598126,103.368753530918,2.32587893279177,-102.205814064522,49.3584978326671,52.8473162318547
0.253137170056253,101.301447970982,103.269132473891,1.96768450290833,-102.285290222437,49.666881734037,52.6184084883995
0.255300735612289,101.490166140937,103.196424664253,1.70625852331573,-102.343295402595,49.8919538088106,52.4513415937842
0.257464301168325,101.357744713114,103.14335932104,1.78561460792633,-102.250552017077,49.7860650525937,52.4644869644832
0.259627866724362,101.531253968473,103.644942333675,2.11368836520121,-102.588098151074,49.7087828016361,52.8793153494379
0.261791432280398,101.117576196937,103.470707155933,2.35313095899622,-102.294141676435,49.3822226189705,52.9119190574648
0.263954997836434,101.085812256966,103.613698905657,2.52788664869084,-102.349755581312,49.2789628041378,53.070792777174
0.266118563392471,101.332785754564,103.988216757818,2.65543100325455,-102.660501256191,49.3386773756546,53.3218238805365
0.268282128948507,101.513037827618,103.99140007389,2.47836224627207,-102.752218950754,49.5173377906728,53.2348811600809
0.270445694504543,101.644593683433,103.99372339735,2.34912971391681,-102.819158540392,49.6477319847582,53.1714265556334
0.27260926006058,101.740608907592,104.265575272417,2.52496636482486,-103.003092090005,49.6078212713837,53.395270818621
0.274772825616616,102.080841234382,103.923672250982,1.84283101660047,-103.002256742682,50.1190051088907,52.8832516337915
0.276936391172653,102.059001472738,103.944292666518,1.88529119377941,-103.001647069628,50.0868551394794,52.9147919301486
0.279099956728689,102.583374282112,104.229498560576,1.64612427846464,-103.406436421344,50.4686250018236,52.9378114195205
0.281263522284725,102.695928307825,104.167498098821,1.47156979099633,-103.431713203323,50.6121792584142,52.8195339449087
0.283427087840762,102.237762740577,104.122247446948,1.88448470637094,-103.180005093762,50.176639017103,53.0033660766594
0.285590653396798,102.44368587113,104.629533963513,2.18584809238264,-103.536609917321,50.1289188893737,53.4076910279477
0.287754218952834,102.593977588796,105.269930088301,2.67595249950426,-103.931953838548,49.959012544646,53.9729412939024
0.289917784508871,102.973823277214,105.197006798175,2.22318352096138,-104.085415037694,50.3753198781262,53.7100951595682
0.292081350064907,103.251051293353,105.143784187867,1.89273289451464,-104.19741774061,50.6791591994189,53.5182585411909
0.294244915620943,103.183228226955,105.104939996346,1.92171176939101,-104.14408411165,50.6307582287819,53.5133258828685
0.29640848117698,103.133727983253,105.616902228203,2.48317424494975,-104.375315105728,50.3252768691515,54.0500382365762
0.298572046733016,103.097600537876,105.180086047265,2.08248550938855,-104.13884329257,50.5075575142437,53.6312857783265
0.300735612289052,103.341389358158,104.591122259181,1.24973290102291,-103.96625580867,51.0458282285678,52.9204275801021
0.302899177845089,103.519317114257,104.70158312076,1.18226600650284,-104.110450117508,51.1685255538769,52.9419245636312
0.305062743401125,103.379020369909,105.052358506285,1.67333813637636,-104.215689438097,50.8528411167663,53.3628483213309
0.307226308957161,103.006469450681,105.30836974244,2.30190029175914,-104.15741959656,50.3522845794607,53.8051350170994
0.309389874513198,102.73456547652,105.225061740966,2.49049626444618,-103.979813608743,50.122034606037,53.8577790027063
0.311553440069234,102.806274261883,104.894103701718,2.08782943983456,-103.850188981801,50.3592224110244,53.4909665707763
0.31371700562527,102.588454261563,104.652556032641,2.06410177107804,-103.620505147102,50.2621762452427,53.3583289018597
0.315880571181307,102.4294796874,104.476263966829,2.04678427942933,-103.452871827114,50.1913477039852,53.2615241231292
0.318044136737343,102.043296870104,104.3475982977,2.30430142759521,-103.195447583902,49.8694977212546,53.3259498626474
0.320207702293379,101.221131316076,103.713380034597,2.4922487185206,-102.467255675336,49.3644412987778,53.1028143765587
0.322371267849416,101.43154752927,103.520655986825,2.08910845755477,-102.476101758048,49.6712195358578,52.80488222219
0.324534833405452,101.044806071649,103.109841325865,2.06503525421604,-102.077323698757,49.4898854087162,52.5874382900403
0.326698398961489,100.762545221191,102.81001079749,2.04746557629893,-101.786278009341,49.3575398224463,52.4287381868947
0.328861964517525,100.556538892854,102.321025136994,1.76448624414006,-101.438782014924,49.3960263243568,52.0427556905668
0.331025530073561,100.946498877544,103.044766837683,2.09826796013849,-101.995632857614,49.4241154587029,52.5715173989106
0.333189095629598,100.690796326246,102.222204162782,1.53140783653583,-101.456500244514,49.5796942448552,51.8768059996589
0.335352661185634,100.234017195701,101.351705692288,1.11768849658677,-100.792861443994,49.5581643495571,51.2346970944373
0.33751622674167,99.900639784726,101.256690214766,1.35605043003966,-100.578664999746,49.2722946773432,51.3063703224026
0.339679792297707,99.6573263522235,101.457499970592,1.80017361836816,-100.557413161408,48.9285763669277,51.6288367944799
0.341843357853743,99.4797455549434,101.063747299734,1.58400174479019,-100.271746427338,48.9478719050766,51.3238745222619
0.344006923409779,99.079983101286,100.776369358849,1.69638625756289,-99.9281762300674,48.6917984218615,51.2363778082059
0.346170488965816,99.0583751696288,100.836784565721,1.77840939609187,-99.9475798676748,48.6399828867685,51.3075969809063
0.348334054521852,98.7724485430629,100.610722017293,1.83827347423004,-99.6915852801779,48.4670875344164,51.2244977457615
0.350497620077888,98.5637667708033,100.445731670594,1.88196489979121,-99.5047492206989,48.340900935506,51.1638482851928
0.352661185633925,98.6816178874956,100.325314490955,1.64369660345987,-99.5034661892255,48.5189606420179,50.9845055472077
0.354824751189961,99.0377870048091,100.237428760412,1.19964175560287,-99.6376078826105,48.9190726246031,50.7185352580074
0.356988316745997,98.4872661869886,99.9031296940381,1.41586350704944,-99.1951979405133,48.5357013399696,50.6594966005437
0.359151882302034,98.3556281997386,100.199456020811,1.84382782107259,-99.2775421102749,48.255900189333,51.0216419209419
0.36131544785807,98.5297092443342,100.685884161537,2.156174917203,-99.6077967029357,48.1867671635656,51.4210295393701
0.363479013414106,98.3866050014914,100.230432082802,1.84382708131044,-99.3085185421467,48.2713889600905,51.0371295820562
0.365642578970143,98.2821612587979,100.708491847962,2.42633058916384,-99.4953265533798,47.927915334817,51.5674112185628
0.367806144526179,98.7462460657274,101.057400797918,2.31115473219033,-99.9018234318226,48.2175456667685,51.684277765054
0.369969710082216,98.2744868436147,100.501581192051,2.22709434843586,-99.3880340178327,48.0236962475894,51.3643377702432
0.372133275638252,97.9301763058635,100.095919705388,2.16574339952497,-99.013048005626,47.8822164531693,51.1308315524567
0.374296841194288,98.219195822442,100.070006401137,1.85081057869493,-99.1446011117894,48.1841926218735,50.9604084899159
0.376460406750325,98.4301349212646,100.591406160742,2.16127123947767,-99.5107705410034,48.1344318408935,51.37633870011
0.378623972306361,99.124399935957,100.431634112679,1.30723417672161,-99.7780170243178,48.9085828796177,50.8694341447001
0.380787537862397,99.6311049442451,100.585181687754,0.954076743509347,-100.108143316,49.3385141003679,50.7696292156319
0.382951103418434,100.271076658829,100.967403643477,0.696326984648024,-100.619240151153,49.7873748370906,50.8318653140627
0.38511466897447,100.467999827425,100.976209751676,0.508209924251517,-100.722104789551,49.9798949515866,50.7422098379639
0.387278234530506,100.341566766891,101.252793046915,0.911226280023428,-100.797179906903,49.7151702434338,51.082009663469
0.389441800086543,100.249290383047,101.184499434973,0.935209051926051,-100.71689490901,49.6570406655603,51.0598542434493
0.391605365642579,100.452099249378,101.4048119784,0.952712729021286,-100.928455613889,49.7496932601785,51.1787623537104
0.393768931198615,100.329961828776,102.10591814341,1.77595631463358,-101.217939986093,49.2770027570713,51.9409372290217
0.395932496754652,100.240820591052,102.617616122761,2.37679553170922,-101.429218356906,48.9320125296713,52.4972058272351
0.398096062310688,99.9056052005609,102.720919502517,2.81531430195578,-101.313262351539,48.5451454493026,52.7681169022363
0.400259627866724,100.201262753869,103.066471044396,2.86520829052627,-101.633866899133,48.6680272316716,52.965839667461
0.402423193422761,100.146890370693,103.318669690714,3.17177932002103,-101.732780030704,48.4875555253361,53.2452245053676
0.404586758978797,100.64751944833,103.772891517976,3.12537206964626,-102.210205483153,48.7610736893417,53.4491317938111
0.406750324534833,101.012900470799,103.564090073292,2.55118960249283,-102.288495272045,49.2308554341531,53.0576398378923
0.40891389009087,100.739259116605,103.141541424065,2.40228230746034,-101.940400270335,49.1684884045723,52.7719118657628
0.411077455646906,100.809699885943,103.373459340989,2.56375945504551,-102.091579613466,49.1229702154487,52.968609398017
0.413241021202942,101.131266855747,104.353191827626,3.22192497187852,-102.742229341686,48.9546709419342,53.787558399752
0.415404586758979,101.365960511126,104.25777486141,2.89181435028445,-102.811867686268,49.2370730804207,53.5747946058473
0.417568152315015,101.807406429489,105.268760228822,3.46135379933375,-103.538083329156,49.1730263150775,54.3650570140781
0.419731717871052,102.940061626415,106.276777830989,3.33671620457316,-104.608419728702,49.8016727109211,54.8067470177809
0.421895283427088,103.22641056224,106.742317004382,3.51590644214151,-104.984363783311,49.8552520600495,55.1291117232617
0.424058848983124,103.705556766161,106.811931666342,3.10637490018075,-105.258744216251,50.2995909329902,54.9591532832613
0.426222414539161,103.785102434826,107.673208130551,3.88810569572463,-105.729155282689,49.9484983695508,55.7806569131378
0.428385980095197,104.383470770717,108.571961619687,4.18849084896932,-106.477716195202,50.097489960874,56.380226234328
0.430549545651233,104.550029971808,108.687598847048,4.13756887523931,-106.618814409428,50.2062305482846,56.4125838611435
0.43271311120727,104.941748381952,109.582464594729,4.64071621277651,-107.26210648834,50.1505160845878,57.1115904037526
0.434876676763306,106.038110265906,110.505733013754,4.46762274784807,-108.27192163983,50.7852437590289,57.486677880801
0.437040242319342,106.568126964579,111.449730946026,4.88160398144771,-109.008928955302,50.8432614915654,58.165667463737
0.439203807875379,107.225112571581,111.598389549158,4.37327697757719,-109.411751060369,51.4259177970018,57.9858332633676
0.441367373431415,107.974765647613,113.057668166564,5.08290251895097,-110.516216907088,51.4459315643309,59.0702853427574
0.443530938987451,108.521895288406,113.852557388754,5.33066210034821,-111.18722633858,51.5956165940289,59.5916097445512
0.445694504543488,109.461526881783,114.43270234982,4.97117546803698,-111.947114615802,52.2451757068731,59.7019389089286
0.447858070099524,110.147311163339,115.936742393355,5.78943123001601,-113.042026778347,52.1789399666613,60.8630868116853
0.45002163565556,110.9179827731,117.034456676225,6.116473903125,-113.976219724662,52.4007544349873,61.5754652896748
0.452185201211597,111.750608872042,117.295304202974,5.54469533093156,-114.522956537508,53.1029567705553,61.4199997669526
0.454348766767633,112.628452070061,118.296150785635,5.66769871557457,-115.462301427848,53.480376677243,61.9819247506049
0.456512332323669,113.269140475085,119.296768658732,6.02762818364667,-116.282954566908,53.6207561457192,62.6621984211892
0.458675897879706,113.196430503875,119.216594762087,6.02016425821178,-116.206512632981,53.5881331228315,62.6183795101491
0.460839463435742,113.683676006795,119.428236553522,5.74456054672645,-116.555956280158,53.9695577300344,62.586398550124
0.463003028991778,114.039289110395,120.123014424052,6.08372531365704,-117.081151767224,53.9777818983691,63.1033698688546
0.465166594547815,114.028674913163,120.089781313245,6.06110640008168,-117.059228113204,53.9837842565407,63.0754438566632
0.467330160103851,114.020928207247,119.79537012189,5.77444191464286,-116.908149164569,54.1232431463021,62.7849060182664
0.469493725659888,113.745118110184,120.390964578339,6.6458464681549,-117.068041344262,53.5496358210147,63.5184055232471
0.471657291215924,113.813976036012,120.555499280751,6.74152324473913,-117.184737658381,53.5362263956362,63.6485112627449
0.47382085677196,114.134387777312,120.675583911237,6.54119613392564,-117.404985844275,53.796595821693,63.6083900225815
0.475984422327997,113.8279258726,120.493070720976,6.66514484837634,-117.160498296788,53.5813905121117,63.5791077846762
0.478147987884033,113.604256555148,120.359864602812,6.75560804766471,-116.98206057898,53.4243242537415,63.5577363252385
0.480311553440069,113.170856681339,119.722332521187,6.55147583984788,-116.446594601263,53.3096904207454,63.1369041805172
0.482475118996106,112.854542475664,119.527189903551,6.6726474278875,-116.190866189607,53.0909475238881,63.0999186657193
0.484638684552142,112.623682517555,118.844453852527,6.22077133497257,-115.734068185041,53.2014555912912,62.53261259375
0.486802250108178,112.455190811202,117.805850763013,5.35065995181161,-115.130520787108,53.5522654296951,61.5782553574125
0.488965815664215,112.332218185969,117.858301385415,5.52608319944673,-115.095259785692,53.403067493261,61.6921922924311
0.491129381220251,112.242467379333,118.977206993846,6.7347396145131,-115.609837186589,52.7538638824097,62.8559733041794
0.493292946776287,112.17696331063,118.713208454174,6.53624514354422,-115.445085882402,52.8203590835427,62.624726798859
0.495456512332324,111.858999361118,118.250374548048,6.39137518692975,-115.054686954583,52.7338120870941,62.3208748674887
0.49762007788836,111.626935347718,117.102109461112,5.47517411339332,-114.364522404415,53.0758806171624,61.2886417872524
0.499783643444396,111.187408657219,116.80436774403,5.61695908681115,-113.995888200624,52.7852247852037,61.2106634154204
0.501947209000433,110.866622832441,116.046750377608,5.18012754516683,-113.456686605024,52.843247643637,60.6134389613872
0.504110774556469,111.17281171465,115.223651837075,4.05084012242425,-113.198231775863,53.5609857961131,59.6372459797495
0.506274340112505,110.855969344582,115.163230903992,4.30726155941066,-113.009600124287,53.2743538925856,59.7352462317015
0.508437905668542,110.894880120843,115.659445485053,4.76456536420979,-113.277162802948,53.0651573783166,60.2120054246313
0.510601471224578,110.653122697317,114.67082355526,4.01770085794332,-112.661973126288,53.3177109196867,59.3442622066017
0.512765036780614,110.476677543522,114.219440192865,3.74276264934284,-112.348058868194,53.3669574470897,58.981101421104
0.514928602336651,110.077743932208,113.890000849757,3.81225691754828,-111.983872390983,53.13274350733,58.8511288836525
0.517092167892687,109.786584714115,112.839092956009,3.05250824189361,-111.312838835062,53.3670382361109,57.9458005989513
0.519255733448724,109.303927755562,112.342250569734,3.03832281417159,-110.823089162648,53.1328024706953,57.6902866919527
0.52141929900476,108.951663572565,112.519945664175,3.56828209161002,-110.73580461837,52.6916907404776,58.0441138778926
0.523582864560796,108.694565746825,112.649635325034,3.95506957820945,-110.672100535929,52.3697480843076,58.3023524516218
0.525746430116833,108.506924495767,112.474132306525,3.96720781075818,-110.490528401146,52.2698583425043,58.2206700586416
0.527909995672869,108.099819482414,112.61619873054,4.51637924812601,-110.358009106477,51.7917201171439,58.5662889893329
0.530073561228905,107.802696417302,112.449728815737,4.6470323984348,-110.12621261652,51.5778320094337,58.5483806070859
0.532237126784942,107.315686782049,111.787919358765,4.47223257671543,-109.551803070407,51.4217271026669,58.1300759677401
0.534400692340978,107.230402036873,111.845214261412,4.61481222453925,-109.537808149143,51.3077949061668,58.2300132429757
0.536564257897014,107.168157495384,111.076561954586,3.90840445920207,-109.122359724985,51.6298765180909,57.492483206894
0.538727823453051,107.392884915305,111.055878266961,3.66299335165674,-109.224381591133,51.864945781824,57.3594358093091
0.540891389009087,106.746432191141,110.50046998229,3.7540377911487,-108.623451086716,51.4961971999963,57.1272538867193
0.543054954565123,106.544778897963,110.905577331462,4.36079843349883,-108.725178114713,51.0919902322323,57.6331878824806
0.54521852012116,106.667759706454,110.931086201909,4.26332649545556,-108.799422954181,51.2022166054991,57.5972063486824
0.547382085677196,106.487360273718,110.409391268804,3.9220309950862,-108.448375771261,51.2826646393157,57.165711131945
0.549545651233232,106.085540656482,110.29879167445,4.21325101796876,-108.192166165466,50.9361448192565,57.2560213462096
0.551709216789269,105.522118893022,109.947915035671,4.4257961426482,-107.735016964346,50.5481613751871,57.1868555891594
0.553872782345305,105.110909018865,109.151517476714,4.04060845784916,-107.13121324779,50.535150280508,56.5960629672817
0.556036347901341,105.080946258466,108.840427877301,3.75948161883504,-106.960687067884,50.6607323198156,56.2999547480681
0.558199913457378,105.059078123914,108.613381065618,3.55430294170442,-106.836229594766,50.7523875911047,56.0838420036613
0.560363479013414,105.043117801753,108.447672360497,3.40455455874425,-106.745395081125,50.8192816215042,55.9261134596206
0.56252704456945,104.761313047895,108.867043315169,4.10573026727343,-106.814178181532,50.327791390311,56.4863867912211
0.564690610125487,105.095952022571,108.902962389486,3.80701036691502,-106.999457206028,50.6444708278279,56.3549863782004
0.566854175681523,104.79987377576,108.65902149088,3.85914771511976,-106.72944763332,50.4703630303201,56.2590846029998
0.56901774123756,104.583782906525,108.21082652949,3.62704362296483,-106.397304718008,50.4783696417802,55.9189350762274
0.571181306793596,104.155914116071,107.883714221049,3.72780010497803,-106.01981416856,50.2140570055466,55.8057571630137
0.573344872349632,103.843636737225,107.644973334714,3.80133659748903,-105.744305035969,50.0211500698677,55.7231549661013
0.575508437905669,103.6157230321,107.470729781849,3.85500674974892,-105.543226406975,49.8803581411756,55.662868265799
0.577672003461705,103.449381630186,107.073402995298,3.62402136511207,-105.261392312742,49.9126801325369,55.348712180205
0.579835569017741,104.138447026905,107.32372893202,3.18528190511479,-105.731087979462,50.4765825608951,55.2545054185673
0.581999134573778,104.371200914443,107.236271550072,2.86507063562898,-105.803736232258,50.7530651394071,55.0506710928506
0.584162700129814,104.000762469682,107.172441323132,3.17167885344935,-105.586601896407,50.4145418081165,55.1720600882905
0.58632626568585,104.270712695633,107.396011440376,3.12529874474301,-105.833362068004,50.5727069754449,55.2606550925594
0.588489831241887,103.927421767404,107.289026489786,3.36160472238261,-105.608224128595,50.2829085225104,55.3253156060844
0.590653396797923,103.676873015914,106.40047555256,2.72360253664554,-105.038674284237,50.4766352396345,54.5620390446028
0.592816962353959,103.223855354145,106.022128382462,2.79827302831632,-104.622991868303,50.2127911629145,54.4102007053889
0.594980527909996,103.433535651534,106.016150262481,2.58261461094708,-104.724842957007,50.4254605202934,54.299382436714
0.597144093466032,103.316413302204,106.552099592492,3.23568629028746,-104.934256447348,50.0403635059583,54.8938929413895
0.599307659022068,103.501088494967,106.67310266988,3.17201417491333,-105.087095582423,50.1645371600266,54.9225584223966
0.601471224578105,103.635872537226,106.761416014256,3.12554347703052,-105.198644275741,50.2551645300975,54.9434797456433
0.603634790134141,103.464087621335,106.825870960058,3.3617833387224,-105.144979290697,50.0511521413065,55.0938271493901
0.605798355690177,103.608867679451,107.143069213737,3.53420153428652,-105.375968446594,50.037333072582,55.3386353740118
0.607961921246214,103.444378293639,107.37457438879,3.93019609515093,-105.409476341215,49.7570910992441,55.6523852419705
0.61012548680225,103.594482949063,108.083849426465,4.48936647740209,-105.839166187764,49.5525582358306,56.2866079519337
0.612289052358286,103.433879687522,108.331353194916,4.89747350739346,-105.882616441219,49.2682030900643,56.6144133511545
0.614452617914323,104.127133030348,108.782148494729,4.6550154643809,-106.454640762538,49.7360587829835,56.7185819795549
0.616616183470359,104.362943464337,109.381314855887,5.01837139154969,-106.872129160112,49.6722860363937,57.1998431237182
0.618779749026396,104.53504824476,109.548456490762,5.01340824600182,-107.041752367761,49.760819999379,57.2809323683817
0.620943314582432,104.660657849659,109.400287562841,4.73962971318248,-107.03047270625,49.960514068238,57.0699586380118
0.623106880138468,105.022489451395,109.292147391205,4.26965793980975,-107.1573184213,50.3764157557925,56.7809026655072
0.625270445694505,105.016413786399,109.213221958689,4.19680817228964,-107.114817872544,50.4098028070546,56.7050150654891
0.627434011250541,104.741823288171,108.615306298298,3.87348301012685,-106.678564793235,50.4341701390222,56.2443946542125
0.629597576806577,104.271258906889,108.449077479609,4.17781857272003,-106.360168193249,50.0467201670845,56.3134480261646
0.631761142362614,104.738289051911,108.597912620753,3.85962356884191,-106.668100836332,50.4393327415344,56.2287680947973
0.63392470791865,104.268679466509,108.4363828121,4.16770334559128,-106.352531139304,50.0504880604587,56.3020430788456
0.636088273474686,104.196094039629,107.508022649042,3.31192860941321,-105.852058344336,50.4420827151079,55.4099756292277
0.638251839030723,103.872961804841,107.10062096276,3.22765915791975,-105.4867913838,50.3226513234604,55.16414006034
0.640415404586759,103.366969538665,106.533125160883,3.16615562221826,-104.950047349774,50.1004069582232,54.8496403915505
0.642578970142795,102.457361802612,106.389098086965,3.93173628435353,-104.423229944788,49.2628127591291,55.1604171856594
0.644742535698832,102.333802670563,105.473512186129,3.13970951556594,-103.903657428346,49.5970465774987,54.3066108508476
0.646906101254868,101.9734675937,105.34558992765,3.37212233394986,-103.659528760675,49.3006726298749,54.3588561307997
0.649069666810904,101.980635488078,104.711914238191,2.73127875011386,-103.346274863135,49.6246783689819,53.7215964941527
0.651233232366941,102.256023143135,104.789742396296,2.53371925316087,-103.522882769715,49.861151944987,53.6617308247283
0.653396797922977,102.186856900634,105.386857217773,3.2000003171389,-103.786857059204,49.4934282917476,54.293428767456
0.655560363479013,101.866220136325,104.742032913541,2.87581277721588,-103.304126524933,49.4952036795546,53.8089228453784
0.65772392903505,101.90236159752,104.541568112535,2.63920651501446,-103.221964855027,49.6315775412529,53.5903873137746
0.659887494591086,101.658583006596,104.665416334653,3.00683332805777,-103.161999670625,49.325874839269,53.8361248313556
0.662051060147122,101.480662716331,104.215493766494,2.73483105016356,-102.848078241413,49.3729158330836,53.4751624083289
0.664214625703159,100.810496273956,103.616964363113,2.80646808915735,-102.213730318534,49.0020140923991,53.2117162261352
0.666378191259195,100.861691882719,103.720443819786,2.85875193706688,-102.291067851253,49.0014699728262,53.2895978784266
0.668541756815232,100.899056679755,104.606436294053,3.70737961429803,-102.752746486904,48.5958385327285,54.1569079541755
0.670705322371268,100.656170932894,103.902291338367,3.24612040547241,-102.279231135631,48.705025263711,53.5742058719197
0.672868887927304,100.478902279323,103.118219304646,2.6393170253224,-101.798560791985,48.9197926270005,52.8787681649841
0.675032453483341,100.079367641813,102.545969201389,2.46660155957626,-101.312668421601,48.8063830411184,52.5062853804828
0.677196019039377,99.787769768484,102.398472230143,2.61070246165937,-101.093120999314,48.5885336534123,52.5045873459014
0.679359584595413,99.3047926601317,101.750510058169,2.44571739803679,-100.52765135915,48.4295376310475,52.0981137281027
0.68152315015145,99.2224510296643,101.547755103882,2.32530407421788,-100.385103066773,48.4485734777232,51.93652958905
0.683686715707486,98.8921982902916,101.399775659984,2.5075773696924,-100.145986975138,48.1923104602996,51.9536765148382
0.685850281263522,98.6511653799481,101.561929993956,2.91076461400782,-100.106547686952,47.8702003829701,52.2363473039818
0.688013846819559,98.745405219471,101.410121115452,2.66471589598073,-100.077763167461,48.0403446617451,52.0374185057162
0.690177412375595,98.814185580941,101.299324348493,2.48513876755172,-100.056754964717,48.1645234066946,51.8922315580222
0.692340977931631,98.5942282886335,101.218460016383,2.6242317277495,-99.9063441525082,47.984998280442,51.9213458720662
0.694504543487668,98.1635376133176,101.159441685912,2.9959040725939,-99.6614896496146,47.5838167703619,52.0776728792527
0.696668109043704,98.1193569112052,100.84621131216,2.72685440095438,-99.4827841116824,47.6962512551254,51.786532856557
0.69883167459974,97.54679947647,100.347445857752,2.80064638128195,-98.947122667111,47.373076547594,51.574046119517
0.700995240155777,97.3990782012535,100.253581200991,2.85450299973772,-98.8263297011223,47.2722876007579,51.5540421003645
0.703158805711813,97.2912647461623,100.18507466433,2.89380991816726,-98.7381697052459,47.1987274139975,51.5394422912484
0.705322371267849,97.2125777656873,100.135075594101,2.92249782841353,-98.6738266798941,47.1450399686369,51.5287867112572
0.707485936823886,97.1551485617811,99.8284278714106,2.67327930962951,-98.4917882165959,47.2409346260758,51.2508535905201
0.709649502379922,96.5729217903097,99.3344667239898,2.7615449336801,-97.9536942571497,46.9056884283148,51.048005828835
0.711813067935958,96.9584558334842,99.2441084608396,2.28565262735539,-98.1012821471619,47.3364016030644,50.7648805440975
0.713976633491995,96.4293668243922,98.6378486200301,2.20848179563788,-97.5336077222111,47.1104425143772,50.423165207834
0.716140199048031,96.313370709611,97.6550612174803,1.34169050786923,-96.9842159635457,47.4858401008709,49.4983758626747
0.718303764604068,96.228711665791,97.4780923604218,1.24938069463077,-96.8534020131064,47.4896654855801,49.3637365275263
0.720467330160104,95.8967675766784,97.3489327394055,1.45216516272706,-96.6228501580419,47.2223012069757,49.4005489510663
0.72263089571614,95.9246564571053,97.794978816073,1.87032235896767,-96.8598176365891,47.0271670490688,49.8326505875203
0.724794461272177,95.9450109832427,97.8503665624761,1.90535557923342,-96.8976887728594,47.0198277020047,49.8778610708548
0.726958026828213,95.6897103958328,97.6206347532553,1.9309243574225,-96.655172574544,46.8793930192051,49.7757795553389
0.729121592384249,95.5033808480061,97.4529664193599,1.94958557135384,-96.478173633683,46.7768976383261,49.7012759953569
0.731285157940286,95.0972331731084,97.060438515529,1.96320534242057,-96.0788358443187,46.5670139153439,49.5118219289748
0.733448723496322,95.0709650273932,96.7739544632509,1.70298943585769,-95.922459745322,46.6839877957677,49.2384719495543
0.735612289052358,95.0517933844173,96.2947096454262,1.24291626100894,-95.6732515149217,46.9044385617042,48.7688129532176
0.737775854608395,94.4974886561398,95.9449357921442,1.44744713600439,-95.221212224142,46.5250207600677,48.6961914640743
0.739939420164431,94.0929327934763,96.7702803655632,2.67734757208683,-95.4316065795197,45.7077926106947,49.723813968825
0.742102985720467,93.7976702101605,97.1024967636668,3.30482655350633,-95.4500834869136,45.2464218283271,50.2036616585866
0.744266551276504,93.5821746478607,96.8046504143938,3.22247576653317,-95.1934125311272,45.1798494406637,50.0135630904635
0.74643011683254,93.4248965503469,96.3171128946886,2.89221634434168,-94.8710047225178,45.2663401030026,49.6046646195151
0.748593682388576,93.3101081078679,95.9612866644522,2.65117855658437,-94.63569738616,45.3294647756417,49.3062326105183
0.750757247944613,92.956174264304,94.6209642531745,1.66478998887057,-93.7885692587392,45.6456921377167,48.1428771210225
0.752920813500649,92.4277016352988,94.4532069028292,2.02550526753039,-93.440454269064,45.2010981838842,48.2393560851798
0.755084379056685,92.5823115935668,94.8710826665101,2.28877107294325,-93.7266971300384,45.1467702603118,48.5799268697267
0.757247944612722,93.5056213468064,95.1760666968419,1.67044535003551,-94.3408440218242,45.9175879983855,48.4232560234387
0.759411510168758,93.0988683872401,94.5881887612431,1.48932037400296,-93.8435285742416,45.8047740066186,48.038754567623
0.761575075724794,92.8020022663978,94.9695983373835,2.16759607098564,-93.8858003018907,45.3172030977061,48.5685972041846
0.763738641280831,93.1256487959386,95.2479677472622,2.12231895132359,-94.1868082716004,45.5016649223075,48.6851433492929
0.765902206836867,92.82154778133,95.4511339318671,2.62958615053718,-94.1363408565985,45.0959808153964,49.0403600412022
0.768065772392904,92.5996015448543,95.0591010859155,2.45949954106121,-93.8293513153849,45.0700510018965,48.7593003134884
0.77022933794894,92.4376154628641,94.7729783485554,2.33536288569135,-93.6052969057097,45.0511262885864,48.5541706171234
0.772392903504976,92.3193909271603,94.8343096579225,2.51491873076228,-93.5768502925414,44.902236098199,48.6746141943424
0.774556469061013,92.7734179079158,95.4193843568252,2.64596644890942,-94.0964011323705,45.0637257295032,49.0326754028673
0.776720034617049,93.1047866794628,95.8463974914103,2.74161081194751,-94.4755920854366,45.1815879337577,49.2940041516789
0.778883600173085,93.6167903308278,96.1580503751366,2.54126004430873,-94.8874203529822,45.5377651432595,49.3496552097226
0.781047165729122,93.720316803404,96.3855082963764,2.66519149297245,-95.0529125498902,45.5275626552158,49.5253498946744
0.783210731285158,94.0660311681921,97.0918294709972,3.02579830280506,-95.5789303195947,45.5201164326935,50.0588138869011
0.785374296841194,94.0481924379279,96.5267087452311,2.47851630730324,-95.2874505915795,45.7848380653123,49.5026125262672
0.787537862397231,93.7650167395848,95.8441026821165,2.07908594253175,-94.8045597108507,45.8429653985265,48.9615943123241
0.789701427953267,93.5583427152002,95.075750675342,1.5174079601418,-94.3170466952711,46.0204673775292,48.2965793177419
0.791864993509303,94.2179715979505,95.3254423717165,1.10747077376601,-94.7717069848335,46.5552504120922,48.2164565727413
0.79402855906534,93.8889290048809,95.237522093391,1.34859308851011,-94.563225549136,46.2701679581854,48.2930575909506
0.796192124621376,93.3786231004278,95.1733540244047,1.79473092397687,-94.2759885624163,45.7919460882255,48.4840424741908
0.798355690177412,93.5464919297608,95.6668337816021,2.12034185184132,-94.6066628556814,45.7130750389597,48.8935878167217
0.800519255733449,93.9391661639415,95.7568407050881,1.8176745411466,-94.8480034345148,46.0607458113974,48.7872576231173
0.802682821289485,93.685444590773,96.0926879109545,2.40724332018148,-94.8890662508638,45.6391006352958,49.249965615568
0.804846386845521,93.2301112648102,95.2571790604298,2.02706779561959,-94.24364516262,45.6015217345953,48.6421234280247
0.807009952401558,92.6276328534568,95.457856751563,2.83022389810621,-94.0427448025099,44.8987044776753,49.1440403248346
0.809173517957594,92.4580739393207,95.3341639059809,2.87608996666017,-93.8961189226508,44.7909919863303,49.1051269363205
0.81133708351363,92.6044786309884,95.5140436628685,2.90956503188015,-94.0592611469284,44.8474567995541,49.2118043473743
0.813500649069667,92.9814873976265,95.3751715741713,2.39368417654485,-94.1783294858989,45.2939016105408,48.8844278753581
0.815664214625703,92.716332480284,95.5439728547629,2.82764037447897,-94.1301526675234,44.9443460529025,49.185806614621
0.81782778018174,92.7929670228415,95.1268589970875,2.33389197424606,-93.9599130099645,45.2295375242977,48.7303754856668
0.819991345737776,93.1190544795548,95.0925872509925,1.97353277143776,-94.1058208652736,45.5727608540585,48.5330600112151
0.822154911293812,93.0868911723519,94.5272618062535,1.44037063390159,-93.8070764893027,45.8232602692252,47.9838162200775
0.824318476849849,92.5231045586409,93.8445063302682,1.32140177162722,-93.1838054444545,45.6008513935069,47.5829540509477
0.826482042405885,92.1116284007941,93.076045275438,0.964416874643931,-92.593836838116,45.5736057630751,47.020231075041
0.828645607961921,92.3516275067699,93.5958135956382,1.24418608886832,-92.9737205512041,45.5537207089508,47.4199998422533
0.830809173517958,92.2566331515511,93.434850851659,1.17821770010791,-92.845742001605,45.5392077257216,47.3065342758834
0.832972739073994,91.9171458996157,93.3173731928456,1.40022729322993,-92.6172595462307,45.2584593031929,47.3588002430378
0.83513630463003,92.2096856613852,93.7719452770601,1.56225961567495,-92.9908154692227,45.3237130228551,47.6671024463675
0.837299870186067,91.6127253536783,93.5633994652374,1.95067411155908,-92.5880624094578,44.8310256210596,47.7570367883982
0.839463435742103,91.1770375813392,92.6007249643234,1.4236873829842,-91.8888812728313,44.8766750991775,47.0122061736538
0.841627001298139,90.859053567134,91.8981229598418,1.03906939270775,-91.3785882634879,44.9099920872131,46.4685961762748
0.843790566854176,90.6269749096423,91.3853332513443,0.758358341702049,-91.0061540804933,44.9343082839701,46.0718457965232
0.845954132410212,90.7277499549864,92.0917017154679,1.36395176048148,-91.4097258352271,44.6818990972525,46.7278267379747
0.848117697966248,90.5311437839575,91.7967717155233,1.26562793156579,-91.1639577497404,44.6327579261959,46.5311998235445
0.850281263522285,90.1174957794527,92.1218313108743,2.0043355314216,-91.1196635451635,44.0565801240156,47.063083421148
0.852444829078321,90.0857535647649,91.8187616135695,1.73300804880465,-90.9522575891672,44.1763727579801,46.7758848311871
0.854608394634357,90.0625867065535,91.32741186575,1.26482515919652,-90.6949992861518,44.3988807736785,46.2961185124733
0.856771960190394,89.7755223071259,90.9688033045055,1.19328099737969,-90.3721628058157,44.2911206548731,46.0810421509426
0.85893552574643,89.5660101384108,90.7070750737116,1.14106493530082,-90.1365426060612,44.212472601555,45.9240700045062
0.861099091302467,89.1429427716651,90.5160543502888,1.37311157862368,-89.829498560977,43.8849155965207,45.9445829644562
0.863262656858503,89.1043258939577,90.6467952737665,1.54246937980889,-89.8755605838621,43.7809282570744,46.0946323267877
0.865426222414539,89.0761416056459,90.4720595127493,1.39591790710337,-89.7741005591976,43.8401118492713,45.9339887099263
0.867589787970576,88.5152590541555,90.0743734911353,1.55911443697981,-89.2948162726454,43.4780723085879,45.8167439640576
0.869753353526612,88.1059024080807,89.5139686067633,1.4080661986826,-88.809935507422,43.348918104699,45.4610174027229
0.871916919082648,88.0772922146855,89.3751167949391,1.29782458025365,-88.7262045048123,43.3897338172159,45.3364706875964
0.874080484638685,88.0564112427589,89.0036204507373,0.947209207978418,-88.5300158467481,43.5546010173902,44.9754148293579
0.876244050194721,87.2307027594933,88.4623299397376,1.23162718024432,-87.8465163496154,42.9995377896245,44.8469785599909
0.878407615750757,86.8982207640486,88.0672724227116,1.16905165866301,-87.4827465933801,42.8645845526928,44.6181620406873
0.880571181306794,86.9257170568804,87.7789421479568,0.853225091076354,-87.3523296024186,43.036245982902,44.3160836195166
0.88273474686283,87.2159412672719,87.5685060879976,0.352564820725675,-87.3922236776347,43.4316882232731,43.9605354543616
0.884898312418866,87.157603392519,87.4149206368382,0.257317244319211,-87.2862620146786,43.4501430740999,43.8361189405787
0.887061877974903,86.8448696451463,87.8431396731059,0.998270027959606,-87.3440046591261,42.9232998085933,44.4207048505328
0.889225443530939,87.1569352860315,87.8855164648126,0.728581178781042,-87.521225875422,43.2141770536252,44.3070488217968
0.891389009086975,86.8443820317766,87.9164449030005,1.07206287122386,-87.3804134673885,42.8861595802764,44.4942538871122
0.893552574643012,86.6162669806994,87.6688616196168,1.05259463891744,-87.1425643001581,42.781836170891,44.3607281292671
0.895716140199048,86.449778627692,87.7583207100664,1.30854208237439,-87.1040496688792,42.5706182726588,44.5334313962204
0.897879705755084,85.517799501839,87.2832994477794,1.76549994594042,-86.4005494748092,41.8761497779493,44.5243996968599
0.900043271311121,85.3779127499132,86.9366081302704,1.55869538035721,-86.1572604400918,41.909608684778,44.2476517553138
0.902206836867157,85.8161296967219,86.4134214139167,0.597291717194793,-86.1147755553193,42.6094189897636,43.5053565655558
0.904370402423193,85.5956471894596,86.0315768389547,0.435929649495137,-85.8136120142071,42.5798587699822,43.2337532442249
0.90653396797923,85.9750418248865,85.7528899478882,-0.222151876998282,-85.8639658863873,43.0985968509424,42.7653690354449
0.908697533535266,85.7116282190587,86.3599606872254,0.648332468166672,-86.0357944531421,42.531647875446,43.504146577696
0.910861099091303,85.5193774351369,86.5328712834135,1.01349384827665,-86.0261243592752,42.2529417934301,43.7731825658451
0.913024664647339,85.108908182857,86.3889127960713,1.2800046132143,-85.7489104894642,41.9144517848214,43.8344587046428
0.915188230203375,84.5391735369913,86.2838455883363,1.74467205134502,-85.4115095626638,41.3972507428231,44.0142588198407
0.917351795759412,84.6636686685679,86.4773191513065,1.81365048273859,-85.5704939099372,41.4250090929147,44.1454848170226
0.919515361315448,84.4843744551297,86.0782122056641,1.59383775053441,-85.2812933303969,41.4452683522977,43.8360249780993
0.921678926871484,84.8938301109478,86.0570826924598,1.16325258151201,-85.4754564017038,41.8652887647179,43.6101676369859
0.923842492427521,85.1926687778606,86.3118176603731,1.11914888251246,-85.7522432191168,42.0367599476741,43.7154832714428
0.926006057983557,85.1406181106878,85.9574219705803,0.816803859892502,-85.5490200406341,42.1619071253977,43.3871129152364
0.928169623539593,85.3727854664555,85.9689246897173,0.596139223261801,-85.6708550780864,42.3883231215969,43.2825319564896
0.93033318909563,84.7317627332538,86.2474760896977,1.51571335644385,-85.4896194114757,41.608024688405,43.8815947230708
0.932496754651666,84.8042286971208,86.1806188867761,1.37639018965537,-85.4924237919485,41.7139192537327,43.7785045382157
0.934660320207702,84.8571175306998,86.4019797844039,1.54486225370407,-85.6295486575518,41.6561276384979,43.973421019054
0.936823885763739,84.3554056936055,86.8336948723436,2.47828917873811,-85.5945502829746,40.9385582574337,44.6559920255409
0.938987451319775,84.5295468496151,87.1487794475177,2.61923259790265,-85.8391631485664,40.9551571258562,44.8840060227102
0.941151016875811,84.6566426905862,87.108585755572,2.45194306498584,-85.8826142230791,41.1023498128002,44.7802644102789
0.943314582431848,84.7494028006158,86.8090944273118,2.05969162669597,-85.7792486139638,41.3448555869599,44.4343930270039
0.945478147987884,85.0872594025788,86.8606687536544,1.77340935107568,-85.9739640781166,41.6569250257515,44.3170390523651
0.94764171354392,84.7935295210563,86.8983099553625,2.10478043430625,-85.8459197382094,41.344374543375,44.5015451948344
0.949805279099957,84.5791525916394,86.6556259407352,2.07647334909581,-85.6173892661873,41.2513396212718,44.3660496449155
0.951968844655993,84.6928471332581,87.0188169439247,2.32596981066659,-85.8558320385914,41.1834386612957,44.6723933772956
0.954132410212029,84.7758263882026,86.7435772177633,1.96775082956076,-85.759701802983,41.4040377793209,44.3556640236621
0.956295975768066,84.8363882819674,86.81285142525,1.97646314328263,-85.8246198536087,41.4299625693424,44.3946572842663
0.958459541324102,84.6104327920572,86.3230983515183,1.71266555946112,-85.4667655717878,41.4488836162981,44.0178819554897
0.960623106880139,84.7156767932245,86.5059675366818,1.79029074345735,-85.6108221649531,41.4626930248836,44.1481291400696
0.962786672436175,84.7924884737141,85.5588086280269,0.766320154312751,-85.1756485508705,42.0130841597007,43.1625643911698
0.964950237992211,84.3082365778319,84.8675305821747,0.559294004342732,-84.5878835800033,41.8744712867446,42.7134122932587
0.967113803548247,83.9548083397329,84.9033180182832,0.948509678550266,-84.4290631790081,41.5031493305913,42.9259138484167
0.969277369104284,84.2371733593505,85.1995934680917,0.962420108741185,-84.7183834137211,41.6373766253047,43.0810067884164
0.97144093466032,84.1730995030315,85.1456720528377,0.972572549806216,-84.6593857779346,41.6002634766126,43.059122301322
0.973604500216357,84.1263355970157,85.3764740547392,1.25013845772351,-84.7514048258774,41.4380985696461,43.3133062562313
0.975768065772393,84.362361462573,86.0852358858578,1.72287442328479,-85.2237986742154,41.3197435196441,43.9040551545713
0.977931631328429,84.5346234743877,86.3323650936906,1.79774161930291,-85.4334942840391,41.3684409275424,44.0650533564967
0.980095196884466,84.3901916217694,85.7022621752775,1.31207055350805,-85.0462268985235,41.5390605341307,43.5071663643928
0.982258762440502,84.5549351431998,85.7826978981354,1.22776275493563,-85.1688165206676,41.6635861941321,43.5052303265355
0.984422327996538,84.4050159670785,85.8414034108069,1.43638744372841,-85.1232096889427,41.484314261675,43.6388954272677
0.986585893552575,84.5657545995367,85.8842492645591,1.31849466502238,-85.2250019320479,41.6236299672572,43.6013719647907
0.988749459108611,84.4129124800769,86.4558324685104,2.04291998843354,-85.4343724742937,41.1849962458217,44.249376228472
0.990913024664647,84.3013616086248,86.6028427074412,2.3014810988164,-85.452102158033,40.9999402549042,44.4521619031288
0.993076590220684,84.4901031099068,86.4399810052444,1.94987789533761,-85.4650420575756,41.2701126072846,44.194929450291
0.99524015577672,84.6278549221795,86.3211174035721,1.69326248139259,-85.4744861628758,41.4672962203935,44.0071899424824
0.997403721332756,84.9985484385418,86.7746779660003,1.77612952745848,-85.8866132022711,41.6112094555417,44.2754037467294
0.999567286888793,84.9989405868867,87.1057063250285,2.10676573814185,-86.0523234559576,41.4460874243724,44.6062360315852
1.00173085244483,84.9992267939202,86.5368366809446,1.53760988702447,-85.7680317374324,41.7308084534478,44.0372232839846
1.00389441800087,84.9994356803457,86.6619631286985,1.66252744835283,-85.8306994045221,41.6684541159964,44.1622452885257
1.0060579835569,84.7294319229341,86.212973465579,1.48354154264486,-85.4712026942566,41.6229451901446,43.8482575041119
1.00822154911294,84.532371357816,86.155437360889,1.62306600307299,-85.3439043593525,41.4546526773715,43.889251681981
1.01038511466897,84.6587041403511,86.6537574160312,1.99505327568008,-85.6562307781911,41.3318254323355,44.3244053458556
1.01254868022501,85.5613759725363,87.0174532127765,1.45607724024023,-86.2894145926564,42.052649366148,44.2367652265084
1.01471224578105,85.9500291901034,87.0127381189278,1.06270892882442,-86.4813836545156,42.4436601306395,44.0377235238761
1.01687581133708,86.2336853266809,86.4689844132286,0.235299086547755,-86.3513348699547,42.9991931200666,43.3521417498882
1.01903937689312,86.1705537840548,86.8825977844672,0.712044000412433,-86.526575784261,42.7292548918212,43.7973208924398
1.02120294244916,86.1244776198342,86.103846086666,-0.0206315331682134,-86.1141618532501,43.0725545765012,43.0416072767489
1.02336650800519,86.090849217597,85.8056352094029,-0.285214008194032,-85.9482422135,43.1880316128955,42.7602106006045
1.02553007356123,86.0663057371195,85.8581440649519,-0.208161672167606,-85.9622249010357,43.1372337046435,42.8249911963921
1.02769363911727,85.7782366184823,85.896467326996,0.118230708513707,-85.8373519727391,42.8300029549843,43.0073490177548
1.0298572046733,85.838147373565,86.1945935336113,0.356446160046374,-86.0163704535881,42.7408506067593,43.2755198468288
1.03202077022934,86.4221852897474,86.4121790935878,-0.0100061961595941,-86.4171821916676,43.2160957429535,43.2010864487141
1.03418433578537,86.8484417349046,86.5709825629231,-0.277459171981519,-86.7097121489138,43.5629504534431,43.1467616954708
1.03634790134141,86.8893861416806,86.416728076679,-0.472658065001582,-86.6530571091798,43.6810221033411,42.9720350058387
1.03851146689745,86.1088005270097,86.3041463981029,0.19534587109311,-86.2064734625563,42.9567273279583,43.249746134598
1.04067503245348,86.0794073887832,86.4921355712086,0.412728182425468,-86.2857714799959,42.8333396031788,43.452431876817
1.04283859800952,86.0579549894349,86.3591820895636,0.301227100128742,-86.2085685394993,42.8783639446531,43.3302045948462
1.04500216356556,85.5019856652868,86.262146816875,0.760161151588164,-85.8820662410809,42.3709122568493,43.5111539842316
1.04716572912159,85.3663711195391,86.7316386496171,1.36526753007806,-86.0490048845781,42.0005517947305,44.0484530898476
1.04932929467763,85.8077061094885,87.6146067710642,1.80690066157574,-86.7111564402764,42.0004027239564,44.71075371632
1.05149286023367,85.5894992866435,87.1784107221312,1.58891143548772,-86.3839550043874,42.0002939255779,44.3836610788095
1.0536564257897,85.7003986043345,86.5898995335397,0.889500929205184,-86.1451490689371,42.4054488375647,43.7397002313724
1.05581999134574,85.5111815705873,86.4305345101738,0.91935293958646,-85.9708580403805,42.2959143155004,43.6749437248801
1.05798355690177,85.6432389057705,86.0440667259536,0.400827820183082,-85.843652815862,42.6212055427937,43.2224472730683
1.06014712245781,85.4694639196591,85.7620056143287,0.292541694669652,-85.6157347669939,42.5884611124947,43.0272736544992
1.06231068801385,85.8829477492568,86.3666136997517,0.483665950494824,-86.1247807245043,42.699640899381,43.4251398251232
1.06447425356988,85.9145701419087,85.9974145195349,0.082844377626202,-85.9559923307218,42.9158628821412,43.0401294485805
1.06663781912592,85.6674933368797,86.2682692150148,0.600775878135124,-85.9678812759473,42.5333587293723,43.434522546575
1.06880138468196,86.2976345011537,86.7361070438679,0.43847254271428,-86.5168707725108,42.9295809792197,43.5872897932911
1.07096495023799,86.2172266917997,86.5372431533645,0.320016461564862,-86.3772349225821,42.9486051151174,43.4286298074647
1.07312851579403,85.888385339754,86.6622597900692,0.773874450315219,-86.2753225649116,42.5572554447194,43.7180671201922
1.07529208135007,85.3782263098121,86.2131899820376,0.834963672225456,-85.7957081459249,42.2716313187933,43.5240768271315
1.0774556469061,85.2760461227231,86.6959078078246,1.41986168510151,-85.9859769652739,41.9280922188108,44.0578847464631
1.07961921246214,84.9313143360347,86.7780602025225,1.84674586648772,-85.8546872692786,41.5422842347735,44.3124030345051
1.08178277801817,85.4901826185648,87.1081748293442,1.61799221077943,-86.2991787239545,41.9360952038927,44.3630835200618
1.08394634357421,85.6279129510796,87.0789507272287,1.45103777614908,-86.3534318391542,42.0884375874653,44.2649942516889
1.08610990913025,85.7284345787024,87.3277779097077,1.59934333100527,-86.5281062442051,42.0645456238486,44.4635606203565
1.08827347468628,86.0719558760672,86.9690704594142,0.897114583347076,-86.5205131677407,42.58742064636,43.9330925213807
1.09043704024232,85.7823603372953,86.4371138431905,0.654753505895215,-86.1097370902429,42.5638034157001,43.5459336745429
1.09260060579836,85.8411570441246,87.1294934587724,1.28833641464782,-86.4853252514485,42.2764103147384,44.2089149367101
1.09476417135439,86.1542256672381,86.554197572745,0.399971905506987,-86.3542116199915,42.8771268808655,43.477084739126
1.09692773691043,85.842404433332,86.4044776558638,0.562073222531779,-86.1234410445979,42.6401656054001,43.4832754391978
1.09909130246646,85.8849798546308,86.8355179283122,0.950538073681386,-86.3602488914715,42.4672208904747,43.8930280009968
1.1012548680225,85.9160532613927,87.4202662054634,1.50421294407079,-86.6681597334281,42.2059201586609,44.4622395747671
1.10341843357854,85.9387319942938,87.5768848912894,1.63815289699561,-86.7578084427916,42.1502895486491,44.6075188941425
1.10558199913457,85.6851277147527,87.4210358543727,1.73590813961999,-86.5530817845627,41.9746097875663,44.5784719969963
1.10774556469061,86.3105048423018,87.0371341910216,0.726629348719811,-86.6738195166617,42.791937746791,43.8818817698707
1.10990913024665,85.6863076065944,87.2972583705159,1.61095076392148,-86.4917829885552,42.0376784213365,44.4541045672187
1.11207269580268,85.7710535552898,86.6766397514469,0.905586196157088,-86.2238466533684,42.4327336795664,43.791112973802
1.11423626135872,85.2925924357709,86.4938413193942,1.20124888362332,-85.8932168775826,42.0456717760738,43.8475451015088
1.11639982691476,84.9433905598291,86.360427019281,1.41703645945189,-85.6519087895551,41.7631770501886,43.8887317393664
1.11856339247079,84.9586839517418,86.2630554210959,1.30437146935401,-85.6108696864189,41.8271562411939,43.7837134452249
1.12072695802683,85.5101581625721,87.0024580006352,1.49229983806318,-86.2563080816036,42.0089291622544,44.2473789193492
1.12289052358286,85.6424919777878,87.0017939564948,1.35930197870701,-86.3221429671413,42.1415949995404,44.1805479676009
1.1250540891389,85.7390749907824,87.0013093080039,1.26223431722154,-86.3701921493931,42.2384203367804,44.1317718126127
1.12721765469494,86.0797217147268,87.0009555903134,0.92123387558658,-86.5403386525201,42.5792439195701,43.96109473295
1.12938122025097,86.0581843982723,86.460385007911,0.402200609638641,-86.2592847030916,42.8279918943168,43.4312928087748
1.13154478580701,85.5021530979018,86.0658529262996,0.563699828397844,-85.7840030121007,42.469226634752,43.3147763773487
1.13370835136305,84.5560246835781,85.7779061373182,1.22188145374012,-85.1669654104481,41.667071614919,43.4998937955292
1.13587191691908,85.2162797969704,86.3782185976835,1.16193880071312,-85.797249197327,42.0271704981287,43.7700786991983
1.13803548247512,85.1578504663165,86.276040494074,1.11819002775742,-85.7169454801952,42.0198302192796,43.6971152609157
1.14019904803116,85.1152061822943,86.2014664398718,1.08626025757746,-85.658336311083,42.0144729623584,43.6438633487246
1.14236261358719,85.3542387283731,86.1470390296567,0.792800301283634,-85.7506388790149,42.2807192135447,43.4699196654702
1.14452617914323,85.2585389354176,86.377471734279,1.11893279886144,-85.8180053348483,42.0698030682781,43.7482022665702
1.14668974469926,84.6483806122606,86.0053391885859,1.35695857632538,-85.3268599004233,41.6457110179676,43.6811488824557
1.1488533102553,84.4732165622012,85.7337405617515,1.26052399955023,-85.1034785619763,41.6063462813255,43.4971322806508
1.15101687581134,84.6155303802337,85.5355159910921,0.919985610858447,-85.0755231856629,41.8477723846876,43.2277508009753
1.15318044136737,84.7193972362895,85.6609992314136,0.941601995124159,-85.1901982338515,41.8888976205827,43.3013006132689
1.15534400692341,84.7952038159742,85.4824261830048,0.687222367030628,-85.1388149994895,42.0539907244718,43.0848242750177
1.15750757247945,85.120686989128,85.8924081766398,0.771721187511815,-85.5065475828839,42.1744829008081,43.3320646820758
1.15967113803548,85.3582388611946,85.9214747760672,0.563235914872536,-85.6398568186309,42.3975014731611,43.2423553454699
1.16183470359152,84.9913021956374,85.6725326412296,0.681230445592163,-85.3319174184335,42.1550358750226,43.1768815434109
1.16399826914756,85.2638081733873,85.490843770515,0.22703559712771,-85.3773259719511,42.5183862881298,42.8589396838213
1.16616183470359,85.1925387566042,85.6283954887235,0.435856732119305,-85.4104671226638,42.3783410122424,43.0321261104214
1.16832540025963,84.6002107917382,85.1884743320611,0.588263540322842,-84.8943425618997,42.0059736257077,42.888368936192
1.17048896581566,83.8977476941745,84.3270881848615,0.429340490687011,-84.112417939518,41.7342036017437,42.3782143377743
1.1726525313717,83.6552155778998,84.508879491763,0.853663913863173,-84.0820475348314,41.4007758320183,42.6812717028131
1.17481609692774,83.2080488075435,84.3714025359691,1.16335372842566,-83.7897256717563,41.0223475395589,42.7673781321974
1.17697966248377,83.4219993416848,84.0009096219005,0.578910280215794,-83.7114544817927,41.4215445307345,42.2899099510582
1.17914322803981,83.5781498099945,83.4603514581504,-0.117798351844144,-83.5192506340724,41.8479740809193,41.6712765531531
1.18130679359585,83.4219590474321,84.1464532877018,0.724494240269721,-83.7842061675669,41.3487324035812,42.4354737639858
1.18347035915188,83.3079641896129,84.1068880222801,0.798923832667271,-83.7074261059465,41.2545201784728,42.4529059274737
1.18563392470792,82.6844533270116,83.5376991353432,0.85324580833155,-83.1110762311774,40.91560375934,42.1954724718374
1.18779749026395,82.4995440089832,83.6625925856839,1.16304857670062,-83.0810682973335,40.6682477161413,42.4128205811922
1.18996105581999,82.0944328799815,83.2134328708496,1.11899999086812,-82.6539328754156,40.4877164445567,42.1662164308589
1.19212462137603,81.7987650389779,82.0751478074854,0.276382768507503,-81.9369564232317,40.7611911352352,41.1757652879965
1.19428818693206,81.5829737018721,81.5145337367414,-0.0684399651307217,-81.5487537193068,40.8257068335014,40.7230468858054
1.1964517524881,81.4254797349536,80.8352168277999,-0.590262907153672,-81.1303482813767,41.0078713210536,40.1224769603231
1.19861531804414,81.3105337415304,80.60957781351,-0.700955928020335,-80.9600557775202,41.0057448347754,39.9543109427449
1.20077888360017,80.9564849103886,79.6344279449562,-1.32205696543232,-80.2954564276724,41.1392709379104,39.156185489762
1.20294244915621,80.1577721465423,78.9227208708981,-1.23505127564424,-79.5402465087202,40.6964117110933,38.8438347976269
1.20510601471225,79.3046803854787,78.6734420958013,-0.631238289677313,-78.98906124064,39.967959337578,39.021101903062
1.20726958026828,79.2223690867062,78.2213513184131,-1.00101776829304,-78.7218602025596,40.1116934274996,38.61016677506
1.20943314582432,78.8921384847326,78.7018643084811,-0.190274176251492,-78.7970013966069,39.5412063304921,39.2557950661148
1.21159671138035,78.3809655193607,78.5122513056539,0.131285786293247,-78.4466084125073,39.1248398665337,39.3217685459736
1.21376027693639,77.7377328940532,78.3738634333922,0.636130539338964,-78.0557981637227,38.5508011773571,39.5049969863656
1.21592384249243,77.8085859818943,79.0833305400845,1.27474455819021,-78.4459582609894,38.2669207118521,40.1790375491374
1.21808740804846,77.8602976679249,78.5205058532988,0.660208185373904,-78.1904017606118,38.6000447412755,39.5903570193364
1.2202509736045,77.6278829088763,78.3798879637146,0.752005054838278,-78.0038854362954,38.437938927019,39.5659465092764
1.22241453916054,77.728412652587,77.4667902348869,-0.261622417700082,-77.5976014437369,38.9950175351435,38.6025839085934
1.22457810471657,78.071939873428,78.1511525889061,0.0792127154781213,-78.111546231167,38.9963635789749,39.1151826521921
1.22674167027261,78.0525048697401,77.840161566201,-0.212343303539157,-77.9463332179706,39.1324240866397,38.8139091313309
1.22890523582865,77.7681641411547,77.3430304882443,-0.425133652910361,-77.5555973146995,39.0966488970325,38.458948417667
1.23106880138468,77.8307960385564,77.2503586709838,-0.580437367572586,-77.5405773547701,39.2056167030645,38.3349606517056
1.23323236694072,78.1466637516853,77.9931913564365,-0.153472395248798,-78.0699275540609,39.150068073467,38.9198594805938
1.23539593249675,77.8368854162395,77.724874541918,-0.112010874321513,-77.7808799790787,38.9744481452805,38.8064318337982
1.23755949805279,77.8809518342892,77.7992013934629,-0.0817504408263829,-77.8400766138761,38.9813511375578,38.8587254763182
1.23972306360883,77.6429572238963,78.1236045962257,0.4806473723294,-77.883280910061,38.5811549257834,39.3021259842775
1.24188662916486,77.4692583358929,78.3603682586111,0.891109922718115,-77.914813297252,38.2890742065874,39.6257390906646
1.2440501947209,78.1529539170938,79.3436373824725,1.19068346537864,-78.7482956497832,38.4811352258576,40.2671604239256
1.24621376027694,78.9221011018758,80.0612702445812,1.13916914270538,-79.4916856732285,38.8914659795852,40.6002196936433
1.24837732583297,79.4834583968453,80.0447177074047,0.561259310559393,-79.764088052125,39.4610995431429,40.302988508982
1.25054089138901,80.1633177433709,80.5729493647119,0.409631621340978,-80.3681335540414,39.876843061015,40.4912904930264
1.25270445694505,80.6595088642337,81.7689445941053,1.10943572987159,-81.2142267291695,39.7750365671811,41.4391901619884
1.25486802250108,80.4813384477766,81.5612094354226,1.07987098764607,-81.0212739415996,39.7007337300652,41.3205402115344
1.25703158805712,80.8916142998403,81.1394390084106,0.247824708570249,-81.0155266541255,40.321894795635,40.6936318584904
1.25919515361315,80.9208953700165,81.1017686941112,0.180873324094719,-81.0113320320639,40.3700110229609,40.641321009103
1.26135871916919,81.4825784009377,81.884743884838,0.402165483900305,-81.6836611428878,40.5402064585187,41.1434546843691
1.26352228472523,81.8925192719526,81.6457248284335,-0.246794443519022,-81.769122050193,41.0696568577358,40.6994651924573
1.26568585028126,81.6513996464194,81.4712782548725,-0.180121391546962,-81.5613389506459,40.9157605189832,40.6455784316627
1.2678494158373,81.7455761973999,82.1544281424136,0.408851945013694,-81.9500021699067,40.6683621261931,41.2816400437136
1.27001298139334,81.273997944377,82.1127084204527,0.838710476075732,-81.6933531824149,40.2176437341506,41.4757094482642
1.27217654694937,80.6596632739202,81.2717909049223,0.612127631002053,-80.9657270894213,40.0237678214591,40.9419592679622
1.27434011250541,80.7516073545987,80.3878962680124,-0.363711086586349,-80.5697518113056,40.5576592205925,40.012092590713
1.27650367806145,80.2783997469938,80.0129474697754,-0.265452277218458,-80.1456736083846,40.2719260121061,39.8737475962785
1.27866724361748,80.20318832596,79.7392934185159,-0.463894907444072,-79.9712408722379,40.333541616702,39.6376992555359
1.28083080917352,79.8781395256504,79.8097249209796,-0.0684146046707923,-79.843932223315,39.9732770651606,39.8706551581544
1.28299437472955,79.9110608897776,79.3208164917981,-0.590244397979518,-79.6159386907878,40.2506526438786,39.3652860469093
1.28515794028559,79.6649321310109,79.5043021355396,-0.160629995471282,-79.5846171332752,39.9127810632411,39.6718360700342
1.28732150584163,79.4852965853452,80.1785304165784,0.69323383123313,-79.8319135009618,39.3960313770561,40.4358821239057
1.28948507139766,79.3541906982141,80.670611739275,1.31642104106085,-80.0124012187445,39.0188848285766,40.9935163901679
1.2916486369537,79.7988163046477,79.9491293884125,0.1503130837648,-79.8739728465301,39.8242516104415,40.0497212360887
1.29381220250974,79.5830111178028,79.1524037645197,-0.430607353283122,-79.3677074411612,40.006809235543,39.3608982056183
1.29597576806577,80.2359756783531,80.1918557883086,-0.0441198900444419,-80.2139157333308,40.1400477841987,40.0738679491321
1.29813933362181,80.1722253829954,80.9504933909284,0.778268007933093,-80.5613593869619,39.6969786875311,40.8643806994308
1.30030289917785,80.1256976259372,80.9638679088978,0.838170282960647,-80.5447827674175,39.6437636714883,40.9010190959292
1.30246646473388,80.0917396314727,80.973629217757,0.88188958628426,-80.5326844246149,39.6049250225942,40.9277594020206
1.30463003028992,80.3371118120272,81.7912220840068,1.45411027197959,-81.064166948017,39.4415007700238,41.6226661779932
1.30679359584595,80.786351385656,80.7669998874274,-0.0193514982286302,-80.7766756365417,40.4028514419423,40.3738241945994
1.30895716140199,80.3037574622355,80.559790103334,0.2560326410985,-80.4317737827848,40.0238624105685,40.4079113722163
1.31112072695803,79.9515392850386,80.4085593295741,0.457020044535483,-80.1800493073063,39.7472596202516,40.4327896870548
1.31328429251406,79.9646312482172,80.8384969125148,0.873865664297654,-80.401564080366,39.5453827919598,40.8561812884062
1.3154478580701,79.9741863362174,80.8821279748354,0.907941638617942,-80.4281571555264,39.5331223487998,40.8950348067267
1.31761142362614,79.7110038459678,80.9139718346395,1.20296798867167,-80.3124878403037,39.2540179286481,41.0584699116556
1.31977498918217,80.3293903759299,81.2073690897792,0.877978713849288,-80.7683797328546,39.7257058310403,41.0426739018142
1.32193855473821,80.5105597316134,81.6916594657685,1.18109973415511,-81.1011095986909,39.6647299987291,41.4363795999618
1.32410212029424,80.9129412723298,80.964490940848,0.0515496685182342,-80.9387161065889,40.4306958019058,40.5080203046831
1.32626568585028,80.9364607284075,81.2442401456273,0.307779417219749,-81.0903504370174,40.3143406555939,40.7760097814235
1.32842925140632,81.2237824691977,80.908100941226,-0.315681527971691,-81.0659417052118,40.7697319985847,40.2962097066271
1.33059281696235,81.1633262450359,80.6627718309473,-0.500554414088654,-80.9130490379916,40.8319403295623,40.0811087084293
1.33275638251839,81.1192026453778,81.2941885393783,0.174985894000457,-81.206695592378,40.4721083756887,40.7345872166894
1.33491994807443,81.3571555221291,81.2147116780038,-0.142443844125324,-81.2859336000664,40.7497996831272,40.5361339169392
1.33708351363046,82.0711363748366,82.2373308319162,0.166194457079641,-82.1542336033764,40.9524709588785,41.2017626444979
1.3392470791865,82.3220746531561,82.443370645277,0.121295992120935,-82.3827226492166,41.1003893305176,41.282333318699
1.34141064474254,83.3156890324062,83.6743723706521,0.358683338245967,-83.4950307015291,41.4785028470801,42.016527854449
1.34357421029857,83.5005598911535,83.7623426974775,0.261782806323964,-83.6314512943155,41.6193885424148,42.0120627519007
1.34573777585461,83.6354867390163,83.556391082179,-0.0790956568372962,-83.5959389105976,41.8572911979268,41.7386477126708
1.34790134141064,83.463806048909,83.4060785750983,-0.0577274738106297,-83.4349423120036,41.7607667613598,41.6741755506439
1.35006490696668,83.8788183874358,83.8366863492708,-0.0421320381650219,-83.8577523683533,41.9604752128004,41.8972771555529
1.35222847252272,83.3712439290914,83.8808065464987,0.509562617407354,-83.6260252377951,41.430840655842,42.1951845819531
1.35439203807875,83.5411062873994,84.4533198221198,0.912213534720465,-83.9972130547596,41.3144463763394,42.6827666784201
1.35655560363479,83.3949230625756,84.8711650799529,1.47624201737727,-84.1330440712643,40.9593405225992,43.1737035486651
1.35871916919083,83.8285445677527,84.9059706339096,1.07742606615687,-84.3672576008312,41.3755592507979,42.9916983500332
1.36088273474686,83.6047081059618,84.9313732512573,1.32666514529546,-84.2680406786096,41.1390214803332,43.1290191982764
1.3630463003029,83.7114986666387,84.679756981859,0.968258315220297,-84.1956278242489,41.3716201757092,42.8240076485397
1.36520986585894,84.0595953058512,84.7662726225183,0.706677316667154,-84.4129339641848,41.676458994592,42.7364749695927
1.36737343141497,83.7733390519055,84.8294155254295,1.05607647352403,-84.3013772886675,41.3586312891907,42.9427459994768
1.36953699697101,83.8345729150219,84.8754999808836,1.04092706586167,-84.3550364479527,41.3968229245801,42.9582135233726
1.37170056252704,84.1494202815122,85.7196030700409,1.57018278852874,-84.9345116757766,41.2896187464917,43.6448929292848
1.37386412808308,84.1090534642821,85.5251978305875,1.41614436630542,-84.8171256474348,41.3464545489883,43.4706710984465
1.37602769363912,84.3497482053518,85.6534685860644,1.30372038071262,-85.0016083957081,41.5230139123196,43.4785944833885
1.37819125919515,84.255261555085,86.0172424120194,1.76198085693437,-85.1362519835522,41.2466403490753,43.8896116344769
1.38035482475119,84.4564572721984,85.2021156316898,0.745658359491344,-84.8292864519441,41.8553994563536,42.9738869955906
1.38251839030723,84.33314250466,84.8773566264008,0.544214121740751,-84.6052495655304,41.8944641914596,42.7107853740708
1.38468195586326,84.5132981994593,85.1806457074952,0.66734750803586,-84.8469719534772,41.9229753457117,42.9239966077655
1.3868455214193,84.6447837142045,85.401999359339,0.757215645134565,-85.0233915367718,41.943784034535,43.0796075022368
1.38900908697534,84.7407476003701,85.2933967352452,0.552649134875068,-85.0170721678076,42.0940492327475,42.9230229350601
1.39117265253137,85.0809424584444,85.2141337846758,0.13319132623144,-85.1475381215601,42.4738755661065,42.6736625554536
1.39333621808741,85.3292315623631,85.4264404244457,0.0972088620825957,-85.3778359934044,42.6160113501403,42.7618246432642
1.39549978364344,84.6999751869032,85.3112348947885,0.611259707885296,-85.0056050408459,42.044357739509,42.9612473013369
1.39766334919948,84.2407163301337,84.9569966427385,0.71628031260488,-84.5988564864361,41.7622180087644,42.8366384776717
1.39982691475552,83.9055291063775,84.9686142668341,1.06308516045659,-84.4370716866058,41.4212219729604,43.0158497136453
1.40199048031155,84.2012072170023,84.977093317613,0.775886100610677,-84.5891502673076,41.7126605581958,42.8764897091118
1.40415404586759,84.4170060493274,85.2534379120249,0.836431862697481,-84.8352219806761,41.7902870933149,43.0449348873612
1.40631761142363,84.3043492747135,85.7252825095108,1.42093323479732,-85.0148158921122,41.4417080199581,43.5731078721541
1.40848117697966,84.7624398513143,86.0696553579479,1.3072155066336,-85.4160476046311,41.7276121723404,43.6884354322908
1.4106447425357,84.5564619893033,85.7806813184365,1.22421932913323,-85.1685716538699,41.666121330085,43.5024503237849
1.41280830809174,84.9464427499658,85.5697754107687,0.623332660802916,-85.2581090803673,42.1615550445815,43.0965540357858
1.41497187364777,84.9609115737533,85.6860032560495,0.725091682296167,-85.3234574149014,42.1179099457286,43.2055474691728
1.41713543920381,85.2416277667878,85.2305190031919,-0.0111087635958853,-85.2360733849899,42.6263682651918,42.609705119798
1.41929900475984,84.3658818890145,85.1682428625251,0.802360973510687,-84.7670623757698,41.7817604577519,42.9853019180179
1.42146257031588,84.5371928357575,85.6631034318542,1.12591059609669,-85.1001481338058,41.7056411198304,43.3945070139754
1.42362613587192,84.6622230660763,85.754118132497,1.0918950664207,-85.2081705992867,41.7851639998278,43.4230065994589
1.42578970142795,85.0236318148744,86.0907008582612,1.06706904338679,-85.5571663365678,41.9782813857438,43.578884950824
1.42795326698399,84.7470913214166,86.6065098817231,1.85941856030648,-85.6768006015699,41.4438363805551,44.2329642210148
1.43011683254003,84.8154161719722,86.9829698933574,2.16755372138519,-85.8991930326648,41.3239312252935,44.5752618073713
1.43228039809606,84.865282639725,85.9069458349692,1.0416631952442,-85.386114237347,41.9118097222404,43.4743045151067
1.4344439636521,84.3613649477069,85.3917725719495,1.03040762424256,-84.8765687598282,41.6654786617322,43.211090098096
1.43660752920814,83.7234275385879,85.556088989868,1.83266145128009,-84.639758264228,40.9453830436539,43.6943752205741
1.43877109476417,83.5279890951994,85.1357018830301,1.60771278783071,-84.3318454891148,40.9601381536843,43.3717073354304
1.44093466032021,83.1151933494591,84.8288849644952,1.71369161503605,-83.9720391569772,40.7007508672115,43.2712882897656
1.44309822587624,83.3542293624081,84.8751127542815,1.52088339187335,-84.1146710583448,40.9166729852674,43.1979980730774
1.44526179143228,83.7988445234695,85.1790080313675,1.38016350789799,-84.4889262774185,41.2093405077858,43.2795857696327
1.44742535698832,83.8531879250062,85.1306478997187,1.27745997471243,-84.4919179123624,41.2878639751469,43.2040539372155
1.44958892254435,84.1630063309152,85.0953525580417,0.932346227126487,-84.6291794444784,41.6153300518944,43.0138493925841
1.45175248810039,84.3891253699157,85.3397486840405,0.950623314124826,-84.8644370269781,41.7192510278954,43.1451859990827
1.45391605365643,84.5541569459078,84.9778072547001,0.423650308792347,-84.7659821003039,42.0652533185577,42.7007287817462
1.45607961921246,84.9447604283622,85.253958974573,0.309198546210766,-85.0993597014676,42.3177809410757,42.7815787603919
1.4582431847685,84.9596837417813,85.4555065919032,0.495822850121883,-85.2075951668423,42.2319304458297,42.9756647210125
1.46040675032453,85.2407316412502,85.0622924446804,-0.178439196569741,-85.1515120429653,42.70958541891,42.4419266240553
1.46257031588057,85.7160089167157,85.0454637537973,-0.67054516291833,-85.3807363352565,43.193277039817,42.1874592954395
1.46473388143661,85.5225746601094,85.8436500739089,0.321075413799463,-85.6831123670092,42.600749623155,43.0823627438542
1.46689744699264,85.6515540813858,86.4262014014114,0.774647320025565,-86.0388777413986,42.4384533806801,43.6004243607185
1.46906101254868,85.7456889108008,86.851372869055,1.10568395825423,-86.2985308899279,42.3200024762733,43.9785284136546
1.47122457810472,86.0845488431674,86.6213691998608,0.536820356693383,-86.3529590215141,42.773864243237,43.5790947782771
1.47338814366075,86.0617074479792,87.2639710862676,1.20226363828844,-86.6628392671234,42.4297219048454,44.233117362278
1.47555170921679,85.7748805857172,87.1926576575579,1.4177770718407,-86.4837691216376,42.1785517569383,44.3052173646993
1.47771527477283,85.8356979938986,87.6809224183473,1.84522442444867,-86.758310206123,41.995236784725,44.763073421398
1.47987884032886,85.8800852014699,87.7671232090998,1.88703800762987,-86.8236042052848,41.99652359692,44.8270806083648
1.4820424058849,86.1826371410598,87.8300363207622,1.64739917970242,-87.006336730911,42.2676189806787,44.7387177502323
1.48420597144093,85.8631403710123,87.3356406407576,1.47250026974521,-86.599390505885,42.1953200506336,44.4040704552514
1.48636953699697,85.6299576380662,87.515121448572,1.8851638105058,-86.5725395433191,41.8723969137802,44.7001426295389
1.48853310255301,85.7299268807982,87.1058019775003,1.37587509670205,-86.4178644291493,42.1770258920481,44.2408385371012
1.49069666810904,85.8028888116101,87.3473751279219,1.54448631631178,-86.575131969766,42.1292012476492,44.4459307221168
1.49286023366508,85.5859834117114,86.9833733673925,1.39738995568104,-86.2846783895519,42.0942967280152,44.1903816615367
1.49502379922112,85.4276763529839,86.9878651554739,1.56018880249005,-86.2077707542289,41.9337437752469,44.274026978982
1.49718736477715,85.3121369295547,86.7209872472311,1.40885031767642,-86.0165620883929,41.9516433059391,44.0649187824538
1.49935093033319,85.4979674109526,87.0665204874547,1.56855307650208,-86.2822439492036,41.9647071672252,44.3175367819784
1.50151449588923,85.6335946334457,87.3187057764237,1.68511114297796,-86.4761502049347,41.9742417452339,44.5019084597008
1.50367806144526,85.7325813192835,87.5027616430351,1.77018032375162,-86.6176714811593,41.9812004977659,44.6364709833934
1.5058416270013,85.8048261370496,86.5564688264634,0.75164268941387,-86.1806474817565,42.5265917238179,43.6540557579387
1.50800519255733,85.587397356649,86.4061353162814,0.818737959632443,-85.9967663364652,42.3843296985083,43.6124366379569
1.51016875811337,85.6988645237849,86.2964153377275,0.597550813942618,-85.9976399307562,42.5506568549212,43.4469830758351
1.51233232366941,85.5100619314277,85.9461806810748,0.436118749647065,-85.7281213062512,42.5369715908903,43.1911497153609
1.51449588922544,85.6424217440849,85.9607203044011,0.318298560316222,-85.801571024243,42.6620615918843,43.1395094323587
1.51665945478148,86.0091799430222,86.2414881700392,0.232308227017,-86.1253340565307,42.8884358580026,43.2368981985281
1.51882302033752,85.7365437125185,86.4464048526813,0.709861140162744,-86.0914742825999,42.5133412861779,43.578132996422
1.52098658589355,85.5375618532666,86.3258058087198,0.788243955453126,-85.9316838309932,42.3746589489068,43.5570248820864
1.52315015144959,85.3923361793414,85.9676311337586,0.575294954417188,-85.67998365655,42.4085206124621,43.2714630440879
1.52531371700563,85.2863441233504,85.7062195721733,0.419875448822964,-85.4962818477618,42.4332343372637,43.0630475104981
1.52747728256166,85.479142691566,85.785586179677,0.306443488111043,-85.6323644356215,42.5863496017275,43.046014833894
1.5296408481177,85.3496993170665,85.5733551932768,0.223655876210231,-85.4615272551716,42.5630217204281,42.8985055347435
1.53180441367373,85.2552258742737,85.9587721499475,0.70354627567373,-85.6069990121106,42.2758397993,43.3311592128106
1.53396797922977,85.1862750189083,85.6997538978696,0.513478878961308,-85.443014458389,42.3363980699735,43.1066163884155
1.53613154478581,85.676264089177,86.3211796711937,0.644915582016665,-85.9987218801853,42.5156742535802,43.4830476266052
1.53829511034184,85.7637233564918,86.2344109878938,0.470687631402043,-85.9990671721928,42.6465178625449,43.3525493096479
1.54045867589788,85.8275549594557,86.1710834033833,0.343528443927639,-85.9993191814195,42.742013257764,43.2573059236555
1.54262224145392,85.3338296346219,85.5845517354679,0.250722100845991,-85.4591906850449,42.541553766888,42.9176369181569
1.54478580700995,85.243643485122,85.9669438767142,0.723300391592218,-85.6052936809181,42.2601715467649,43.3451221341532
1.54694937256599,84.6375092603909,84.8952493462737,0.257740085882745,-84.7663793033323,42.1898845872541,42.5764947160782
1.54911293812203,84.4652821735706,84.6533921742038,0.188110000633188,-84.5593371738872,42.1385860864687,42.4207510874185
1.55127650367806,83.7992708803641,83.9365617958111,0.137290915446954,-83.8679163380876,41.8309899824586,42.036926355629
1.5534400692341,84.3938115226806,84.2238562326143,-0.169955290066227,-84.3088338776474,42.2818834063734,42.026950471274
1.55560363479013,84.2874208935218,83.6230676570641,-0.664353236457671,-83.9552442752929,42.4758870649897,41.4793572103032
1.55776720034617,84.2097723537152,83.1845858472203,-1.02518650649489,-83.6971791004677,42.617479430105,41.0796996703627
1.55993076590221,83.6127886255368,82.8645626220985,-0.748226003438305,-83.2386756238176,42.1805073144875,41.0581683093301
1.56209433145824,82.9069275480405,81.8205270235716,-1.08640052446884,-82.363727285806,41.9966640362546,40.3670632495514
1.56425789701428,81.8514468016049,81.0585441274019,-0.792902674202978,-81.4549954645034,41.3221747379039,40.1328207265995
1.56642146257032,81.3512669472014,81.0427280677157,-0.308538879485766,-81.1969975074585,40.8299029133436,40.367094594115
1.56858502812635,80.7160575756465,81.031184814801,0.315127239154506,-80.8736211952238,40.200465168246,40.6731560269778
1.57074859368239,80.7927663853995,80.4824476196232,-0.31031876577633,-80.6376070025113,40.5515425755879,40.0860644269234
1.57291215923842,80.5785956218208,79.811798974536,-0.766796647284792,-80.1951972981784,40.6726961345528,39.5225011636256
1.57507572479446,80.1521282085525,79.8626426506457,-0.289485557906815,-80.0073854295991,40.2208068832297,39.7865785463694
1.5772392903505,79.8408736161395,79.0892819562051,-0.751591659934448,-79.4650777861723,40.296232638037,39.1688451481353
1.57940285590653,79.6137063853404,78.5248494573849,-1.08885692795552,-79.0692779213627,40.351281656648,38.7179962647147
1.58156642146257,79.4479097930754,77.57258948056,-1.87532031251544,-78.5102496368177,40.6616150527954,37.8486345840223
1.58372998701861,78.7865917563747,77.4179008755344,-1.36869088084032,-78.1022463159545,40.0776413186075,38.024604997347
1.58589355257464,78.0337766834398,77.3050023580622,-0.7287743253776,-77.669389520751,39.3812755044087,38.2881140163423
1.58805711813068,77.7544954907204,77.4927602882678,-0.261735202452641,-77.6236278894941,39.0081153465865,38.6155125429076
1.59022068368672,78.0909762708165,78.1701066710435,0.0791304002270721,-78.13054147093,39.0059229352947,39.1246185356353
1.59238424924275,78.0663984661225,78.6644637209236,0.598065254801114,-78.365431093523,38.7341666056607,39.6312644878624
1.59454781479879,77.7783042961691,78.2147985072811,0.436494211112006,-77.9965514017251,38.6709050425285,39.3256463591966
1.59671138035482,78.1083529795759,78.42692556811,0.318572588534082,-78.2676392738429,38.8948901955209,39.372749078322
1.59887494591086,77.808924537197,77.771276550135,-0.0376479870620585,-77.790100543666,38.9232862621295,38.8668142815365
1.6010385114669,77.8605447604095,77.5629113990451,-0.297633361364419,-77.7117280797273,39.079089060887,38.6326390188403
1.60320207702293,77.8982194596629,77.4108373878597,-0.487382071803239,-77.6545284237613,39.1928007657331,38.4617276580282
1.60536564257897,78.1958723167543,77.5700033273319,-0.625868989422358,-77.8829378220431,39.4108706530883,38.4720671689548
1.60752920813501,78.1429561936494,78.2264820232806,0.0835258296311991,-78.184719108465,39.0297151820091,39.1550039264559
1.60969277369104,78.1043356899095,77.8951402859425,-0.209195403967044,-77.999737987926,39.1567655469383,38.8429724409877
1.61185633924708,78.3463049670322,77.9234687890702,-0.422836177961997,-78.1348868780512,39.3845705724971,38.7503163055541
1.61401990480312,78.2527485289864,77.4038317473617,-0.84891678162478,-77.828290138174,39.5508326553056,38.2774574828684
1.61618347035915,78.1844669438393,77.5648903041326,-0.619576639706764,-77.8746786239859,39.402021791773,38.4726568322129
1.61834703591519,77.8644758412045,77.9525941031884,0.0881182619838654,-77.9085349721964,38.8881787896103,39.0203561825861
1.62051060147122,77.6309323226901,78.235557312563,0.604624989872875,-77.9332448176266,38.5131536664086,39.4200911512179
1.62267416702726,78.0007944601881,78.1719200413223,0.171125581134248,-78.0863572507552,38.9148344395269,39.1715228112283
1.6248377325833,78.2707360437048,79.4762558335721,1.20551978986725,-78.8734959386385,38.5326081269188,40.3408878117197
1.62700129813933,78.4677512315921,79.0774361498208,0.60968491822878,-78.7725936907065,38.9290331566816,39.8435605340248
1.62916486369537,78.3413853307669,78.51620386918,0.174818538413177,-78.4287945999734,39.0832833961768,39.3455112037966
1.63132842925141,78.2491579630183,78.1065919754572,-0.142565987561113,-78.1778749692378,39.1958619752897,38.9820129939481
1.63349199480744,78.4520026034433,78.0777954911518,-0.374207112291501,-78.2648990472975,39.4131048578674,38.8517941894301
1.63565556036348,78.6000475042126,77.2463099203466,-1.35373758386596,-77.9231787122796,39.9768925440393,37.9462861682403
1.63781912591952,78.4379409435315,77.1797677653194,-1.25817317821212,-77.8088543544254,39.8480570608718,37.9607972935536
1.63998269147555,78.3196284772035,77.4013585986957,-0.918269878507829,-77.8604935379496,39.6189491778557,38.2415443600939
1.64214625703159,78.7735912823392,78.3735539275565,-0.400037354782668,-78.5735726049479,39.5868143185609,38.9867582863869
1.64430982258762,78.5646007919655,78.0024798016864,-0.562120990279084,-78.283540296826,39.5633608911223,38.7201794057037
1.64647338814366,78.68222659266,78.8122785034716,0.130051910811531,-78.7472525480658,39.2760873409242,39.4711652071415
1.6486369536997,79.0382312644922,79.1331488437322,0.0949175792400183,-79.0856900541122,39.4716568426261,39.6140332114861
1.65080051925573,79.5682152746452,79.0971778564944,-0.471037418150772,-79.3326965655698,40.019626346398,39.3130702191718
1.65296408481177,79.4147083885194,79.3410808667777,-0.0736275217417131,-79.3778946276486,39.7441679551306,39.633726672518
1.65512765036781,79.3026723412456,79.2489357518672,-0.0537365893784738,-79.2758040465564,39.6782044653121,39.5975995812443
1.65729121592384,80.0313721637113,79.1816842121433,-0.849687951568015,-79.6065281879273,40.4405300576397,39.1659981302876
1.65945478147988,80.0228967788048,79.9430697292487,-0.0798270495561297,-79.9829832540268,40.0513619141805,39.9316213398463
1.66161834703592,80.2868672836505,79.9584497955357,-0.328417488114795,-80.1226585395931,40.3076423858827,39.8150161537105
1.66378191259195,80.2093683049896,80.2398310532479,0.0304627482583442,-80.2245996791188,40.0894527783656,40.1351469007531
1.66594547814799,80.1528061568276,80.4451954162849,0.292389259457309,-80.2990007865563,39.9302084486851,40.3687923378711
1.66810904370402,80.38168083622,80.8652355328221,0.483554696602013,-80.623458184521,39.949063069809,40.674395114712
1.67027260926006,80.5487235992345,81.1717992026414,0.623075603406917,-80.8602614009379,39.9628239979138,40.8974374030242
1.6724361748161,80.1303262984291,80.5850741571099,0.454747858680861,-80.3577002277695,39.8377892198741,40.5199110078954
1.67459974037213,79.8249616274666,80.4270127391611,0.602051111694536,-80.1259871833139,39.611455257886,40.5145319254278
1.67676330592817,80.142405542994,81.392277442615,1.24987189962096,-80.7673414928045,39.4462668216865,41.321074671118
1.67892687148421,80.3740900128209,81.8266136784587,1.45252366563783,-81.1003518456398,39.4607831735915,41.6395686720483
1.68109043704024,80.2730272720582,81.603298858405,1.33027158634684,-80.9381630652316,39.4713778428557,41.4667852223759
1.68325400259628,80.7395796822446,82.2507825598068,1.51120287756218,-81.4951811210257,39.6141884023412,41.8809927186845
1.68541756815232,80.8099338487838,82.7233445171892,1.91341066840538,-81.7666391829865,39.4482615901892,42.3183775927973
1.68758113370835,80.8612814002014,82.7980847144189,1.93680331421747,-81.8296830573101,39.462239042992,42.3674440143182
1.68974469926439,80.8987570916391,82.3123209593472,1.41356386770804,-81.6055390254931,39.7425966119655,41.8629424135276
1.69190826482042,81.1962647041124,81.9577893002102,0.761524596097757,-81.5770270021613,40.2173700540073,41.359656948154
1.69407183037646,81.6835549988686,81.9691927829658,0.285637784097261,-81.8263738909172,40.6989586073857,41.1274152835315
1.6962353959325,81.76904458164,82.2476717558897,0.47862717424978,-82.0083581687649,40.6452087036951,41.3631494650698
1.69839896148853,82.3717510463186,82.4509179044026,0.0791668580839939,-82.4113344753606,41.1462920941173,41.2650423812433
1.70056252704457,82.5414764037575,82.8694120552274,0.327935651469886,-82.7054442294924,41.1067703761438,41.5986738533486
1.70272609260061,82.6653494015721,82.6345349878316,-0.0308144137405151,-82.6499421947019,41.3480819076563,41.3018602870455
1.70488965815664,83.0259135514156,82.7332676310907,-0.292645920324972,-82.8795905912531,41.6592797358703,41.2203108553828
1.70705322371268,82.7487566326574,83.345639461202,0.596882828544636,-83.0471980469297,41.0759369020564,41.9712611448733
1.70921678926871,82.5464753771649,83.2522628136903,0.705787436525426,-82.8993690954276,40.9203439703197,41.9790251251079
1.71138035482475,82.6689978712606,83.9945810831626,1.32558321190204,-83.3317894772116,40.6717073296793,42.6600821475323
1.71354392038079,82.7584201524823,85.0766698846944,2.31824973221215,-83.9175450185883,40.2200852101351,43.6974598084533
1.71570748593682,83.0938406608238,85.0559570390807,1.96211637825691,-84.0748988499523,40.5658621412835,43.5090367086688
1.71787105149286,83.6088014471194,84.7706836855035,1.16188223838407,-84.1897425663115,41.2234596043677,42.9662829619438
1.7200346170489,83.9846423781269,84.8326349123482,0.847992534221277,-84.4086386452376,41.5683249219528,42.8403137232848
1.72219818260493,83.9887913350755,85.6883182660427,1.6995269309672,-84.8385548005591,41.1446322020542,43.693922598505
1.72436174816097,84.2619756374033,85.2322085988549,0.970232961451615,-84.7470921181291,41.6458713379758,43.1012207801533
1.72652531371701,84.1912012915998,84.8993197915526,0.708118499952846,-84.5452605415762,41.7415413958235,42.8037191457527
1.72868887927304,84.4097032868278,85.1966753871488,0.786972100320995,-84.8031893369883,41.8113655932534,42.9918237437349
1.73085244482908,84.8393318226104,85.9540109452033,1.11467912259289,-85.3966713839068,41.8623263500087,43.5343450338981
1.73301601038511,84.8827373287823,85.696278962163,0.81354163338078,-85.2895081454727,42.0345978477007,43.2549102977719
1.73517957594115,84.9144165678324,85.7783310872108,0.863914519378397,-85.3463738275216,42.025251024227,43.3211228032946
1.73734314149719,84.9375374636658,86.3785287447229,1.44099128105715,-85.6580331041943,41.7482730913043,43.90976001289
1.73950670705322,84.9544121058657,86.2762668529641,1.32185474709833,-85.6153394794149,41.8162786793837,43.7990608000312
1.74167027260926,85.5070403823955,86.2016316465016,0.694591264106052,-85.8543360144486,42.4062245591447,43.4481114553038
1.7438338381653,85.09990406155,85.8770033928176,0.777099331267664,-85.4884537271838,42.1614023651412,43.3270513620426
1.74599740372133,85.3430705706027,85.6400754784154,0.297004907812763,-85.4915730245091,42.523032831395,42.9685401931141
1.74816096927737,85.5205441367157,86.0074675355981,0.486923398882425,-85.7640058361569,42.5168103689166,43.2471954672403
1.75032453483341,85.6500721165002,86.2756063463405,0.625534229840326,-85.9628392314204,42.5122689433299,43.4505702880904
1.75248810038944,85.4744510960631,85.9309933679737,0.456542271910621,-85.7027222320184,42.5089544120762,43.1937678199422
1.75465166594548,85.616431397104,85.6794797264043,0.0630483293003437,-85.6479555617542,42.7766915339018,42.8712640278523
1.75681523150151,85.9902110497269,86.5765389049619,0.586327855235012,-86.2833749773444,42.701941597246,43.5814333800985
1.75897879705755,85.9928555954509,86.1506271265292,0.157771531078268,-86.07174136099,42.9175420321863,43.1541993288037
1.76114236261359,85.4544732769767,86.1099342726209,0.655460995644262,-85.7822037747988,42.3995061406662,43.3826976341326
1.76330592816962,85.872006921815,86.3503910578464,0.478384136031394,-86.1111989898307,42.6968113928918,43.4143875969389
1.76546949372566,86.4468974707066,86.7960431607282,0.349145690021672,-86.6214703157174,43.0488758903424,43.572594425375
1.7676330592817,86.8664777666687,87.1212995796829,0.254821813014118,-86.9938886731758,43.3058279768273,43.6880606963485
1.76979662483773,87.1727058392978,87.6288421684774,0.4561363291796,-87.4007740038876,43.3582847550591,44.0424892488285
1.77196019039377,87.126048283985,87.1888003385047,0.0627520545197626,-87.1574243112449,43.5316481147326,43.6257761965123
1.77412375594981,87.0919955570707,86.8676385423826,-0.224357014688096,-86.9798170497266,43.6581762858794,43.3216407638472
1.77628732150584,87.6074548096067,87.4437092361136,-0.163745573493131,-87.5255820228602,43.8856001915499,43.6399818313102
1.77845088706188,87.4433471193602,87.5939946415843,0.150647522224176,-87.5186708804722,43.646349798568,43.8723210819043
1.78061445261791,87.5937303529213,87.7036795112135,0.109949158292238,-87.6487049320674,43.7418905973145,43.9068143347529
1.78277801817395,87.7034866217745,87.783732331964,0.08024571018953,-87.7436094768692,43.8116204557925,43.9319890210768
1.78494158372999,87.5134353409335,87.8421583859109,0.328723044977423,-87.6777968634222,43.592356147978,44.0854407154442
1.78710514928602,87.6448838060575,88.1549564903206,0.510072684263051,-87.899920148189,43.5674055608972,44.3325145872918
1.78926871484206,87.4706644399157,88.6534064556339,1.18274201571828,-88.0620354477748,43.1439612120987,44.9180742356761
1.7914322803981,87.0733553058937,88.4768846427674,1.40352933687367,-87.7751199743306,42.83491298451,44.9402069898205
1.79359584595413,87.3236941262044,88.8883637179209,1.56466959171644,-88.1060289220626,42.879512267244,45.2265166548187
1.79575941151017,87.2362461472639,88.3782105292515,1.14196438198758,-87.8072283382577,43.0471408826382,44.7600874556195
1.79792297706621,87.1724227830498,87.7357221816357,0.563299398585841,-87.4540724823428,43.304561692232,44.1495107901108
1.80008654262224,87.1258416971407,88.0772746877983,0.951432990657594,-87.6015581924695,43.0872043532416,44.514353839228
1.80225010817828,87.3620009928173,89.4071795102274,2.04517851741005,-88.3845902515224,42.6584112377036,45.7261790138187
1.80441367373431,87.5343603877757,89.5673336480642,2.03297326028859,-88.5508470179199,42.7506935637435,45.8001534541764
1.80657723929035,87.6601558215116,89.6842211507075,2.02406532919596,-88.6721884861095,42.8180452461578,45.8541432399517
1.80874080484639,88.2922792611419,90.3098431921648,2.01756393102293,-89.3010612266534,43.1373576650595,46.1637035615939
1.81090437040242,88.7536306268865,90.7664495528387,2.0128189259522,-89.7600400898626,43.3704058504671,46.3896342393954
1.81306793595846,89.0903450553196,91.0997008687963,2.0093558134767,-90.095022962058,43.5404946209215,46.5545283411365
1.8152315015145,89.3360939892848,91.3429222716337,2.00682828234885,-90.3395081304592,43.664632853468,46.6748752769913
1.81739506707053,89.5154523221784,91.5204359016343,2.0049835794559,-90.5179441119064,43.7552343713613,46.7627097405451
1.81955863262657,89.3761996754183,91.9201493336701,2.54394965825182,-90.6481745045442,43.4161250085832,47.232049495961
1.82172219818261,89.5447232080716,92.2118776990728,2.66715449100128,-90.8783004535722,43.4387843585351,47.4395160950371
1.82388576373864,89.667719061532,92.1546376225112,2.48691856097922,-90.9111783420216,43.5904002502764,47.3207780917452
1.82604932929468,89.7574868211457,91.8427050963291,2.08521827518344,-90.8000959587374,43.8361342729811,46.9639616857563
1.82821289485071,90.0931594747456,91.8851992916516,1.792039816906,-90.9891793831986,44.1505598289198,46.8386195542788
1.83037646040675,90.33814807582,92.1863696280108,1.84822155219081,-91.2622588519154,44.2449632618146,47.0172955901008
1.83254002596279,90.7871076963481,92.4061769271711,1.61906923082306,-91.5966423117596,44.5840192327625,47.0126230789971
1.83470359151882,90.5744656627677,92.2964457071769,1.72198004440925,-91.4354556849723,44.4262428091792,47.0092128757931
1.83686715707486,90.6894264073356,93.0268276935153,2.33740128617966,-91.8581270504255,44.176012560578,47.6821144898475
1.8390307226309,91.0434860045088,93.0195800254619,1.9760940209531,-92.0315330149854,44.5336959917779,47.4978370232075
1.84119428818693,91.3018942021329,93.2844465718264,1.98255236969349,-92.2931703869797,44.6596709162197,47.63349947076
1.84335785374297,91.760648031842,93.2076015635019,1.44695353165994,-92.484124797672,45.156847250091,47.3272775475809
1.845521419299,91.8253104528636,93.6918291352709,1.86651868240732,-92.7585697940672,44.9793958852281,47.7791739088391
1.84768498485504,91.8725039191715,93.5049271968237,1.63242327765215,-92.6887155579976,45.1200403207597,47.5686752372379
1.84984855041108,92.1771039892683,93.0983617661872,0.921257776918921,-92.6377328777277,45.6279231061747,47.0098097715531
1.85201211596711,92.6695706701635,93.071788724041,0.402218053877561,-92.8706796971023,46.133676308143,46.7370033889593
1.85417568152315,93.028994418075,93.8628631899139,0.833868771838894,-93.4459288039945,46.0975628231181,47.3483659808764
1.85633924707919,93.0211613959225,93.6297553391633,0.608593943240848,-93.3254583675429,46.2062837263408,47.1191746412021
1.85850281263522,93.2856007252338,93.9999354460723,0.714334720838522,-93.642768085653,46.2856330021976,47.3571350834554
1.86066637819126,93.4786001270685,94.5402653094602,1.06166518239168,-94.0094327182643,46.2084674723384,47.8009652459259
1.8628299437473,93.61945954161,94.1241530681791,0.504693526569085,-93.8718063048946,46.5573830075205,47.3144232973741
1.86499350930333,93.7222649103125,94.0906123455876,0.368347435275041,-93.9064386279501,46.6769587375188,47.2294798904313
1.86715707485937,93.7972967700463,94.6064452812981,0.809148511251777,-94.2018710256722,46.4940741293973,47.7077968962749
1.8693206404154,93.3117458830415,94.1724541095235,0.86070822648206,-93.7420999962825,46.2255188282797,47.5165811680028
1.87148420597144,92.9573695843408,93.8557083487013,0.89833876436056,-93.4065389665211,46.0295154099901,47.3770235565309
1.87364777152748,92.9688864559458,93.8946896346209,0.925803178675096,-93.4317880452833,46.0215416386353,47.410246406648
1.87581133708351,93.247448185017,94.1932960958742,0.945847910857154,-93.7203721404456,46.1508001370799,47.5695720033657
1.87797490263955,93.1805985207183,93.8709197429716,0.690321222253274,-93.5257591318449,46.2451386492325,47.2806204826124
1.88013846819559,92.8616524966198,93.9057915762378,1.04413907961801,-93.3837220364288,45.9087567085009,47.4749653279279
1.88230203375162,93.1691841459265,94.4715549908711,1.30237084494455,-93.8203695683988,45.933406650491,47.8869629179078
1.88446559930766,93.1234779979543,94.3441614808482,1.2206834828939,-93.7338197394012,45.9513972575302,47.782422481871
1.8866291648637,93.3602758616491,93.9810279070385,0.620752045389366,-93.6706518843438,46.3697619081299,47.3008899762139
1.88879273041973,92.9927888877655,93.9861533358042,0.99336444803869,-93.4894711117849,45.9997122198634,47.4897588919215
1.89095629597577,92.7245808026585,94.2600503100221,1.53546950736352,-93.4923155563403,45.5945556476475,47.8977599086928
1.8931198615318,93.0691432215607,94.4599523152421,1.39080909368141,-93.7645477684014,45.8391670639396,47.9253807044618
1.89528342708784,93.8609323863622,95.1461619757296,1.28522958936746,-94.5035471810459,46.2878513984974,48.2156957825485
1.89744699264388,94.4388147897999,95.6469878337901,1.20817304399024,-95.042901311795,46.6153208729048,48.4275804388902
1.89961055819991,94.0501100366026,96.0125124752296,1.96240243862698,-95.0313112559161,46.0438537989878,48.9874574569283
1.90177412375595,94.306728710809,96.0091321523204,1.70240344151148,-95.1579304315647,46.3021626346487,48.855767796916
1.90393768931199,94.4940202560962,96.0066650446433,1.51264478854714,-95.2503426503698,46.4906877337745,48.7596549165952
1.90610125486802,94.3605576151214,95.1943958058156,0.833838190694223,-94.7774767104685,46.7633597122136,48.0141169982549
1.90826482042406,94.2631507356587,94.6015661475694,0.338415411910731,-94.4323584416141,46.962367661874,47.4699907797401
1.9104283859801,93.9219027178903,94.1688931040802,0.24699038618995,-94.0453979109853,46.8374561658502,47.2079417451351
1.91259195153613,93.6728449719109,93.853109370999,0.180264399088159,-93.7629771714549,46.7462902864114,47.0166868850436
1.91475551709217,92.9507592993793,93.3524803631461,0.401721063766828,-93.1516198312627,46.2745191178062,46.8771007134565
1.9169190826482,92.6939057686572,93.2572556034794,0.563349834822176,-92.9755806860683,46.0652779669175,46.9103027191508
1.91908264820424,92.5064428148009,93.4579126160323,0.951469801231383,-92.9821777154166,45.7774865067848,47.2046912086318
1.92124621376028,92.099467930553,92.7938922545735,0.69442432402046,-92.4466800925633,45.7025218032663,46.744158289297
1.92340977931631,91.8024398393605,92.0391049067004,0.236665067339928,-91.9207723730304,45.7828873860103,46.1378849870202
1.92557334487235,91.585655732104,92.0285404732406,0.442884741136666,-91.8070981026723,45.5713854954836,46.2357126071886
1.92773691042839,91.1572809861862,92.2909862989766,1.13370531279037,-91.7241336425814,45.0117878366979,46.7123458058835
1.92990047598442,90.844634338887,92.4825307546102,1.63789641572311,-91.6635825467486,44.603368961582,47.0602135851666
1.93206404154046,90.8866073373483,92.6223282857048,1.7357209483565,-91.7544678115265,44.5754431944959,47.1790246170306
1.93422760709649,91.1873972814159,92.9945148572415,1.80711757582554,-92.0909560693287,44.6901398527952,47.4008162165335
1.93639117265253,91.4069269536252,93.2661529145023,1.85922596087713,-92.3365399340638,44.773850496374,47.5626894376897
1.93855473820857,91.2969931093254,92.9240938394701,1.62710073014479,-92.1105434743978,44.8349461895903,47.2755972848075
1.9407183037646,91.4869147878297,92.9446003602566,1.45768557242694,-92.2157575740432,45.0146146077014,47.2011429663418
1.94288186932064,91.625527945117,92.6894107051971,1.06388276008013,-92.157469325157,45.2808225925184,46.8766467326386
1.94504543487668,91.726693896916,92.2330059087857,0.506312011869696,-91.9798499028508,45.6101909425231,46.3696589603277
1.94720900043271,92.0706854502782,92.7103703388677,0.639684888589514,-92.390527894573,45.7155002808443,46.6750276137286
1.94937256598875,91.5112769130533,92.7886155909649,1.27733867791156,-92.1499462520091,45.1169691175709,47.0329771344382
1.95153613154479,91.643308490877,92.3054099784152,0.662101487538195,-91.9743592346461,45.4906035016694,46.4837557329767
1.95369969710082,92.0098271296601,92.4930577874504,0.483230657790301,-92.2514424585553,45.7632982359349,46.4881442226204
1.95586326265686,91.7370160576659,92.9001675871023,1.16315152943636,-92.3185918223841,45.2869322641148,47.0316595582693
1.95802682821289,91.2677503795667,92.1166692979778,0.84891891841113,-91.6922098387722,45.2094157305778,46.4827941081945
1.96019039376893,90.9252597394241,91.5448379386511,0.619578199227007,-91.2350488390376,45.1528407700985,46.0822080689391
1.96235395932497,90.6752950732239,91.6678027969328,0.992507723708869,-91.1715489350784,44.8413936747575,46.3301552603208
1.964517524881,90.4928599143462,92.0277041467794,1.53484423243326,-91.2602820305628,44.4790078409565,46.7812741896063
1.96668109043704,90.359710746903,91.7500634875607,1.39035274065769,-91.0548871172319,44.4846790031227,46.5702081141092
1.96884465599308,89.9923764422786,91.5474291770981,1.55505273481953,-90.7699028096883,44.2186618537295,46.5512409559588
1.97100822154911,89.9944359937536,91.6696939962169,1.67525800246332,-90.8320649949852,44.1595889956451,46.6724759993401
1.97317178710515,89.9959391446039,91.7589282149574,1.76298907035346,-90.8774336797807,44.1164750371252,46.7609586426554
1.97533535266119,89.7268799980431,91.2837428314504,1.55686283340729,-90.5053114147467,44.0850085823179,46.4203028324288
1.97749891821722,89.8006650631581,91.4772441548316,1.67657909167352,-90.6389546089949,44.0620429857423,46.5769116232526
1.97966248377326,90.1246728464606,91.8886261055677,1.76395325910708,-91.0066494760142,44.1803597936768,46.8262896823374
1.98182604932929,89.8208354906659,91.3784020312457,1.55756654057971,-90.5996187609558,44.1316344750431,46.4679842859127
1.98398961488533,90.1393941076811,92.0866430075347,1.94724889985361,-91.1130185576079,44.0960726039138,47.0169459536942
1.98615318044137,90.1017359235928,91.7930796489623,1.69134372536958,-90.9474077862776,44.2051960991116,46.742211687166
1.9883167459974,90.614563755607,92.3892928909011,1.77472913529415,-91.501928323254,44.4199173101564,47.0820110130976
1.99048031155344,90.9888479631819,92.0139667863151,1.0251188231332,-91.5014073747485,44.9818645700243,46.5195428047241
1.99264387710948,90.7217045433317,92.0101935722322,1.2884890289005,-91.3659490577819,44.7166077572156,46.6493413005663
1.99480744266551,90.256575365943,91.4671272916292,1.21055192568622,-90.8618513287861,44.5230117201284,46.3388396086577
1.99697100822155,89.9171037251486,91.8812423758041,1.96413865065547,-90.8991730504763,43.9764825372466,46.9226905132298
1.99913457377759,89.9394986687407,91.9133254856877,1.973826816947,-90.9264120772142,43.9828359258969,46.9435761513174
2.00129813933362,90.4961559029502,91.1262725085252,0.630116605575012,-90.8112142057377,44.9330196486876,45.8781945570501
2.00346170488966,90.3621163037114,91.0921592059585,0.730042902247078,-90.727137754835,44.8160367007322,45.9111010541028
2.00562527044569,90.2642883348438,91.8777304596026,1.61344212475881,-91.0710093972232,44.3254231050425,46.7455862921807
2.00778883600173,90.7332016232038,91.9107623354636,1.17756071225983,-91.3219819793337,44.777820455472,46.5441615238617
2.00995240155777,90.8052788620126,91.3945580211278,0.589279159115208,-91.0999184415702,45.1079998514487,45.9919185901215
2.0121159671138,90.587727775151,91.558121932648,0.970394157497012,-91.0729248538995,44.808666808827,46.2642580450725
2.01427953266984,90.4289494658044,91.4073418255613,0.978392359756882,-90.9181456456829,44.7252785530238,46.1928670926591
2.01644309822588,90.3130661030383,91.0271396891591,0.714073586120804,-90.6701028960987,44.7994962584588,45.87060663764
2.01860666378191,89.9583331387044,90.4794953098013,0.521162171096805,-90.2189142242528,44.7185854838038,45.500328740449
2.02077022933795,90.2397459119843,90.8902690970384,0.650523185054141,-90.5650075045113,44.7946113634651,45.7703961410463
2.02293379489399,90.4451332764625,90.9199135821078,0.47478030564524,-90.6825234292851,44.9851764854086,45.6973469438765
2.02509736045002,89.7845653329721,90.6713932135163,0.886827880544146,-90.2279792732442,44.448868726214,45.7791105470302
2.02726092600606,89.8427663465222,90.4900121662764,0.647245819754175,-90.1663892563993,44.597760263384,45.5686289930153
2.02942449156209,89.6150877828529,90.0874761237925,0.472388340939631,-89.8512819533227,44.5713497209566,45.2799322323661
2.03158805711813,89.4489179974688,89.7936876936878,0.344769696219046,-89.6213028455783,44.5520741506249,45.0692286949534
2.03375162267417,89.5977962237033,89.8494242448236,0.251628021120368,-89.7236102342634,44.6730841012915,45.050526132972
2.0359151882302,89.4362978604364,89.8901032204418,0.453805360005376,-89.6632005404391,44.4912462502155,45.1719542902236
2.03807875378624,89.3184292832132,89.6496363062325,0.331207023019275,-89.4840327947229,44.493611130097,44.9904216646259
2.04024231934228,89.2324036343113,89.7442892345181,0.511885600206739,-89.4883464344147,44.3602590170523,45.1280874173624
2.04240588489831,89.7099307725839,90.3536835099988,0.643752737414886,-90.0318071412913,44.5330890175845,45.4987181237068
2.04456945045435,89.5181385643715,89.9879775008644,0.469838936492877,-89.753058032618,44.5241498139393,45.2289082186786
2.04673301601039,89.3781602125963,89.4509130299448,0.0727528173485155,-89.4145366212706,44.6527036976239,44.7618329236467
2.04889658156642,89.2759978820807,89.3290960738914,0.0530981918106619,-89.302546977986,44.611449845135,44.691097132851
2.05106014712246,89.2014353397732,89.240188725227,0.0387533854538589,-89.2208120325001,44.5813409771597,44.6394710553405
2.05322371267849,88.8768601195713,88.9051440372138,0.0282839176424403,-88.8910020783926,44.4242881009645,44.4667139774281
2.05538727823453,88.6399709113266,88.9307699647936,0.290799053466912,-88.7853704380601,44.1745859289299,44.6107845091302
2.05755084379057,88.4670787942146,89.2196291007243,0.752550306509704,-88.8433539474695,43.8572642438524,44.986089703617
2.0597144093466,88.0707383446524,88.8901387229842,0.819400378331835,-88.4804385338183,43.6256689831603,44.854769550658
2.06187797490264,87.7814717295554,88.3795060056709,0.598034276115513,-88.0804888676131,43.5917187267199,44.4887701408932
2.06404154045868,87.5703522874139,88.0068238889247,0.436471601510746,-87.7885880881693,43.5669403429516,44.2216477452177
2.06620510601471,87.1461118621422,87.7348241610709,0.588712298928684,-87.4404680116066,43.2786997816068,44.1617682299998
2.06836867157075,87.376795046828,88.0766192730675,0.699824226239514,-87.7267071599478,43.3384854102942,44.3882217496535
2.07053223712678,87.2750015243249,87.7857638886276,0.510762364302636,-87.5303827064763,43.3821195800112,44.1482631264651
2.07269580268282,87.2007081542544,88.1137973167937,0.913089162539308,-87.6572527355241,43.1438094958575,44.5134432396665
2.07485936823886,87.4166418114809,87.8128980528959,0.396256241414989,-87.6147699321884,43.510192785033,44.1045771471555
2.07702293379489,87.3040834379839,88.4037572299027,1.09967379191875,-87.8539203339433,43.1022048230326,44.7517155109107
2.07918649935093,87.4920896201569,88.2946797061564,0.802590085999455,-87.8933846631566,43.3447497670787,44.5486348960779
2.08135006490697,87.359148552474,88.755382576769,1.39623402429504,-88.0572655646215,42.9814572640895,45.075808300532
2.083513630463,87.5322785519101,88.2811550694436,0.748876517533546,-87.9067168106768,43.3917010171883,44.5150157934886
2.08567719601904,87.3884801946655,88.4753554928058,1.08687529814034,-87.9319178437357,43.1508024482626,44.7811153954731
2.08784076157508,87.2835298568875,87.8066228298338,0.523092972946245,-87.5450763433606,43.3802184419706,44.16485790139
2.09000432713111,86.9367762929266,87.318552449845,0.38177615691842,-87.1276643713858,43.2775000680041,43.8501643033817
2.09216789268715,86.95385657013,86.9623373148408,0.00848074471079485,-86.9580969424854,43.4726879127096,43.4854090297758
2.09433145824318,87.5066349280898,88.3232931825506,0.816658254460791,-87.9149640553202,43.3449883368145,44.5699757185057
2.09649502379922,87.0996081432435,87.9657973091571,0.866189165913596,-87.5327027262003,43.116709488665,44.4159932375354
2.09865858935526,86.8025421727216,87.9750373785511,1.17249520582941,-87.3887897756364,42.8150234834461,44.5737662921902
2.10082215491129,86.8558866313436,87.4414687620568,0.585582130713235,-87.1486776967002,43.1351522503152,44.013525446385
2.10298572046733,86.6246635412282,87.5923594455115,0.967695904283318,-87.1085114933699,42.8284838184724,44.2800276748974
2.10514928602337,85.9155943814924,87.4323298616457,1.51673548015336,-86.6739621215691,42.1994294506695,44.4745326708995
2.1073128515794,86.4787095073924,87.5856894758162,1.10697996842381,-87.0321994916043,42.6858647694843,44.34633472212
2.10947641713544,86.3493831602883,87.4274618256966,1.07807866540828,-86.8884224929924,42.63565224744,44.2527702455524
2.11163998269148,86.5251513410847,87.85229278189,1.32714144080524,-87.1887220614873,42.5990049501397,44.5897171113476
2.11380354824751,87.1937470797329,87.622040592529,0.428293512796131,-87.407893836131,43.3827267834684,44.0251670526626
2.11596711380355,86.8712488907394,88.2644610980359,1.3932122072965,-87.5678549943877,42.7390183417215,44.8288366526662
2.11813067935958,86.6358755908199,88.4631715014748,1.82729591065488,-87.5495235461473,42.4042898400825,45.1452337060648
2.12029424491562,87.0044022737256,88.0678866313178,1.06348435759217,-87.5361444525217,42.9704589580667,44.565685494455
2.12245781047166,86.7330567602606,88.3197028480359,1.58664608777525,-87.5263798041483,42.5732053362427,44.9531744679056
2.12462137602769,87.075329346565,88.2333331376859,1.15800379112092,-87.6543312421255,42.958662777722,44.6956684644034
2.12678494158373,86.7848224437826,88.1702967411046,1.38547429732198,-87.4775595924436,42.6996740732303,44.7778855192133
2.12894850713977,87.1131102091217,88.3944462305053,1.28133602138359,-87.7537782198135,42.9158870938691,44.8378911259445
2.1311120726958,87.352708995373,89.0983527666999,1.74564377132685,-88.2255308810365,42.8035326120231,45.4219982690134
2.13327563825184,86.7171100455467,88.5314697320779,1.81435968653115,-87.6242898888123,42.4513751795078,45.1729147093045
2.13543920380788,86.2532221002751,87.847577458792,1.59435535851692,-87.0503997795335,42.3294333708791,44.7209664086545
2.13760276936391,85.9146563650309,87.8887553551286,1.97409899009766,-86.9017058600798,41.9702786874666,44.9314271726131
2.13976633491995,86.2078686900332,87.6486525751064,1.44078388507323,-86.9282606325698,42.38354240248,44.5447182300898
2.14192990047598,85.8815554602955,87.2032588407232,1.32170338042778,-86.5424071505093,42.2799260399338,44.2624811105755
2.14409346603202,85.6433977765873,87.4185034141557,1.77510563756839,-86.5309505953715,41.9341460695094,44.596804525862
2.14625703158806,85.7397360824095,87.8457545408753,2.10601845846584,-86.7927453116424,41.8168588119718,44.9758864996706
2.14842059714409,85.8100479964726,88.1575811216825,2.34753312520989,-86.9838145590775,41.7312574356313,45.2525571234462
2.15058416270013,85.861364710183,87.8448533909146,1.98348868073164,-86.8531090505488,41.9389380147257,44.9141710358231
2.15274772825617,85.8988178949117,87.3464547873666,1.4476368924549,-86.6226363411391,42.2255905012284,44.3970458399107
2.1549112938122,85.6559966572599,86.9827016625552,1.32670500529528,-86.3193491599075,42.1646458259823,44.1547033339252
2.15707485936824,85.4787750853341,86.7172187039993,1.23844361866522,-86.0979968946667,42.1201657333344,43.9778311613323
