t,leadI,leadII,leadIII,aVR,aVL,aVF
0,0.257733159828604,-0.122270736492737,-0.380003896321341,-0.0677312116679332,0.318868528074972,-0.251137316407039
0.0051559680329982,-136.603200850604,-25.0655109034674,111.537689947137,80.8343558770359,-124.070445398871,43.2360895218349
0.0103119360659964,-218.386802782235,-14.4768881164591,203.909914665776,116.431845449347,-211.148358724006,94.7165132746586
0.0154679040989946,-241.848847816295,27.2383951660286,269.087242982324,107.305226325133,-255.46804539931,148.162819074176
0.0206238721319928,-234.727240555747,76.3191159306725,311.046356486419,79.2040623125372,-272.886798521083,193.682736208546
0.025779840164991,-220.368744123231,118.199142537194,338.567886660426,51.0848007930185,-279.468315391829,228.38351459881
0.0309358081979892,-209.507578904199,146.482659563751,355.99023846795,31.5124596702242,-282.748908686075,251.236449015851
0.0360917762309874,-204.863461690417,155.824565906525,360.688027596942,24.5194478919462,-282.77574464368,258.256296751734
0.0412477442639856,-208.245908065676,143.712805700292,351.958713765969,32.266551182692,-280.102310915822,247.835759733131
0.0464037122969838,-223.282807530062,114.814965609269,338.097773139331,54.2339209603962,-280.690290334696,226.4563693743
0.051559680329982,-249.677749359735,80.8122330856693,330.489982445404,84.4327581370329,-290.08386590257,205.651107765537
0.0567156483629802,-278.05069968275,54.5653662271209,332.616065909871,111.742666727815,-305.333382796311,193.590716068496
0.0618716163959784,-296.554165848448,41.6689511855682,338.223117034016,127.44260733144,-317.388641441232,189.946034109792
0.0670275844289765,-300.624299313425,38.8542895714861,339.478588884911,130.88500487097,-320.051444099168,189.166439228199
0.0721835524619747,-293.494659955348,40.8386324247165,334.333292380064,126.328013765316,-313.913976167706,187.58596240239
0.0773395204949729,-282.15257797922,44.2065852819101,326.35916326113,118.972996348655,-304.255870620175,185.28287427152
0.0824954885279711,-273.661539053702,46.8339707283965,320.495509782098,113.413784162653,-297.0785244179,183.664740255247
0.0876514565609693,-271.127209342072,47.6396497900971,318.766859132169,111.743779775987,-294.94703423712,183.203254461133
0.0928074245939675,-272.437179369419,45.9560377678624,318.393217137282,113.240570800779,-295.415198253351,182.174627452572
0.0979633926269657,-274.038337202169,42.3703730637887,316.408710265958,115.83398206919,-295.223523734064,179.389541664873
0.103119360659964,-274.580603843913,38.4618557055965,313.042459549509,118.059374069158,-293.811531696711,175.752157627553
0.108275328692962,-274.342420070783,33.7414836515429,308.083903722326,120.30046820962,-291.213161896555,170.912693686935
0.11343129672596,-274.342151864329,25.5731022304599,299.915254094789,124.384524816935,-287.128702979559,162.744178162624
0.118587264758959,-275.825805060975,12.9218597801666,288.747664841141,131.451972640404,-282.286734951058,150.834762310654
0.123743232791957,-278.452379814114,-0.364225278407275,278.088154535707,139.408302546261,-278.270267174911,138.86196462865
0.128899200824955,-280.628455039867,-7.55160813245288,273.076846907414,144.09003158616,-276.85265097364,132.762619387481
0.134055168857953,-280.326927817797,-4.23821717199621,276.088710645801,142.282572494897,-278.207819231799,135.925246736903
0.139211136890951,-273.897270119825,9.88964145509431,283.786911574919,132.003814332365,-278.842090847372,146.838276515007
0.144367104923949,-258.222577413956,31.119441324151,289.342018738107,113.551568044902,-273.782298076031,160.230730031129
0.149523072956948,-235.407910264574,52.2938331545606,287.701743419135,91.5570385550067,-261.554826841854,169.997788286848
0.154679040989946,-213.382624920479,66.4050227816704,279.787647702149,73.4888010694042,-246.585136311314,173.09633524191
0.159835009022944,-202.509057680905,67.8434877220375,270.352545402942,67.3327849794337,-236.430801541924,169.09801656249
0.164990977055942,-209.11201470616,53.4037848387813,262.515799544941,77.8541149336893,-235.813907125551,157.959792191861
0.17014694508894,-227.153044081899,29.5487606875759,256.701804769475,98.8021416971617,-241.927424425687,143.125282728525
0.175302913121939,-240.041782403781,12.3213960030532,252.363178406834,113.860193200364,-246.202480405308,132.342287204944
0.180458881154937,-236.830214633312,12.9950991320509,249.825313765363,111.91755775063,-243.327764199337,131.410206448707
0.185614849187935,-220.745340330998,28.8170366578411,249.562376988839,95.9641518365787,-235.153858659919,139.18970682334
0.190770817220933,-200.127743639853,50.1172020096719,250.244945649525,75.0052708150905,-225.186344644689,150.181073829598
0.195926785253931,-181.112637201776,68.7738818538614,249.886519055637,56.1693776739573,-215.499578128707,159.330200454749
0.20108275328693,-167.944013444427,76.8723490877067,244.816362532134,45.5358321783602,-206.38018798828,160.84435580992
0.206238721319928,-162.163593187276,69.2004120761571,231.364005263433,46.4815905555592,-196.763799225354,150.282208669795
0.211394689352926,-162.371022663627,52.6581243148701,215.029146978497,54.8564491743783,-188.700084821062,133.843635646683
0.216550657385924,-166.114240477822,40.8489749413261,206.963215419148,62.6326327682481,-186.538727948485,123.906095180237
0.221706625418922,-170.893243082261,37.985397127946,208.878640210207,66.4539229771577,-189.885941646234,123.432018669077
0.226862593451921,-174.650307191309,38.3034232354421,212.953730426751,68.1734419779335,-193.80201880903,125.628576831097
0.232018561484919,-176.155111309141,36.6228522911388,212.777963600279,69.766129509001,-194.46653745471,124.700407945709
0.237174529517917,-174.23565217631,33.8860881914507,208.121740367761,70.1747819924298,-191.178696272036,121.003914279606
0.242330497550915,-167.392108456141,36.0057999581795,203.39790841432,65.6931542489806,-185.39500843523,119.70185418625
0.247486465583913,-155.511310144408,45.8774194917664,201.388729636174,54.8169453263208,-178.450019890291,123.63307456397
0.252642433616912,-141.382054114735,57.9943261846593,199.376380299394,41.6938639650378,-170.379217207064,128.685353242027
0.25779840164991,-129.477899531122,65.6256337640104,195.103533295133,31.926132883556,-162.290716413128,130.364583529572
0.262954369682908,-121.934005078576,68.8796678525639,190.81367293114,26.5271686130059,-156.373839004858,129.846670391852
0.268110337715906,-116.528628282447,71.4062183475412,187.934846629988,22.5612049674529,-152.231737456218,129.670532488765
0.273266305748904,-110.617943993648,72.918603213157,183.536547206805,18.8496703902456,-147.077245600227,128.227575209981
0.278422273781903,-104.807115989129,71.0422892459135,175.849405235043,16.8824133716078,-140.328260612086,123.445847240478
0.283578241814901,-102.242289936476,67.6630410425657,169.905330979042,17.2896244469551,-136.073810457759,118.784186010804
0.288734209847899,-104.926517155958,65.976393510524,170.902910666482,19.475061822717,-137.91471391122,118.439652088503
0.293890177880897,-109.312355816333,66.0925924196442,175.404948235978,21.6098816983446,-142.358652026156,120.748770327811
0.299046145913895,-107.98611721288,68.3910237211966,176.377140934077,19.7975467458419,-142.181629073479,122.384082327637
0.304202113946894,-97.1624567571268,75.3642474930288,172.526704250156,10.899104632049,-134.844580503641,123.945475871592
0.309358081979892,-80.2721985231545,88.0722623526976,168.344460875852,-3.90003191477155,-124.308329699503,128.208361614275
0.31451405001289,-63.3914450275865,102.794532983788,166.185978011375,-19.7015439781009,-114.788711519481,134.490255497582
0.319670018045888,-50.0167428674794,111.581040159181,161.59778302666,-30.7821486458506,-105.80726294707,136.58941159292
0.324825986078886,-42.0567310639448,108.137504057779,150.194235121724,-33.0403864969172,-96.1254830928344,129.165869589752
0.329981954111885,-41.1397490497844,94.48716930171,135.626918351494,-26.6737101259628,-88.3833337006394,115.057043826602
0.335137922144883,-46.2465442026864,79.5533046506517,125.799848853338,-16.6533802239827,-86.0231965280122,102.676576751995
0.340293890177881,-53.0551511485826,70.5629808456683,123.618131994251,-8.75391484854285,-88.3366415714168,97.0905564199597
0.345449858210879,-56.6661851063403,69.204089528899,125.870274635239,-6.26895221127933,-91.2682298707898,97.5371820820691
0.350605826243877,-53.7153279139854,75.8236631249995,129.538991038985,-11.054167605507,-91.6271594764852,102.681327081992
0.355761794276875,-43.2472272164083,90.5664646554159,133.813691871824,-23.6596187195038,-88.5304595441162,112.19007826362
0.360917762309874,-28.1109431208284,107.926056569587,136.036999690415,-39.9075567243791,-82.0739714056217,121.981528130001
0.366073730342872,-14.3003608607097,118.248331476417,132.548692337127,-51.9739853078539,-73.4245265989184,125.398511906772
0.37122969837587,-6.85001229679483,117.885872002074,124.735884298869,-55.5179298526396,-65.7929482978319,121.310878150471
0.376385666408868,-6.1294594597457,110.038508318502,116.167967778248,-51.9545244293783,-61.1487136189969,113.103238048375
0.381541634441867,-8.91242242997089,99.1699259170735,108.082348347044,-45.1287517435513,-58.4973853885077,103.626137132059
0.386697602474865,-11.8908936402047,92.7935468398611,104.684440480066,-40.4513265998282,-58.2876670601352,98.7389936599635
0.391853570507863,-11.4242520024512,98.3927087782557,109.816960780707,-43.4842283879022,-60.6206063915791,104.104834779481
0.397009538540861,-3.26843395567596,113.900742232733,117.169176188409,-55.3161541385284,-60.2188050720423,115.534959210571
0.402165506573859,12.6804154991396,130.889524805068,118.209109305928,-71.7849701521038,-52.7643469033944,124.549317055498
0.407321474606857,30.855469651209,145.123396646534,114.267926995325,-87.9894331488716,-41.7062286720582,129.69566182093
0.412477442639856,46.5955804872003,158.009812026082,111.414231538881,-102.302696256641,-32.4093255258405,134.712021782482
0.417633410672854,60.5518002185627,171.708479311111,111.156679092549,-116.130139764837,-25.302439436993,141.43257920183
0.422789378705852,74.9227432366903,185.601474099094,110.678730862404,-130.262108667892,-17.8779938128569,148.140102480749
0.42794534673885,87.5705807148148,194.045767541035,106.47518682622,-140.808174127925,-9.45230305570244,150.260477183627
0.433101314771848,91.8333116257287,188.677032059967,96.8437204342383,-140.255171842848,-2.50520440425478,142.760376247103
0.438257282804847,83.5512079794505,168.208459686695,84.6572517072441,-125.879833833073,-0.553021863896845,126.432855696969
0.443413250837845,67.1214960715025,142.786001099622,75.6645050281193,-104.953748585562,-4.2715044783084,109.22525306387
0.448569218870843,52.9193953989426,124.641927438926,71.7225320399832,-88.7806614189342,-9.40156832052025,98.1822297394545
0.453725186903841,48.362578192427,119.584710516635,71.2221323242078,-83.9736443545309,-11.4297770658904,95.4034214204213
0.458881154936839,54.3454175152604,128.977058202759,74.6316406874985,-91.6612378590097,-10.1431115861191,101.804349445129
0.464037122969838,70.2204807767087,151.421591157496,81.2011103807873,-110.821035967102,-5.49031480203934,116.311350769142
0.469193091002836,94.2368335576501,180.329312241806,86.0924786841559,-137.283072899728,4.07217743674713,133.210895462981
0.474349059035834,119.865518161934,206.22445208118,86.3589339192457,-163.044985121557,16.7532921213443,146.291693000213
0.479505027068832,139.47516008996,222.249980146574,82.7748200566141,-180.862570118267,28.3501700166727,152.512400101594
0.48466099510183,149.772226544255,226.759042693237,76.9868161489823,-188.265634618746,36.3927051976362,151.87292942111
0.489816963134829,151.823402373146,221.90432338492,70.0809210117739,-186.863862879033,40.8712406806858,145.992622198347
0.494972931167827,148.816823413168,210.284732275632,61.467908862464,-179.5507778444,43.6744572753522,135.876320569048
0.500128899200825,143.071439707317,194.990011646904,51.9185719395874,-169.030725677111,45.5764338838648,123.454291793246
0.505284867233823,135.330043477793,180.070729186987,44.7406857091936,-157.70038633239,45.2946788842999,112.40570744809
0.510440835266821,127.031875728285,168.080511717421,41.0486359891365,-147.556193722853,42.9916198695742,104.564573853279
0.51559680329982,119.481879142301,160.328491086703,40.8466119444019,-139.905185114502,39.3176335989497,100.587551515553
0.520752771332818,111.866414841511,156.634048431928,44.7676335904175,-134.250231636719,33.5493906255465,100.700841011173
0.525908739365816,103.970484911094,152.436035379058,48.465550467964,-128.203260145076,27.7524672215648,100.450792923511
0.531064707398814,97.9061753521751,143.023110130231,45.1169347780558,-120.464642741203,26.3946202870596,94.0700224541433
0.536220675431812,93.9900647234538,129.999166402319,36.0091016788655,-111.994615562887,28.9904815222941,83.0041340405924
0.541376643464811,88.9137001213022,117.85474612794,28.9410460066376,-103.384223124621,29.9863270573323,73.3978960672887
0.546532611497809,80.8851129602639,109.34289269224,28.4577797319756,-95.1140028262517,26.2136666141442,68.9003362121075
0.551688579530807,73.809924513874,105.578634904824,31.7687103909495,-89.6942797093487,21.0206070614622,68.6736726478865
0.556844547563805,72.1978637181812,104.907671554545,32.7098078363636,-88.552767636363,19.7440279409088,68.8087396954542
0.562000515596803,73.5348682058101,104.298840901331,30.7639726955209,-88.9168545535705,21.3854477551446,67.531406798426
0.567156483629802,72.1296240311963,102.168844303103,30.0392202719065,-87.1492341671495,21.0452018796449,66.1040322875047
0.5723124516628,67.1930416909187,97.0411914867636,29.848149795845,-82.1171165888412,18.6724459475369,63.4446706413043
0.577468419695798,61.2588147015686,87.1666875349265,25.9078728333579,-74.2127511182475,17.6754709341053,56.5372801841422
0.582624387728796,54.9957929578605,73.9534522328827,18.9576592750221,-64.4746225953716,18.0190668414192,46.4555557539524
0.587780355761794,47.0508921392034,62.1972852805043,15.1463931413009,-54.6240887098538,15.9522494989512,38.6718392109026
0.592936323794793,36.7146828524346,52.5154533080181,15.8007704555835,-44.6150680802264,10.4569561984256,34.1581118818008
0.598092291827791,24.7002788675256,39.9436317797176,15.243352912192,-32.3219553236216,4.72846297766682,27.5934923459548
0.603248259860789,12.0337598789686,23.7049371691842,11.6711772902156,-17.8693485240764,0.181291294376479,17.6880572296999
0.608404227893787,-1.16269748462469,7.07843183996965,8.24112932459434,-2.95786717767248,-4.70191340460951,7.659780582282
0.613560195926785,-16.1807740662564,-10.6039069256062,5.57686714065017,13.3923404959313,-10.8788206034533,-2.51351989247803
0.618716163959783,-33.8448098684297,-30.464405359141,3.38040450928872,32.1546076137853,-18.6126071888592,-13.5420004249261
0.623872131992782,-51.3524103992717,-47.9918940990751,3.36051630019654,49.6721522491734,-27.3564633497341,-22.3156888994393
0.62902810002578,-63.2028961013332,-57.7672100123646,5.43568608896862,60.4850530568489,-34.3192910951509,-26.165761961698
0.634184068058778,-66.902457714834,-59.5197338006105,7.38272391422345,63.2110957577223,-37.1425908145287,-26.0685049431935
0.639340036091776,-64.6220981592228,-55.6993107807489,8.92278737847391,60.1607044699858,-36.7724427688484,-23.3882617011375
0.644496004124774,-58.9127066072408,-48.6189327396728,10.293773867568,53.7658196734568,-34.6032402374044,-19.1625794360524
0.649651972157773,-51.8646123243609,-42.7202530965924,9.14435922776852,47.2924327104766,-30.5044857760647,-16.7879469344119
0.654807940190771,-46.6490696877123,-42.2863031554994,4.36276653221296,44.4676864216058,-25.5059181099626,-18.9617683116432
0.659963908223769,-45.1637888269263,-46.1428558970124,-0.979067070086103,45.6533223619693,-22.0923608784201,-23.5609614835492
0.665119876256767,-47.0825725714247,-50.8098363691443,-3.7272637977195,48.9462044702845,-21.6776543868526,-27.2685500834319
0.670275844289765,-51.9168203562611,-54.6261845316053,-2.70936417534421,53.2715024439332,-24.6037280904584,-28.6677743534748
0.675431812322764,-57.8469463356452,-56.4010600127999,1.44588632284524,57.1240031742225,-29.6464163292452,-27.4775868449773
0.680587780355762,-61.4430023004981,-57.4712172497957,3.97178505070241,59.4571097751469,-32.7073936756003,-26.7497160995466
0.68574374838876,-63.3656693807142,-63.03433988396,0.331329496754165,63.2000046323371,-31.8484994387342,-31.3515051936029
0.690899716421758,-69.18531576166,-75.1302231057323,-5.94490734407225,72.1577694336962,-31.6202042087939,-40.5375652249023
0.696055684454756,-80.0883696457397,-87.5041069509239,-7.41573730518417,83.7962382983318,-36.3363161702778,-47.459922128054
0.701211652487755,-89.0409235698064,-90.4541949787904,-1.41327140898403,89.7475592742984,-43.8138260804112,-45.9337331938872
0.706367620520753,-88.8842807467358,-80.2026824909656,8.68159825577027,84.5434816188507,-48.7829395012531,-35.7605421175977
0.711523588553751,-78.8964983179108,-63.4212802208792,15.4752180970316,71.158889269395,-47.1858582074712,-23.9730310619238
0.716679556586749,-64.4092686398579,-51.9484195195689,12.460849120289,58.1788440797134,-38.4350588800735,-19.74378519964
0.721835524619747,-54.0902155858578,-53.5913014013165,0.498914184541292,53.8407584935872,-27.2945648851995,-26.5461936083876
0.726991492652746,-53.9255719368195,-66.8992971249966,-12.9737251881771,60.412434530908,-20.4759233743212,-39.9365111565868
0.732147460685744,-61.1693286027154,-81.4233623291886,-20.2540337264732,71.296345465952,-20.4576474381211,-50.8386980278309
0.737303428718742,-67.080389056789,-86.1142613868708,-19.0338723300817,76.5973252218299,-24.0232583633536,-52.5740668584763
0.74245939675174,-66.5403353648209,-81.1994667418012,-14.6591313769803,73.8699010533111,-25.9406019939203,-47.9292990593907
0.747615364784738,-63.3835320886698,-76.3082706176833,-12.9247385290136,69.8459013531765,-25.2293967798281,-44.6165045733484
0.752771332817737,-64.2063048994038,-76.5047830123331,-12.2984781129292,70.3555439558685,-25.9539133932373,-44.4016305626311
0.757927300850735,-68.6587860771197,-78.2907034430737,-9.63191736595394,73.4747447600967,-29.5134343555829,-43.9613104045138
0.763083268883733,-71.0370343264268,-76.970652638845,-5.93361831241813,74.0038434826359,-32.5517080070044,-41.4521354756316
0.768239236916731,-69.0862937583496,-71.5252957425894,-2.43900198423982,70.3057947504695,-33.3236458870549,-36.9821488634146
0.773395204949729,-64.7577777067273,-64.799971479933,-0.0421937732057245,64.7788745933301,-32.3577919667608,-32.4210826265694
0.778551172982728,-59.3272104429987,-60.1784228954241,-0.851212452425372,59.7528166692114,-29.2379989952867,-30.5148176739247
0.783707141015726,-53.1059792107504,-57.4274371856561,-4.32145797490568,55.2667081982033,-24.3922606179224,-30.8744475802809
0.788863109048724,-47.8083435854086,-54.5835958231373,-6.77525223772878,51.1959697042729,-20.5165456738399,-30.6794240304331
0.794019077081722,-45.7812602772388,-51.9277079961128,-6.14644771887396,48.8544841366758,-19.8174062791824,-29.0370778574934
0.79917504511472,-46.8943957071173,-50.7819881274729,-3.88759242035562,48.8381919172951,-21.5034016433808,-27.3347902739143
0.804331013147718,-48.3739253318565,-51.8670428475914,-3.49311751573492,50.1204840897239,-22.4404039080608,-27.6800801816632
0.809486981180717,-48.3946878738879,-56.047877763833,-7.65318988994503,52.2212828188604,-20.3707489919715,-31.850533826889
0.814642949213715,-48.8102518411969,-64.4514264635743,-15.6411746223774,56.6308391523856,-16.5845386094098,-40.0463005429758
0.819798917246713,-52.8127533486658,-76.7700842854595,-23.9573309367937,64.7914188170626,-14.4277112059361,-50.3637076111266
0.824954885279711,-59.7145378261485,-87.9759388564962,-28.2614010303477,73.8452383413224,-15.7265683979004,-58.118669943422
0.83011085331271,-65.3701711315581,-91.0194440487448,-25.6492729171867,78.1948075901515,-19.8604491071857,-58.3343584829658
0.835266821345708,-66.5568063771566,-86.5211436866168,-19.9643373094602,76.5389750318867,-23.2962345338482,-53.2427404980385
0.840422789378706,-62.5714068347082,-81.7849712575191,-19.2135644228109,72.1781890461137,-21.6789212059487,-50.499267840165
0.845578757411704,-56.1557041202115,-78.7278179732734,-22.572113853062,67.4417610467424,-16.7917951335747,-50.6499659131677
0.850734725444702,-51.1425573976568,-73.2347161646306,-22.0921587669738,62.1886367811437,-14.5251993153415,-47.6634374658022
0.855890693477701,-46.8507564447003,-64.5837250686927,-17.7329686239924,55.7172407566965,-14.558893910354,-41.1583468463426
0.861046661510699,-40.6840474803082,-58.2341103977717,-17.5500629174635,49.4590789390399,-11.5669922814223,-37.8920866576176
0.866202629543697,-35.272001369391,-60.3951992370808,-25.1231978676897,47.8336003032359,-5.07440175085065,-42.7591985523852
0.871358597576695,-35.6392372581218,-68.2308365865175,-32.5915993283957,51.9350369223197,-1.52381896486304,-50.4112179574566
0.876514565609693,-41.226261824451,-70.9957108345689,-29.7694490101179,56.1109863295099,-5.72840640716657,-50.3825799223434
0.881670533642691,-45.5210711959756,-65.9568581144996,-20.435786918524,55.7389646552376,-12.5426421387258,-43.1963225165118
0.88682650167569,-42.6813288598168,-59.3855198760426,-16.7041910162258,51.0334243679297,-12.9885689217955,-38.0448554461342
0.891982469708688,-33.1864734564498,-52.9240972242661,-19.7376237678163,43.055285340358,-6.72442484431673,-36.3308604960412
0.897138437741686,-23.3787972789777,-44.7713982839168,-21.3926010049391,34.0750977814473,-0.993098137019274,-33.081999644428
0.902294405774684,-19.1347098083195,-37.1978223031273,-18.0631124948078,28.1662660557234,-0.535798656755844,-27.6304673989675
0.907450373807682,-19.3961809717126,-33.3054413356845,-13.9092603639718,26.3508111536985,-2.74346030387039,-23.6073508498282
0.912606341840681,-18.4644352591318,-32.3015244577526,-13.8370891986208,25.3829798584422,-2.31367303025553,-23.0693068281867
0.917762309873679,-14.2587205183136,-31.1830039186052,-16.9242834002916,22.7208622184594,1.33278144098904,-24.0536436594484
0.922918277906677,-9.4738355012172,-29.0803583106214,-19.6065228094042,19.2770969059193,5.06634365409349,-24.3434405600128
0.928074245939675,-6.60763876573219,-27.8872844822149,-21.2796457164827,17.2474616239735,7.33600347537526,-24.5834650993488
0.933230213972673,-6.7666053860745,-30.0682647651279,-23.3016593790534,18.4174350756012,8.26752699648944,-26.6849620720906
0.938386182005672,-10.9293272237958,-36.544918953854,-25.6155917300582,23.7371230888249,7.34313225313122,-31.0802553419561
0.94354215003867,-18.1880536890294,-45.2623058480646,-27.0742521590352,31.725179768547,4.44309923500288,-36.1682790035499
0.948698118071668,-25.3134070799413,-54.3609611041545,-29.0475540242132,39.8371840920479,1.86707347213598,-41.7042575641839
0.953854086104666,-30.7568347954751,-63.4523888691502,-32.6955540736751,47.1046118323127,0.969359639099991,-48.0739714714127
0.959010054137664,-34.7908479863863,-68.3170100061641,-33.5261620197778,51.5539289962752,-0.632342983304284,-50.9215860129709
0.964166022170663,-34.4487020153385,-61.9872287896166,-27.5385267742781,48.2179654024776,-3.45508762053024,-44.7628777819473
0.969321990203661,-24.4160428712752,-42.192729694775,-17.7766868234999,33.3043862830251,-3.31967802388766,-29.9847082591374
0.974477958236659,-4.10526694206499,-13.8706027684505,-9.76533582638547,8.98793485525772,2.83003444216024,-11.817969297418
0.979633926269657,20.1382972309769,13.0688625520701,-7.06943467890682,-16.6035798915235,13.6038659549419,2.99971393658166
0.984789894302655,39.7978535700069,29.9983799897169,-9.79947358028994,-34.8981167798619,24.7986635751484,10.0994532047135
0.989945862335654,49.8133611704083,35.0523404502231,-14.7610207201851,-42.4328508103157,32.2871909452967,10.145659865019
0.995101830368652,49.7083158878671,30.8712014688988,-18.8371144189683,-40.289758678383,34.2727151534177,6.01704352496523
1.00025779840165,42.1184646377781,21.4389033072868,-20.6795613304913,-31.7786839725324,31.3990129841347,0.37967098839772
1.00541376643465,32.2395510440602,11.1479508009585,-21.0916002431018,-21.6937509225094,26.665575643581,-4.97182472107164
1.01056973446765,25.1020060235751,2.1211425765224,-22.9808634470527,-13.6115743000487,24.0414347353139,-10.4298604352651
1.01572570250064,22.5287052526085,-5.42673573442323,-27.9554409870317,-8.55098475909261,25.2420731198201,-16.6910883607275
1.02088167053364,22.8724343240347,-10.4409996382777,-33.3134339623124,-6.21571734287846,28.0929341431735,-21.8772168002951
1.02603763856664,21.7837939051248,-13.2144288974453,-34.99822280257,-4.28468250383975,28.3910083538474,-24.1063258500076
1.03119360659964,16.4077513761438,-16.4652850311638,-32.8730364073076,0.0287668275100259,24.6403938917257,-24.6691607192357
1.03634957463264,9.68903764291508,-20.9525649651474,-30.6416026080625,5.63176366111617,20.1653201254888,-25.797083786605
1.04150554266564,6.78371340976491,-24.3009253032986,-31.0846387130636,8.75860594676686,18.9341760614142,-27.6927820081811
1.04666151069863,8.69557580587292,-24.7720897775992,-33.4676655834721,8.03825698586314,21.0816206946725,-29.1198776805357
1.05181747873163,11.1004030391629,-24.6620256104936,-35.7624286496566,6.78081128566535,23.4314158444097,-30.2122271300751
1.05697344676463,8.02855872138264,-28.6342120210278,-36.6627707424104,10.3028266498226,22.3456647318965,-32.6484913817191
1.06212941479763,-2.00488057089939,-38.4982704776542,-36.4933899067548,20.2515755242768,17.2442546679277,-37.4958301922045
1.06728538283063,-14.1652580838899,-50.8702073002092,-36.7049492163193,32.5177326920496,11.2698455662147,-43.7875782582643
1.07244135086362,-22.3495000717306,-58.9234152842651,-36.5739152125345,40.6364576779979,7.11220757040192,-47.7486652483998
1.07759731889662,-23.367417000649,-59.4995366616268,-36.1321196609779,41.4334768311379,6.38235133016445,-47.8158281613024
1.08275328692962,-20.1120064550639,-57.8471860536577,-37.7351795985938,38.9795962543608,8.81158657176493,-47.7911828261257
1.08790925496262,-21.4869054799279,-61.1318918089322,-39.6449863290043,41.3093986444301,9.07904042453816,-50.3884390689682
1.09306522299562,-31.7990508090426,-70.8740366627409,-39.0749858536984,51.3365437358918,3.6379675223279,-54.9745112582196
1.09822119102862,-45.5486611770614,-82.8014602942363,-37.252799117175,64.1750607356489,-4.14793102994321,-60.0271297057056
1.10337715906161,-57.6654177383242,-93.279209698245,-35.6137919599208,75.4723137182846,-11.0258128892017,-64.4465008290829
1.10853312709461,-69.2190866729014,-104.344419431653,-35.1253327587517,86.7817530522773,-17.0468769570748,-69.7348760952025
1.11368909512761,-81.5941239519473,-117.407626843965,-35.8135028920181,99.5008753979563,-22.8903105299646,-76.6105648679917
1.11884506316061,-92.220156833557,-127.148178433792,-34.9280216002352,109.684167633675,-28.6460676166609,-81.0381000170137
1.12400103119361,-97.2859618597877,-129.107917654462,-31.8219557946742,113.196939757125,-32.7320030325568,-80.464936724568
1.1291569992266,-96.6182860794196,-126.646529820253,-30.0282437408331,111.632407949836,-33.2950211692932,-78.3373867805429
1.1343129672596,-92.9012639374464,-124.368908158273,-31.467644220827,108.63508604786,-30.7168098583097,-77.9182761895502
1.1394689352926,-87.4115170641752,-120.853296384365,-33.4417793201896,104.13240672427,-26.9848688719928,-77.1475378522772
1.1446249033256,-81.9825129719469,-113.636127116566,-31.6536141446191,97.8093200442565,-25.1644494136639,-72.6448706305926
1.1497808713586,-80.8573705119397,-107.473247975738,-26.6158774637982,94.1653092438388,-27.1207465240708,-67.0445627197681
1.1549368393916,-85.3613682986822,-109.824980880016,-24.4636125813337,97.5931745893491,-30.4488778586743,-67.1442967306748
1.16009280742459,-91.9124614431644,-119.421886084841,-27.5094246416762,105.667173764002,-32.2015184007441,-73.4656553632583
1.16524877545759,-95.7150689137144,-126.294316040846,-30.5792471271317,111.00469247728,-32.5679108932913,-78.4367815839889
1.17040474349059,-93.7657091495557,-122.242301834874,-28.4765926853185,108.004005492215,-32.6445582321186,-75.3594472600963
1.17556071152359,-86.7050419883835,-108.941314083875,-22.2362720954919,97.8231780361295,-32.2343849464458,-65.5887930896837
1.18071667955659,-78.0093446114938,-96.8765582982796,-18.8672136867858,87.4429514548867,-29.571065462354,-57.8718859925327
1.18587264758959,-71.9864752253286,-95.4785072129927,-23.4920319876641,83.7324912191607,-24.2472216188322,-59.4852696003284
1.19102861562258,-72.8966495605252,-105.290893450655,-32.3942438901298,89.0937715055902,-20.2512028351977,-68.8425686703924
1.19618458365558,-82.1954620861391,-120.703062877794,-38.5076007916549,101.449262481967,-21.8439306472421,-79.6053318347244
1.20134055168858,-95.8902620287968,-135.866198662641,-39.9759366338443,115.878230345719,-27.9571626974762,-87.9210676482427
1.20649651972158,-107.437594760548,-146.117815869612,-38.6802211090637,126.77770531508,-34.3786868257423,-92.3990184893379
1.21165248775458,-114.056309026459,-149.201211576694,-35.1449025502353,131.628760301576,-39.4557032381117,-92.1730570634646
1.21680845578757,-118.069088477012,-148.802205937257,-30.7331174602452,133.435647207135,-43.6679855083835,-89.7676616987513
1.22196442382057,-121.926075003193,-151.650985952538,-29.7249109493449,136.788530477865,-46.100582026924,-90.6879484509413
1.22712039185357,-125.929064780885,-159.172405166864,-33.2433403859785,142.550734973874,-46.3428621974533,-96.207872776421
1.23227635988657,-130.774052533407,-167.640546975625,-36.866494442218,149.207299754516,-46.9537790455943,-102.253520708921
1.23743232791957,-137.66346044949,-174.621110311209,-36.9576498617193,156.142285380349,-50.3529052938851,-105.789380086464
1.24258829595257,-146.593927302729,-181.650645250429,-35.0567179477,164.122286276579,-55.7686046775146,-108.353681599065
1.24774426398556,-157.379751861163,-191.332917941148,-33.9531660799853,174.356334901156,-61.7132928905889,-112.643042010567
1.25290023201856,-169.129444694062,-201.040646281471,-31.9112015874089,185.085045487767,-68.6091215533266,-116.47592393444
1.25805620005156,-177.599190459363,-204.913613419876,-27.3144229605134,191.256401939619,-75.1423837494247,-116.114018190195
1.26321216808456,-177.794078800893,-200.946222944824,-23.1521441439318,189.370150872858,-77.3209673284804,-112.049183544378
1.26836813611756,-167.77124074197,-186.106097404017,-18.3348566620466,176.938669072994,-74.7181920399619,-102.220477033032
1.27352410415055,-144.337709205652,-151.965314179722,-7.62760497406975,148.151511692687,-68.3550521157912,-79.7964595768958
1.27868007218355,-99.462206893254,-91.5948297608797,7.86737713237426,95.5285183270669,-53.6647920128141,-41.8637263142527
1.28383604021655,-28.3782714219033,-3.80943148374467,24.5688399381586,16.093851452824,-26.4735556800309,10.379704227207
1.28899200824955,63.7952797633984,106.986025939274,43.1907461758753,-85.3906528513361,10.3022667937615,75.0883860575746
1.29414797628255,169.139738220696,232.886668752307,63.7469305316113,-201.013203486501,52.6964038445421,148.316799641959
1.29930394431555,283.623708718527,366.36581911995,82.7421104014231,-324.994763919238,100.440799158552,224.553964760687
1.30445991234854,402.557744986657,498.24453045854,95.6867854718828,-450.401137722598,153.435479757387,296.965657965211
1.30961588038154,513.927216258044,612.172399083709,98.2451828256653,-563.049807670877,207.841016716189,355.208790954687
1.31477184841454,598.44591188211,685.326183882912,86.8802720008023,-641.886047882511,255.782819940654,386.103227941857
1.31992781644754,636.634406295882,695.75122640856,59.1168201126779,-666.192816352221,288.758793091602,377.434023260619
1.32508378448054,617.336667883778,633.213979197347,15.877311313569,-625.275323540563,300.729678285105,324.545645255458
1.33023975251353,543.449721261848,509.493800604505,-33.9559206573429,-526.471760933176,288.702820959595,237.768939973581
1.33539572054653,432.336416871862,356.650040884483,-75.6863759873794,-394.493228878173,254.011396429621,140.481832448552
1.34055168857953,308.406178328927,209.09051010386,-99.3156682250671,-258.748344216393,203.860923276997,54.8874209393963
1.34570765661253,192.166122570903,86.0755305385477,-106.090592032356,-139.120826554726,149.12835730163,-10.007530746904
1.35086362464553,93.4000293448413,-9.20601038501508,-102.606039729856,-42.0970094799131,98.0030345373488,-55.9060250574357
1.35601959267853,14.709028258384,-78.0262277626616,-92.7352560210455,31.6585997521388,53.7221421397147,-85.3807418918535
1.36117556071152,-40.406883845113,-118.26988250284,-77.8629986577269,79.3383831739764,18.728057406307,-98.0664405802834
1.36633152874452,-67.8601733020961,-128.593934983185,-60.7337616810884,98.2270541426403,-3.56320581050386,-94.6638483321365
1.37148749677752,-68.1603212467972,-114.092757833309,-45.9324365865115,91.126539540053,-11.1139423301428,-80.0125972099101
1.37664346481052,-49.0874075748523,-84.0099383977399,-34.9225308228876,66.5486729862961,-7.08243837598231,-59.4662346103138
1.38179943284352,-23.3069963184478,-47.4695055118068,-24.1625091933589,35.3882509151273,0.42775643745555,-35.8160073525828
1.38695540087651,0.712937341091617,-11.7979537213037,-12.5108910623953,5.54250819010603,6.61191420174346,-12.1544223918495
1.39211136890951,21.898613550148,17.7486715430458,-4.14994200710224,-19.8236425465969,13.0242777786251,6.79936476797177
1.39726733694251,38.4870298517623,36.3195739536675,-2.1674558980948,-37.4033019027149,20.3272428749286,17.0760590277864
1.40242330497551,45.0420988826177,39.3672269997909,-5.67487188282681,-42.2046629412043,25.3584853827223,16.8461775584821
1.40757927300851,38.9917197371388,27.6241270367923,-11.3675927003465,-33.3079233869655,25.1796562187427,8.12826716822289
1.41273524104151,23.6989224652592,8.46813321697897,-15.2307892482802,-16.0835278411191,19.4648558567697,-3.38132801565064
1.4178912090745,4.85333315948964,-11.7439999921611,-16.5973331516507,3.44533341633571,10.7253331555702,-14.1706665719059
1.4230471771075,-12.78914862877,-31.8921954011905,-19.1030467724205,22.3406720149802,3.15694907182522,-25.4976210868055
1.4282031451405,-27.2741225502428,-50.7180527066457,-23.443930156403,38.9960876284443,-1.9150961969199,-37.0809914315244
1.4333591131735,-39.2362976267064,-64.2712200736078,-25.0349224469014,51.7537588501571,-7.10068758990249,-44.6530712602546
1.4385150812065,-48.1876797760495,-71.3039905623991,-23.1163107863495,59.7458351692243,-12.53568449485,-47.2101506743743
1.44367104923949,-52.4635403310119,-74.8630837756268,-22.3995434446149,63.6633120533194,-15.0319984431985,-48.6313136101209
1.44882701727249,-53.6180421317791,-77.0698006221802,-23.4517584904011,65.3439213769797,-15.083141820689,-50.2607795562907
1.45398298530549,-54.9100259748717,-77.304164162096,-22.3941381872243,66.1070950684839,-16.2579438938237,-49.8491511746601
1.45913895333849,-55.5833409314604,-75.1022000979804,-19.51885916652,65.3427705147204,-18.0322408824702,-47.3105296322502
1.46429492137149,-53.6311948715746,-72.1436749423431,-18.5124800707685,62.8874349069589,-17.5593574004031,-45.3280775065558
1.46945088940449,-52.1932357865249,-71.1926164492639,-18.999380662739,61.6929261178944,-16.596927561893,-45.0959985560014
1.47460685743748,-55.4558438809217,-73.4827071139468,-18.026863233025,64.4692754974343,-18.7144903239484,-45.7547851734859
1.47976282547048,-61.734474958219,-77.2956809389653,-15.5612059807463,69.5150779485922,-23.0866344887364,-46.4284434598558
1.48491879350348,-66.4277538249553,-79.3137993903836,-12.8860455654282,72.8707766076695,-26.7708541297635,-46.0999224779059
1.49007476153648,-67.3736929861033,-77.9743083096977,-10.6006153235945,72.6740006479005,-28.3865388312544,-44.2874618166461
1.49523072956948,-64.5272025979813,-74.4191694175138,-9.89196681953243,69.4731860077475,-27.3176178892245,-42.1555681185231
1.50038669760247,-59.2733166338496,-70.4698427722864,-11.1965261384368,64.871579703068,-24.0383952477064,-40.8331844553616
1.50554266563547,-53.7389901275927,-66.7317697448094,-12.9927796172166,60.235379936201,-20.3731052551881,-39.862274681013
1.51069863366847,-47.3879824749566,-61.1254755264085,-13.7374930514518,54.2567290006826,-16.8252447117524,-37.4314842889302
1.51585460170147,-38.7331934743208,-50.7319858341651,-11.9987923598443,44.732589654243,-13.3672005572383,-31.3653890970047
1.52101056973447,-29.6906619045416,-37.7234199644635,-8.03275805992195,33.7070409345025,-10.8289519223098,-22.8780890121927
1.52616653776747,-22.7772783443487,-28.442196348717,-5.6649180043683,25.6097373465329,-8.5561801699902,-17.0535571765427
1.53132250580046,-18.6023167870799,-24.9992907433962,-6.39697395631634,21.800803765238,-6.10267141538176,-15.6981323498563
1.53647847383346,-17.1226717408477,-26.0551668630247,-8.93249512217699,21.5889193019362,-4.09508830933538,-17.4938309926009
1.54163444186646,-17.9198256341713,-31.9126758797423,-13.992850245571,24.9162507569568,-1.96348769430011,-22.9527630626567
1.54679040989946,-21.4146411881561,-40.9785686281908,-19.5639274400347,31.1966049081735,-0.925356874060697,-30.2712480341128
1.55194637793246,-27.9254875963468,-49.1030498407941,-21.1775622444473,38.5142687185704,-3.37396267594974,-35.1403060426207
1.55710234596546,-34.8265066654495,-54.4860407692167,-19.6595341037672,44.6562737173331,-7.58348628084119,-37.0727874364919
1.56225831399845,-38.4534632088848,-56.9550681275124,-18.5016049186275,47.7042656681986,-9.97592914512865,-37.72833652307
1.56741428203145,-37.725606336771,-55.2013106167512,-17.4757042799803,46.4634584767611,-10.1249510283953,-36.3385074483658
1.57257025006445,-33.5616549721277,-49.167047236298,-15.6053922641703,41.3643511042129,-8.97813135397871,-32.3862197502341
1.57772621809745,-26.9977227651897,-42.10407599169,-15.1063532265003,34.5508993784399,-5.94568476934467,-28.6052146090952
1.58288218613045,-20.818803093781,-37.352296384836,-16.533493291055,29.0855497393085,-2.14265490136296,-26.9428948379455
1.58803815416344,-18.7697683156656,-35.3804463537355,-16.6106780380699,27.0751073347005,-1.07954513879787,-25.9955621959027
1.59319412219644,-20.3020876289735,-34.6402673974524,-14.3381797684789,27.4711775132129,-2.9819539302473,-24.4892235829656
1.59835009022944,-21.9553161399562,-33.9511819502592,-11.995865810303,27.9532490451077,-4.97972516482656,-22.9735238802811
1.60350605826244,-23.5896067140178,-34.1358729898645,-10.5462662758467,28.8627398519412,-6.52167021908554,-22.3410696328556
1.60866202629544,-27.6829662200302,-37.8553402960205,-10.1723740759903,32.7691532580253,-8.75529607201992,-24.0138571860054
1.61381799432844,-34.738441663871,-47.1675110676166,-12.4290694037456,40.9529763657438,-11.1546861300627,-29.7982902356811
1.61897396236143,-42.4873192493251,-59.310919359163,-16.8236001098379,50.899119304244,-12.8318595697436,-38.0672597345005
1.62412993039443,-48.5526208415898,-66.9483307477323,-18.3957099061424,57.750475794661,-15.0784554677237,-42.6720203269373
1.62928589842743,-51.8664909836426,-65.8897359961721,-14.0232450125295,58.8781134899074,-18.9216229855566,-39.9564905043508
1.63444186646043,-49.8280450881393,-57.5483283126836,-7.72028322454423,53.6881867004114,-21.0538809317976,-32.6343057686139
1.63959783449343,-38.4708181552835,-42.1658407261167,-3.6950225708332,40.3183294407001,-17.3878977922251,-22.930431648475
1.64475380252642,-19.3520701148595,-19.9050830863999,-0.553012971540397,19.6285766006297,-9.39952857165957,-10.2290480289702
1.64990977055942,-1.99741185118296,0.937754291416923,2.93516614259988,0.529828779883019,-2.46628899689142,1.9364602170084
1.65506573859242,4.13760008309578,8.69377550189347,4.55617541879769,-6.41568779249462,-0.209287667850958,6.62497546034558
1.66022170662542,-0.388467068957311,2.69952315079593,3.08799021975324,-1.15552804091931,-1.73822864435527,2.89375668527458
1.66537767465842,-5.71548152724506,-5.9366299890936,-0.221148461848543,5.82605575816933,-2.74716653269826,-3.07888922547107
1.67053364269142,-4.75893825625928,-8.47729232142308,-3.71835406516379,6.61811528884118,-0.520292095547745,-6.09782319329344
1.67568961072441,0.851101328271966,-5.02591910277181,-5.87702043104377,2.08740888724992,3.36406087965787,-5.45146976690779
1.68084557875741,7.73877136484259,1.7115355746962,-6.02723579014639,-4.7251534697694,6.88300357749449,-2.1578501077251
1.68600154679041,13.997337084879,8.9893741273961,-5.00796295748285,-11.4933556061375,9.5026500211809,1.99070558495663
1.69115751482341,17.0303226819486,12.3397406567403,-4.6905820252083,-14.6850316693445,10.8604523535785,3.82457931576602
1.69631348285641,17.4034299842504,10.9579903246431,-6.44543965960725,-14.1807101544467,11.9244348219288,2.25627533251793
1.7014694508894,20.6180659104634,12.6644306627312,-7.95363524773222,-16.6412482865973,14.2858505790978,2.35539770749949
1.7066254189224,30.0690421615891,24.8924238376171,-5.17661832397198,-27.4807329996031,17.6228302427805,9.85790275682257
1.7117813869554,42.6192378396992,42.854785150676,0.235547310976813,-42.7370114951876,21.1918452643612,21.5451662308264
1.7169373549884,52.9996857240341,55.3007106757223,2.30102495168819,-54.1501981998782,25.3493303861729,28.8008678137052
1.7220933230214,58.7601384870947,58.5513099340327,-0.208828553061949,-58.6557242105637,29.4844835200783,29.1712406904854
1.7272492910544,59.8441758752256,55.8295219898272,-4.01465388539839,-57.8368489325264,31.929414880312,25.9074340522144
1.73240525908739,57.0923435721488,48.9904751371602,-8.10186843498866,-53.0414093546545,32.5971060035687,20.4443033510858
1.73756122712039,52.8089658821739,40.4572281394525,-12.3517377427214,-46.6330970108132,32.5803518124476,14.0527451983655
1.74271719515339,50.2737446801524,36.9030639904764,-13.370680689676,-43.5884043353144,31.8222126849142,11.7661916504002
1.74787316318639,51.3750813723594,42.9708183778357,-8.40426299452372,-47.1729498750976,29.8896721834416,17.283277691656
1.75302913121939,56.1337039954375,55.1596238033073,-0.974080192130145,-55.6466638993724,28.5538920937838,27.0927718055886
1.75818509925238,63.6860617268936,66.4301337600097,2.74407203311603,-65.0580977434516,30.4709948468888,34.5871028965628
1.76334106728538,72.7294396344851,74.2201681067825,1.49072847229741,-73.4748038706338,35.6193555810938,37.8554482895399
1.76849703531838,81.5110255412835,79.7289913781583,-1.78203416312522,-80.6200084597209,41.6465298522044,38.9734786075165
1.77365300335138,87.6895157886697,82.6147578156486,-5.07475797302112,-85.1521368021592,46.3821368808454,38.7699999213137
1.77880897138438,90.3387856944905,82.6900507526364,-7.64873494185417,-86.5144182235634,48.9937603181723,37.5206579053911
1.78396493941738,90.9494942807953,83.146786106633,-7.80270817416232,-87.0481401937141,49.3761012274788,37.6720389662353
1.78912090745037,91.5115994758722,87.4220956343578,-4.08950384151433,-89.466847555115,47.8005516586933,41.6662958964218
1.79427687548337,93.5565705437691,95.3022217880327,1.74565124426363,-94.4293961659009,45.9054596497527,48.5239365161482
1.79943284351637,97.1392842972414,103.280099678847,6.14081538160576,-100.209691988044,45.4992344578178,54.7104575302264
1.80458881154937,100.581008400794,108.124412293073,7.54340389227838,-104.352710346933,46.518802254258,57.8339080926755
1.80974477958237,102.416834415426,109.546244875812,7.12941046038634,-105.981539645619,47.6437119775198,58.3378276680993
1.81490074761536,102.317605642839,108.575120038427,6.2575143955886,-105.446362840633,48.030045623625,57.4163172170079
1.82005671564836,101.250399676629,105.902052691471,4.65165301484168,-103.57622618405,48.2993733308938,55.2768528531563
1.82521268368136,101.801678125495,104.145525429476,2.3438473039806,-102.973601777486,49.7289154107573,53.2446863667282
1.83036865171436,106.691659754137,107.017451260422,0.325791506285213,-106.854555507279,53.1829341239257,53.6716213833535
1.83552461974736,115.543269425463,114.059647841781,-1.48362158368222,-114.801458633622,58.5134455045725,56.2880131290492
1.84068058778036,124.02234434092,119.898991867762,-4.12335247315812,-121.960668104341,64.072848407039,57.8878196973018
1.84583655581335,127.298079007909,118.903178022529,-8.39490098537985,-123.100628515219,67.8464899966442,55.2541385185744
1.85099252384635,123.588372931413,111.425751133877,-12.1626217975357,-117.507062032645,67.8754973644744,49.6315646681708
1.85614849187935,116.403570402674,105.699719103703,-10.7038512989712,-111.051644753188,63.5537108508225,47.4979339023657
1.86130445991235,113.215896089015,109.204956803592,-4.01093928542275,-111.210426446303,58.6134176872186,52.5970087590845
1.86646042794535,117.98936332956,120.663877324626,2.67451399506513,-119.326620327093,57.6574246672476,61.6691956598453
1.87161639597834,127.019244470814,133.128968084263,6.10972361344898,-130.074106277538,60.4547604286824,69.6193458488558
1.87677236401134,132.77972076316,138.90213039954,6.12240963637993,-135.84092558135,63.3286555633902,72.5122700179601
1.88192833204434,130.717008201437,133.287851592504,2.57084339106689,-132.00242989697,64.0730824051851,67.9293474917854
1.88708430007734,123.357188587094,120.42894221357,-2.92824637352425,-121.893065400332,63.1427174803092,58.7503479200228
1.89224026811034,115.90705766769,111.41390346025,-4.49315420743955,-113.66048056397,60.2001059375646,53.4603746264053
1.89739623614334,110.475504676297,110.810576469166,0.335071792868803,-110.643040572731,55.070216441714,55.5728241310172
1.90255220417633,106.692239421699,110.666173046295,3.97393362459559,-108.679206233997,51.3591528985517,57.3200533354451
1.90770817220933,103.030062108285,102.584915467279,-0.445146641005294,-102.807488787782,51.737604374645,51.0698844131371
1.91286414024233,97.6403126646024,88.9473172243446,-8.69299544025785,-93.2938149444735,53.1666540524301,40.1271608920434
1.91802010827533,90.5159214303533,77.6767871662446,-12.8391342641087,-84.0963542982989,51.677527847231,32.418826451068
1.92317607630833,82.8219511274865,71.0052266466238,-11.8167244808627,-76.9135888870551,47.3193378041746,29.5942510828805
1.92833204434133,74.727408561527,65.637068138366,-9.09034042316102,-70.1822383499465,41.908874492344,28.2733638576025
1.93348801237432,66.1828349218531,59.0435051854864,-7.13932973636668,-62.6131700536698,36.6610823291099,25.9520877245599
1.93864398040732,57.3419957025953,49.3605948964237,-7.98140080617168,-53.3512952995095,32.6616982543835,20.689597045126
1.94379994844032,47.989907719347,36.3016330199234,-11.6882746994236,-42.1457703696352,29.8390912093853,12.3066791602499
1.94895591647332,38.8111373943325,23.718796702031,-15.0923406923015,-31.2649670481817,26.951739043317,4.31322800486475
1.95411188450632,31.6819332847409,15.2987701890572,-16.3831630956837,-23.4903517368991,24.0325481902123,-0.542196453313238
1.95926785253931,28.1370874128635,11.0874729855096,-17.0496144273538,-19.6122801991866,22.5933509201087,-2.98107072092211
1.96442382057231,27.689730200525,10.3943792053748,-17.2953509951502,-19.0420547029499,22.4925405978376,-3.45048589488772
1.96957978860531,26.9579117908459,11.7889315855858,-15.16898020526,-19.3734216882158,21.0634459980529,-1.6900243098371
1.97473575663831,21.9860252592772,10.4964913376787,-11.4895339215985,-16.2412582984779,16.7377795904379,-0.496521291959937
1.97989172467131,11.6128881281192,2.50930168432853,-9.10358644379062,-7.06109490622384,10.3582372859549,-3.29714237973104
1.98504769270431,-2.44428268170088,-10.7327911696917,-8.28850848799084,6.5885369256963,2.92211290314498,-9.51064982884128
1.9902036607373,-18.0317578120083,-26.0851546815147,-8.0533968695064,22.0584562467615,-4.98918047125096,-17.0692757755106
1.9953596287703,-33.4762391264811,-43.2305943828619,-9.75435525638079,38.3534167546715,-11.8609419350502,-26.4924748196213
2.0005155968033,-46.3974759290675,-60.3485342566672,-13.9510583275998,53.3730050928673,-16.2232088007339,-37.1497962921335
2.0056715648363,-55.5832931882555,-70.5713528865271,-14.9880596982715,63.0773230373913,-20.297616744992,-42.7797062923993
2.0108275328693,-63.1805172264627,-71.8449753652962,-8.66445813883354,67.5127462958795,-27.2580295438146,-40.2547167520649
2.01598350090229,-70.5947555223153,-71.5080759383916,-0.913320416076317,71.0514157303534,-34.8407175531195,-36.210698177234
2.02113946893529,-74.9213330952495,-72.893508595626,2.02782449962342,73.9074208454377,-38.4745787974364,-35.4328420480013
2.02629543696829,-73.3314014927711,-71.2191823768134,2.11221911595771,72.2752919347922,-37.7218103043644,-34.5534816304278
2.03145140500129,-68.5869756137362,-65.7399123151315,2.84706329860467,67.1634439644338,-35.7170194561704,-31.4464245082634
2.03660737303429,-66.3689810915638,-62.8980185352519,3.47096255631186,64.6334998134079,-34.9199718239378,-29.71352798947
2.04176334106729,-68.4340934301991,-67.1217490007213,1.31234442947789,67.7779212154602,-34.8732189298385,-32.9047022856217
2.04691930910028,-71.96956016089,-75.9744119567889,-4.00485179589896,73.9719860588394,-33.9823541824955,-39.9896318763439
2.05207527713328,-75.5403834933968,-85.1038998176949,-9.56351632429812,80.3221416555459,-32.9884335845493,-47.3337080709965
2.05723124516628,-81.4085040164596,-92.1591216649509,-10.7506176484914,86.7838128407053,-35.3289431839841,-51.4548696567211
2.06238721319928,-89.3519687971427,-94.6153251438483,-5.26335634670562,91.9836469704955,-42.0443062252185,-49.939340745277
2.06754318123228,-93.5845848817838,-91.1513036704858,2.43328121129798,92.3679442761348,-48.0089330465409,-44.3590112295939
2.07269914926527,-90.7739334796066,-85.3475286018999,5.42640487770672,88.0607310407532,-48.1001691786566,-39.9605618620966
2.07785511729827,-85.7430940569559,-82.5647498127221,3.17834424423381,84.153921934839,-44.4607191505949,-39.6932027842441
2.08301108533127,-84.7733846610327,-85.2622355356232,-0.488850874590526,85.0178100983279,-42.1422668932211,-42.8755432051069
2.08816705336427,-88.6695460049253,-91.8121051833262,-3.14255917840092,90.2408255941257,-42.7634934132622,-47.4773321808636
2.09332302139727,-93.8782602802774,-97.6181297737432,-3.73986949346576,95.7481950270103,-45.0691953934058,-50.6789996336045
2.09847898943027,-95.3030398005046,-97.8837641278051,-2.58072432730049,96.5934019641548,-46.361157736602,-50.2322442275528
2.10363495746326,-89.4961108338351,-88.9842462266644,0.511864607170736,89.2401785302498,-45.0039877205029,-44.2361908097468
2.10879092549626,-77.3827172376239,-71.1719857530413,6.21073148458257,74.2773514953326,-41.7967243611032,-32.4806271342294
2.11394689352926,-62.6835170575882,-51.7783455221459,10.9051715354423,57.230931289867,-36.7943442965152,-20.4365869933518
2.11910286156226,-50.2284072625133,-39.4154187983922,10.8129884641211,44.8219130304528,-30.5206978633172,-14.3012151671356
2.12425882959526,-44.9437122824359,-37.0396441828131,7.90406809962285,40.9916782326245,-26.4238901910294,-14.5677880415951
2.12941479762825,-47.9572152906914,-43.7373991551444,4.21981613554702,45.8473072229179,-26.0885157131192,-19.7587915097987
2.13457076566125,-54.9742674889626,-55.2218658128894,-0.247598323926802,55.098066650926,-27.3633345825179,-27.7347320684081
2.13972673369425,-60.4471805821642,-64.3581081699678,-3.91092758780357,62.402644376066,-28.2681264971803,-34.1345178788857
2.14488270172725,-62.9174004213796,-67.6260280638633,-4.70862764248368,65.2717142426214,-29.104386389448,-36.1673278531735
2.15003866976025,-64.7398110539973,-67.6231734804522,-2.88336242645492,66.1814922672248,-30.9282243137712,-35.2532679534536
2.15519463779325,-66.4728947964101,-68.4769954283257,-2.00410063191559,67.4749451123679,-32.2343970822473,-35.2405480301207
2.16035060582624,-66.0704040686874,-69.0986130156307,-3.02820894694332,67.5845085421591,-31.5210975608721,-36.063410981287
2.16550657385924,-62.3535784442223,-63.4119901192407,-1.05841167501846,62.8827842817315,-30.6475833846019,-32.2352008971296
2.17066254189224,-55.6425430052118,-51.2044454186631,4.43809758654866,53.4234942119374,-30.0403202958802,-23.3831739160572
2.17581850992524,-48.7452877059351,-41.7416745531727,7.00361315276234,45.2434811295539,-27.8744504293487,-17.3690307002052
2.18097447795824,-46.3170707968941,-41.5919814650546,4.72508933183948,43.9545261309743,-25.5210800643668,-18.4334460666076
2.18613044599123,-49.0230455619583,-46.5895494549301,2.43349610702823,47.8062975084442,-25.7282708344933,-22.0780266739509
2.19128641402423,-51.3218053458324,-49.5956318460715,1.7261734997609,50.458718595952,-26.5239894227967,-23.9347291731553
2.19644238205723,-48.1406415909378,-48.4954808269041,-0.35483923596631,48.3180612089209,-23.8929011774857,-24.4251600314352
2.20159835009023,-41.0248480789528,-43.8468226101995,-2.82197453124672,42.4358353445761,-19.101436773853,-23.3343985707231
2.20675431812323,-34.7561067426471,-36.4270698835689,-1.67096314092186,35.591588313108,-16.5425718008626,-19.0490165122454
2.21191028615623,-32.1201274260603,-29.6677476437574,2.4523797823029,30.8939375349089,-17.2862536041816,-13.6076839307273
2.21706625418922,-33.9843487809158,-28.1517262978002,5.83262248311564,31.068037539358,-19.9084856320157,-11.1595519073423
2.22222222222222,-37.5042203604016,-31.3882919583322,6.11592840206941,34.4462561593669,-21.8100743812355,-12.6361817781314
2.22737819025522,-36.1427440308457,-32.7126076034234,3.43013642742235,34.4276758171345,-19.786440229134,-14.6412355880005
2.23253415828822,-28.7160260476379,-26.1559651376622,2.56006090997568,27.4359955926501,-15.6380434788068,-11.7979521138433
2.23769012632122,-21.4230102756496,-14.5640550668417,6.85895520880794,17.9935326712456,-14.1409827422288,-3.85254992901686
2.24284609435422,-17.6082650742032,-7.18622254148232,10.4220425327208,12.3972438078427,-14.015153803462,1.61790999561926
2.24800206238721,-14.8976740808275,-6.48356819428733,8.41410588654014,10.6906211375574,-11.6558899836838,0.965268846126406
2.25315803042021,-11.9079732270141,-6.13146929867128,5.77650392834283,9.01972126284269,-8.84223857767847,-0.177482685164222
2.25831399845321,-10.0239770599217,-4.04585758074586,5.9781194791758,7.03491732033376,-8.00104826954873,0.966130949214971
2.26346996648621,-9.67774789416808,-4.67143539310661,5.00631250106147,7.17459164363734,-7.34203019761478,0.167438553977433
2.26862593451921,-10.0755543955948,-9.30746850727621,0.768085888318637,9.69151145143553,-5.42182014195674,-4.26969130947879
2.2737819025522,-11.2814643263259,-15.0158168261281,-3.73435249980224,13.148640576227,-3.77355591326182,-9.37508466296518
2.2789378705852,-12.9819657020203,-18.211468909298,-5.22950320727773,15.5967173056591,-3.87623124737127,-11.7204860582879
2.2840938386182,-13.2507505109988,-15.4930388730432,-2.24228836204435,14.371894692021,-5.50423107447725,-8.86766361754377
2.2892498066512,-10.9043466964832,-8.9780815236,1.92626517288318,9.94121411004159,-6.41530593468318,-3.52590817535841
2.2944057746842,-8.35186535140798,-7.03482013417505,1.31704521723293,7.69334274279151,-4.83445528432046,-2.85888745847106
2.2995617427172,-9.23215889549959,-12.1679738175181,-2.93581492201855,10.7000663565089,-3.14817198674052,-7.55189436976835
2.30471771075019,-12.133801586984,-16.9466321555027,-4.81283056851873,14.5402168712433,-3.66048550923261,-10.8797313620107
2.30987367878319,-11.6056317062144,-15.6909259395293,-4.08529423331487,13.6482788228718,-3.76016873644977,-9.88811008642207
2.31502964681619,-6.34750978206864,-9.48784321298211,-3.14033343091347,7.91767649752538,-1.60358817557758,-6.31408832194779
2.32018561484919,-0.716952260473363,-0.0271326936102128,0.68981956686315,0.372042477041788,-0.703385913668257,0.331343436626469
2.32534158288219,3.09342343031585,11.7582448686323,8.66482143831649,-7.4258341494741,-2.78569900400032,10.2115331534744
2.33049755091518,8.39393007045237,23.6492955848695,15.2553655144172,-16.021612827661,-3.4307177219824,19.4523305496434
2.33565351894818,16.5422673467837,33.0449541564806,16.5026868096969,-24.7936107516321,0.0197902685433746,24.7738204830887
2.34080948698118,23.4331058456111,37.0611658565397,13.6280600109287,-30.2471358510754,4.9025229173412,25.3446129337342
2.34596545501418,26.2745281373153,34.5243658781422,8.24983774082699,-30.3994470077288,9.01234519824413,21.3871018094846
2.35112142304718,25.6372722636389,27.627830218512,1.99055795487317,-26.6325512410754,11.8233571543828,14.8091940866926
2.35627739108018,21.2376001018898,18.6902708476722,-2.54732925421763,-19.963935474781,11.8924646780537,8.07147079672728
2.36143335911317,14.4294340866721,10.4299793709346,-3.9994547157375,-12.4297067288034,9.21444440120482,3.21526232759857
2.36658932714617,11.3105367622704,7.38808511597858,-3.92245164629179,-9.34931093912448,7.61649420428108,1.7328167348434
2.37174529517917,15.2869837591664,11.2406754028132,-4.04630835635322,-13.2638295809898,9.66664605775981,3.59718352322997
2.37690126321217,21.3497989313907,18.1494976135649,-3.20030131782579,-19.7496482724778,12.2750501246082,7.47459814786956
2.38205723124517,23.0598721385359,22.7622459021154,-0.29762623642057,-22.9110590203256,11.6787491874782,11.2323098328474
2.38721319927816,20.2172853828699,22.8564469874731,2.63916160460323,-21.5368661851715,8.78906188913334,12.7478042960382
2.39236916731116,16.9357870680792,20.7607161846328,3.82492911655353,-18.848251626356,6.55542897576285,12.2928226505932
2.39752513534416,16.9296407636109,21.3950846722186,4.46544390860763,-19.1623627179147,6.23209842750165,12.9302642904131
2.40268110337716,21.228053879288,26.5937635041067,5.36570962481872,-23.9109086916973,7.93117212723462,15.9797365644627
2.40783707141016,25.7030425844156,29.7771996728145,4.07415708839892,-27.7401211286151,10.8144427480083,16.9256783806067
2.41299303944316,22.8123001971935,20.2210179652945,-2.59128223189902,-21.516659081244,12.7017912145463,8.81486786669775
2.41814900747615,9.34395490747212,-3.89350576515912,-13.2374606726312,-2.7252245711565,11.2907077900517,-8.56548321889518
2.42330497550915,-10.7062271971913,-30.9488249475574,-20.2425977503661,20.8275260723744,4.76818527658743,-25.5957113489618
2.42846094354215,-30.8497579861402,-48.7758899962985,-17.9261320101583,39.8128239912194,-6.46181298799092,-33.3510110032284
2.43361691157515,-46.4546931519299,-56.7428151028783,-10.2881219509484,51.5987541274041,-18.0832856004908,-33.5154685269133
2.43877287960815,-56.2661649267956,-61.3163170488664,-5.05015212207081,58.791240987831,-25.6080064023624,-33.1832345854686
2.44392884764114,-62.917773659103,-67.2863027041976,-4.36852904509453,65.1020381816503,-29.2746223070043,-35.8274158746461
2.44908481567414,-71.5615883616985,-76.9885714901268,-5.42698312842833,74.2750799259126,-33.0673026166351,-41.2077773092776
2.45424078370714,-85.1287744909931,-91.3641656862192,-6.2353911952261,88.2464700886062,-39.4466916478835,-48.7997784407227
2.45939675174014,-99.878202444592,-107.742675934907,-7.86447349031471,103.810439189749,-46.0068644771386,-57.8035747126107
2.46455271977314,-108.086882576751,-117.435296829535,-9.34841425278421,112.761089703143,-49.3692341619834,-63.3918555411597
2.46970868780614,-106.36349142275,-112.138683462699,-5.77519203994927,109.251087442725,-50.2941496914003,-58.9569377513243
2.47486465583913,-98.2832348391778,-96.3556612023856,1.9275736367922,97.3194480207817,-50.105404237985,-47.2140437827967
2.48002062387213,-89.7665334787195,-82.9540472615255,6.81248621719402,86.3602903701225,-48.2895098479568,-38.0707805221657
2.48517659190513,-85.4090815980283,-78.5272790875227,6.88180251050551,81.9681803427755,-46.1454420542669,-35.8227382885086
2.49033255993813,-86.7391977037173,-83.5267995860913,3.21239811762598,85.1329986449043,-44.9757979106716,-40.1572007342327
2.49548852797113,-92.2995429816747,-95.8912761576855,-3.59173317601085,94.0954095696801,-44.3539049028319,-49.7415046668482
2.50064449600412,-99.3857303011464,-109.387642013614,-10.0019117124672,104.38668615738,-44.6919092943396,-59.6947768630404
2.50580046403712,-104.934450551937,-117.652543858012,-12.7180933060753,111.293497204974,-46.1081786229307,-65.1853185820436
2.51095643207012,-107.107498348593,-118.816900688894,-11.7094023403014,112.962199518743,-47.6990480041456,-65.2631515145977
2.51611240010312,-106.813134623518,-114.94722174051,-8.13408711699174,110.880178182014,-49.3395237532631,-61.5406544287507
2.52126836813612,-106.218115689435,-109.830246893431,-3.61213120399611,108.024181291433,-51.3029922427193,-56.7211890487135
2.52642433616912,-106.036347557157,-106.248208522824,-0.211860965666915,106.14227803999,-52.9122432957449,-53.2300347442452
2.53158030420211,-105.62845839454,-105.305353048735,0.323105345804947,105.466905721637,-52.9757818701722,-52.4911238514648
2.53673627223511,-105.328596078447,-106.694046465833,-1.36545038738677,106.01132127214,-51.98157284553,-54.0297484266101
2.54189224026811,-106.562324128435,-108.671698489116,-2.10937436068116,107.617011308775,-52.2264748838767,-55.3905364248984
2.54704820830111,-109.416169737342,-110.09704402578,-0.680874288438872,109.756606881561,-54.3676477244513,-55.3889591571096
2.55220417633411,-111.635742597766,-111.361563899338,0.274178698428386,111.498653248552,-55.9549606480974,-55.5436926004548
2.55736014436711,-111.830612048653,-113.244008369523,-1.41339632087056,112.537310209088,-55.2086078638911,-57.3287023451969
2.5625161124001,-112.215968962586,-116.747662301829,-4.53169333924257,114.481815632207,-53.8421378116718,-60.6396778205357
2.5676720804331,-116.172889531279,-122.457262055382,-6.28437252410299,119.31507579333,-54.9442585035878,-64.3708172897423
2.5728280484661,-125.096286770963,-130.341527258681,-5.24524048771764,127.718907014822,-59.9255231416226,-67.7933838731991
2.5779840164991,-137.155230962681,-140.482835175465,-3.32760421278363,138.819033069073,-66.9138133749489,-71.9052196941243
2.5831399845321,-148.584344992339,-152.277935621123,-3.69359062878402,150.431140306731,-72.4453771817774,-77.9857631249535
2.58829595256509,-158.423538390536,-165.654859246714,-7.2313208561784,162.039198818625,-75.5961087671786,-86.4430900514462
2.59345192059809,-168.980603572114,-180.753244891505,-11.7726413193902,174.86692423181,-78.6039811263621,-96.2629431054474
2.59860788863109,-180.130943684588,-193.518749168649,-13.3878054840611,186.824846426618,-83.3715691002634,-103.453277326355
2.60376385666409,-186.794821469597,-197.58395932212,-10.7891378525226,192.189390395858,-88.0028418085373,-104.186548587321
2.60891982469709,-181.543164587914,-187.936743064539,-6.39357847662473,184.739953826226,-87.5747930556446,-97.1651607705817
2.61407579273009,-159.124700148362,-159.049058409372,0.0756417389893613,159.086879278867,-79.6001709436756,-79.4867083351916
2.61923176076308,-119.049366614287,-106.191028644891,12.858337969396,112.620197629589,-65.9538522918415,-46.6663453377475
2.62438772879608,-62.562440551955,-28.6366857735379,33.9257547784171,45.5995631627464,-48.244097665186,2.64453450243957
2.62954369682908,11.6818215549013,73.2263537654385,61.5445322105372,-42.4540876601699,-24.931355327818,67.3854429879879
2.63469966486208,107.183718962023,199.655977186889,92.4722582248653,-153.419848074456,7.35573036857897,146.064117705877
2.63985563289508,223.633463782937,344.465300696337,120.8318369134,-284.049382239637,51.4008134347686,232.648568804869
2.64501160092807,350.791284458998,489.662098249183,138.870813790184,-420.22669135409,105.960235334407,314.266456019684
2.65016756896107,470.735440661364,612.590172205467,141.854731544102,-541.662806433416,164.440354558631,377.222451874784
2.65532353699407,565.857270084447,694.997127718234,129.139857633787,-630.42719890134,218.35870622533,412.06849267601
2.66047950502707,621.243823100902,721.158563351806,99.9147402509038,-671.201193226354,260.664541424999,410.536651801355
2.66563547306007,624.462851587523,677.662242410631,53.1993908231078,-651.062546999077,285.631730382207,365.430816616869
2.67079144109307,572.180337870796,567.335093359173,-4.84524451162224,-569.757715614984,288.512791191209,281.244924423776
2.67594740912606,476.110697318012,418.076011462173,-58.0346858558391,-447.093354390093,267.072691586926,180.020662803167
2.68110337715906,357.738006355108,267.89993261246,-89.8380737426479,-312.818969483784,223.788040048878,89.030929434906
2.68625934519206,237.098227886734,140.033429019857,-97.0647988668765,-188.565828453296,167.081513376805,21.4843150764904
2.69141531322506,127.916485723463,36.5815911562181,-91.3348945672452,-82.2490384398407,109.625690145354,-27.3766517055135
2.69657128125806,39.8370490485185,-44.9948275942939,-84.8318766428124,2.5788892728877,62.3344628456655,-64.9133521185532
2.70172724929105,-21.151590175313,-98.9082979973227,-77.7567078220096,60.0299440863179,28.3025588233483,-88.3325029096662
2.70688321732405,-54.4563841951924,-117.360648101927,-62.9042639067348,85.9085161485598,4.22393985577122,-90.132456004331
2.71203918535705,-63.7970309514382,-102.614186544665,-38.8171555932264,83.2056087480514,-12.4899376791059,-70.7156710689455
2.71719515339005,-53.0519111791878,-66.4588823813215,-13.4069712021338,59.7553967802546,-19.822469988527,-39.9329267917276
2.72235112142305,-24.6356620313388,-19.9385587551369,4.69710327620194,22.2871103932378,-14.6663826537704,-7.62072773946747
2.72750708945605,14.9379774950987,28.4623871837994,13.5244096887007,-21.7001823394491,0.706783903198996,20.9933984362501
2.73266305748904,51.920974700708,66.2774058521361,14.3564311514281,-59.0991902764221,18.78227177464,40.3169185017821
2.73781902552204,72.281501416645,81.5844435655572,9.30294214891214,-76.9329724911011,31.4892796338664,45.4436928572347
2.74297499355504,70.9462173984967,75.3128249948563,4.36660759635967,-73.1295211966765,33.2898049010685,39.839716295608
2.74813096158804,54.4268662999476,57.3588276270164,2.93196132706883,-55.892846963482,25.7474524864394,30.1453944770426
2.75328692962104,32.4123728062902,32.8967679349905,0.48439512870037,-32.6545703706404,15.9639888387949,16.6905815318455
2.75844289765403,8.62742040367822,3.98998056396375,-4.63743983971447,-6.30870048382098,6.63243012169634,-0.32372963787536
2.76359886568703,-15.4818349570347,-22.3252178319689,-6.84338287493411,18.9035263945018,-4.31922604105032,-14.5843003534515
2.76875483372003,-35.1064375530899,-39.5832301146438,-4.47679256155394,37.3448338338668,-15.314822495768,-22.0300113380989
2.77391080175303,-46.3402680004051,-49.1435331459332,-2.80326514552804,47.7419005731691,-21.7685014274385,-25.9733991457306
2.77906676978603,-50.5912544532658,-55.1951252726883,-4.60387081942246,52.893189862977,-22.9936918169217,-29.8994980460554
2.78422273781903,-51.4363779473311,-57.8933659316645,-6.45698798433341,54.6648719394978,-22.4896949814989,-32.175176957999
2.78937870585202,-50.5068590899672,-54.907249485015,-4.40039039504778,52.7070542874911,-23.0532343474597,-29.6538199400314
2.79453467388502,-47.3201284989072,-46.6235000871965,0.696628411710741,46.9718142930519,-24.008378455309,-22.9634358377429
2.79969064191802,-40.6969868072255,-35.5743064126711,5.12268039455439,38.1356466099483,-22.90983360089,-15.2258130090584
2.80484660995102,-30.8105369977575,-23.1952629250237,7.61527407273373,27.0028999613906,-19.2129055352456,-7.789994426145
2.81000257798402,-21.1510922889651,-12.2015529572687,8.9495393316964,16.6763226231169,-15.0503158103308,-1.62600681278615
2.81515854601701,-17.0667791222307,-9.13556789036011,7.93121123187056,13.1011735062954,-12.4989951770506,-0.602178329244772
2.82031451405001,-22.0845200748074,-18.7890434549073,3.29547661990011,20.4367817648574,-12.6899983473538,-7.74678341750361
2.82547048208301,-35.1568441114255,-37.4540888722544,-2.29724476082886,36.3054664918399,-16.4297996752983,-19.8756668165416
2.83062645011601,-50.1328707103588,-56.2353845765067,-6.10251386614793,53.1841276434328,-22.0151784221054,-31.1689492213273
2.83578241814901,-60.1290529548749,-68.1231847233664,-7.99413176849151,64.1261188391207,-26.0674605931917,-38.058658245929
2.84093838618201,-63.0258060007004,-70.9125679299471,-7.88676192924663,66.9691869653238,-27.5695220357269,-39.3996649295969
2.846094354215,-61.4289539162197,-68.2582969098072,-6.82934299358746,64.8436254130135,-27.2998054613161,-37.5438199516973
2.851250322248,-58.2537253264352,-64.765669778945,-6.51194445250977,61.5096975526901,-25.8708904369627,-35.6388071157274
2.856406290281,-52.4967403349517,-57.8500653215214,-5.35332498656973,55.1734028282365,-23.571707674191,-31.6016951540456
2.861562258314,-41.6740048086918,-42.1633158290844,-0.489311020392506,41.9186603188881,-20.5923468941497,-21.3263134247384
2.866718226347,-29.9357704620793,-24.2164103402578,5.71936012182152,27.0760904011686,-17.8275652919504,-9.24852510921815
2.87187419437999,-27.3158970070832,-20.3862591576398,6.92963784944334,23.8510780823615,-17.1227674282632,-6.72831065409824
2.87703016241299,-37.455174649954,-34.9357664351672,2.51940821478672,36.1954705425606,-19.9872914323703,-16.2081791101903
2.88218613044599,-52.185103673305,-54.4890843585013,-2.30398068519634,53.3370940159031,-24.9405614940543,-28.3965325218488
2.88734209847899,-61.3380789733777,-66.3487697995919,-5.01069082621422,63.8434243864848,-28.1636940735818,-35.6797303129031
2.89249806651199,-62.9392808673055,-68.1166487193206,-5.1773678520151,65.527964793313,-28.8809565076452,-36.6470082856678
2.89765403454499,-61.1150877414632,-63.1361443301284,-2.0210565886652,62.1256160357958,-29.547015576399,-32.5786004593968
2.90281000257798,-57.4884359304426,-55.0816058432948,2.40683008714774,56.2850208868687,-29.9476330087952,-26.3373878780735
2.90796597061098,-48.8281062988691,-43.1344394847977,5.69366681407143,45.9812728918334,-27.2608865564703,-18.7203863353631
2.91312193864398,-34.031559704567,-24.8290268369881,9.2025328675789,29.4302932707775,-21.6170462860729,-7.81324698470459
2.91827790667698,-18.6235095645275,-6.38315908836381,12.2403504761637,12.5033343264457,-15.4319300203456,2.92859569389995
2.92343387470998,-8.6870776941293,0.720346748985037,9.40742444311434,3.98336547257213,-9.04725106862182,5.06388559604969
2.92858984274298,-4.8189892762278,-4.76143192437667,0.0575573518511305,4.79021060030223,-2.43827331403946,-2.35193728626277
2.93374581077597,-4.55404962684105,-13.5170430717259,-8.96299344488483,9.03554634928346,2.20447190902189,-11.2400182583054
2.93890177880897,-6.28084053789559,-17.6456917080111,-11.3648511701155,11.9632661229533,2.54200531610996,-14.5052714390633
2.94405774684197,-9.38363363943557,-15.5554316166249,-6.17179797718933,12.4695326280302,-1.60591783112312,-10.8636147969071
2.94921371487497,-12.9483380820533,-10.4215769175623,2.52676116449095,11.6849574998078,-7.73754962327212,-3.94740787653569
2.95436968290797,-14.4313613497441,-5.46238579362887,8.9689755561152,9.94687357168647,-11.7001684529296,1.75329488124316
2.95952565094096,-10.8842935788082,-1.353762657576,9.53053092123218,6.11902811819209,-10.2074122500202,4.08838413182809
2.96468161897396,-4.16675731920282,-0.208742902406584,3.95801441679623,2.1877501108047,-4.06238586799952,1.87463575719482
2.96983758700696,-0.72280863804383,-4.66138312848216,-3.93857449043833,2.69209588326299,1.60788292619725,-4.29997880946024
2.97499355503996,-2.80901876328323,-11.6380890995508,-8.82907033626759,7.22355393141703,3.01002578649218,-10.2335797179092
2.98014952307296,-5.88319394898315,-14.5535040256275,-8.67031007664434,10.2183489873053,1.3935580638306,-11.6119070511359
2.98530549110596,-5.6552637645126,-10.8687607076015,-5.2134969430889,8.26201223605705,-0.220883410711849,-8.0411288253452
2.99046145913895,-2.03995166348204,-3.20387786745368,-1.16392620397164,2.62191476546786,-0.438012729755201,-2.18390203571266
2.99561742717195,3.05613301057303,5.5093898031954,2.45325679262237,-4.28276140688422,0.301438108975333,3.98132329790889
3.00077339520495,8.32347630633728,12.8898439955365,4.56636768919918,-10.6066601509369,1.87855430856905,8.72810584236782
3.00592936323795,13.5362162082197,16.4365319729828,2.90031576476315,-14.9863740906013,5.31795022172827,9.66842386887299
3.01108533127095,18.4664631460973,18.1440617078291,-0.32240143826823,-18.3052624269632,9.39443229218278,8.91083013478044
3.01624129930394,22.0482945747486,22.1689831514346,0.120688576686064,-22.1086388630916,10.9638029990313,11.1448358640604
3.02139726733694,24.2809261797139,28.3441391932284,4.06321301351448,-26.3125326864711,10.1088565830997,16.2036761033714
3.02655323536994,28.8664956710504,36.9422614389673,8.07576576791689,-32.9043785550089,10.3953649515668,22.5090136034421
3.03170920340294,39.1390085617963,50.2765265246352,11.1375179628389,-44.7077675432158,14.0007452994787,30.7070222437371
3.03686517143594,51.6454635836068,64.6918955418559,13.0464319582491,-58.1686795627313,19.2995158126788,38.8691637500525
3.04202113946894,60.004310137187,72.5146855317312,12.5103753945442,-66.2594978344591,23.7469673713214,42.5125304631377
3.04717710750193,61.8637419054836,71.2702274883828,9.40648558289922,-66.5669846969332,26.2286281612922,40.338356535641
3.05233307553493,58.7050593346107,64.621170290636,5.91611095602531,-61.6631148126234,26.3944741892927,35.2686406233307
3.05748904356793,54.2737257553713,57.9069293902116,3.63320363484024,-56.0903275727915,25.3202610602656,30.7700665125259
3.06264501160093,51.4286793380071,53.5545117434506,2.12583240544353,-52.4915955407289,24.6514234662818,27.8401720744471
3.06780097963393,48.663219599715,50.1689887601012,1.50576916038625,-49.4161041799081,23.5787252196644,25.8373789602437
3.07295694766692,44.9677356459122,48.2843998483933,3.31666420248112,-46.6260677471527,20.8255357217155,25.8005320254372
3.07811291569992,44.6120352712669,52.1981550105415,7.58611973927455,-48.4050951409042,18.5129577659962,29.892137374908
3.08326888373292,51.713269467497,63.4467024047995,11.7334329373026,-57.5799859361482,19.9899182650972,37.590067671051
3.08842485176592,64.0647654534704,78.5745954962334,14.509830042763,-71.3196804748519,24.7774677053537,46.5422127694982
3.09358081979892,76.5706527844245,93.220403453717,16.6497506692925,-84.8955281190708,29.960451057566,54.9350770615048
3.09873678783192,87.8413223091586,103.759196342955,15.9178740337962,-95.8002593260567,35.9617241376812,59.8385351883755
3.10389275586491,97.8651511656278,108.214108300586,10.3489571349582,-103.039629733107,43.7580970153348,59.2815327177721
3.10904872389791,103.084457310143,106.808122128697,3.72366481855397,-104.94628971942,49.6803962457944,55.2658934736253
3.11420469193091,100.83049364007,99.3293949549904,-1.50109868507991,-100.07994429753,51.1657961625751,48.9141481349552
3.11936065996391,94.059810350204,87.0597717719134,-7.00003857829059,-90.5597910610587,50.5299244642473,40.0298665968114
3.12451662799691,87.994351745127,77.4442853252159,-10.5500664199111,-82.7193185351714,49.272209082519,33.4471094526524
3.1296725960299,86.7354886622514,79.8588895144285,-6.87659914782292,-83.29718908834,46.8060439050372,36.4911451833028
3.1348285640629,91.7518618777217,95.7047679626937,3.95290608497199,-93.7283149202077,43.8994778963749,49.8288370238328
3.1399845320959,100.103834519635,114.468427863343,14.3645933437077,-107.286131191489,42.8696205879636,64.4165106035252
3.1451405001289,107.236299222926,122.764457944042,15.528158721116,-115.000378583484,45.8540702509048,69.1463083325788
3.1502964681619,110.756117683265,118.387923770524,7.63180608725912,-114.572020726894,51.5621557980027,63.0098649288914
3.1554524361949,110.022739672942,110.940727862967,0.917988190025113,-110.481733767954,54.5523757414584,55.9293580264961
3.16060840422789,107.905143316658,110.359583570186,2.45444025352788,-109.132363443422,52.7253515315651,56.4070119118569
3.16576437226089,111.386552894507,119.489108524718,8.10255563021127,-115.437830709612,51.6419986321477,63.7958320774646
3.17092034029389,123.640435095671,134.242380086068,10.6019449903966,-128.94140759087,56.5192450526373,72.4221625382323
3.17607630832689,139.751349081184,148.374087813979,8.62273873279531,-144.062718447582,65.5643051741943,78.4984132733873
3.18123227635989,152.834947525219,157.432654076626,4.59770655140676,-155.133800800923,74.1186204869063,81.0151803140164
3.18638824439289,158.722383050632,158.142117582289,-0.580265468343214,-158.43225031646,79.6513242594875,78.7809260569726
3.19154421242588,156.432150868345,150.827136250358,-5.60501461798685,-153.629643559351,81.0185827431657,72.6110608161854
3.19670018045888,148.851253634179,142.132003583531,-6.71925005064861,-145.491628608855,77.785251842414,67.7063767664411
3.20185614849188,141.394383175878,139.207495813297,-2.18688736258105,-140.300939494587,71.7906352692294,68.5103042253579
3.20701211652488,138.438901707542,143.543341541436,5.1044398338945,-140.991121624489,66.6672309368237,74.3238906876654
3.21216808455788,140.207692219267,151.412129347768,11.2044371285014,-145.809910783518,64.5016275453828,81.3082832381348
3.21732405259087,143.501848014952,157.899525840268,14.3976778253168,-150.70068692761,64.5520850948174,86.1486018327926
3.22248002062387,146.309125768861,160.334002420296,14.0248766514358,-153.321564094579,66.1421245587125,87.1794395358661
3.22763598865687,148.985357109614,159.121214329297,10.1358572196823,-154.053285719456,69.424749944966,84.6285357744895
3.23279195668987,151.527835040688,157.510546690355,5.98271164966695,-154.519190865522,72.7725616955106,81.746629170011
3.23794792472287,153.222231245288,158.076348372438,4.8541171271504,-155.649289808863,74.1840570590688,81.4652327497944
3.24310389275587,154.214392770273,158.602317062127,4.38792429185355,-156.4083549162,74.9132342392098,81.4951206769902
3.24825986078886,155.179297127363,156.055955069972,0.876657942609882,-155.617626098668,77.1513195923764,78.4663065062912
3.25341582882186,155.184531347673,151.189373459856,-3.99515788781628,-153.186952403765,79.5898446177445,73.59710778602
3.25857179685486,150.529987088848,143.557598361347,-6.9723887275004,-147.043792725097,78.751187908174,68.2926048169234
3.26372776488786,136.891494197228,127.297735146054,-9.59375905117372,-132.094614671641,73.2426266242007,58.8519880474402
3.26888373292086,114.163207280214,99.8792582568763,-14.2839490233375,-107.021232768545,64.2235781517757,42.7976546167694
3.27403970095385,88.1741892685413,70.4158942005813,-17.75829506796,-79.2950417345613,52.9662421682507,26.3287995663106
3.27919566898685,65.1767814158625,48.1962018370557,-16.9805795788068,-56.6864916264591,41.0786804973346,15.6078111291245
3.28435163701985,45.1703355622569,29.4066439048374,-15.7636916574195,-37.2884897335472,30.4670136098382,6.82147612370898
3.28950760505285,24.249894241583,6.33640092966971,-17.9134933119133,-15.2931475856263,21.0816937767481,-5.78854619112178
3.29466357308585,3.69051041591638,-17.1992619936541,-20.8897724095705,6.75437578886886,12.2901414127434,-19.0445172016123
3.29981954111885,-8.76947939317142,-27.1539638805991,-18.3844844874277,17.9617216368853,4.80750254712814,-22.7692241840134
3.30497550915184,-8.15572614514826,-16.4545155925434,-8.29878944739517,12.3051208688458,0.0715316511234505,-12.3766525199693
3.31013147718484,1.03180027116377,2.84313533406771,1.81133506290394,-1.93746780261574,-0.389767395870081,2.32723519848582
3.31528744521784,8.79995155202346,12.5458209780195,3.74586942599603,-10.6728862650215,2.52704106301371,8.14584520200776
3.32044341325084,8.55778434038371,8.54236084416607,-0.0154234962176361,-8.55007259227489,4.28660391830067,4.26346867397422
3.32559938128384,1.28406566192371,-1.36926791793121,-2.65333357985492,0.0426011280037528,1.96869962088931,-2.01130074889306
3.33075534931683,-7.90405673943337,-11.5298950951058,-3.62583835567239,9.71697591726956,-2.13910919188049,-7.57786672538907
3.33591131734983,-16.6131508997751,-20.977651319618,-4.3645004198429,18.7954011096965,-6.12432523996608,-12.6710758697304
3.34106728538283,-26.3849440685344,-29.3205386687437,-2.93559460020924,27.852741368639,-11.7246747341626,-16.1280666344765
3.34622325341583,-36.8568455117927,-37.6004349661628,-0.743589454370067,37.2286402389777,-18.0566280287113,-19.1720122102664
3.35137922144883,-44.2182754099686,-47.0501627763467,-2.83188736637817,45.6342190931576,-20.6931940217952,-24.9410250713624
3.35653518948183,-47.1937226997356,-54.2549014846024,-7.0611787848668,50.724312092169,-20.0662719574344,-30.6580401347346
3.36169115751482,-49.4233142695218,-56.7140219716282,-7.29070770210637,53.068668120575,-21.0663032837077,-32.0023648368673
3.36684712554782,-53.7974390447976,-59.3041199282354,-5.50668088343787,56.5507794865165,-24.1453790806798,-32.4054004058366
3.37200309358082,-58.7490369664229,-65.799738806385,-7.05070183996213,62.2743878864039,-25.8491675632304,-36.4252203231736
3.37715906161382,-62.0598476700368,-73.1878166296206,-11.1279689595838,67.6238321498287,-25.4659393552265,-42.1578927946022
3.38231502964682,-64.9014742614993,-78.313549875269,-13.4120756137697,71.6075120683842,-25.7446993238648,-45.8628127445194
3.38747099767981,-69.6740562898678,-81.4359690836386,-11.7619127937708,75.5550126867532,-28.9560717480485,-46.5989409387047
3.39262696571281,-74.9025346109811,-83.5773139299774,-8.67477931899634,79.2399242704793,-33.1138776459924,-46.1260466244869
3.39778293374581,-76.1685441808545,-84.1648327107744,-7.99628852991987,80.1666884458144,-34.0861278254673,-46.0805606203471
3.40293890177881,-73.3614179383646,-82.0233983455232,-8.66198040715858,77.6924081419439,-32.349718765603,-45.3426893763409
3.40809486981181,-71.780306947679,-78.7869295765361,-7.00662262885703,75.2836182621076,-32.386842159411,-42.8967761026965
3.41325083784481,-74.2044045893729,-77.8947419544827,-3.69033736510983,76.0495732719278,-35.2570336121315,-40.7925396597963
3.4184068058778,-77.8581209357399,-80.7291841483109,-2.87106321257102,79.2936525420254,-37.4935288615844,-41.8001236804409
3.4235627739108,-80.931438475691,-87.132026393472,-6.20058791778092,84.0317324345815,-37.3654252789551,-46.6663071556264
3.4287187419438,-84.8812553175324,-95.2427983801808,-10.3615430626485,90.0620268488566,-37.2598561274419,-52.8021707214147
3.4338747099768,-89.0867845490816,-100.422803441757,-11.3360188926749,94.754793995419,-38.8753828282033,-55.8794111672157
3.4390306780098,-90.8533018233527,-100.065820575015,-9.21251875166263,95.459561199184,-40.820391535845,-54.639169663339
3.44418664604279,-89.6486537932997,-96.2737265503376,-6.62507275703797,92.9611901718187,-41.5117905181309,-51.4493996536878
3.44934261407579,-87.1019454696898,-91.7895629390471,-4.68761746935729,89.4457542043684,-41.2071640001662,-48.2385902042022
3.45449858210879,-84.7682461667271,-87.2624614647332,-2.49421529800611,86.0153538157301,-41.1370154343605,-44.8783383813696
3.45965455014179,-81.3437468390836,-80.6123923758973,0.731354463186221,80.9780696074905,-41.0375506511349,-39.9405189563556
3.46481051817479,-73.5149704090543,-68.4434637914795,5.07150661757476,70.9792171002669,-39.2932385133145,-31.6859785869524
3.46996648620779,-61.3907955100099,-52.2711041187537,9.1196913912562,56.8309498143818,-35.255243450633,-21.5757063637487
3.47512245424078,-48.8907366386052,-39.8411920543653,9.04954458423992,44.3659643464852,-28.9701406114226,-15.3958237350627
3.48027842227378,-40.21801399252,-36.7117188814733,3.50629511104671,38.4648664369967,-21.8621545517834,-16.6027118852133
3.48543439030678,-39.4898057687441,-42.9605467908899,-3.47074102214583,41.225176279817,-18.0095323732991,-23.2156439065179
3.49059035833978,-47.6268841362735,-55.4736007130971,-7.84671657682361,51.5502424246853,-19.8900837797249,-31.6601586449603
3.49574632637278,-57.4279456468777,-65.3149657913364,-7.88702014445869,61.371455719107,-24.7704627512095,-36.6009929678975
3.50090229440577,-58.7250822394609,-61.284466408888,-2.55938416942706,60.0047743241744,-28.0828490350169,-31.9219252891575
3.50605826243877,-48.8211270260139,-43.3573769862614,5.46375003975243,46.0892520061377,-27.1424385328831,-18.9468134732545
3.51121423047177,-35.0664687161051,-26.2908412388184,8.77562747728666,30.6786549774617,-21.9210480966959,-8.75760688076588
3.51637019850477,-28.9453778439544,-25.2999815370138,3.6453963069406,27.1226796904841,-16.2953870754475,-10.8272926150366
3.52152616653777,-36.2449992980753,-41.0557584530708,-4.81075915499548,38.650378875573,-15.7171200715399,-22.9332588040331
3.52668213457077,-51.4653778162627,-62.0070117195877,-10.541633903325,56.7361947679252,-20.4618719564689,-36.2743228114563
3.53183810260376,-65.1406163759275,-76.9700082164826,-11.8293918405551,71.055312296205,-26.6556122676862,-44.3997000285189
3.53699407063676,-74.3841896446565,-83.5446984558639,-9.16050881120736,78.9644440502602,-32.6118404167246,-46.3526036335356
3.54215003866976,-81.8132636437263,-88.1282232438159,-6.31495960008965,84.9707434437711,-37.7491520218183,-47.2215914219528
3.54730600670276,-88.9188539969676,-96.1937432700831,-7.27488927311549,92.5562986335254,-40.8219823619261,-51.7343162715993
3.55246197473576,-93.8759793841559,-103.836102882175,-9.96012349801879,98.8560411331653,-41.9579279430686,-56.8981131900968
3.55761794276876,-93.6128021988752,-102.585471531447,-8.9726693325714,98.0991368651609,-42.3200664331519,-55.779070432009
3.56277391080175,-87.2209684127627,-90.1460717785108,-2.92510336574816,88.6835200956367,-42.1479325235073,-46.5355875721295
3.56792987883475,-76.4148842385248,-73.8305476093162,2.58433662920868,75.1227159239205,-39.4996104338668,-35.6231054900537
3.57308584686775,-63.2631154139075,-60.5810433452824,2.68207206862513,61.9220793795949,-32.9725937412663,-28.9494856383286
3.57824181490075,-48.9156756484563,-47.3786826908781,1.53699295757821,48.1471791696672,-25.2263343030172,-22.9208448666499
3.58339778293375,-34.9223703301053,-31.0678945496498,3.85447578045546,32.9951324398776,-19.3884230552804,-13.6067093845972
3.58855375096674,-24.8353453279053,-19.4312026702751,5.40414265763025,22.1332739990902,-15.1197439927678,-7.01353000632241
3.59370971899974,-21.7310119128202,-19.9791845594262,1.75182735339405,20.8550982361232,-11.7414196331071,-9.11367860301607
3.59886568703274,-24.6134980063193,-27.7806300289794,-3.1671320226601,26.1970640176494,-10.7231829918296,-15.4738810258198
3.60402165506574,-29.486816161782,-34.2593661785786,-4.77255001679663,31.8730911701803,-12.3571330724927,-19.5159580976876
3.60917762309874,-34.4510205024474,-38.8080533661094,-4.35703286366203,36.6295369342784,-15.0469938193927,-21.5825431148857
3.61433359113174,-41.2692869682011,-45.2374756440651,-3.96818867586404,43.2533813061331,-18.6505491461685,-24.6028321599646
3.61948955916473,-49.4552294230278,-52.2788121710212,-2.82358274799338,50.8670207970245,-23.3158233375172,-27.5511974595073
3.62464552719773,-53.5369318688524,-52.6892104244252,0.847721444427236,53.1130711466388,-27.1923266566398,-25.920744489999
3.62980149523073,-49.5217609364627,-42.8870751311589,6.63468580530377,46.2044180338108,-28.0782233708832,-18.1261946629276
3.63495746326373,-40.1464961467557,-29.7248424491899,10.4216536975658,34.9356692979728,-25.2840749221607,-9.65159437581204
3.64011343129673,-32.1938690355199,-23.1615656869388,9.03230334858105,27.6777173612293,-20.6130861920505,-7.06463116917888
3.64526939932972,-30.0083974684654,-24.0410332557343,5.96736421273104,27.0247153620999,-17.9878808405982,-9.03683452150165
3.65042536736272,-31.8849069082033,-24.3889523637334,7.4959545444699,28.1369296359684,-19.6904307263366,-8.44649890963177
3.65558133539572,-32.6737004035549,-19.9198054250085,12.7538949785464,26.2967529142817,-22.7137976910506,-3.58295522323108
3.66073730342872,-29.3350671941458,-13.9128791431112,15.4221880510345,21.6239731686285,-22.3786276225901,0.754654453961663
3.66589327146172,-23.0369986099855,-8.37567798628166,14.6613206237038,15.7063382981336,-18.8491596168447,3.14282131871109
3.67104923949472,-15.9464710483064,-2.34256949205772,13.6039015562487,9.14452027018207,-14.7751863022776,5.63066603209549
3.67620520752771,-9.18032703722378,2.32507030734848,11.5053973445723,3.42762836493765,-10.342862190898,6.91523382596037
3.68136117556071,-4.6568293973975,2.21939362633034,6.87622302372785,1.21871788553358,-5.76652621056267,4.5478083250291
3.68651714359371,-4.18125377557556,-1.64162422868827,2.53962954688728,2.91143900213191,-3.36044166123142,0.449002659099506
3.69167311162671,-6.07802940219312,-3.47817043283064,2.59985896936249,4.77809991751188,-4.33894418577781,-0.439155731734076
3.69682907965971,-6.04561134429497,-0.237024480024957,5.80858686427001,3.14131791215996,-5.92709910428249,2.78578119212253
3.7019850476927,-2.27358329351387,3.2049380046904,5.47852129820427,-0.465677355588269,-3.87605229585907,4.34172965144734
3.7071410157257,1.62336687422783,1.28165453495825,-0.341712339269577,-1.45251070459304,0.982539606748702,0.469971097844336
3.7122969837587,1.66368185721666,-3.30233580201477,-4.96601765923143,0.819326972399054,3.31484975822404,-4.1341767306231
3.7174529517917,-0.0683536061529537,-3.82740517236431,-3.75905156621135,1.94787938925863,1.8453489800292,-3.79322836928783
3.7226089198247,1.01907407390604,1.4417381022252,0.422664028319161,-1.23040608806562,0.298205022793439,0.932201065272181
3.7277648878577,4.47476478909931,8.4825546983578,4.00778990925849,-6.47865974372856,0.23348743992041,6.24517230380815
3.73292085589069,6.81091310201401,13.3966534080756,6.58574030606158,-10.1037832550448,0.112586397976216,9.99119685706859
3.73807682392369,7.40145706342508,15.958868263494,8.55741120006891,-11.6801626634595,-0.577977068321914,12.2581397317815
3.74323279195669,6.09424839406995,14.7867033828273,8.69245498875739,-10.4404758884486,-1.29910329734372,11.7395791857924
3.74838875998969,0.701306633403505,5.5576600424103,4.8563534090068,-3.1294833379069,-2.07752338780165,5.20700672570855
3.75354472802269,-9.01204412641741,-10.1945307005029,-1.18248657408546,9.60328741346014,-3.91477877616597,-5.68850863729416
3.75870069605568,-19.5847913737686,-23.846834569954,-4.26204319618535,21.7158129718613,-7.66137408879163,-14.0544388830697
3.76385666408868,-26.885007556526,-30.7480415274919,-3.86303397096589,28.8165245420089,-11.5109867927801,-17.3055377492289
3.76901263212168,-30.677506378627,-34.5525243482419,-3.87501796961487,32.6150153634345,-13.4012442045061,-19.2137711589284
3.77416860015468,-35.8715846441438,-41.2251129276372,-5.35352828349339,38.5483487858905,-15.2590281803252,-23.2893206055653
3.77932456818768,-47.7484627983433,-54.4575521495565,-6.70908935121321,51.1030074739499,-20.519686723565,-30.5833207503848
3.78448053622068,-66.9512200435144,-75.0895920125474,-8.13837196903306,71.0204060280309,-29.4064240372407,-41.6139819907903
3.78963650425367,-87.9380028749625,-98.6717236001607,-10.7337207251982,93.3048632375616,-38.6021410748821,-54.7027221626795
3.79479247228667,-102.648825442664,-115.067060777939,-12.4182353352754,108.857943110301,-45.1152950536941,-63.7426480566072
3.79994844031967,-108.13983567728,-118.415989373712,-10.2761536964315,113.277912525496,-48.9318409904244,-64.3460715350716
3.80510440835267,-108.329173553239,-115.126565946289,-6.79739239304956,111.727869749764,-50.7658905800948,-60.9619791696691
3.81026037638567,-108.330833507207,-114.510072907369,-6.17923940016276,111.420453207288,-51.0757970535219,-60.3446561537661
3.81541634441866,-109.187711895927,-115.767933939646,-6.58022204371905,112.477822917786,-51.3037449261039,-61.1740779916824
3.82057231245166,-107.835075340529,-112.723303501298,-4.88822816076947,110.279189420913,-51.4734235898796,-58.8057658310339
3.82572828048466,-103.035337340223,-106.616246090133,-3.58090874990981,104.825791715178,-49.7272142951565,-55.0985774200212
3.83088424851766,-98.0347923929545,-103.391614797526,-5.35682240457191,100.71320359524,-46.3389849941913,-54.3742186010492
3.83604021655066,-95.96369642644,-102.999740062252,-7.03604363581201,99.481718244346,-44.463826395314,-55.017891849032
3.84119618458366,-97.382233492395,-102.207383556872,-4.82515006447704,99.7948085246335,-46.278541713959,-53.5162668106745
3.84635215261665,-101.030067572005,-102.173306935104,-1.14323936309904,101.601687253555,-49.9434141044531,-51.6582731491017
3.85150812064965,-105.357150519951,-105.525431652643,-0.168281132691732,105.441291086297,-52.5944346936295,-52.8468563926671
3.85666408868265,-110.288901175733,-112.324225529456,-2.03532435372324,111.306563352594,-54.1267884110047,-57.1797749415896
3.86182005671565,-115.867474022758,-120.948853243308,-5.08137922055016,118.408163633033,-55.3930474011039,-63.0151162319291
3.86697602474865,-120.702546675454,-128.505011137212,-7.80246446175749,124.603778906333,-56.4500411068485,-68.1537377994847
3.87213199278164,-123.098141665774,-132.608008884076,-9.50986721830259,127.853075274925,-56.7941372237355,-71.0589380511894
3.87728796081464,-123.290797081979,-133.905988039846,-10.6151909578671,128.598392560913,-56.3378030620561,-72.2605894988567
3.88244392884764,-124.213087119635,-134.199327969578,-9.98624084994321,129.206207544607,-57.113423134846,-72.0927844097608
3.88759989688064,-127.254064305925,-133.68682073903,-6.43275643310483,130.470442522477,-60.4106539364101,-70.0597885860673
3.89275586491364,-128.30401770983,-130.538058365189,-2.23404065535942,129.42103803751,-63.0349885272353,-66.3860495102744
3.89791183294664,-122.323212929763,-122.879277563141,-0.556064633377673,122.601245246452,-60.8835741481929,-61.7176710982594
3.90306780097963,-111.485897377973,-112.75245383701,-1.26655645903759,112.119175607492,-55.1096704594676,-57.0095051480239
3.90822376901263,-105.022263853655,-105.621735141804,-0.599471288148834,105.32199949773,-52.2113962827532,-53.1106032149764
3.91337973704563,-109.778231447342,-107.894778148654,1.88345329868775,108.836504797998,-55.8308423730149,-53.0056624249833
3.91853570507863,-123.918253091697,-123.971041112037,-0.0527880203408131,123.944647101867,-61.9327325356779,-62.0119145661891
3.92369167311163,-140.988471617609,-148.263011866105,-7.27454024849544,144.625741741857,-66.8569656845569,-77.7687760573001
3.92884764114463,-156.419412492792,-167.298227232784,-10.8788147399923,161.858819862788,-72.7702988763998,-89.0885209863883
3.93400360917762,-168.521543707672,-176.178002182901,-7.65645847522887,172.349772945286,-80.4325426162214,-91.9172303290648
3.93915957721062,-177.73078314455,-183.14143357842,-5.41065043386971,180.436108361485,-86.1600663553403,-94.2760420061448
3.94431554524362,-186.189781064998,-194.522432350601,-8.33265128560333,190.356106707799,-88.9285648896971,-101.427541818102
3.94947151327662,-193.399868521691,-204.89649689577,-11.4966283740787,199.14818270873,-90.9516200738061,-108.196562634924
3.95462748130962,-194.116640841397,-203.91298291647,-9.7963420750732,199.014811878934,-92.160149383162,-106.854662495772
3.95978344934261,-183.324830884431,-185.057520057564,-1.73268917313294,184.191175470997,-90.7960708556488,-93.3951046153483
3.96493941737561,-158.782767288875,-147.158585456194,11.6241818326807,152.970676372534,-85.2034745607777,-67.7672018117566
3.97009538540861,-118.954684838258,-91.8240503506579,27.1306344876,105.389367594458,-73.0426596629289,-32.346707931529
3.97525135344161,-61.9103280660424,-19.3325148067677,42.5778132592748,40.6214214364051,-52.2440706626586,11.6226492262535
3.98040732147461,14.9185722453283,73.8931503212741,58.9745780759458,-44.4058612833012,-22.0280029153088,66.43386419861
3.98556328950761,113.277538886986,191.194586241351,77.9170473543654,-152.236062564169,17.6802457663102,134.555816797858
3.9907192575406,229.858404166596,328.689628710063,98.8312245434665,-279.27401643833,65.5135898115649,213.760426626765
3.9958752255736,353.291756410049,471.059434700018,117.767678289969,-412.175595555034,117.76203906004,294.413556494994
4.0010311936066,465.75153977986,591.125389642054,125.373849862194,-528.438464710957,170.188844958833,358.249619752124
4.0061871616396,548.611469339035,659.986325100986,111.374855761951,-604.298897220011,218.618306788542,385.680590431469
4.0113431296726,587.296530844616,662.873714832478,75.577183987862,-625.085122838547,255.859673428377,369.22544941017
4.01649909770559,573.905994561166,603.159316515359,29.2533219541933,-588.532655538263,272.326336303486,316.206319234776
4.02165506573859,512.520805651738,497.452043994075,-15.0687616576629,-504.986424822906,263.7947836547,241.191641168206
4.02681103377159,420.137341236504,371.307500633239,-48.8298406032646,-395.722420934871,234.483590919884,161.238830014987
4.03196700180459,316.391309509888,248.542904624289,-67.8484048855988,-282.467107067088,192.119857197743,90.347249869345
4.03712296983759,215.625647376509,140.433096756662,-75.1925506198471,-178.029372066586,145.409098998178,32.6202730684075
4.04227893787059,127.242912306073,51.2743322054776,-75.9685801005954,-89.2586222557754,101.605746203334,-12.3471239475589
4.04743490590358,56.788095707427,-12.7662452336486,-69.5543409410757,-22.0109252368892,63.1712183242513,-41.1602930873621
4.05259087393658,7.02587944724722,-47.7310267204549,-54.7569061677022,20.3525736366039,30.8913928074747,-51.2439664440785
4.05774684196958,-20.9820570291141,-57.7002974911111,-36.718240461997,39.3411772601126,7.86809171644146,-47.2092689765541
4.06290281000258,-28.9659354908677,-50.9432259933174,-21.9772905024497,39.9545807420925,-3.49432249420903,-36.4602582478835
4.06805877803558,-21.975266389298,-32.3382722767538,-10.3630058874558,27.1567693330259,-5.80613025092108,-21.3506390821048
4.07321474606858,-5.39922519132909,-4.46716912513408,0.932056066195017,4.93319715823159,-3.16564062876206,-1.76755652946953
4.07837071410157,16.3233578343683,25.8802367827835,9.55687894841515,-21.1017973085759,3.38323944297659,17.7185578655993
4.08352668213457,36.388629040482,49.0182122682057,12.6295832277237,-42.7034206543439,11.8795229063792,30.8238977479647
4.08868265016757,45.9499121171494,58.0621877684582,12.1122756513087,-52.0060499428038,16.9188182329204,35.0872317098834
4.09383861820057,41.2219226383215,51.0163885295002,9.79446589117876,-46.1191555839109,15.7137283735714,30.4054272103395
4.09899458623357,26.9134721297011,31.5471993599876,4.63372723028654,-29.2303357448443,11.1398724497073,18.0904632951371
4.10415055426656,9.74395529382267,7.54899254990229,-2.19496274392037,-8.64647392186248,5.96945901887152,2.67701490299096
4.10930652229956,-6.93068207825945,-14.2993733731743,-7.36869129491487,10.6150277257169,0.219004608327708,-10.8340323340446
4.11446249033256,-20.3438904682327,-31.7874320540903,-11.4435415858575,26.0656612611615,-4.45017444118761,-21.6154868199739
4.11961845836556,-27.3966171835172,-44.0389002054473,-16.6422830219301,35.7177586944823,-5.37716708079353,-30.3405916136887
4.12477442639856,-28.6073314970716,-48.3874917838104,-19.7801602867387,38.497411640441,-4.41358560516647,-34.0838260352745
4.12993039443155,-28.2466254849352,-45.5101533907864,-17.2635279058513,36.8783894378608,-5.49154878954196,-31.3868406483189
4.13508636246455,-29.5916928279724,-42.4879023822908,-12.8962095543184,36.0397976051316,-8.34774163682699,-27.6920559683046
4.14024233049755,-32.2843167241721,-42.9764604688498,-10.6921437446777,37.6303885965109,-10.7960864897472,-26.8343021067637
4.14539829853055,-34.9599181627355,-43.4566692439706,-8.49675108123516,39.208293703353,-13.2315835407501,-25.9767101626029
4.15055426656355,-38.2123755091773,-44.062619921324,-5.85024441214664,41.1374977152506,-16.1810655485153,-24.9564321667353
4.15571023459655,-43.7917058803746,-50.0048213256154,-6.21311544524073,46.898263602995,-18.789295217567,-28.1089683854281
4.16086620262954,-52.8114548541042,-61.4525108333599,-8.64105597925573,57.1319828437321,-22.0851994374242,-35.0467834063078
4.16602217066254,-64.4777582601132,-73.8496990221223,-9.37194076200912,69.1637286411178,-27.552908749052,-41.6108198920657
4.17117813869554,-74.7831831327269,-83.9685302990669,-9.18534716633999,79.3758567158969,-32.7989179831935,-46.5769387327035
4.17633410672854,-78.4050987610668,-87.4967480771858,-9.09164931611906,82.9509234191263,-34.6567247224738,-48.2941986966524
4.18149007476154,-73.6905103082866,-79.2671975870037,-5.57668727871712,76.4788539476452,-34.0569115147847,-42.4219424328604
4.18664604279453,-63.7881783173676,-61.5640726859272,2.22410563144035,62.6761255016474,-33.006141974404,-29.6699835272434
4.19180201082753,-53.3408373845239,-44.2008559652293,9.1399814192946,48.7708466748766,-31.2404094019092,-17.5304372729673
4.19695797886053,-45.6881685178299,-34.5162023910947,11.1719661267351,40.1021854544623,-28.4300673222825,-11.6721181321798
4.20211394689353,-41.2125994071119,-32.0649026907103,9.14769671640158,36.6387510489111,-25.1801480617567,-11.4586029871544
4.20726991492653,-37.8317119311565,-31.440026414967,6.39168551618957,34.6358691730617,-22.111698723673,-12.5241704493887
4.21242588295953,-33.5332443049477,-27.0936379440293,6.43960636091839,30.3134411244885,-19.986425332933,-10.3270157915555
4.21758185099252,-26.9452706120547,-17.2975020219357,9.64776859011897,22.1213863169952,-18.2965196010868,-3.82486671590837
4.22273781902552,-17.8026503045218,-6.59474980700043,11.2079004975214,12.1987000557611,-14.5052754010216,2.30657534526048
4.22789378705852,-9.26130271971493,-1.56629823718703,7.69500448252791,5.41380047845098,-8.47815360112142,3.06435312267044
4.23304975509152,-5.09483973655631,-2.57640616189252,2.51843357466379,3.83562294922442,-3.80663665561005,-0.0289862936143663
4.23820572312452,-4.56473489144076,-5.8291048063486,-1.26436991490783,5.19691984889468,-1.65018248826647,-3.54673736062821
4.24336169115752,-5.71430146958676,-10.3500561723332,-4.63575470274645,8.03217882095998,-0.539273383420152,-7.49290543753983
4.24851765919051,-9.98723926477169,-16.758231613569,-6.77099234879728,13.3727354391703,-1.6081234579872,-11.7646119811831
4.25367362722351,-18.4738317706353,-25.0364149604098,-6.56258318977456,21.7551233655226,-5.95562429043036,-15.7994990750922
4.25882959525651,-28.5734417398256,-34.4748142110474,-5.9013724712218,31.5241279754365,-11.3360346343019,-20.1880933411346
4.26398556328951,-36.93473863314,-42.5194450263085,-5.58470639316852,39.7270918297243,-15.6750161199857,-24.0520757097385
4.26914153132251,-41.2321576702151,-45.1470182928168,-3.91486062260162,43.189587981516,-18.6586485238068,-24.5309394577092
4.2742974993555,-39.5795121529629,-39.6020637379855,-0.0225515850226543,39.5907879454742,-19.7784802839701,-19.8123076615041
4.2794534673885,-31.7302485816767,-27.7997797315042,3.93046885017247,29.7650141565904,-17.8303587159246,-11.9346554406659
4.2846094354215,-19.9254302964667,-14.9270951723879,4.99833512407884,17.4262627344273,-12.4618827102728,-4.96438002415451
4.2897654034545,-7.51254599111348,-4.51182414141977,3.00072184969372,6.01218506626662,-5.2566339204036,-0.755551145863024
4.2949213714875,2.3594703007434,2.69642204377271,0.336951743029317,-2.52794617225805,1.01125927885704,1.51668689340102
4.3000773395205,7.67665706515248,6.78211375498864,-0.89454331016384,-7.22938541007056,4.28560018765816,2.9437852224124
4.30523330755349,8.95640879003145,6.82841122071079,-2.12799756932066,-7.89241000537112,5.54220317967605,2.35020682569507
4.31038927558649,7.91492769382683,2.45729437419931,-5.45763331962752,-5.18611103401307,6.68628050672717,-1.50016947271411
4.31554524361949,5.21063493917148,-3.11084901666982,-8.3214839558413,-1.04989296125083,6.76605944750639,-5.71616648625556
4.32070121165249,0.95667164551503,-6.47468341465805,-7.43135506017308,2.75900588457151,4.19401335284405,-6.95301923741556
4.32585717968549,-5.47335580151525,-10.1980920511259,-4.72473624961066,7.83572392632058,-0.374309775952298,-7.46141415036828
4.33101314771848,-14.0968434364991,-17.5500730420089,-3.45322960550982,15.823458239254,-5.32180691549465,-10.5016513237594
4.33616911575148,-20.5615863199196,-22.2097840708263,-1.64819775090677,21.385685195373,-9.4566942845064,-11.9289909108666
4.34132508378448,-18.3989580104673,-15.6706281597726,2.72832985069465,17.0347930851199,-10.563643930581,-6.47114915453898
4.34648105181748,-6.62836323127323,-0.98945106998957,5.63891216128366,3.8089071506314,-6.13363769627844,2.32473054564704
4.35163701985048,8.47665440474333,12.9755558491775,4.49890144443413,-10.7261051269604,1.9888764801546,8.73722864680579
4.35679298788348,20.6661748010274,23.306311648704,2.64013684767662,-21.9862432248657,9.01301897667537,12.9732242481903
4.36194895591647,28.7508337113991,31.2797050035493,2.5288712921502,-30.0152693574742,13.1109812096245,16.9042881478498
4.36710492394947,33.5480417142729,36.9236484657579,3.37560675148501,-35.2358450900154,15.086217481394,20.1496276086215
4.37226089198247,34.8772418852634,39.1482000421605,4.27095815689705,-37.0127209637119,15.3031418641832,21.7095790995288
4.37741686001547,32.5467872580419,37.6479543165191,5.10116705847713,-35.0973707872805,13.7228100997824,21.3745606874981
4.38257282804847,28.9363950480806,34.6628559929812,5.72646094490062,-31.7996255205309,11.60496705159,20.1946584689409
4.38772879608146,28.8524748304093,34.3069671996028,5.45449236919342,-31.579721015006,11.698991230608,19.8807297843981
4.39288476411446,33.7307300387076,38.0933482819111,4.36261824320343,-35.9120391603093,14.6840558977521,21.2279832625572
4.39804073214746,39.5051028529959,42.5518668386197,3.04676398562384,-41.0284848458078,18.229169433686,22.7993154121218
4.40319670018046,42.6455631810067,43.642075880666,0.99651269965932,-43.1438195308363,20.8245252406737,22.3192942901626
4.40835266821346,44.0884558172747,42.0606441083061,-2.02781170896864,-43.0745499627904,23.0581337631217,20.0164161996687
4.41350863624646,47.473903620567,42.7922514090576,-4.6816522115094,-45.1330775148123,26.0777779160382,19.0552995987741
4.41866460427945,55.0551760241243,50.6048064830677,-4.4503695410566,-52.829991253596,29.7527727825905,23.0772184710056
4.42382057231245,64.7647464848374,64.1706113085332,-0.594135176304206,-64.4676788966853,32.6794408305708,31.7882380661145
4.42897654034545,72.5813305688324,76.1409248984895,3.55959432965707,-74.361127733661,34.5108681195877,39.8502596140733
4.43413250837845,77.6098825227114,82.8719029505063,5.26202042779494,-80.2408927366088,36.1739310474582,44.0669616891506
4.43928847641145,82.4477367074022,87.1876861266253,4.73994941922301,-84.8177114170138,38.8538936440896,45.9638177729241
4.44444444444444,88.0437631759507,88.7119584280886,0.668195252137892,-88.3778608020197,43.6877839619064,44.6900768401132
4.44960041247744,91.3587251723939,84.9509521056788,-6.40777306671509,-88.1548386390363,48.8832491195545,39.2715895194818
4.45475638051044,91.4189793333569,82.4274688417372,-8.99151049161968,-86.9232240875471,50.2052449124883,36.7179791750588
4.45991234854344,94.1860110344264,90.5785378810964,-3.60747315333001,-92.3822744577614,48.8967420938782,43.4855323638832
4.46506831657644,104.654276120315,106.468777057196,1.81450093688102,-105.561526588755,51.4198875917167,54.1416389970383
4.47022428460944,117.559246212243,117.975303689217,0.41605747697443,-117.76727495073,58.5715943676342,59.1956805830959
4.47538025264243,123.279487084046,118.783495707148,-4.49599137689778,-121.031491395597,63.8877392304718,57.1437521651251
4.48053622067543,118.83628655503,112.464574821586,-6.37171173344319,-115.650430688308,62.6039991442364,53.0464315440716
4.48569218870843,108.842705503778,105.344439023569,-3.49826648020988,-107.093572263673,56.1704859919942,50.9230862716793
4.49084815674143,100.008618444726,101.287923169979,1.27930472525344,-100.648270807352,49.3646568597361,51.2836139476163
4.49600412477443,96.3615868377775,102.016560319024,5.6549734812466,-99.1890735784008,45.3533066782654,53.8357669001353
4.50116009280742,98.8007104835625,108.138058105439,9.33734762187669,-103.469384294501,44.7316814308429,58.7377028636579
4.50631606084042,107.336974341024,118.142873867552,10.8058995265276,-112.739924104288,48.2655374072483,64.4743866970398
4.51147202887342,119.412265912975,127.337783521146,7.92551760817094,-123.37502471706,55.7433741524019,67.6316505646583
4.51662799690642,127.538277459152,129.883315388307,2.34503792915461,-128.710796423729,62.5966197649986,66.1141766587306
4.52178396493942,124.744874737768,122.680697930579,-2.06417680718994,-123.712786334173,63.4045257724792,60.3082605616943
4.52693993297242,112.396999210088,107.1084920034,-5.28850720668743,-109.752745606744,58.8427532083875,50.9099923983564
4.53209590100541,98.3656865365081,89.9810501345098,-8.38463640199825,-94.1733683355089,53.3751614692532,40.7982068662558
4.53725186903841,89.7313260953979,82.412204503615,-7.31912159178285,-86.0717652995065,48.5252238435904,37.5465414559161
4.54240783707141,91.0730520608988,92.6943521158156,1.62130005491679,-91.8837020883572,44.725876002991,47.1578260853662
4.54756380510441,104.575776641434,119.74560644753,15.1698298060954,-112.160691544482,44.7029734176693,67.4577181268125
4.55271977313741,127.15419143798,152.846645618279,25.6924541802994,-140.00041852813,50.7308686288403,89.2695498992894
4.55787574117041,151.176425732001,177.657215833533,26.4807901015313,-164.416820782767,62.3478178152351,102.069002967532
4.5630317092034,168.643817853291,186.074663706375,17.4308458530837,-177.359240779833,75.6064860001035,101.752754779729
4.5681876772364,172.95966752158,179.835058112792,6.87539059121241,-176.397362817186,83.0421384651838,93.3552243520024
4.5733436452694,163.097501539486,164.889546794778,1.79204525529235,-163.993524167132,80.6527281420966,83.3407960250352
4.5784996133024,147.318124609233,146.748831031382,-0.569293577850431,-147.033477820307,73.9437090935415,73.0897687267659
4.5836555813354,135.001393718453,129.580484070641,-5.42090964781141,-132.290938894547,70.211151683132,62.0797872114149
4.58881154936839,126.7352842653,115.023349287303,-11.7119349779966,-120.879316776301,69.2236096216482,51.6557071546532
4.59396751740139,117.739306230561,102.285241411459,-15.4540648191016,-110.01227382101,66.5966855248313,43.4155882961788
4.59912348543439,106.873442984377,91.2049927882663,-15.6684501961108,-99.0392178863217,61.270946590244,37.7682712960777
4.60427945346739,97.8392399164265,85.2767975439456,-12.562442372481,-91.5580187301861,55.2008411444538,36.3571775857323
4.60943542150039,93.3651564623392,87.0409367120931,-6.32421975024613,-90.2030465872161,49.8446881062927,40.3583584809235
4.61459138953338,91.2915043565667,89.7389838400384,-1.55252051652838,-90.5152440983026,46.4220124365476,44.093231661755
4.61974735756638,86.8283612236103,83.4554321093112,-3.37292911429904,-85.1418966664608,45.1006451689547,40.0412514975061
4.62490332559938,77.8098898657213,68.5019301505667,-9.30795971515454,-73.155910008144,43.5589247904379,29.5969852177061
4.63005929363238,66.9192735989491,52.7538038550299,-14.1654697439192,-59.8365387269895,40.5423716714341,19.2941670555554
4.63521526166538,57.795168518644,40.4108423106356,-17.3843262080084,-49.1030054146398,37.5897473633262,11.5132580513136
4.64037122969838,49.4211571656349,29.7714375568048,-19.6497196088301,-39.5962973612199,34.5354383872325,5.06085897398737
4.64552719773137,37.5512062421728,17.7585339550212,-19.7926722871516,-27.654870098597,28.6719392646622,-1.0170691660652
4.65068316576437,21.9126412793626,4.16473550254159,-17.747905776821,-13.0386883909521,19.8302735280918,-6.79158513713969
4.65583913379737,6.16315106445109,-9.13953715964885,-15.3026882240999,1.48819304759888,10.7329196442755,-12.2211126918744
4.66099510183037,-9.437236427789,-22.856845155686,-13.419608727897,16.1470407917375,1.99118615005398,-18.1382269417915
4.66615106986337,-27.1607680329648,-38.6889312307248,-11.52816319776,32.9248496318448,-7.8163024176024,-25.1085472142424
4.67130703789637,-44.2735944373599,-54.2662735281808,-9.99267909082096,49.2699339827703,-17.1404576732695,-32.1294763095009
4.67646300592936,-55.3326137338388,-66.1191735933012,-10.7865598594624,60.72589366357,-22.2730269371882,-38.4528667263818
4.68161897396236,-60.9293465222406,-74.6158465402968,-13.6865000180562,67.7725965312687,-23.6214232520922,-44.1511732791765
4.68677494199536,-65.6115179426899,-80.4972846223675,-14.8857666796775,73.0544012825287,-25.3628756315062,-47.6915256510225
4.69193091002836,-69.1133245590545,-80.6874847592978,-11.5741602002433,74.9004046591762,-28.7695821794056,-46.1308224797706
4.69708687806136,-68.1387288873073,-72.2190790509117,-4.08035016360441,70.1789039691095,-32.0291893618514,-38.149714607258
4.70224284609435,-62.7725092004848,-56.6968641939236,6.07564500656122,59.7346866972042,-34.424077103523,-25.3106095936812
4.70739881412735,-54.767437691499,-39.7057730225581,15.0616646689409,47.2366053570286,-34.91455118022,-12.3220541768086
4.71255478216035,-46.4727982613911,-29.4682885546151,17.0045097067759,37.9705434080031,-31.7386539840835,-6.2318894239196
4.71771075019335,-43.9416033052523,-33.5924150061985,10.3491882990538,38.7670091557254,-27.1453958021531,-11.6216133535723
4.72286671822635,-52.7604206848507,-51.1550458881263,1.60537479672439,51.9577332864885,-27.1828977407876,-24.774835545701
4.72802268625935,-68.0574498440276,-69.9325893977664,-1.87513955373879,68.995019620897,-33.0911551451444,-35.9038644757526
4.73317865429234,-76.7100032332212,-78.8059031306868,-2.09589989746564,77.757953181954,-37.3070516678778,-40.4509015140762
4.73833462232534,-74.2802532244971,-79.1972798785378,-4.91702665404068,76.7387665515174,-34.6816132852282,-42.0571532662892
4.74349059035834,-69.3309236958241,-78.282998085087,-8.95207438926286,73.8069608904556,-30.1894246532806,-43.6175362371749
4.74864655839134,-68.4583695755748,-78.7758249147851,-10.3174553392103,73.6170972451799,-29.0704571181823,-44.5466401269977
4.75380252642434,-70.0670987938604,-78.9101361715809,-8.84303737772052,74.4886174827207,-30.6120307080699,-43.8765867746507
4.75895849445733,-72.6075064306913,-78.1990291718141,-5.59152274112284,75.4032678012527,-33.5079918447842,-41.8952759564685
4.76411446249033,-79.1550303494782,-80.9159172689829,-1.76088691950463,80.0354738092306,-38.6970717149868,-41.3384020942437
4.76927043052333,-91.7715551930453,-90.0373728193188,1.73418237372653,90.904464006182,-46.7528687833859,-44.1515952227961
4.77442639855633,-104.280314402605,-100.035027805327,4.24528659727821,102.157671103966,-54.2628004999415,-47.8948706040242
4.77958236658933,-106.698906960222,-101.732104896936,4.96680206328608,104.215505928579,-55.8328545117541,-48.382651416825
4.78473833462233,-97.5331034097118,-93.3102465966597,4.22285681305209,95.4216750031857,-50.8779801113819,-44.5436948918038
4.78989430265532,-85.3185600060091,-81.7812598762723,3.53730012973676,83.5499099411407,-44.4279300678729,-39.1219798732678
4.79505027068832,-78.5748791107802,-73.1482483592127,5.42663075156747,75.8615637349965,-42.0007549311738,-33.8608088038226
4.80020623872132,-78.0972784706566,-67.0629917831297,11.0342866875269,72.5801351268932,-44.5657825790918,-28.0143525478014
4.80536220675432,-78.71124928121,-62.2075001254867,16.5037491557233,70.4593747033484,-47.6074992184667,-22.8518754848817
4.81051817478732,-77.5175489385773,-60.9048380018617,16.6127109367156,69.2111934702195,-47.0651299376465,-22.146063532573
4.81567414282032,-77.0608834731132,-66.6151293650026,10.4457541081106,71.8380064190579,-43.7533187906119,-28.084687628446
4.82083011085331,-80.1010497460137,-78.5073002254919,1.59374952052178,79.3041749857528,-40.8473996332677,-38.4567753524851
4.82598607888631,-85.8127597400445,-89.8807489801684,-4.06798924012389,87.8467543601064,-40.8723852499603,-46.9743691101461
4.83114204691931,-91.3464360613576,-95.4963754259891,-4.14993936463145,93.4214057436733,-43.5982483483631,-49.8231573953103
4.83629801495231,-94.2145500869733,-96.8863836723682,-2.67183358539489,95.5504668796708,-45.7713582507892,-49.7791086288815
4.84145398298531,-92.3755533324726,-94.3127982169356,-1.93724488446298,93.3441757747041,-45.2191542240048,-48.1250215506993
4.8466099510183,-85.4655140667799,-84.4998036121873,0.965710454592568,84.9826588394836,-43.2156122606862,-41.7670465787974
4.8517659190513,-76.7096453672974,-71.0265331633666,5.68311220393082,73.868089265332,-41.1963787856141,-32.6717104797179
4.8569218870843,-69.7066003564136,-62.1859442247144,7.52065613169918,65.946272290564,-38.6136282440564,-27.3326440465076
4.8620778551173,-65.7171167769974,-59.6599191315638,6.05719764543363,62.6885179542806,-35.8871572112155,-26.8013607430651
4.8672338231503,-64.6997752242348,-59.9361343705922,4.76364085364264,62.3179547974135,-34.7317080389387,-27.5862467584748
4.87238979118329,-64.4797119991364,-60.5250616227728,3.95465037636365,62.5023868109546,-34.21718118775,-28.2852056232046
4.87754575921629,-62.1251076424817,-60.5646825494355,1.56042509304621,61.3448950959586,-31.8427663677639,-29.5021287281946
4.88270172724929,-58.4295460405502,-60.5486876916102,-2.11914165105998,59.4891168660802,-28.1552021947451,-31.3339146713351
4.88785769528229,-57.4405729721788,-61.5072106049537,-4.06663763277487,59.4738917885662,-26.686967669702,-32.7869241188643
4.89301366331529,-61.2672765279766,-64.5319338144866,-3.26465728650999,62.8996051712316,-29.0013096207333,-33.8982955504983
4.89816963134829,-67.7146864686762,-71.1432810559738,-3.42859458729754,69.428983762325,-32.1430459406893,-37.2859378216357
4.90332559938128,-74.3216575274328,-79.6787152020513,-5.35705767461855,77.000186364742,-34.4822999264071,-42.5178864383349
4.90848156741428,-79.9878074610346,-82.4824842357486,-2.49467677471401,81.2351458483916,-38.7465653431603,-42.4885805052313
4.91363753544728,-81.0840378192897,-73.3400046004095,7.74403321888028,77.2120212098496,-44.414035519085,-32.7979856907646
4.91879350348028,-74.9268204666237,-57.6150835415504,17.3117369250733,66.2709520040871,-46.1192786958485,-20.1516733082386
4.92394947151328,-65.9986890483015,-47.9995642202801,17.9991248280214,56.9991266342908,-41.9989069381615,-15.0002196961293
4.92910543954627,-60.2320326265925,-48.9302859200276,11.3017467065648,54.58115927331,-35.7668896665787,-18.8142696067314
4.93426140757927,-57.734300111094,-52.5580036992126,5.1762964118814,55.1461519051533,-31.4552982614877,-23.6908536436656
4.93941737561227,-56.5163336818961,-52.3797648913096,4.13656879058645,54.4480492866029,-30.3264512362413,-24.1215980503616
4.94457334364527,-57.2439024880234,-52.1735985801875,5.07030390783586,54.7087505341054,-31.1571031979296,-23.5516473361758
4.94972931167827,-61.4733910888688,-58.8726882637143,2.60070282515451,60.1730396762916,-32.0370469570117,-28.1359927192799
4.95488527971127,-70.0523072830054,-74.010654872633,-3.95834758962756,72.0314810778192,-33.0469798466889,-38.9845012311303
4.96004124774426,-82.3999685527214,-92.7412958152991,-10.3413272625777,87.5706321840102,-36.0293206450718,-51.5413115389384
4.96519721577726,-94.8868716365656,-107.728980472213,-12.8421088356477,101.307926054389,-41.0223814004589,-60.2855446539306
4.97035318381026,-102.51283725793,-113.611811534344,-11.0989742764138,108.062324396137,-45.7069314907581,-62.3553929053788
4.97550915184326,-101.627603060642,-107.946699999679,-6.31909693903629,104.787151530161,-47.6542530608031,-57.1328984693575
4.98066511987626,-89.9643268516032,-89.734026685258,0.23030016634516,89.8491767684306,-45.0973135089742,-44.7518632594564
4.98582108790926,-68.4624659707814,-61.8495531162227,6.61291285455872,65.1560095435021,-37.5376894126701,-27.618320130832
4.99097705594225,-45.2517391666019,-36.3923560057448,8.85938316085711,40.8220475861734,-27.0555611637295,-13.7664864224438
4.99613302397525,-32.7804905014034,-27.4319790110864,5.34851149031704,30.1062347562449,-19.0645009958602,-11.0417337603847
5.00128899200825,-36.0858652794491,-35.4095456059477,0.676319673501439,35.7477054426984,-18.3810924764753,-17.3666129662231
5.00644496004125,-47.3332552764796,-48.962223795703,-1.62896851922335,48.1477395360913,-22.8521433786281,-25.2955961574632
5.01160092807425,-56.7139612469602,-60.0974194526011,-3.38345820564086,58.4056903497806,-26.6652515206597,-31.740438829121
5.01675689610724,-62.6252698093797,-69.0772238614276,-6.45195405204788,65.8512468354036,-28.0866578786659,-37.7645889567377
5.02191286414024,-67.1417509131697,-76.5693575353415,-9.42760662217171,71.8555542242556,-28.857072145499,-42.9984820787566
5.02706883217324,-70.4991418336962,-79.7024884373587,-9.20334660366257,75.1008151355275,-30.6478976150168,-44.4529175205107
5.03222480020624,-72.1541188528091,-77.2188143231585,-5.06469547034942,74.6864665879838,-33.5447116912298,-41.141754896754
5.03738076823924,-70.8733671904164,-70.6843604324946,0.189006757921845,70.7788638114555,-35.5311869741691,-35.2476768372864
5.04253673627224,-65.7201942300782,-61.8264263488363,3.89376788124196,63.7733102894572,-34.8069810556601,-28.9663292337972
5.04769270430523,-58.3529604071916,-53.3434841606547,5.00947624653691,55.8482222839232,-31.6812183268643,-24.1670039570589
5.05284867233823,-51.0775528361526,-47.4073653955983,3.67018744055434,49.2424591158754,-27.3738701383535,-21.868588977522
5.05800464037123,-45.108198617162,-41.5237185539982,3.58448006316382,43.3159585855801,-24.3463393401629,-18.9696192454172
5.06316060840423,-40.6498044060996,-31.9983833816133,8.65142102448635,36.3240938938565,-24.650612715293,-11.6734811785635
