t,ecgI,ecgII,leadIII_f,aVR_f,aVL_f,aVF_f
0,-39.5172407670164,-28.5509266604495,10.9663141065669,34.034083713733,-25.2417774367917,-8.7923062769413
0.0051559680329982,-159.816451212554,-32.9635825381579,126.852868674396,96.3900168753561,-143.334659943475,46.9446430681192
0.0103119360659964,-236.689267228744,-16.6743261981642,220.014941030579,126.681796713454,-228.352104129662,101.670307416208
0.0154679040989946,-259.285660791807,23.7313293061316,283.016990097939,117.777165742838,-271.151325444873,153.374159702035
0.0206238721319928,-249.197204061506,73.6688080202485,322.866012081754,87.7641980206286,-286.03160807163,198.267410051001
0.025779840164991,-233.258359912164,116.819066687798,350.077426599962,58.219646612183,-291.667893256063,233.44824664388
0.0309358081979892,-223.326067628439,144.992775803606,368.318843432046,39.1666459124166,-295.822455530243,256.655809617826
0.0360917762309874,-219.597353784503,153.85802434049,373.455378124994,32.8696647220064,-296.526365954749,263.656701232742
0.0412477442639856,-222.796506906103,141.165882336506,363.962389242609,40.8153122847985,-293.379448074356,252.564135789558
0.0464037122969838,-236.998433491553,111.801234439025,348.799667930577,62.5985995262641,-292.899050711065,230.300451184801
0.051559680329982,-262.702117138147,77.6841161042324,340.386233242379,92.5090005169572,-301.544175190263,209.035174673306
0.0567156483629802,-291.639285763506,51.0346035836416,342.673889347147,120.302341089932,-317.156587555326,196.854246465394
0.0618716163959784,-311.287646217631,38.01955861089,349.307204828521,136.634043803371,-330.297425523076,193.663381719706
0.0670275844289765,-314.862121503071,36.357026325804,351.219147828875,139.252547588634,-333.040634665973,193.78808707734
0.0721835524619747,-305.797046549177,39.3212852882996,345.118331837476,133.237880630439,-325.457689193326,192.219808562888
0.0773395204949729,-293.166550016784,42.5847658795285,335.751315896313,125.290892068628,-314.458932956549,189.168040887921
0.0824954885279711,-284.566435337822,45.0457404358284,329.61217577365,119.760347450997,-307.089305555736,187.328958104739
0.0876514565609693,-282.335082247108,45.5455517797929,327.880634026901,118.394765233658,-305.107858137004,186.713092903347
0.0928074245939675,-283.95004111475,43.4516261183284,327.401667233078,120.249207498211,-305.675854173914,185.426646675703
0.0979633926269657,-285.544808059128,40.195283993561,325.740092052689,122.674762032784,-305.642450055909,182.967688023125
0.103119360659964,-285.48599783209,36.9106046075796,322.39660243967,124.287696612255,-303.94130013588,179.653603523625
0.108275328692962,-284.629430088322,32.4043557791463,317.033785867469,126.112537154588,-300.831607977896,174.719070823308
0.11343129672596,-284.309474626457,24.3918465963148,308.701321222771,129.958814015071,-296.505397924614,166.546583909543
0.118587264758959,-285.191835902072,12.0198466764464,297.211682578518,136.585994612813,-291.201759240295,154.615764627482
0.123743232791957,-287.20493846909,-1.51442315518057,285.69051531391,144.359680812135,-286.4477268915,142.088046079365
0.128899200824955,-289.403883280944,-9.35182750870815,280.052055772236,149.377855394826,-284.72796952659,135.350114131764
0.134055168857953,-289.514705907643,-6.16037722190299,283.35432868574,147.837541564773,-286.434517296691,138.596975731918
0.139211136890951,-283.630296749538,8.06526632674053,291.695563076279,137.782515211399,-287.662929912909,149.88041470151
0.144367104923949,-267.958090414284,29.4656657047572,297.423756119041,119.246212354763,-282.690923266663,163.444710911899
0.149523072956948,-243.510670873425,52.0326904860918,295.543361359517,95.7389901936668,-269.527016116471,173.788025922804
0.154679040989946,-219.293448381956,67.6548691150939,286.94831749705,75.819289633431,-253.120882939503,177.301593306072
0.159835009022944,-207.992281166518,68.6411495088668,276.633430675385,69.6755658288258,-242.312855920952,172.637290092126
0.164990977055942,-215.519272662988,53.1844019498464,268.703674612834,81.1674353565706,-242.111473637911,160.94403828134
0.17014694508894,-234.153892302874,29.1555752706613,263.309467573535,102.499158516106,-248.731679938204,146.232521422098
0.175302913121939,-247.709707626575,11.1559401264853,258.86564775306,118.276883750045,-253.287677689817,135.010793939773
0.180458881154937,-244.933070178815,10.5230082153594,255.456078394175,117.205030981728,-250.194574286495,132.989543304767
0.185614849187935,-227.347078578038,27.1840428229439,254.531121400982,100.081517877547,-240.93909998951,140.857582111963
0.190770817220933,-204.546527668499,51.5881111050591,256.134638773559,76.4792082817202,-230.340583221029,153.861374939309
0.195926785253931,-185.020971395835,71.7594261300176,256.780397525852,56.6307726329085,-220.900684460843,164.269911827935
0.20108275328693,-172.420297167035,78.2593591658071,250.679656332842,47.0804690006138,-211.549976749938,164.469507749324
0.206238721319928,-166.922755613701,69.0263368533655,235.949092467066,48.9482093801677,-201.435924040384,152.487714660216
0.211394689352926,-166.960382843009,52.46900456842,219.429387411429,57.2456891372943,-193.194885127219,135.949195989924
0.216550657385924,-170.175707276622,40.8270149277835,211.002722204406,64.6743461744194,-190.589214740514,125.914868566095
0.221706625418922,-174.325612507437,38.4314101837629,212.7570226912,67.947101161837,-193.541317599318,125.594216437481
0.226862593451921,-177.808490519887,39.6295093123524,217.437999832239,69.0894906037672,-197.623245176063,128.533754572296
0.232018561484919,-179.373429525335,38.1043714314349,217.47780095677,70.6345290469501,-198.425615241053,127.791086194102
0.237174529517917,-177.403684584281,35.0304721060526,212.434156690334,71.1866062391144,-194.918920637308,123.732314398193
0.242330497550915,-170.086578839523,36.9141391015924,207.000717941116,66.5862198689655,-188.54364839032,121.957428521354
0.247486465583913,-157.361348642716,46.5698781411317,203.931226783847,55.395735250792,-180.646287713282,125.25055246249
0.252642433616912,-142.570883888415,58.9873038375013,201.558187725916,41.7917900254566,-172.064535807165,130.272745781709
0.25779840164991,-130.511324378563,67.5971447833753,198.108469161939,31.457089797594,-164.309896770251,132.852806972657
0.262954369682908,-123.046482122676,71.3720834482889,194.418565570965,25.8371993371937,-158.732523846821,132.895324509627
0.268110337715906,-117.675787306883,73.0049198323743,190.680707139257,22.3354337372543,-154.17824722307,131.842813485816
0.273266305748904,-111.237154915582,73.5924739360527,184.829628851634,18.8223404897645,-148.033391883608,129.211051393844
0.278422273781903,-104.393784492537,72.5723370865997,176.966121579137,15.9107237029686,-140.679953035837,124.769229332868
0.283578241814901,-101.26477703341,70.3732565607466,171.638033594157,15.4457602363318,-136.451405313783,121.005645077452
0.288734209847899,-103.990959883523,68.3464511693709,172.337411052894,17.822254357076,-138.164185468208,120.341931111132
0.293890177880897,-108.489543902446,67.6000009875618,176.089544890008,20.4447714574422,-142.289544396227,121.844772938785
0.299046145913895,-107.223524354411,69.5878856926773,176.811410047088,18.8178193308667,-142.017467200749,123.199647869883
0.304202113946894,-96.314259490893,76.6920833776923,173.006342868585,9.81108805660035,-134.660301179739,124.849213123139
0.309358081979892,-78.6841384168769,89.9653302284266,168.649468645303,-5.64059590577487,-123.66680353109,129.307399436865
0.31451405001289,-60.5011218899684,105.406722343821,165.90784423379,-22.4528002269264,-113.204483061879,135.657283288805
0.319670018045888,-46.4537990320877,114.470878888697,160.924677920785,-34.0085399283048,-103.689238476436,137.697778404741
0.324825986078886,-38.6446336441223,111.013262948766,149.657896592889,-36.184314652322,-94.1512651185054,130.335579770827
0.329981954111885,-37.5906489403978,97.3324672250414,134.923116165439,-29.8709091423218,-86.2568825529186,116.12779169524
0.335137922144883,-42.1971819515138,81.7548948736591,123.952076825173,-19.7788564610726,-83.0746293883434,102.853485849416
0.340293890177881,-49.0220208968181,71.6241658207684,120.646186717587,-11.3010724619752,-84.8341038072023,96.1351762691775
0.345449858210879,-52.9528396826206,70.2184407460818,123.171280428702,-8.63280053173058,-88.0620600556615,96.694860587392
0.350605826243877,-49.6745880683847,78.0062020397884,127.680790108173,-14.1658069857018,-88.677689088279,102.843496073981
0.355761794276875,-38.3427501995508,93.0837576916438,131.426507891195,-27.3705037460465,-84.8846290453727,112.255132791419
0.360917762309874,-22.5017538314051,110.094848360065,132.59660219147,-43.7965472643299,-77.5491780114376,121.345725275767
0.366073730342872,-8.13457152212447,121.477708757032,129.612280279156,-56.6715686174535,-68.8734259006402,125.544994518094
0.37122969837587,0.0910903594954226,121.953285152139,121.862194792643,-61.022187755817,-60.8855522165738,121.907739972391
0.376385666408868,1.28557485330451,112.410433346503,111.124858493199,-56.848004099904,-54.9196418199472,111.767645919851
0.381541634441867,-2.10792104337918,99.9431075830061,102.051028626385,-48.9175932698135,-52.0794748348822,100.997068104696
0.386697602474865,-5.79055527276492,93.9946939314945,99.7852492042594,-44.1020693293648,-52.7879022385122,96.8899715678769
0.391853570507863,-4.69096935479465,100.235429794448,104.926399149243,-47.7722302198267,-54.8086842520187,102.580914471845
0.397009538540861,4.72833903366441,116.216218500913,111.487879467249,-60.4722787672889,-53.3797702167923,113.852048984081
0.402165506573859,21.2655639917289,133.898790062249,112.63322607052,-77.5821770269891,-45.6838310393958,123.266008066385
0.407321474606857,39.492155891846,147.695436814157,108.203280922311,-93.5937963530014,-34.3555625152324,127.949358868234
0.412477442639856,55.2175203302534,159.097733992824,103.880213662571,-107.157627161539,-24.3313466661588,131.488973827698
0.417633410672854,69.29956707764,172.521956749785,103.222389672145,-120.910761913712,-16.9614112972524,137.872173210965
0.422789378705852,84.1877249044596,187.575396115778,103.387671211318,-135.881560510119,-9.59997315342927,145.481533663548
0.42794534673885,97.6129806026139,196.725222823672,99.1122422210577,-147.169101713143,-0.749630809221912,147.918732522365
0.433101314771848,102.562966481273,191.414251840715,88.8512853594423,-146.988609160994,6.85584056091515,140.132768600079
0.438257282804847,94.7246156431278,170.907054719609,76.1824390764816,-132.815835181369,9.27108828332311,123.544746898045
0.443413250837845,78.3917526080059,144.500864234515,66.1091116265089,-111.44630842126,6.1413204907485,105.304987930512
0.448569218870843,63.5521050558683,124.673923386291,61.1218183304223,-94.1130142210795,1.21514336272303,92.8978708583564
0.453725186903841,58.2234895869257,119.264780276753,61.0412906898272,-88.7441349318393,-1.40890055145078,90.1530354832901
0.458881154936839,64.9024555632408,129.746473764566,64.844018201325,-97.3244646639033,0.0292186809579391,97.2952459829454
0.464037122969838,82.300064652717,152.91049757775,70.6104329250335,-117.605281115234,5.84481586384179,111.760465251392
0.469193091002836,106.856931553631,181.803273562765,74.9463420091346,-144.330102558198,15.955294772248,128.37480778595
0.474349059035834,132.567542081682,207.595625868444,75.0280837867619,-170.081583975063,28.7697291474602,141.311854827603
0.479505027068832,152.647667666455,223.585259356175,70.9375916897198,-188.116463511315,40.8550379883676,147.261425522947
0.48466099510183,163.285792935051,227.882916276359,64.5971233413076,-195.584354605705,49.3443347968717,146.240019808833
0.489816963134829,165.311653755231,222.451780180879,57.1401264256483,-193.881716968055,54.0857636647912,139.795953303264
0.494972931167827,162.029871310781,210.53843819374,48.5085668829593,-186.284154752261,56.7606522139109,129.52350253835
0.500128899200825,156.232841260846,195.247875642898,39.0150343820518,-175.740358451872,58.6089034393973,117.131455012475
0.505284867233823,149.338602400596,179.7097376985,30.3711352979034,-164.524170049548,59.4837335513464,105.040436498202
0.510440835266821,141.937144305309,167.287659449487,25.3505151441785,-154.612401877398,58.2933145805652,96.3190872968329
0.51559680329982,134.104267940099,160.098587228833,25.9943192887341,-147.101427584466,54.0549743256826,93.0464532587838
0.520752771332818,125.996363343285,156.660636261696,30.6642729184114,-141.32849980249,47.6660452124367,93.6624545900538
0.525908739365816,118.78721273719,152.226970333812,33.4397575966216,-135.507091535501,42.6737275702843,92.8333639652167
0.531064707398814,113.772211120948,142.941656910384,29.1694457894352,-128.356934015666,42.3013826657566,86.0555513499095
0.536220675431812,109.934175892547,129.53685259119,19.6026766986435,-119.735514241869,45.1657495969516,74.5697646449169
0.541376643464811,104.375757332901,116.419180644145,12.043423311244,-110.397468988523,46.1661670108286,64.2313019776945
0.546532611497809,96.5647963976789,107.590116502232,11.0253201045531,-102.077456449955,42.7697381465629,59.3077183033925
0.551688579530807,90.1570609908955,103.823701039229,13.6666400483337,-96.9903810150623,38.2452104712809,58.7451705437814
0.556844547563805,88.4608412150156,103.187074270615,14.7262330555997,-95.8239577428155,36.867304079708,58.9566536631075
0.562000515596803,89.6702133424137,103.078821970919,13.4086086285053,-96.3745176566663,38.1308023569542,58.2437152997121
0.567156483629802,89.0652396735914,101.057265664319,11.9920259907271,-95.061252668955,38.5366068414321,56.5246458275228
0.5723124516628,84.7306276300259,94.9514815875998,10.2208539575738,-89.8410546088128,37.254886836226,52.5861677725868
0.577468419695798,78.50667981414,84.3230079307636,5.81632811662359,-81.4148438724518,36.3451758487582,45.0696680236936
0.582624387728796,72.0250485790233,71.6164069839107,-0.408641595112584,-71.820727781467,36.216845087068,35.6038826943991
0.587780355761794,64.4413012651722,59.8060605428609,-4.6352407223113,-62.1236809040166,34.5382709937418,27.5854099102748
0.592936323794793,54.4120439660213,48.8963152428576,-5.51572872316367,-51.6541796044394,29.9638863445925,21.690293259847
0.598092291827791,42.4430499134309,36.5232585640138,-5.91979134941707,-39.4831542387224,24.181420631424,15.3017336072984
0.603248259860789,30.077878200577,21.4421958737252,-8.63568232685181,-25.7600370371511,19.3567802637144,6.40325677343668
0.608404227893787,17.3403110350634,4.21329935859535,-13.127011676468,-10.7768051968294,15.2336613557657,-4.45685615893634
0.613560195926785,2.42705834489011,-14.6554228381237,-17.0824811830138,6.11418224661681,9.75476976395198,-15.8689520105688
0.618716163959783,-15.2769908231856,-34.332742761738,-19.0557519385524,24.8048667924618,1.88938055768338,-26.6942473501452
0.623872131992782,-32.6690998087029,-51.7379782990573,-19.0688784903544,42.2035390538801,-6.80011065917423,-35.4034283947059
0.62902810002578,-44.7061401145795,-62.6071456994908,-17.9010055849113,53.6566429070352,-13.4025672648341,-40.254075642201
0.634184068058778,-48.6669116193441,-64.9162142544759,-16.2493026351317,56.79156293691,-16.2088044921062,-40.5827584448038
0.639340036091776,-45.8299903721985,-60.3129062293444,-14.4829158571459,53.0714483007714,-15.6735372575263,-37.3979110432452
0.644496004124774,-39.4444861051089,-52.8969359389192,-13.4524498338104,46.170711022014,-12.9960181356492,-33.1746928863648
0.649651972157773,-32.4256052161573,-47.3577462502796,-14.9321410341223,39.8916757332185,-8.74673209101748,-31.144943642201
0.654807940190771,-26.9710526805159,-46.8751982467683,-19.9041455662524,36.9231254636421,-3.53345355713175,-33.3896719065104
0.659963908223769,-24.9448365002363,-51.3144397132656,-26.3696032130293,38.129638106751,0.712383356396526,-38.8420214631475
0.665119876256767,-27.3750264613053,-57.4905033076266,-30.1154768463213,42.4327648844659,1.37022519250803,-43.802990076974
0.670275844289765,-33.0903431510938,-61.5970504217488,-28.506707270655,47.3436967864213,-2.29181794021941,-45.0518788462019
0.675431812322764,-38.591734391502,-62.2832729404437,-23.6915385489417,50.4375036659728,-7.45009792128013,-42.9874057446927
0.680587780355762,-41.1874022202542,-62.643329839553,-21.4559276192988,51.9153660299036,-9.86573730047768,-42.0496287294259
0.68574374838876,-42.7910135093152,-68.3466465633606,-25.5556330540453,55.5688300363379,-8.61769022763497,-46.9511398087029
0.690899716421758,-48.4160646377072,-81.3418551079151,-32.925790470208,64.8789598728112,-7.7451370837496,-57.1338227890615
0.696055684454756,-59.3672213123806,-95.248155460337,-35.8809341479564,77.3076883863588,-11.7431435822121,-65.5645448041467
0.701211652487755,-69.5251377566344,-99.3428825419755,-29.8177447853411,84.4340101493049,-19.8536964856466,-64.5803136636583
0.706367620520753,-70.2855969156578,-88.652485993314,-18.3668890776562,79.4690414544859,-25.9593539190008,-53.5096875354851
0.711523588553751,-59.0930846851268,-69.9394087197559,-10.8463240346291,64.5162467024413,-24.1233803252488,-40.3928663771925
0.716679556586749,-42.7111157726104,-57.1609150679822,-14.4497992953718,49.9360154202963,-14.1306582386193,-35.805357181677
0.721835524619747,-32.0616657646537,-60.0200506590228,-27.9583848943691,46.0408582118383,-2.05164043514232,-43.989217776696
0.726991492652746,-32.9516674430864,-75.5496628362991,-42.5979953932127,54.2506651396927,4.8231639750632,-59.0738291147559
0.732147460685744,-41.1010168858752,-90.8313049699216,-49.7302880840464,65.9661609278984,4.31463559908558,-70.280796526984
0.737303428718742,-47.0229512321105,-95.2120112476122,-48.1890600155016,71.1174812398613,0.583054391695555,-71.7005356315569
0.74245939675174,-46.1416088167065,-89.826264210923,-43.6846553942166,67.9839365138148,-1.22847671124496,-66.7554598025698
0.747615364784738,-42.6265172668426,-84.1010166349096,-41.4744993680671,63.3637669508761,-0.576008949387735,-62.7877580014884
0.752771332817737,-42.7313511401605,-84.1444073586158,-41.4130562184553,63.4378792493882,-0.659147460852637,-62.7787317885355
0.757927300850735,-46.8522858089328,-87.143311755723,-40.2910259467901,66.9977987823279,-3.28062993107137,-63.7171688512565
0.763083268883733,-50.182388022081,-86.8066198374082,-36.6242318153272,68.4945039297446,-6.77907810337689,-61.7154258263677
0.768239236916731,-49.1607888539645,-81.2578488691923,-32.0970600152278,65.2093188615784,-8.53186441936838,-56.67745444221
0.773395204949729,-44.3261576373429,-74.0474169224393,-29.7212592850964,59.1867872798911,-7.30244917612325,-51.8843381037678
0.778551172982728,-37.826315036216,-69.0067115274475,-31.1803964912316,53.4165132818318,-3.3229592724922,-50.0935540093396
0.783707141015726,-31.3097080598177,-66.4758816064354,-35.1661735466178,48.8927948331265,1.92823274340006,-50.8210275765266
0.788863109048724,-26.4716801176779,-64.6781096994875,-38.2064295818097,45.5748949085827,5.86737473206591,-51.4422696406486
0.794019077081722,-24.8981289422984,-62.6658105008657,-37.7676815585673,43.7819697215821,6.43477630813445,-50.2167460297165
0.79917504511472,-26.0919526265891,-60.9865758399778,-34.8946232133887,43.5392642332834,4.40133529339983,-47.9405995266833
0.804331013147718,-27.3586718265071,-61.1011645020851,-33.742492675578,44.2299181642961,3.19191042453545,-47.4218285888315
0.809486981180717,-27.1207468203819,-65.2009734301118,-38.0802266097298,46.1608601252468,5.47973989467395,-51.6406000199208
0.814642949213715,-27.3586486417827,-74.8842382106976,-47.525589568915,51.1214434262402,10.0834704635661,-61.2049138898063
0.819798917246713,-31.2207814402404,-88.0965020149187,-56.8757205746783,59.6586417275796,12.8274695672189,-72.4861112947985
0.824954885279711,-38.4830929179825,-98.5738477552113,-60.0907548372288,68.5284703365969,10.8038309596231,-79.3323012962201
0.83011085331271,-44.7348032584278,-101.164401039804,-56.4295977813765,72.9496021491161,5.84739726147433,-78.7969994105904
0.835266821345708,-45.5788339353812,-97.4427125571436,-51.8638786217624,71.5107732462624,3.14252234319058,-74.653295589453
0.840422789378706,-41.0599786595351,-93.001903278859,-51.9419246193239,67.0309409691971,5.44097297989438,-72.4719139490915
0.845578757411704,-35.07339762661,-89.5265949159578,-54.4531972893479,62.2999962712839,9.68989983136895,-71.9898961026529
0.850734725444702,-30.3397970283553,-83.7721848596127,-53.4323878312574,57.055990943984,11.546295401451,-68.602286345435
0.855890693477701,-25.5939674293129,-75.1188561354689,-49.524888706156,50.3564117823909,11.9654606384215,-62.3218724208125
0.861046661510699,-19.1893421387759,-69.3154971414804,-50.1261550027045,44.2524196401282,15.4684064319643,-59.7208260720924
0.866202629543697,-13.7524444934287,-71.5105532826985,-57.7581087892698,42.6314988880636,22.0028321479205,-64.6343310359842
0.871358597576695,-14.0587772844195,-78.5263935294249,-64.4676162450054,46.2925854069222,25.204419480293,-71.4970048872152
0.876514565609693,-20.1250916139456,-82.1702705361947,-62.045178922249,51.1476810750702,20.9600436541517,-72.1077247292219
0.881670533642691,-25.2031096150671,-78.7457610778795,-53.5426514628124,51.9744353464733,14.1697709238727,-66.144206270346
0.88682650167569,-22.3668922168678,-71.1740322845007,-48.8071400676329,46.7704622506842,13.2201239253825,-59.9905861760668
0.891982469708688,-12.1108877174313,-63.0292982445546,-50.9184105271233,37.570092980993,19.403761404846,-56.973854385839
0.897138437741686,-1.7688059401512,-55.3097728808375,-53.5409669406863,28.5392894104943,25.8860805002675,-54.4253699107619
0.902294405774684,2.55037701048991,-48.7765360402605,-51.3269130507504,23.1130795148853,26.9386450306201,-50.0517245455054
0.907450373807682,1.89515413819312,-44.9144057739138,-46.809559912107,21.5096258178604,24.35235702515,-45.8619828430104
0.912606341840681,1.83615096490364,-43.559711329219,-45.3958622941226,20.8617801821577,23.6160066295131,-44.4777868116708
0.917762309873679,5.61356465011429,-42.4829500749656,-48.0965147250799,18.4346927124257,26.8550396875971,-45.2897324000227
0.922918277906677,11.3839345134514,-40.4992601406111,-51.8831946540625,14.5576628135798,31.6335645837569,-46.1912273973368
0.928074245939675,15.1083053890656,-39.3308775619501,-54.4391829510157,12.1112860864422,34.7737441700407,-46.8850302564829
0.933230213972673,14.3061003576678,-41.4700493143436,-55.7761496720113,13.5819744783379,35.0411250148396,-48.6230994931775
0.938386182005672,9.35448072356786,-47.3505541338782,-56.7050348574461,18.9980367051552,33.029757790507,-52.0277944956622
0.94354215003867,2.53764203961047,-55.6451914099588,-58.1828334495693,26.5537746851742,30.3602377445899,-56.9140124297641
0.948698118071668,-4.08107884311797,-65.2589605142173,-61.1778816710993,34.6700196786676,28.5484014139907,-63.2184210926583
0.953854086104666,-9.98323515589609,-74.7905985951429,-64.8073634392468,42.3869168755195,27.4120641416753,-69.7989810171948
0.959010054137664,-14.5357192228672,-79.890224558573,-65.3545053357059,47.2129718907201,25.4093930564193,-72.6223649471394
0.964166022170663,-14.3292004923215,-73.9824293077568,-59.6532288154353,44.1558149000391,22.6620141615569,-66.8178290615961
0.969321990203661,-4.56733237807618,-53.9612845409147,-49.3939521628385,29.2643084594954,22.4133098923812,-51.6776183518766
0.974477958236659,15.6069637156243,-24.7581841391367,-40.365147854761,4.57561021175623,27.9860557851926,-32.5616659969488
0.979633926269657,40.413115712114,3.03710241218082,-37.3760132999332,-21.7251090621474,38.8945645060236,-17.1694554438762
0.984789894302655,61.0158628414503,20.398949149785,-40.6169136916653,-40.7074059956176,50.8163882665578,-10.1089822709401
0.989945862335654,71.2814752424892,24.9039446846873,-46.3775305578019,-48.0927099635883,58.8295029001455,-10.7367929365573
0.995101830368652,70.377446115679,19.9424951323224,-50.4349509833566,-45.1599706240007,60.4061985495178,-15.2462279255171
1.00025779840165,61.8378289545868,10.5853737891765,-51.2524551654103,-36.2116013718817,56.5451420599986,-20.3335406881169
1.00541376643465,51.3550759841965,0.421509434970231,-50.9335665492263,-25.8882927095834,51.1443212667114,-25.256028557128
1.01056973446765,44.1975012458149,-8.74857267372773,-52.9460739195427,-17.7244642860436,48.5717875826788,-30.8473232966352
1.01572570250064,42.4279641840438,-15.7525057508799,-58.1804699349238,-13.3377292165819,50.3042170594838,-36.9664878429018
1.02088167053364,43.4740115406763,-20.0440075485449,-63.5180190892212,-11.7150019960657,53.4960153149487,-41.781013318883
1.02603763856664,42.2614829436172,-22.8277999619781,-65.0892829055953,-9.71684149081951,53.6753829246062,-43.9585414337867
1.03119360659964,36.3078342346174,-26.3639534265332,-62.6717876611506,-4.97194040404208,49.489810947884,-44.5178705438419
1.03634957463264,28.7921148246474,-31.0464886562035,-59.8386034808509,1.12718691577806,44.3153591527492,-45.4425460685272
1.04150554266564,25.4110326459432,-34.3779693340105,-59.7890019799537,4.48346834403368,42.6000173129484,-47.0834856569821
1.04666151069863,27.880285676111,-34.3494339455024,-62.2297196216134,3.23457413469571,45.0550026488622,-48.2895767835579
1.05181747873163,31.3218236500791,-33.3668518240407,-64.6886754741199,1.02251408698081,48.0052495620995,-49.0277636490803
1.05697344676463,28.6683854433455,-36.9472401552544,-65.6156255985999,4.13942735595441,47.1420055209727,-51.2814328769271
1.06212941479763,17.7532554212526,-47.5154566315057,-65.2687120527583,14.8811006051265,41.5109837370054,-56.392084342132
1.06728538283063,3.96173653805947,-60.4794768397996,-64.441213377859,28.25887015087,34.2014749579593,-62.4603451088293
1.07244135086362,-4.44254338908135,-68.2016333231606,-63.7590899340793,36.322088356121,29.658273272499,-65.98036162862
1.07759731889662,-4.22965746841101,-68.2248628798547,-63.9952054114437,36.2272601741329,29.8827739715164,-66.1100341456492
1.08275328692962,-0.669779289895126,-66.0962928460071,-65.426513556112,33.3830360679511,32.3783671331084,-65.7614032010596
1.08790925496262,-2.32678290902642,-69.0543675019074,-66.7275845928809,35.6905752054669,32.2004008419273,-67.8909760473941
1.09306522299562,-12.3260957388613,-78.4038051175229,-66.0777093786616,45.3649504281921,26.8758068199001,-72.2407572480922
1.09822119102862,-26.4130343054612,-90.0499273500933,-63.6368930446321,58.2314808277773,18.6119293695854,-76.8434101973627
1.10337715906161,-39.5540815513445,-101.204261114949,-61.6501795636043,70.3791713331466,11.0480490061299,-81.4272203392766
1.10853312709461,-51.2127337755156,-112.78141520726,-61.568681431744,81.9970744913876,5.1779738281142,-87.1750483195018
1.11368909512761,-62.8028560044605,-124.699550929802,-61.8966949253412,93.7512034671311,-0.453080539559615,-93.2981229275715
1.11884506316061,-73.148386024821,-133.269864401948,-60.1214783771269,103.209125213384,-6.51345382384702,-96.6956713895374
1.12400103119361,-79.1388225527321,-135.8013450912,-56.6625225384681,107.470083821966,-11.238150007132,-96.2319338148341
1.1291569992266,-79.3556261818708,-134.298714191309,-54.9430880094384,106.82717018659,-12.2062690862162,-94.6209011003738
1.1343129672596,-75.0328241190791,-131.551550614914,-56.5187264958346,103.292187366996,-9.25704881162227,-94.0351385553741
1.1394689352926,-68.6803910919159,-126.736074608357,-58.0556835164411,97.7082328501364,-5.31235378773743,-92.395879062399
1.1446249033256,-63.4751384372193,-118.92350378926,-55.4483653520402,91.1993211132394,-4.01338654258955,-87.1859345706499
1.1497808713586,-62.6295554242949,-112.684676088156,-50.0551206638609,87.6571157562253,-6.28721738021702,-81.3698983760083
1.1549368393916,-67.1299019744619,-114.794437776596,-47.6645358021336,90.9621698755287,-9.73268308616415,-81.2294867893646
1.16009280742459,-74.1349688041822,-124.70586129596,-50.5708924917778,99.4204150500711,-11.7820381562022,-87.6383768938689
1.16524877545759,-78.6606532631989,-132.46436779996,-53.8037145367614,105.56251053158,-12.4284693632187,-93.1340411683609
1.17040474349059,-77.1565643282814,-128.535035518282,-51.3784711900003,102.845799923282,-12.8890465691406,-89.956753354141
1.17556071152359,-69.7539411759468,-114.166590716464,-44.4126495405169,91.9602659462053,-12.6706458177149,-79.2896201284903
1.18071667955659,-60.0912893893351,-100.395001982179,-40.3037125928439,80.243145685757,-9.8937883982456,-70.3493572875114
1.18587264758959,-53.6645881912992,-97.7190879767184,-44.0544997854192,75.6918380840088,-4.80504420293997,-70.8867938810688
1.19102861562258,-55.1541468693317,-108.021777403433,-52.8676305341012,81.5879621363823,-1.14325816761521,-80.4447039687671
1.19618458365558,-65.1608199877708,-125.229702207948,-60.0688822201772,95.1952610978594,-2.54596888379676,-92.6492922140626
1.20134055168858,-79.1371128825784,-141.027417303578,-61.8903044209992,110.082265093078,-8.62340423078959,-101.458860862288
1.20649651972158,-90.9142907129968,-149.859327413288,-58.9450367002913,120.386809063142,-15.9846270063527,-104.40218205679
1.21165248775458,-97.7757425405824,-151.580167444962,-53.8044249043794,124.677954992772,-21.9856588181015,-102.692296174671
1.21680845578757,-101.475390095406,-151.101221041352,-49.625830945946,126.288305568379,-25.9247795747299,-100.363525993649
1.22196442382057,-104.896493673518,-153.962042257892,-49.0655485843741,129.429267965705,-27.9154725445718,-101.513795421133
1.22712039185357,-109.248172544639,-161.160752004197,-51.9125794595574,135.204462274418,-28.667796542541,-106.536665731877
1.23227635988657,-114.516397250258,-169.417777966079,-54.9013807158209,141.967087608168,-29.8075082672184,-112.15957934095
1.23743232791957,-121.126106669958,-176.439673341782,-55.3135666718241,148.78289000587,-32.9062699990667,-115.876620006803
1.24258829595257,-130.114075459871,-183.558746979303,-53.4446715194313,156.836411219587,-38.3347019702201,-118.501709249367
1.24774426398556,-141.536443606845,-192.303822567073,-50.7673789602282,166.920133086959,-45.3845323233084,-121.535600763651
1.25290023201856,-153.042122213606,-200.753241096115,-47.7111188825083,176.89768165486,-52.6655016655489,-124.232179989311
1.25805620005156,-160.762570694954,-204.945026990303,-44.1824562953494,182.853798842629,-58.2900571998023,-124.563741642826
1.26321216808456,-161.555491777946,-201.504474804282,-39.9489830263357,181.529983291114,-60.8032543758053,-120.726728915309
1.26836813611756,-152.73837828871,-186.251200287472,-33.5128219987613,169.494789288091,-59.6127781449746,-109.882011143117
1.27352410415055,-129.203244790092,-152.058415844483,-22.8551710543907,140.630830317288,-53.1740368678507,-87.4567934494368
1.27868007218355,-83.7899450160978,-91.6462059779386,-7.85626096184083,87.7180754970182,-37.9668420271285,-49.7512334698897
1.28383604021655,-13.0902705283587,-3.17786965095718,9.91240087740156,8.13407008965795,-11.5013357028801,3.36726561322219
1.28899200824955,78.7600096233885,108.09123338073,29.3312237573412,-93.4256215020591,24.7143929330236,68.7112285690355
1.29414797628255,184.190101343298,233.785019573392,49.5949182300942,-208.987560458345,67.2975915566017,141.689968901743
1.29930394431555,298.021285155938,366.462515835979,68.441230680041,-332.241900495959,114.790027237949,217.45187325801
1.30445991234854,415.947882913006,498.000337851106,82.0524549381003,-456.974110382056,166.947713987453,290.026396394603
1.30961588038154,527.634895234337,613.735078219628,86.1001829852917,-570.684986726983,220.767356124523,349.91763060246
1.31477184841454,614.112258144868,690.116802201451,76.0045440565832,-652.11453017316,269.053857044142,383.060673129017
1.31992781644754,653.982251273022,702.139415548395,48.1571642753735,-678.060833410708,302.912543498824,375.148289911884
1.32508378448054,634.222297103637,638.392981778896,4.17068467525939,-636.307639441266,315.025806214189,321.281833227078
1.33023975251353,558.192023488709,512.358036136622,-45.8339873520866,-535.275029812666,302.013005420398,233.262024392268
1.33539572054653,445.192646281221,357.924034458828,-87.2686118223931,-401.558340370025,266.230629051807,135.327711318217
1.34055168857953,320.921518035846,210.248281850271,-110.673236185575,-265.584899943059,215.797377110711,49.787522832348
1.34570765661253,205.271510912503,88.4520519025772,-116.819459009926,-146.86178140754,161.045484961215,-14.1837035536743
1.35086362464553,107.001949084949,-5.10124933106472,-112.103198416014,-50.9503498769424,109.552573750482,-58.6022238735395
1.35601959267853,28.427166853456,-72.7896655521347,-101.216832405591,22.1812493493394,64.8219996295233,-87.0032489788627
1.36117556071152,-27.1784607493627,-113.251162814424,-86.072702065061,70.2148117818932,29.4471206578491,-99.6619324397423
1.36633152874452,-54.9910280221521,-124.321857922862,-69.3308299007103,89.6564429725072,7.16990093927909,-96.8263439117863
1.37148749677752,-54.9894715809562,-109.597153384456,-54.6076818035001,82.2933124827062,-0.19089488872806,-82.1024175939782
1.37664346481052,-35.8812941357501,-78.6647961347485,-42.7835019989984,57.2730451352493,3.45110393162417,-60.7241490668734
1.38179943284352,-10.1611039364537,-41.6607676970698,-31.4996637606161,25.9109358167617,10.6692799120812,-36.5802157288429
1.38695540087651,14.1473119558023,-5.58788971887417,-19.7352016746765,-4.27971111846408,16.9412568152394,-12.6615456967753
1.39211136890951,34.986507577056,24.3763917600469,-10.6101158170091,-29.6814496685514,22.7983116970326,6.88313797151886
1.39726733694251,50.7999951157532,42.7657838019339,-8.03421131381933,-46.7828894588435,29.4171032147863,17.3657862440573
1.40242330497551,57.4212380103859,45.6931510900142,-11.7280869203717,-51.5571945502001,34.5746624653788,16.9825320848212
1.40757927300851,51.7183093659282,34.5984391464242,-17.119870219504,-43.1583742561762,34.4190897927161,8.73928446346012
1.41273524104151,35.9552344251562,15.6620290383259,-20.2932053868303,-25.808631731741,28.1242199059933,-2.31558817425221
1.4178912090745,16.4739454321922,-5.26096674932387,-21.7349121815161,-5.60648934143416,19.1044288068541,-13.49793946542
1.4230471771075,-1.44499564080882,-25.4249549722783,-23.9799593314694,13.4349753065435,11.2674818453303,-24.7024571518739
1.4282031451405,-16.2053460612189,-43.1236161580124,-26.9182700967935,29.6644811096156,5.35646201778731,-35.020943127403
1.4333591131735,-27.9523624192948,-56.0826504808949,-28.1302880616001,42.0175064500948,0.0889628211526521,-42.1064692712475
1.4385150812065,-36.2602746645307,-63.4085300853961,-27.1482554208654,49.8344023749634,-4.55600962183269,-45.2783927531307
1.44367104923949,-40.9185457146621,-66.8962187771849,-25.9776730625228,53.9073822459235,-7.47043632606964,-46.4369459198539
1.44882701727249,-43.2412487145832,-68.6550057691454,-25.4137570545621,55.9481272418643,-8.91374583001055,-47.0343814118537
1.45398298530549,-44.5540716361457,-68.719437678806,-24.1653660426604,56.6367546574758,-10.1943527967427,-46.4424018607332
1.45913895333849,-44.4765681809852,-66.3949532608126,-21.9183850798274,55.4357607208989,-11.2790915505789,-44.15666917032
1.46429492137149,-42.7908448853757,-63.0056867645503,-20.2148418791746,52.898265824963,-11.2880015031005,-41.6102643218624
1.46945088940449,-41.9309097289099,-61.6388582169997,-19.7079484880898,51.7848839729548,-11.11148062041,-40.6734033525448
1.47460685743748,-44.9781633957332,-63.9342012639379,-18.9560378682047,54.4561823298356,-13.0110627637643,-41.4451195660713
1.47976282547048,-51.4055698166224,-67.9834600525972,-16.5778902359748,59.6945149346098,-17.4138397903238,-42.280675144286
1.48491879350348,-56.975693224862,-70.0188827493418,-13.0431895244797,63.4972879871019,-21.9662518501911,-41.5310361369108
1.49007476153648,-58.0869347880453,-68.1278785798793,-10.040943791834,63.1074066839623,-24.0229954981057,-39.0844111858566
1.49523072956948,-54.871987311371,-63.8887041207474,-9.01671680937645,59.3803457160592,-22.9276352509973,-36.4527104650619
1.50038669760247,-49.8365494824561,-60.0088858024668,-10.1723363200107,54.9227176424615,-19.8321065812227,-35.0906110612388
1.50554266563547,-44.4938650970649,-56.5925426290057,-12.0986775319408,50.5432038630353,-16.1975937825621,-34.3456100804732
1.51069863366847,-38.1602025730549,-50.6861533388471,-12.5259507657922,44.423177955951,-12.8171259036314,-31.6060520523196
1.51585460170147,-29.9975582081306,-40.1777721799921,-10.1802139718615,35.0876651940614,-9.90867211813455,-25.1789930759268
1.52101056973447,-21.186366870507,-27.2958778500816,-6.10951097957462,24.2411223602943,-7.53842794546618,-16.7026944148281
1.52616653776747,-14.1414884912215,-17.0278879404202,-2.8863994491986,15.5846882158208,-5.62754452101147,-9.95714369480938
1.53132250580046,-10.1299030845328,-12.7560442387381,-2.62614115420532,11.4429736616354,-3.75188096516372,-7.6910926964717
1.53647847383346,-8.77827662558643,-14.6021401912185,-5.8238635656321,11.6902084084025,-1.47720652997716,-10.2130018784253
1.54163444186646,-9.74366989008989,-20.8233350498002,-11.0796651597103,15.2835024699451,0.667997634810227,-15.9515001047553
1.54679040989946,-13.531903681826,-29.1019966283407,-15.5700929465148,21.3169501550833,1.01909463234441,-22.3360447874277
1.55194637793246,-20.0298449840675,-37.1136733834411,-17.0838283993737,28.5717591837543,-1.47300829234691,-27.0987508914074
1.55710234596546,-27.1091759183552,-42.9999389481997,-15.8907630298445,35.0545574332775,-5.60920644425537,-29.4453509890221
1.56225831399845,-31.5762017098971,-45.2975646951908,-13.7213629852937,38.436883202544,-8.92741936230174,-29.5094638402422
1.56741428203145,-31.3008736525967,-42.9730321540951,-11.6721585014984,37.1369529033459,-9.81435757554914,-27.3225953277967
1.57257025006445,-26.4392487004031,-36.6496057303249,-10.2103570299218,31.544427215364,-8.11444583524064,-23.4299813801233
1.57772621809745,-19.4736815283213,-29.339836647087,-9.86615511876567,24.4067590877042,-4.80376320477783,-19.6029958829263
1.58288218613045,-14.0438614853043,-24.4581764169214,-10.4143149316171,19.2510189511128,-1.81477327684358,-17.4362456742692
1.58803815416344,-12.4085707763538,-22.801300074609,-10.3927292982552,17.6049354254814,-1.00792073904932,-16.5970146864321
1.59319412219644,-13.7214318394291,-22.3036049207409,-8.5821730813118,18.012518380085,-2.56962937905865,-15.4428890010263
1.59835009022944,-15.7588577020741,-21.1521722161264,-5.39331451405231,18.4555149591002,-5.18277159401089,-13.2727433650894
1.60350605826244,-18.0772249490212,-20.6893003586556,-2.61207540963439,19.3832626538384,-7.73257476969341,-11.650687884145
1.60866202629544,-22.0983481464789,-24.4427718984821,-2.34442375200314,23.2705600224805,-9.8769621972379,-13.3935978252426
1.61381799432844,-28.4559696523709,-33.811163589357,-5.3551939369861,31.133566620864,-11.5503878576924,-19.5831787631716
1.61897396236143,-36.0107566630567,-45.3406315776046,-9.32987491454792,40.6756941203306,-13.3404408742544,-27.3352532460763
1.62412993039443,-43.1762643639511,-53.2455859742789,-10.0693216103278,48.210925169115,-16.5534713768116,-31.6574537923034
1.62928589842743,-47.850513479943,-53.7601374203427,-5.90962394039964,50.8053254501429,-20.9704447697717,-29.8348806803712
1.63444186646043,-46.0016862541536,-45.5911380362782,0.410548217875395,45.7964121452159,-23.2061172360145,-22.5902949092014
1.63959783449343,-33.9349401051134,-28.4124669528439,5.5224731522695,31.1737035289786,-19.7287066286914,-11.4449969002872
1.64475380252642,-14.2057556853006,-5.15255630825505,9.05319937704551,9.67915599677781,-11.629477531173,1.95032153439523
1.64990977055942,3.24663334007129,15.2912055253722,12.0445721853009,-9.26891943272176,-4.39896942261483,13.6678888553366
1.65506573859242,9.23855013476783,23.2107253295172,13.9721751947494,-16.2246377321425,-2.36681252999077,18.5914502621333
1.66022170662542,4.31928066340005,17.630720904775,13.311440241375,-10.9750007840875,-4.49607978898746,15.471080573075
1.66537767465842,-2.3993169235237,7.60709061752035,10.0064075410441,-2.60388684699833,-6.20286223228388,8.8067490792822
1.67053364269142,-2.8236112608643,3.27756223389606,6.10117349476036,-0.226975486515882,-4.46239237781233,4.68936786432821
1.67568961072441,3.6976954408052,7.81259590625199,4.11490046544679,-5.7551456735286,-0.20860251232079,5.96374818584939
1.68084557875741,12.3918397082123,17.2493211481843,4.857481439972,-14.8205804281983,3.76717913412015,11.0534012940781
1.68600154679041,18.3366203756103,24.8669889136255,6.53036853801522,-21.6018046446179,5.90312591879755,15.6986787258204
1.69115751482341,19.8935081114884,26.363692954579,6.4701848430906,-23.1286005330337,6.71166163419892,16.4169388988348
1.69631348285641,19.7322477898426,24.2006467179627,4.46839892812014,-21.9664472539026,7.63192443086122,14.3345228230414
1.7014694508894,22.8572916013671,26.4663176106469,3.60902600927982,-24.661804606007,9.62413279604366,15.0376718099634
1.7066254189224,31.961512166751,38.4803493168756,6.51883715012462,-35.2209307418133,12.7213375083132,22.4995932335001
1.7117813869554,44.6130452944936,56.1671478058875,11.554102511394,-50.3900965501905,16.5294713915498,33.8606251586407
1.7169373549884,55.6303390338351,70.129122556246,14.4987835224109,-62.8797307950405,20.5657777557121,42.3139530393284
1.7220933230214,61.4447185446957,74.7139400482715,13.2692215035758,-68.0793292964836,24.0877485205599,43.9915807759237
1.7272492910544,61.7238273603412,70.7140955060748,8.99026814573363,-66.218961433208,26.3667796073038,39.8521818259042
1.73240525908739,58.3097847046232,62.0144426888692,3.704657984246,-60.1621136967462,27.3025633601886,32.8595503365576
1.73756122712039,53.9380324041819,53.6016127654391,-0.336419638742839,-53.7698225848105,27.1372260214624,26.6325965633481
1.74271719515339,51.2942176659085,50.967172520539,-0.327045145369446,-51.1306950932238,25.810631405639,25.3200636875848
1.74787316318639,52.0728562082342,56.9108860805754,4.83802987234117,-54.4918711444048,23.6174131679465,30.8744579764583
1.75302913121939,56.5877544282905,68.6816335075865,12.093879079296,-62.6346939679385,22.2469376744973,40.3877562934412
1.75818509925238,64.1231292140494,80.6061521058994,16.48302289185,-72.3646406599744,23.8200531610997,48.5445874988747
1.76334106728538,73.2454093026192,89.1785555472409,15.9331462446218,-81.2119824249301,28.6561315289987,52.5558508959314
1.76849703531838,81.8621153623671,94.098955193382,12.2368398310149,-87.9805352778745,34.8126377656761,53.1678975121984
1.77365300335138,87.8321453564105,96.0164131398059,8.18426778339547,-91.9242792481082,39.8239387865075,52.1003404616007
1.77880897138438,90.289740655542,96.0399800880224,5.75023943248041,-93.1648603717822,42.2697506115308,50.8951097602514
1.78396493941738,90.3996307786226,96.7450052378753,6.34537445925271,-93.572318008249,42.027128159685,51.545189848564
1.78912090745037,90.5013709744907,100.866912587772,10.3655416132809,-95.6841417811311,40.0679146806049,55.6162271005262
1.79427687548337,92.3281097158391,108.434678620103,16.1065689042636,-100.381394167971,38.1107704057878,62.2706237621832
1.79943284351637,95.8520073742036,116.525844249916,20.6738368757121,-106.18892581206,37.5890852492458,68.5998405628139
1.80458881154937,99.5341654828042,122.03230419617,22.4981387133655,-110.783234839487,38.5180133847194,72.2652214547676
1.80974477958237,101.518869769609,123.697853104028,22.178983334419,-112.608361436818,39.6699432175948,72.9384182192234
1.81490074761536,100.968618944957,121.859097009929,20.8904780649713,-111.413857977443,40.0390704399931,71.3747875374501
1.82005671564836,99.0663007753828,118.193411052148,19.1271102767653,-108.629855913765,39.9695952493088,68.6602606644567
1.82521268368136,98.9329937153112,116.16284756025,17.2298538449391,-107.547920637781,40.8515699351861,66.6963507025947
1.83036865171436,103.587107812167,119.300109247387,15.7130014352199,-111.443608529777,43.9370531884737,67.5065553413035
1.83552461974736,112.843495252888,127.060551884559,14.2170566316714,-119.952023568724,49.3132193106083,70.6388042581154
1.84068058778036,122.141426655889,133.457006270497,11.3155796146081,-127.799216463193,55.4129235206405,72.3862929425526
1.84583655581335,125.438155895719,132.194338465043,6.75618256932366,-128.816247180381,59.3409866631978,69.4752605171832
1.85099252384635,120.568344165864,123.843637387402,3.27529322153792,-122.205990776633,58.646525472163,63.5594653044699
1.85614849187935,112.200078724907,116.662005970157,4.46192724525055,-114.431042347532,53.8690757398281,60.561966607704
1.86130445991235,108.478994465207,119.197958286201,10.7189638209938,-113.838476375704,48.8800153221067,64.9584610535975
1.86646042794535,113.513886149513,132.040417219167,18.526531069654,-122.77715168434,47.4936775399295,75.2834741444104
1.87161639597834,123.228902292812,146.621714499568,23.3928122067557,-134.92530839619,49.9180450430283,85.0072633531619
1.87677236401134,129.285284671132,151.991732545433,22.7064478743014,-140.638508608282,53.2894183984151,87.3490902098673
1.88192833204434,126.961431008882,144.252135177448,17.2907041685662,-135.606783093165,54.835363420158,80.7714196730073
1.88708430007734,118.640861753477,130.473716336932,11.8328545834546,-124.557289045205,53.4040035850114,71.1532854601933
1.89224026811034,110.059879433472,121.745485534765,11.685606101293,-115.902682484118,49.1871366660893,66.7155458180288
1.89739623614334,104.567784483484,121.249603248935,16.6818187654507,-112.908693866209,43.9429828590166,68.9657110071927
1.90255220417633,101.34448982988,121.392071780718,20.0475819508387,-111.368280805299,40.6484539395204,70.7198268657785
1.90770817220933,97.717285718684,113.935203784954,16.2179180662697,-105.826244751819,40.7496838262071,65.0765609256117
1.91286414024233,92.0083345139967,99.8572087840195,7.84887427002278,-95.9327716490081,42.079730121987,53.8530415270211
1.91802010827533,84.4406069039316,86.7863633860295,2.34575648209787,-85.6134851449806,41.0474252109169,44.5660599340637
1.92317607630833,76.1564456754926,79.3718303519942,3.2153846765016,-77.7641380137434,36.4705304994955,41.2936075142479
1.92833204434133,67.9008557423373,75.3153754552112,7.41451971287395,-71.6081155987743,30.2431680147317,41.3649475840426
1.93348801237432,59.5838790893381,69.4448894033845,9.86101031404632,-64.5143842463613,24.8614343876459,39.6529498587154
1.93864398040732,50.6538738641357,58.9932012759145,8.33932741177876,-54.8235375700251,21.1572732261785,33.6662643438466
1.94379994844032,40.8637714782866,45.31095393593,4.44718245764336,-43.0873627071083,18.2082945103216,24.8790681967867
1.94895591647332,31.1264716832306,32.1722374163306,1.04576573309996,-31.6493545497806,15.0403529750653,16.6090015747153
1.95411188450632,23.5605037990701,22.922267059047,-0.6382367400231,-23.2413854290585,12.0993702695466,11.1420151595119
1.95926785253931,19.9170061481449,18.8071246801824,-1.10988146796248,-19.3620654141637,10.5134438080537,8.84862160610997
1.96442382057231,19.4524134001388,18.7887223976832,-0.663691002455565,-19.120567898911,10.0580522012972,9.06251569761383
1.96957978860531,18.7017138117231,19.7693921013826,1.06767828965957,-19.2355529565529,8.81701776103175,10.4185351955211
1.97473575663831,13.8679988152903,17.7589111219993,3.89091230670902,-15.8134549686448,4.98854325429065,10.8249117143542
1.97989172467131,3.43290942584503,10.2905073776812,6.85759795183613,-6.86170840176309,-1.71234426299555,8.57405266475864
1.98504769270431,-11.4197327671041,-2.52373092925789,8.89600183784624,6.97173184818101,-10.1578673024752,3.18613545429417
1.9902036607373,-28.0102054864916,-19.3367311778734,8.67347430861827,23.6734683321825,-18.341839897555,-5.33162843462754
1.9953596287703,-43.3794406440134,-37.9720112837609,5.40742936025249,40.6757259638872,-24.393435002133,-16.2822909617542
2.0005155968033,-55.5899481995953,-54.2012309380652,1.38871726153016,54.8955895688302,-28.4893327305627,-26.4062568382675
2.0056715648363,-65.0297464806103,-63.596298769051,1.43344771155935,64.3130226248306,-33.2315970960848,-31.0814255287458
2.0108275328693,-73.5546577325017,-66.2840422130218,7.27061551947986,69.9193499727618,-40.4126366259908,-29.506713346771
2.01598350090229,-81.2400222950072,-66.6798369053376,14.5601853896696,73.9599296001724,-47.9001038423384,-26.059825757834
2.02113946893529,-85.298261093885,-67.1245992078634,18.1736618860216,76.2114301508742,-51.7359614899533,-24.4754686609209
2.02629543696829,-83.9012578444993,-65.6151173371922,18.2861405073071,74.7581875908457,-51.0936991759032,-23.6644884149426
2.03145140500129,-79.7746166593647,-61.3815231612035,18.3930934981612,70.5780699102841,-49.083855078763,-21.4942148315211
2.03660737303429,-77.689008759329,-58.5393875623187,19.1496211970102,68.1141981608238,-48.4193149781696,-19.6948831826543
2.04176334106729,-79.2305541254505,-61.7519564464536,17.478597678997,70.491255285952,-48.3545759022237,-22.1366793837283
2.04691930910028,-82.6388756680149,-70.9209631105026,11.7179125575123,76.7799193892588,-47.1783941127636,-29.6015252764952
2.05207527713328,-87.1467003385441,-81.7819704617262,5.36472987681789,84.4643354001351,-46.255715107681,-38.2086202924541
2.05723124516628,-93.8665675743454,-89.6325006289956,4.23406694534975,91.7495341016705,-49.0503172598476,-42.6992168418229
2.06238721319928,-101.654298800786,-91.6640505212402,9.99024827954621,96.6591746610133,-55.8222735401663,-40.836901120847
2.06754318123228,-105.840870258448,-88.0557061807656,17.785164077682,96.9482882196066,-61.8130171680648,-35.1352710515418
2.07269914926527,-103.57833482467,-82.2775947906391,21.300740034031,92.9279648076546,-62.4395374293505,-30.488427378304
2.07785511729827,-98.31857824191,-79.2427215542597,19.0758566876502,88.7806498980849,-58.6972174647801,-30.0834324333048
2.08301108533127,-96.5032246861755,-81.9294021592769,14.5738225268986,89.2163134227262,-55.538523606537,-33.6777898161892
2.08816705336427,-100.636885408351,-89.2264394680933,11.4104459402573,94.931662438222,-56.023665674304,-38.907996763918
2.09332302139727,-107.007885546545,-96.3761443114257,10.6317412351194,101.692014928985,-58.8198133908322,-42.8722015381532
2.09847898943027,-109.410588643595,-97.3579029209365,12.0526857226585,103.384245782266,-60.7316371831267,-42.652608599139
2.10363495746326,-103.984484749561,-88.2538478241459,15.7306369254151,96.1191662868534,-59.8575608374881,-36.2616054493654
2.10879092549626,-91.2733689612394,-70.3462436126383,20.927125348601,80.8098062869389,-56.1002471549202,-24.7095591320187
2.11394689352926,-75.5846382684747,-50.457987890897,25.1266503775776,63.0213130796858,-50.3556443230262,-12.6656687566597
2.11910286156226,-63.0359247943656,-37.1596298940661,25.8762949002995,50.0977773442159,-44.4561098473326,-5.64166749688331
2.12425882959526,-58.4761666172818,-35.4861439020384,22.9900227152434,46.9811552596601,-40.7330946662626,-6.2480605933975
2.12941479762825,-62.1669475178953,-44.0885973913949,18.0783501265004,53.1277724546451,-40.1226488221979,-13.0051236324473
2.13457076566125,-69.4746289499052,-56.3105967553033,13.164032194602,62.8926128526042,-41.3193305722536,-21.5732822803506
2.13972673369425,-75.0730961016638,-64.8685676024583,10.2045284992054,69.9708318520611,-42.6388123004346,-27.3320195516265
2.14488270172725,-77.5195507589915,-67.5223642662089,9.99718649278263,72.5209575126002,-43.7583686258871,-28.7625888867131
2.15003866976025,-78.9535729235457,-67.9998344341656,10.9537384893801,73.4767036788557,-44.9536557064629,-28.5230479723927
2.15519463779325,-80.8289677740409,-69.8346100907535,10.9943576832874,75.3317889323972,-45.9116627286642,-29.4201262037331
2.16035060582624,-81.4036467375577,-70.4948874315034,10.9087593060543,75.9492670845305,-46.156203021806,-29.7930640627245
2.16550657385924,-77.855699895749,-64.6846744544513,13.1710254412978,71.2701871751001,-45.5133626685234,-25.7568245065767
2.17066254189224,-70.307551955293,-53.0320164044413,17.2755355508517,61.6697841798672,-43.7915437530724,-17.8782404267948
2.17581850992524,-63.0856042841914,-43.4039696566538,19.6816346275376,53.2447869704226,-41.3836194558645,-11.8611675145581
2.18097447795824,-61.045117457403,-42.2621997195005,18.7829177379026,51.6536585884517,-39.9140175976528,-11.7396409907989
2.18613044599123,-64.2168895932839,-47.8107444195451,16.4061451737388,56.0138170064145,-40.3115173835113,-15.7022996229031
2.19128641402423,-67.1686363563996,-53.0622572749818,14.1063790814178,60.1154468156907,-40.6375077189087,-19.477939096782
2.19644238205723,-64.574269425467,-52.895734480119,11.678534945348,58.735001952793,-38.1264021854075,-20.6085997673855
2.20159835009023,-56.7357964842755,-46.8379041430829,9.89789234119258,51.7868503136792,-33.316844412734,-18.4700059009452
2.20675431812323,-49.0863627977409,-38.0429523777393,11.0434104200016,43.5646575877401,-30.0648866088712,-13.4997709788689
2.21191028615623,-46.8511561458695,-31.6797742770339,15.1713818688356,39.2654652114517,-31.0112690073525,-8.25419620409911
2.21706625418922,-50.1493886288565,-31.6085850735751,18.5408035552814,40.8789868512158,-34.345096092069,-6.53389075914686
2.22222222222222,-53.721966315013,-35.7922609785625,17.9297053364505,44.7571136467878,-35.8258358257318,-8.93127782105602
2.22737819025522,-52.0319545185776,-36.8146604867009,15.2172940318767,44.4233075026392,-33.6246242752272,-10.7986832274121
2.23253415828822,-44.963703823937,-29.8537851920181,15.1099186319189,37.4087445079776,-30.0368112279279,-7.37193328004962
2.23769012632122,-37.2857984798613,-18.804203704449,18.4815947754123,28.0450010921552,-27.8836966276368,-0.161304464518381
2.24284609435422,-32.6749643005795,-11.507166865622,21.1677974349575,22.0910655831008,-26.9213808677685,4.83031528466772
2.24800206238721,-30.4986574679997,-10.2041935878422,20.2944638801575,20.3514255279209,-25.3965606740786,5.04513514615769
2.25315803042021,-28.5495154020651,-10.5174196302654,18.0320957717997,19.5334675161653,-23.2908055869324,3.75733807076715
2.25831399845321,-26.3626764478766,-9.33652766706714,17.0261487808095,17.8496020574719,-21.694412614343,3.84481055687116
2.26346996648621,-25.0609648230273,-9.25360626982033,15.807358553207,17.1572855464238,-20.4341616881171,3.27687614169332
2.26862593451921,-25.6053197752198,-13.7435639586603,11.8617558165595,19.6744418669401,-18.7335377958897,-0.94090407105042
2.2737819025522,-27.7259237147634,-20.8719559411666,6.85396777359673,24.298939827965,-17.28994574418,-7.00899408378496
2.2789378705852,-29.6357322887516,-24.3375888222229,5.29814346652871,26.9866605554873,-17.4669378776402,-9.51972267784711
2.2840938386182,-29.1532590399376,-20.7634649851555,8.38979405478213,24.9583620125466,-18.7715265473599,-6.18683546518669
2.2892498066512,-26.3404444498131,-14.3563394280738,11.9841050217393,20.3483919389434,-19.1622747357762,-1.18611720316727
2.2944057746842,-24.2980134085747,-12.5248755764019,11.7731378321728,18.4114444924883,-18.0355756203737,-0.375868872114571
2.2995617427172,-25.4961755388463,-17.1877717169502,8.30840382189602,21.3419736278982,-16.9022896803711,-4.4396839475271
2.30471771075019,-27.9372708776905,-22.7700611814425,5.16720969624803,25.3536660295665,-16.5522402869693,-8.80142574259722
2.30987367878319,-27.3228599160838,-22.9433745719845,4.37948534409934,25.1331172440342,-15.8511726300916,-9.28194461394257
2.31502964681619,-22.6655373343154,-16.5271745761064,6.13836275820895,19.5963559552109,-14.4019500462622,-5.19440590894874
2.32018561484919,-16.9573081004309,-6.16197099187414,10.7953371085568,11.5596395461525,-13.8763226044939,2.31668305834133
2.32534158288219,-12.2360962477714,5.63020350179351,17.866299749565,3.30294637298897,-15.0511979986682,11.7482516256792
2.33049755091518,-7.12508281737696,17.1475374645277,24.2726202819047,-5.01122732357536,-15.6988515496408,20.7100788732162
2.33565351894818,-0.11238972205335,26.189674574617,26.3020642966704,-13.0386424262818,-13.2072270093619,26.2458694356437
2.34080948698118,7.31977618518929,30.3169110210913,22.9971348359021,-18.8183436031403,-7.83867932535638,26.6570229284967
2.34596545501418,11.8492060153847,28.3898671937862,16.5406611784015,-20.1195366045854,-2.34572758150843,22.4652641860938
2.35112142304718,11.0349597543213,21.175485473623,10.1405257193017,-16.1052226139722,0.447217017509779,15.6580055964624
2.35627739108018,5.14513921451573,11.1555903299845,6.01045111546879,-8.15036477225012,-0.432655950476532,8.58302072272666
2.36143335911317,-1.90622897863575,2.44002957614207,4.34625855477782,-0.266900298753157,-3.12624376670679,3.39314406545994
2.36658932714617,-4.42387550463714,-0.531633745752376,3.89224175888476,2.47775462519476,-4.15805863176095,1.68030400656619
2.37174529517917,-0.220334749674754,3.73708833190561,3.95742308158037,-1.75837679111543,-2.08887891562756,3.84725570674299
2.37690126321217,6.41513587627493,11.5669819161145,5.15184603983957,-8.99105889619472,0.631644918217678,8.35941397797704
2.38205723124517,8.97717773347819,16.5011465073354,7.52396877385717,-12.7391621204068,0.726604479810508,12.0125576405963
2.38721319927816,5.68677802379007,15.3160266221664,9.62924859837629,-10.5014023229782,-1.97123528729311,12.4726376102713
2.39236916731116,1.0453516105599,11.7375737885289,10.692222177969,-6.39146269954438,-4.82343528370452,11.2148979832489
2.39752513534416,0.857327117824185,12.6593664136135,11.8020392957893,-6.75834676571885,-5.47235608898258,12.2307028547014
2.40268110337716,6.16275375501116,19.2897269718787,13.1269732168676,-12.7262403634449,-3.4821097309282,16.2083500943731
2.40783707141016,11.5401676127416,23.113716591843,11.5735489791014,-17.3269421022923,-0.0166906831798848,17.3436327854722
2.41299303944316,9.29836459852422,13.3316238391382,4.03325924061401,-11.3149942188312,2.63255267895511,8.68244153987612
2.41814900747615,-4.05873804112132,-11.0779698534137,-7.01923181229236,7.5683539472675,1.48024688558552,-9.04860083285302
2.42330497550915,-25.0771350821297,-39.0875811698901,-14.0104460877604,32.0823581260099,-5.53334449718464,-26.5490136288252
2.42846094354215,-46.3507679232407,-58.4496712917527,-12.098903368512,52.4002196074967,-17.1259322773644,-35.2742873301323
2.43361691157515,-61.7925853810876,-66.4101894139138,-4.61760403282617,64.1013873975007,-28.5874906741307,-35.51389672337
2.43877287960815,-70.2221986701841,-68.9203838879641,1.30181478221998,69.5712912790741,-35.762006726202,-33.8092845528721
2.44392884764114,-75.7265373977683,-73.1825987908921,2.54393860687625,74.4545680943302,-39.1352380023223,-35.3193300920079
2.44908481567414,-84.3359330496805,-83.3750773397477,0.960855709932787,83.8555051947141,-42.6483943798066,-41.2071108149075
2.45424078370714,-98.4101273761112,-99.7034730897828,-1.2933457136716,99.056800232947,-48.5583908312198,-50.4984094017272
2.45939675174014,-113.579954384429,-117.04601721107,-3.46606282664092,115.31298579775,-55.0569457788942,-60.2560400188556
2.46455271977314,-122.225660733475,-126.167260174249,-3.94159944077406,124.196460453862,-59.1420306463507,-65.0544298075118
2.46970868780614,-120.46696910628,-120.94271322181,-0.475744115529494,120.704841164045,-59.9956124953753,-60.7092286686695
2.47486465583913,-111.369572294565,-105.147315727194,6.22225656737095,108.25844401088,-58.795914430968,-49.4625295799116
2.48002062387213,-101.789374796993,-89.9165216813191,11.8728531156734,95.8529482391558,-56.831113956333,-39.0218342828228
2.48517659190513,-97.1429786303372,-84.5828441670208,12.5601344633164,90.862911398679,-54.8515565468268,-36.0113548518522
2.49033255993813,-98.8539263941554,-90.9650562758468,7.88887011830856,94.9094913350011,-53.371398256232,-41.5380930787691
2.49548852797113,-104.991181013628,-104.473999419652,0.517181593976574,104.73259021664,-52.7541813038023,-51.9784089128375
2.50064449600412,-112.106106384712,-118.120587029329,-6.01448064461638,115.11334670702,-53.0458128700479,-62.0675338369725
2.50580046403712,-117.105133634619,-126.262176501387,-9.15704286676852,121.683655068003,-53.974045383925,-67.7096096840778
2.51095643207012,-118.865375891645,-127.071094700371,-8.20571880872664,122.968235296008,-55.329828541459,-67.638406754549
2.51611240010312,-118.530547059365,-122.715076091695,-4.18452903232989,120.62281157553,-57.1730090135176,-63.4498025620125
2.52126836813612,-117.816274166661,-117.178766259904,0.637507906756838,117.497520213282,-59.2268910367088,-58.2706291765735
2.52642433616912,-117.213722752421,-113.602590443632,3.61113230878935,115.408156598026,-60.4124275306053,-54.9957290674212
2.53158030420211,-116.442286246921,-113.012870323462,3.42941592345933,114.727578285192,-59.9358510851904,-54.7917272000014
2.53673627223511,-116.105602058199,-114.555294711255,1.55030734694397,115.330448384727,-58.8279547025716,-56.5024936821557
2.54189224026811,-117.45860489804,-116.579038817308,0.879566080731848,117.018821857674,-59.1690854893861,-57.8497363682883
2.54704820830111,-120.258188750054,-117.995295630214,2.26289311984014,119.126742190134,-61.2605409349471,-57.8662012551869
2.55220417633411,-122.279918142896,-118.992652610551,3.28726553234449,120.636285376724,-62.7835918376202,-57.8526935391035
2.55736014436711,-122.134525489621,-120.648766051682,1.48575943793898,121.391645770652,-61.8101424637802,-59.5815033068717
2.5625161124001,-121.899633047478,-124.100977932773,-2.20134488529553,123.000305490125,-59.849144081091,-63.1511614090343
2.5676720804331,-125.594972654033,-129.94191570482,-4.34694305078656,127.768444179427,-60.6240148016233,-67.1444293778032
2.5728280484661,-134.831207894041,-138.012629487974,-3.18142159393315,136.421918691007,-65.8248931500538,-70.5970255409535
2.5779840164991,-146.89909011008,-147.790702247432,-0.891612137351927,147.344896178756,-73.0037389863642,-74.341157192392
2.5831399845321,-157.902950102114,-159.191575847731,-1.28862574561765,158.547262974923,-78.3071621782481,-80.2401007966746
2.58829595256509,-167.196965276401,-172.61375367971,-5.41678840330934,169.905359478055,-80.8900884365456,-89.0152710415096
2.59345192059809,-177.21090663648,-187.405371268071,-10.1944646315907,182.308138952275,-83.5082210024446,-98.7999179498307
2.59860788863109,-188.377655988004,-200.15533808289,-11.7776820948861,194.266497035447,-88.299986946559,-105.966510088888
2.60376385666409,-195.450198170768,-204.886589800636,-9.43639162986869,200.168393985702,-93.0069032704495,-107.161490715253
2.60891982469709,-190.10541054841,-194.979366861538,-4.87395631312813,192.542388704974,-92.6157271176408,-99.926661587333
2.61407579273009,-167.032216291393,-165.227617150045,1.80459914134798,166.129916720719,-84.4184077163702,-81.7115090043483
2.61923176076308,-126.384869233328,-112.778029828627,13.6068394047012,119.581449530978,-69.9958543190147,-49.5855952119629
2.62438772879608,-69.9011763529604,-36.162720127458,33.7384562255025,53.0319482402092,-51.8198162892314,-1.21213195097775
2.62954369682908,4.01705018687441,66.0256051459271,62.0085549590527,-35.0213276664008,-28.9957523860891,64.0170800524899
2.63469966486208,99.2741189239382,193.018518657791,93.7443997338524,-146.146318790864,2.76485959504289,143.381459195821
2.63985563289508,215.366915465259,336.871270783088,121.504355317829,-276.119093124174,46.931280073715,229.187813050459
2.64501160092807,342.546155701531,481.221879481666,138.675723780135,-411.884017591599,101.935215960698,309.948801630901
2.65016756896107,463.932817717897,606.046519336131,142.113701618234,-534.989668527014,160.909558049832,374.080110477182
2.65532353699407,560.972525694677,691.572688747249,130.600163052572,-626.272607220963,215.186181321053,411.08642589991
2.66047950502707,616.904914495832,718.569549357364,101.664634861532,-667.737231926598,257.62013981715,410.117092109448
2.66563547306007,619.669982720722,673.491102273648,53.8211195529257,-646.580542497185,282.924431583898,363.656110913287
2.67079144109307,567.219057509839,561.325261560514,-5.8937959493245,-564.272159535177,286.556426729582,277.715732805595
2.67594740912606,471.023088836255,411.02604595445,-59.9970428818046,-441.024567395353,265.51006585903,175.514501536323
2.68110337715906,351.793188166758,260.348199653577,-91.4449885131812,-306.070693910167,221.61908833997,84.4516055701978
2.68625934519206,230.292371656832,132.629513940602,-97.6628577162307,-181.460942798717,163.977614686531,17.4833281121854
2.69141531322506,121.60046892403,30.5710954943528,-91.0293734296773,-76.0857822091915,106.314921176854,-30.2291389676623
2.69657128125806,35.0172759151465,-49.2618678963409,-84.2791438114874,7.12229599059717,59.6482098633169,-66.7705058539141
2.70172724929105,-24.9536764308506,-103.027069274798,-78.0733928439478,63.9903728528245,26.5598582065486,-90.5502310593731
2.70688321732405,-58.5058247197383,-123.257881842406,-64.7520571226676,90.8818532810721,3.12311620146466,-94.0049694825368
2.71203918535705,-68.6651272748527,-109.9456798704,-41.2805525955471,89.3054035726262,-13.6922873396528,-75.6131162329734
2.71719515339005,-57.9550205206349,-72.4964557477026,-14.5414352270678,65.2257381341688,-21.7067926467836,-43.5189454873852
2.72235112142305,-28.7315709758873,-23.4035044386131,5.32806653727414,26.0675377072502,-17.0298187565807,-9.03771895066949
2.72750708945605,11.7937667428624,25.1930486577626,13.3992819149003,-18.4934077003125,-0.802757586018938,19.2961652863315
2.73266305748904,49.4527254045499,61.3883957948727,11.9356703903229,-55.4205605997113,18.7585275071135,36.6620330925978
2.73781902552204,69.9476137424374,76.9246432858592,6.97702954342176,-73.4361285141483,31.4852920995078,41.9508364146405
2.74297499355504,68.629724245214,71.9501988783858,3.32047463317183,-70.2899615617999,32.6546248060211,37.6353367557788
2.74813096158804,51.906425670484,53.0644796679523,1.15805399746831,-52.4854526692182,25.3741858365079,27.1112668327103
2.75328692962104,29.0486945854479,27.0027397738011,-2.04595481164684,-28.0257171796245,15.5473246985474,12.4783924810771
2.75844289765403,5.07374485205919,-1.18260503338404,-6.25634988544322,-1.94556990933758,5.66504736875121,-3.71947745941363
2.76359886568703,-17.988301337249,-26.1928458767201,-8.20454453947107,22.0905736069846,-4.89187839888899,-17.1986952080956
2.76875483372003,-36.9891621480948,-43.7623920977934,-6.77322994969857,40.3757771229441,-15.1079660991981,-25.267811023746
2.77391080175303,-48.5096552983679,-53.7993840819975,-5.28972878362957,51.1545196901827,-21.6099632573692,-29.5445564328135
2.77906676978603,-52.565526990573,-59.0598878888272,-6.49436089825414,55.8127074397001,-23.0355830461594,-32.7771243935406
2.78422273781903,-52.5840399376601,-60.9138692938905,-8.32982935623041,56.7489546157753,-22.1271052907148,-34.6218493250604
2.78937870585202,-51.4674841108173,-58.5661253465223,-7.09864123570506,55.0168047286698,-22.1844214375561,-32.8323832911137
2.79453467388502,-48.8884517933604,-51.4466833680937,-2.55823157473326,50.167567580727,-23.1651101093136,-27.0024574714135
2.79969064191802,-42.6376911231162,-40.1852748833373,2.45241623977887,41.4114830032267,-22.5450536814475,-18.8664293217792
2.80484660995102,-32.2681944997515,-26.5426848528643,5.72550964688728,29.4054396763079,-18.9968520733194,-10.4085876029885
2.81000257798402,-21.4461339215803,-14.7709083745774,6.67522554700292,18.1085211480789,-14.0606797342916,-4.04784141378723
2.81515854601701,-16.5254038554179,-11.597412542288,4.92799131312996,14.0614081988529,-10.7266975842739,-3.334710614579
2.82031451405001,-21.8969580614962,-21.4668847822047,0.430073279291484,21.6819214218504,-11.1635156703938,-10.5184057514566
2.82547048208301,-35.8254772460784,-41.1096414567772,-5.28416421069875,38.4675593514278,-15.2706565176898,-23.196902833738
2.83062645011601,-51.0152217772553,-60.6058988490156,-9.5906770717603,55.8105603131355,-20.7122723527475,-35.0982879603879
2.83578241814901,-60.3533638977076,-71.3320373964021,-10.9786734986946,65.8427006470548,-24.6873451995065,-41.1553554475483
2.84093838618201,-62.5211376013574,-72.9485021256176,-10.4273645242602,67.7348198634875,-26.0468865385486,-41.6879333249389
2.846094354215,-61.170630184856,-71.2903409104826,-10.1197107256266,66.2304855476693,-25.5254597296147,-40.7050258180546
2.851250322248,-58.5624346153666,-68.9359573926647,-10.373522777298,63.7491960040157,-24.0944559190343,-39.6547400849814
2.856406290281,-52.2941868333178,-61.0479199181884,-8.75373308487057,56.6710533757531,-21.7702268742236,-34.9008265015295
2.861562258314,-40.490492950246,-44.1388772829665,-3.64838433272055,42.3146851166062,-18.4210543087627,-23.8936308078435
2.866718226347,-28.4775998957359,-26.3204518869774,2.1571480087585,27.3990258913567,-15.3173739522472,-12.0816519391095
2.87187419437999,-25.8817866550661,-22.147573520557,3.73421313450915,24.0146800878116,-14.8079998947876,-9.20668019302392
2.87703016241299,-35.8933264233165,-36.1796752502444,-0.28634882692792,36.0365008367805,-17.8034887981943,-18.2330120385862
2.88218613044599,-50.8230282879521,-57.0463913500752,-6.22336306212309,53.9347098190136,-22.2998326129145,-31.6348772060991
2.88734209847899,-60.4542403070474,-69.9625479434654,-9.50830763641796,65.2083941252564,-25.4729663353147,-39.7354277899417
2.89249806651199,-62.1072825877653,-70.8328970367161,-8.72561444895079,66.4700898122407,-26.6908340694072,-39.7792557428334
2.89765403454499,-59.7010288256357,-65.2797946589515,-5.57876583331581,62.4904117422936,-27.0611314961599,-35.4292802461336
2.90281000257798,-55.3520945694127,-57.4247056029197,-2.07261103350705,56.3884000861662,-26.6397417679528,-29.7486583182134
2.90796597061098,-46.6270450668666,-44.999761003664,1.62728406320265,45.8134030352653,-24.1271645650347,-21.6862384702307
2.91312193864398,-32.3358305596486,-26.420669382742,5.91516117690657,29.3782499711953,-19.1254958682776,-10.2527541029177
2.91827790667698,-16.7949152138184,-8.17521934492193,8.61969586889643,12.4850672793701,-12.7073055413574,0.222238261987249
2.92343387470998,-6.02774646113892,-0.362079781594622,5.6656666795443,3.19491312136677,-5.84670657034161,2.65179344897484
2.92858984274298,-1.8609273851673,-5.42175547367242,-3.56082808850512,3.64134142941986,0.849950351668911,-4.49129178108877
2.93374581077597,-1.86134671187335,-15.2973706014671,-13.4360238895937,8.5793586566702,5.78733858886018,-14.3666972455304
2.93890177880897,-3.70139934162073,-20.3958638479372,-16.6944645063165,12.048631594779,6.49653258234786,-18.5451641771268
2.94405774684197,-7.00238914107469,-18.1718532867817,-11.169464145707,12.5871212139282,2.08353750231615,-14.6706587162443
2.94921371487497,-10.7844870240198,-12.0957457948538,-1.31125877083405,11.4401164094368,-4.73661412659286,-6.70350228284393
2.95436968290797,-11.7840061598548,-5.89909015919072,5.88491600066413,8.84154815952279,-8.83446108025949,-0.00708707926329932
2.95952565094096,-7.66223134866851,-1.70550103353865,5.95673031512986,4.68386619110358,-6.80948083189919,2.1256146407956
2.96468161897396,-1.00864351644551,-1.46166494013647,-0.453021423690958,1.23515422829099,-0.277811046377277,-0.957343181913714
2.96983758700696,2.59446357496129,-6.04685589476483,-8.64131946972612,1.72619615990177,5.6178915223437,-7.34408768224548
2.97499355503996,0.941042253398969,-12.7084922488005,-13.6495345021995,5.88372499770078,7.29528837779924,-13.1790133755
2.98014952307296,-2.43879628131979,-16.0819830439524,-13.6431867626326,9.26038966263608,5.60219524065638,-14.8625849032925
2.98530549110596,-2.81121618368176,-12.7980780269941,-9.98686184331234,7.80464710533792,3.58782282981529,-11.3924699351532
2.99046145913895,0.855651357730972,-4.23829459580378,-5.09394595353475,1.6913216190364,2.97479865563286,-4.66612027466927
2.99561742717195,6.43260960654857,5.26664635001121,-1.16596325653736,-5.84962797827989,3.79928643154296,2.05034154673693
3.00077339520495,12.1881041377909,12.1557391742292,-0.0323649635616459,-12.17192165601,6.11023455067625,6.06168710533378
3.00592936323795,17.8062283857005,15.7993157663208,-2.00691261937975,-16.8027720760106,9.90657050254013,6.8962015734705
3.01108533127095,22.6263512288288,17.9616964582542,-4.66465477057453,-20.2940238435415,13.6455029997016,6.64852084383985
3.01624129930394,25.5241511751526,20.8543970415145,-4.6697541336381,-23.1892741083335,15.0969526543953,8.09232145393818
3.02139726733694,27.5284013384591,26.2906534795746,-1.23774785888448,-26.9095274090169,14.3830745986718,12.5264528103451
3.02655323536994,32.4663840696659,35.9774008768244,3.51101680715855,-34.2218924732452,14.4776836312537,19.7442088419915
3.03170920340294,42.8214419236398,50.0007202212894,7.1792782976496,-46.4110810724646,17.8210818129951,28.5899992594695
3.03686517143594,55.6528745677801,64.2559561756718,8.60308160789178,-59.954415371726,23.5248964799441,36.4295188917818
3.04202113946894,64.6089395143094,72.1786505432106,7.56971102890128,-68.39379502876,28.519614242704,39.874180786056
3.04717710750193,66.1460642951745,70.8771985877086,4.73113429253411,-68.5116314414416,30.7074650013202,37.8041664401214
3.05233307553493,62.5407968372436,63.9917349716922,1.45093813444854,-63.2662659044679,30.5449293513975,32.7213365530704
3.05748904356793,58.4196511532114,57.2174856522572,-1.2021655009542,-57.8185684027343,29.8109083270828,28.0076600756515
3.06264501160093,55.5111106377202,52.6466365716526,-2.86447406606759,-54.0788736046864,29.1877923518939,24.8910812527925
3.06780097963393,52.3948822393105,49.2968225733128,-3.09805966599772,-50.8458524063116,27.7464709526541,23.0993814536575
3.07295694766692,49.0758753260211,47.7938141482663,-1.28206117775472,-48.4348447371437,25.1789682518879,23.2558764852558
3.07811291569992,49.0780001323403,51.4861990997994,2.40819896745909,-50.2820996160699,23.3349005824406,26.9471990336293
3.08326888373292,55.5448341501383,62.3497715531146,6.80493740297634,-58.9473028516264,24.369948373581,34.5773544780455
3.08842485176592,67.2871305486565,77.7773467168426,10.490216168186,-72.5322386327496,28.3984571902352,44.1337814425143
3.09358081979892,80.5041485515529,92.5423753954849,12.038226843932,-86.5232619735189,34.2329608538105,52.2903011197085
3.09873678783192,92.6243778128011,102.993507429633,10.3691296168323,-97.8089426212173,41.1276240979844,56.6813185232328
3.10389275586491,102.266472633639,108.158461984892,5.89198935125305,-105.212467309266,48.1872416411931,57.0252256680727
3.10904872389791,107.147160191674,107.300652123474,0.153491931799877,-107.223906157574,53.4968341299372,53.7270720276371
3.11420469193091,105.27579429236,99.0964213712505,-6.17937292110977,-102.186107831805,55.727583606735,46.4585242250704
3.11936065996391,98.255502011094,85.5406937382489,-12.7148082728451,-91.8980978746715,55.4851551419696,36.4129427327019
3.12451662799691,91.3637972092677,75.1395685173422,-16.2242286919256,-83.251682863305,53.7940129505967,29.4576699127083
3.1296725960299,89.7659752428479,77.8716599433493,-11.8943152994986,-83.8188175930986,50.8301452711733,32.9886723219253
3.1348285640629,94.9198640325952,94.7589158386225,-0.160948193972672,-94.8393899356089,47.5404061132839,47.2989838223249
3.1399845320959,104.032274674715,114.499336425791,10.4670617510758,-109.265805550253,46.7826064618196,62.4831990884332
3.1451405001289,112.172131281548,123.384630681892,11.2124994003442,-117.77838098172,50.479815940602,67.2985650411183
3.1502964681619,115.365660573802,118.465165420532,3.09950484673018,-116.915412997167,56.1330778635358,60.7823351336311
3.1554524361949,113.405408224933,109.275252017737,-4.13015620719634,-111.340330121335,58.7677822160648,52.5725479052703
3.16060840422789,110.836990078224,107.434429257719,-3.40256082050566,-109.135709667971,57.119775449365,52.0159342186065
3.16576437226089,114.130033060702,116.792635413656,2.66260235295398,-115.461334237179,55.7337153538739,59.7276188833049
3.17092034029389,126.106769483221,132.897438700305,6.79066921708346,-129.502104091763,59.6580501330689,69.8440539586941
3.17607630832689,142.965994111206,148.39684442136,5.43085031015465,-145.681419266283,68.7675719005255,76.9138473657574
3.18123227635989,157.163650642117,157.324458947882,0.160808305764704,-157.244054794999,78.5014211681761,78.7426336268231
3.18638824439289,162.935878284522,156.898919684288,-6.03695860023367,-159.917398984405,84.4864184423776,75.4309805420271
3.19154421242588,159.588983845301,148.941936942312,-10.6470469029896,-154.265460393807,85.1180153741456,69.1474450196611
3.19670018045888,151.188810630384,139.834596435764,-11.3542141946199,-145.511703533074,81.2715124125022,64.2401911205723
3.20185614849188,143.657340592866,136.550597021889,-7.10674357097705,-140.103968807377,75.3820420819215,64.7219267254559
3.20701211652488,140.883390244526,141.242755027434,0.359364782908159,-141.06307263598,70.2620127308088,70.801059905171
3.21216808455788,142.590209592643,149.937262881392,7.34705328874847,-146.263736237017,67.6215781519473,78.64215808507
3.21732405259087,145.990966234392,156.604974136901,10.6140079025091,-151.297970185647,67.6884791659416,83.6094910197052
3.22248002062387,149.097923527654,158.321305268281,9.22338174062745,-153.709614397967,69.937270893513,83.7723435044542
3.22763598865687,151.64619036716,156.797821152466,5.15163078530585,-154.222005759813,73.2472797909272,80.974725968886
3.23279195668987,153.619346579343,155.388520229804,1.76917365046179,-154.503933404573,75.9250864644404,78.578846940133
3.23794792472287,154.718494079239,155.165243091949,0.446749012710029,-154.941868585594,77.1358725332647,77.8059960523298
3.24310389275587,155.399136918065,154.738845751804,-0.660291166260777,-155.068991334935,78.029714042163,77.0392772927719
3.24825986078886,156.614987433251,153.153027220723,-3.46196021252769,-154.884007326987,80.0384738228894,74.8455335040978
3.25341582882186,157.247931844321,149.926764574846,-7.32116726947496,-153.587348209583,82.2845495568979,71.3027986526854
3.25857179685486,152.70456195581,141.678618595288,-11.025943360522,-147.191590275549,81.8652526581658,65.3263376173828
3.26372776488786,138.28761405233,123.317911277113,-14.9697027752166,-130.802762664721,76.6286584137731,54.1741042509482
3.26888373292086,114.770632478417,95.6396962218692,-19.1309362565478,-105.205164350143,66.9507843674824,38.2543799826607
3.27403970095385,88.8106424757478,67.4763117525213,-21.3343307232265,-78.1434771141346,55.0724865994871,23.0709905146474
3.27919566898685,66.1933339352747,45.6411888776628,-20.5521450576119,-55.9172614064687,43.3727394964433,12.5445219100255
3.28435163701985,46.1589759475485,26.2863507628715,-19.872625184677,-36.22266335521,33.0158005661128,3.20686278909723
3.28950760505285,24.8898007472986,2.46370458391063,-22.4260961633879,-13.6767526656046,23.6579484553433,-9.98119578973865
3.29466357308585,3.773209036806,-21.6608519384214,-25.4340609752274,8.9438214508077,14.6036350060167,-23.5474564568244
3.29981954111885,-9.38608259702688,-31.9089199578352,-22.5228373608083,20.647501277431,6.56837738189071,-27.2158786593217
3.30497550915184,-8.95155580916051,-21.5131716167679,-12.5616158076073,15.2323637129642,1.80502999922342,-17.0373937121876
3.31013147718484,0.867273605766838,-1.57269039192375,-2.43996399769058,0.352708393078455,1.65361880172871,-2.00632719480717
3.31528744521784,9.20472624454153,9.95004254810043,0.745316303558903,-9.57738439632098,4.22970497049131,5.34767942582967
3.32044341325084,8.76808018872304,6.02138194948084,-2.7466982392422,-7.39473106910194,5.75738921398262,1.63734185511932
3.32559938128384,0.951780693042585,-6.48242302900848,-7.43420372205107,2.76532116798295,4.19299220754683,-6.95831337552978
3.33075534931683,-8.88836679689853,-18.1179664709455,-9.22959967404699,13.503166633922,0.170616438574232,-13.6737830724963
3.33591131734983,-18.3182714313003,-26.1370106553249,-7.81873922402455,22.2276410433126,-5.2497661036379,-16.9778749396747
3.34106728538283,-28.1547278711189,-33.5124655572875,-5.35773768616857,30.8335967142032,-11.3984950924752,-19.435101621728
3.34622325341583,-38.0287889155373,-42.8543499513626,-4.82556103582532,40.4415694334499,-16.601613939856,-23.839955493594
3.35137922144883,-45.3468888498415,-52.6906678755397,-7.34377902569814,49.0187783626906,-19.0015549120717,-30.0172234506189
3.35653518948183,-49.1395149532381,-59.4328461966331,-10.2933312433951,54.2861805749356,-19.4230918549215,-34.8630887200141
3.36169115751482,-51.8653386949087,-62.4574121923758,-10.5920734974671,57.1613754436422,-20.6366325987208,-36.5247428449214
3.36684712554782,-55.8782305442555,-65.3554879314989,-9.47725738724346,60.6168592378772,-23.200486578506,-37.4163726593712
3.37200309358082,-60.4612164484748,-71.1708253668053,-10.7096089183305,65.81602090764,-24.8758037650721,-40.9402171425679
3.37715906161382,-64.1666997945637,-78.6384017763969,-14.4717019818331,71.4025507854803,-24.8474989063653,-46.555051879115
3.38231502964682,-67.8809794501059,-84.635465281068,-16.7544858309621,76.2582223655869,-25.5632468095719,-50.6949755560151
3.38747099767981,-72.9537948930572,-88.1708668695083,-15.2170719764511,80.5623308812828,-28.8683614583031,-51.6939694229797
3.39262696571281,-77.7296487475339,-90.1022061234475,-12.3725573759136,83.9159274354907,-32.6785456858101,-51.2373817496806
3.39778293374581,-79.0816241788362,-90.55049327705,-11.4688690982138,84.8160587279431,-33.8063775403112,-51.0096811876319
3.40293890177881,-77.1379913158642,-88.8544501402279,-11.7164588243636,82.996220728046,-32.7107662457503,-50.2854544822958
3.40809486981181,-75.6252297669147,-85.7881540169308,-10.1629242500161,80.7066918919228,-32.7311527584493,-47.9755391334735
3.41325083784481,-77.1983548761464,-84.2088367556375,-7.01048187949117,80.7035958158919,-35.0939364983276,-45.6096593175643
3.4184068058778,-81.0071801259474,-86.9774247860051,-5.97024466005772,83.9923024559763,-37.5184677329449,-46.4738347230314
3.4235627739108,-85.2980084079653,-94.3256841624613,-9.02767575449596,89.8118462852133,-38.1351663267347,-51.6766799584786
3.4287187419438,-89.6121691146635,-102.983736415406,-13.3715673007421,96.2979527650345,-38.1203009069607,-58.1776518580739
3.4338747099768,-93.430411762147,-108.220977904765,-14.7905661426185,100.825694833456,-39.3199228097643,-61.505772023692
3.4390306780098,-95.1827111966999,-107.702880953469,-12.520169756769,101.442796075084,-41.3312707199654,-60.1115253551189
3.44418664604279,-94.1477796343549,-103.37362418651,-9.22584455215464,98.7607019104322,-42.4609675411001,-56.2997343693321
3.44934261407579,-91.7557033242313,-98.8751542495922,-7.11945092536088,95.3154287869118,-42.3181261994352,-52.9973025874766
3.45449858210879,-89.5120404856448,-95.1049853055991,-5.59294481995423,92.308512895622,-41.9595478328453,-50.3489650627766
3.45965455014179,-86.3901291099229,-88.9975237602248,-2.60739465030196,87.6938264350738,-41.8913672298105,-45.8024592052634
3.46481051817479,-79.5767173525921,-77.2679362863035,2.3087810662886,78.4223268194478,-40.9427492094403,-37.4795776100074
3.46996648620779,-67.8560375960041,-61.1897334636953,6.66630413230881,64.5228855298497,-37.2611708641565,-27.2617146656932
3.47512245424078,-54.0067641647838,-47.1282264415132,6.87853772327057,50.5674953031485,-30.4426509440272,-20.1248443591213
3.48027842227378,-44.1812823570822,-42.4164293275456,1.7648530295366,43.2988558423139,-22.9730676933094,-20.3257881490045
3.48543439030678,-44.1311321996971,-50.1289645198509,-5.99783232015375,47.130048359774,-19.0666499397717,-28.0633984200023
3.49059035833978,-53.7540320204026,-65.4047779502567,-11.6507459298541,59.5794049853296,-21.0516430452743,-38.5277619400554
3.49574632637278,-64.8083091327409,-76.1087329538136,-11.3004238210727,70.4585210432772,-26.7539426558341,-43.7045783874431
3.50090229440577,-66.4885138409498,-71.1013824274937,-4.6128685865439,68.7949481342217,-30.9378226272029,-37.8571255070188
3.50605826243877,-55.5297876178906,-51.7019380066552,3.82784961123541,53.6158628122729,-29.678818614563,-23.9370441977099
3.51121423047177,-40.4482414121963,-33.3249475814924,7.12329383070397,36.8865944968444,-23.7857676214502,-13.1008268753942
3.51637019850477,-34.2033143699795,-32.071550792037,2.13176357794245,33.1374325810083,-18.167538973961,-14.9698936070473
3.52152616653777,-42.1929208878758,-49.4946717833478,-7.30175089547193,45.8437963356118,-17.4455849962019,-28.3982113394098
3.52668213457077,-58.3291668817597,-72.382864465411,-14.0536975836514,65.3560156735853,-22.1377346490541,-43.2182810245312
3.53183810260376,-72.8665992656922,-87.1356096839965,-14.2690104183043,80.0011044748443,-29.298794423694,-50.7023100511504
3.53699407063676,-82.0094892881145,-92.3030055015424,-10.2935162134278,87.1562473948285,-35.8579865373434,-51.2982608574851
3.54215003866976,-88.5904894551037,-96.3578197317306,-7.76733027662689,92.4741545934172,-40.4115795892384,-52.0625750041787
3.54730600670276,-95.3986910814774,-104.871786125687,-9.47309504420961,100.135238603582,-42.9627980186339,-57.1724405849483
3.55246197473576,-100.7985880317,-112.921319086872,-12.1227310551728,106.859953559286,-44.3379284882635,-62.5220250710226
3.55761794276876,-101.09793884306,-111.657480141184,-10.5595412981242,106.377709492122,-45.2691987724679,-61.1085107196543
3.56277391080175,-94.9916685227549,-99.7327275624159,-4.74105903966104,97.3621980425854,-45.1253047415469,-52.2368933010385
3.56792987883475,-84.2009048710585,-83.9969626348189,0.203942236239598,84.0989337529386,-42.202423553649,-41.8965101992896
3.57308584686775,-70.8128329440765,-69.5727265920057,1.24010635207085,70.1927797680411,-36.0264696480737,-34.1663101199674
3.57824181490075,-56.0777726763881,-55.1197587664375,0.958013909950537,55.5987657214128,-28.5178932931693,-27.0808724282435
3.58339778293375,-42.0759524858274,-39.9470484206806,2.12890406514683,41.011500453254,-22.1024282754871,-18.9090721777669
3.58855375096674,-32.4599950095469,-29.5712831367411,2.88871187280575,31.015639073144,-17.6743534411763,-13.3412856319677
3.59370971899974,-29.6983395664613,-29.2206352129705,0.477704353490733,29.4594873897159,-15.088021959976,-14.3714654297399
3.59886568703274,-32.324999484993,-35.9902819790984,-3.66528249410542,34.1576407320457,-14.3298584954438,-19.8277822366019
3.60402165506574,-36.8373581693505,-42.9448189027093,-6.10746073335888,39.8910885360299,-15.3649487179958,-24.5261398180341
3.60917762309874,-42.0627770950912,-48.3233196754535,-6.26054258036232,45.1930483852724,-17.9011172573644,-27.2919311279079
3.61433359113174,-49.2852216163481,-54.9459363060733,-5.66071468972516,52.1155789612107,-21.8122534633115,-30.3033254978992
3.61948955916473,-57.5697893258697,-61.6438627305806,-4.07407340471089,59.6068260282252,-26.7478579605794,-32.8589680676457
3.62464552719773,-61.8406848068582,-61.6977871159354,0.142897690922865,61.7692359613968,-30.9917912488905,-30.7774447125062
3.62980149523073,-57.8843877521858,-51.9424195275248,5.94196822466098,54.9134036398553,-31.9131779884234,-23.0002256514319
3.63495746326373,-48.0029453100183,-38.8260937683379,9.17685154168043,43.4145195391781,-28.5898984258494,-14.8246211133287
3.64011343129673,-39.4435737727082,-31.5831720681827,7.86040170452553,35.5133729204454,-23.6519877386169,-11.8613851818286
3.64526939932972,-37.1697386529866,-31.7201912657667,5.44954738721991,34.4449649593767,-21.3096430201033,-13.1353219392734
3.65042536736272,-39.5049551521519,-32.9989744434062,6.50598070874572,36.2519647977791,-23.0054679304488,-13.2464968673303
3.65558133539572,-41.0114234392953,-30.2143537957167,10.7970696435786,35.612888617506,-25.9042465414369,-9.70864207606905
3.66073730342872,-38.1763088835318,-23.741064876986,14.4352440065458,30.9586868802589,-26.3057764450388,-4.6529104352201
3.66589327146172,-31.4436737855591,-16.213549154958,15.2301246306011,23.8286114702585,-23.3368992080801,-0.491712262178464
3.67104923949472,-23.2187256028682,-9.56031938321467,13.6584062196535,16.3895224930414,-18.4385659112609,2.04904341821943
3.67620520752771,-16.0416599567158,-5.90497442788069,10.1366855288351,10.9733171922983,-13.0891727427755,2.11585555047723
3.68136117556071,-12.1903909135655,-6.90534134543655,5.28504956812893,9.54786612950102,-8.73772024084721,-0.810145888653811
3.68651714359371,-12.3907216167369,-10.4458100176451,1.9449115990918,11.418265817191,-7.16781660791436,-4.25044920927665
3.69167311162671,-14.1654207180724,-11.4469717480345,2.71844897003791,12.8061962330534,-8.44193484405514,-4.36426138899827
3.69682907965971,-13.5728360849711,-8.1616179080039,5.41121817696721,10.8672269964875,-9.49202713096916,-1.37519986551834
3.7019850476927,-9.75635481934204,-4.95662783849052,4.79972698085152,7.35649132891628,-7.27804090009678,-0.0784504288195009
3.7071410157257,-6.0914410933671,-6.35133139408909,-0.259890300721999,6.22138624372809,-2.91577539632255,-3.30561084740555
3.7122969837587,-5.57444975818604,-10.5209237429723,-4.94647398478622,8.04768675057915,-0.313987886699914,-7.73369886387924
3.7174529517917,-6.85436741865203,-11.6387603789536,-4.78439296030153,9.2465638988028,-1.03498722917525,-8.21157666962755
3.7226089198247,-6.54554669253025,-7.17885837953338,-0.633311687003138,6.86220253603181,-2.95611750276355,-3.90608503326826
3.7277648878577,-3.79529269290483,0.142880822529271,3.9381735154341,1.82620593518778,-3.86673310416946,2.04052716898169
3.73292085589069,-0.547589865027856,6.63517735712595,7.1827672221538,-3.04379374604905,-3.86517854359083,6.90897228963988
3.73807682392369,1.13675557015498,10.09788607793,8.96113050777502,-5.61732082404249,-3.91218746881002,9.52950829285251
3.74323279195669,-0.213369258316853,8.1104638295242,8.32383308784106,-3.94854728560367,-4.26860117307896,8.21714845868263
3.74838875998969,-6.00263098305726,-1.58092990369795,4.42170107935931,3.79178044337761,-5.21216603120829,1.42038558783068
3.75354472802269,-16.0654207791727,-16.9344984674116,-0.869077688238871,16.4999596232921,-7.5981715454669,-8.90178807782521
3.75870069605568,-26.9504411708262,-31.1149878629336,-4.16454669210746,29.0327145168799,-11.3929472393594,-17.6397672775205
3.76385666408868,-34.1531263356211,-38.6672042228054,-4.51407788718429,36.4101652792133,-14.8195242242184,-21.5906410549948
3.76901263212168,-37.157882437471,-41.0827020204424,-3.92481958297141,39.1202922289567,-16.6165314272498,-22.5037608017069
3.77416860015468,-41.244446684037,-45.548620794626,-4.30417411058893,43.3965337393315,-18.4701362867241,-24.9263974526075
3.77932456818768,-52.8951489650749,-58.8774078706206,-5.98225890554573,55.8862784178477,-23.4564450297646,-32.4298333880832
3.78448053622068,-72.9263986943381,-81.4852227333798,-8.55882403904171,77.205810713859,-32.1837873276482,-45.0220233862108
3.78963650425367,-94.5901222644242,-105.589936115382,-10.9998138509575,100.090029189903,-41.7951542067333,-58.2948749831696
3.79479247228667,-109.242389256784,-120.797299294734,-11.5549100379499,115.019844275759,-48.8437396094173,-66.1761046663421
3.79994844031967,-114.053652448747,-123.706762365249,-9.65310991650237,118.880207406998,-52.2002712661222,-66.6799361408757
3.80510440835267,-113.491066096734,-120.644812415585,-7.15374631885129,117.067939256159,-53.1686598889412,-63.8992793672181
3.81026037638567,-113.252101367456,-119.133522014435,-5.88142064697834,116.192811690945,-53.6853403602389,-62.5074713307065
3.81541634441866,-114.171054686532,-119.384469890631,-5.21341520409887,116.777762288581,-54.4788197412164,-62.2989425473647
3.82057231245166,-113.068895003954,-117.199995273142,-4.13110026918798,115.134445138548,-54.4688973673832,-60.6655477711651
3.82572828048466,-108.373509005578,-112.106907888492,-3.73339888291403,110.240208447035,-52.320055061332,-57.9201533857031
3.83088424851766,-102.784158674678,-107.799381757232,-5.01522308255419,105.291770215955,-48.8844677960617,-56.407302419893
3.83604021655066,-100.16849241658,-106.18957089465,-6.02107847807049,103.179031655615,-47.0737069692547,-56.1053246863605
3.84119618458366,-101.54337065185,-105.846704018527,-4.30333336667758,103.695037335188,-48.620018642586,-55.0750186926024
3.84635215261665,-105.117224896592,-106.042337410632,-0.92511251404018,105.579781153612,-52.096056191276,-53.4837249623363
3.85150812064965,-109.327330135414,-108.608477489147,0.718852646267123,108.967903812281,-55.0230913908406,-53.94481242144
3.85666408868265,-114.274414316285,-115.096901720641,-0.822487404356295,114.685658018463,-56.7259634559641,-57.9596945624986
3.86182005671565,-119.931324957194,-123.991488816439,-4.06016385924563,121.961406886816,-57.9355805489739,-64.0258263378424
3.86697602474865,-124.471527167334,-131.583676081276,-7.11214891394194,128.027601624305,-58.6796891266959,-69.3479124976089
3.87213199278164,-126.006925745247,-135.310100480074,-9.30317473482704,130.658513112661,-58.3518755052101,-72.3066376074507
3.87728796081464,-125.679625710751,-135.839708653714,-10.1600829429623,130.759667182233,-57.7597713838945,-72.999895798338
3.88244392884764,-126.92126444073,-135.600105268864,-8.67884082813369,131.260684854797,-59.1212118062982,-72.1394730484988
3.88759989688064,-130.402043352692,-135.403750977749,-5.00170762505664,132.902897165221,-62.7001678638179,-70.2027293014028
3.89275586491364,-131.447766334596,-133.017933816207,-1.57016748161129,132.232850075401,-64.9387994264922,-67.2940506489091
3.89791183294664,-125.130260852694,-125.540944829536,-0.41068397684198,125.335602841115,-62.359788437926,-62.975814403189
3.90306780097963,-113.671372023976,-113.798525023792,-0.127152999816474,113.734948523884,-56.7721095120798,-56.9628390118045
3.90822376901263,-106.182471580628,-104.644690652736,1.53778092789229,105.413581116682,-53.8601262542601,-51.5534548624217
3.91337973704563,-110.192554707403,-107.344477911367,2.84807679603639,108.768516309385,-56.5203157517198,-52.2482005576652
3.91853570507863,-124.916929186786,-124.951808394178,-0.03487920739137,124.934368790482,-62.4410249896974,-62.4933438007845
3.92369167311163,-143.223828411217,-149.283224136516,-6.05939572529948,146.253526273867,-68.5822163429587,-77.6713099309079
3.92884764114463,-158.533458076407,-167.773766710091,-9.24030863368478,163.153612393249,-74.646574721361,-88.5070376718881
3.93400360917762,-169.192763606091,-176.318896988799,-7.12613338270805,172.755830297445,-81.0333151116916,-91.7225151857537
3.93915957721062,-177.605720275642,-182.068753532307,-4.46303325666517,179.837236903974,-86.5713435094882,-93.2658933944859
3.94431554524362,-186.110752741859,-192.201942845888,-6.09119010402918,189.156347793873,-90.0097813189148,-99.1465664749586
3.94947151327662,-193.313292417187,-203.269144342752,-9.9558519255657,198.29121837997,-91.6787202458105,-106.612498134159
3.95462748130962,-194.125830665295,-203.729982567751,-9.60415190245646,198.927906616523,-92.2608393814192,-106.667067235104
3.95978344934261,-183.239149597419,-184.554736777843,-1.31558718042362,183.896943187631,-90.9617812084979,-92.9351619791333
3.96493941737561,-157.980331354428,-144.878847832081,13.1014835223471,151.429589593255,-85.5409074383877,-65.888682154867
3.97009538540861,-117.648008333068,-88.3804860331945,29.2675222998736,103.014247183131,-73.4577653164709,-29.5564818666605
3.97525135344161,-60.8425167185977,-16.3457371041255,44.4967796144722,38.5941269113616,-52.6696481665349,14.0755212551733
3.98040732147461,15.5206617575201,75.1562466890343,59.6355849315141,-45.3384542232772,-22.057461586997,67.3959158102742
3.98556328950761,113.603036698214,191.184028792142,77.5809920939281,-152.393532745178,18.0110223021428,134.382510443035
3.9907192575406,230.189158247657,329.465350617223,99.2761923695659,-279.82725443244,65.4564829390458,214.370771493395
3.9958752255736,354.199247623342,473.856115133703,119.656867510361,-414.027681378522,117.271190056491,296.756491322032
4.0010311936066,468.220636390168,596.119166779781,127.898530389612,-532.169901584974,170.161053000278,362.008848584696
4.0061871616396,552.822724109632,666.990428179524,114.167704069892,-609.906576144578,219.32751001987,390.579066124708
4.0113431296726,591.785649327111,669.761979970367,77.9763306432559,-630.773814648739,256.904659341928,373.869155306811
4.01649909770559,577.668002766584,607.522962718849,29.8549599522648,-592.595482742716,273.906521407159,318.688961335557
4.02165506573859,515.844985621687,500.367483470354,-15.4775021513322,-508.10623454602,265.661243886509,242.444990659511
4.02681103377159,422.871614593948,374.8846066353,-47.987007958648,-398.878110614624,235.429311276298,163.448799338326
4.03196700180459,318.607804974443,252.425230165657,-66.1825748087861,-285.51651757005,192.395189891615,93.1213276784353
4.03712296983759,218.344727585715,144.345514786547,-73.9992127991685,-181.345121186131,146.171970192442,35.173150993689
4.04227893787059,130.817378768227,56.2957311198897,-74.5216476483373,-93.5565549440583,102.669513208282,-9.11295826422382
4.04743490590358,60.8415244103723,-6.69761623132726,-67.5391406416995,-27.0719540895225,64.1903325260359,-37.1183784365134
4.05259087393658,11.5056220326495,-41.8073909274431,-53.3130129600925,15.1508844473968,32.409317496371,-47.5602019437678
4.05774684196958,-16.2447253819039,-52.1846080925172,-35.9398827106133,34.2146667372105,9.84757866435474,-44.0622454015653
4.06290281000258,-24.5469784122214,-44.9479156535291,-20.4009372413077,34.7474470328753,-2.07302058545682,-32.6744264474184
4.06805877803558,-17.6645109782917,-25.7301438536962,-8.06563287540455,21.6973274159939,-4.79943905144356,-16.8978883645504
4.07321474606858,-0.243856420467831,1.95877540639099,2.20263182685882,-0.857459492961577,-1.22324412366332,2.0807036166249
4.07837071410157,22.3141663074614,32.5088032927298,10.1946369852684,-27.4114848000956,6.05976466109654,21.3517201389991
4.08352668213457,42.3831024570627,56.744259287613,14.3611568305503,-49.5636808723379,14.0109728132562,35.5527080590817
4.08868265016757,51.9988353765813,66.2515594410851,14.2527240645038,-59.1251974088332,18.8730556560387,40.2521417527945
4.09383861820057,47.9322577968093,58.7521942894784,10.8199364926691,-53.3422260431438,18.5561606520701,34.7860653910738
4.09899458623357,33.636480920636,39.1086795551968,5.47219863456082,-36.3725802379164,14.0821411430376,22.2904390948788
4.10415055426656,15.4676212415591,15.2229608294527,-0.244660412106446,-15.3452910355059,7.85614082683279,7.48915020867312
4.10930652229956,-1.48673629375011,-6.98446882331876,-5.49773252956866,4.23560255853443,2.00549811790928,-6.24110067644371
4.11446249033256,-13.9624967273897,-24.6226926485916,-10.660195921202,19.2925946879907,-1.65115040309387,-17.6414442848968
4.11961845836556,-20.2435867625215,-35.6859352769444,-15.4423485144229,27.964761019733,-2.40061912404932,-25.5641418956836
4.12477442639856,-21.3353652879064,-39.0459597537775,-17.7105944658711,30.190662520842,-1.81238541101765,-28.3782771098243
4.12993039443155,-20.8327884051293,-36.9406022870051,-16.1078138818758,28.8866953460672,-2.36248726162671,-26.5242080844405
4.13508636246455,-21.8768323843971,-34.1448666747075,-12.2680342903104,28.0108495295523,-4.80439904704334,-23.206450482509
4.14024233049755,-24.6378979904451,-33.3242997141022,-8.68640172365713,28.9810988522736,-7.97574813339397,-21.0053507188797
4.14539829853055,-27.5192566079012,-33.7788923659802,-6.25963575807907,30.6490744869407,-10.629810424911,-20.0192640620296
4.15055426656355,-30.2725630472822,-35.3216507773662,-5.04908773008409,32.7971069123242,-12.611737658599,-20.1853692537252
4.15571023459655,-35.0048963987246,-40.209236789215,-5.20434039049041,37.6070665939698,-14.9002780041171,-22.7067885898527
4.16086620262954,-43.8769733529845,-50.193452594992,-6.31647924200755,47.0352129739883,-18.7802470554885,-28.2549659184998
4.16602217066254,-55.9489151043948,-63.5744364013531,-7.62552129695834,59.761675752874,-24.1616969037182,-35.5999788491557
4.17117813869554,-66.5406644471065,-75.1888776206056,-8.64821317349919,70.864771033856,-28.9462256368036,-41.9185453970524
4.17633410672854,-70.2626086478144,-78.421066954886,-8.1584583070716,74.3418378013502,-31.0520751703714,-43.2897626309788
4.18149007476154,-65.2372688240969,-69.2885916820949,-4.051322857998,67.2629302530959,-30.5929729830495,-36.6699572700465
4.18664604279453,-54.5000075547993,-50.8569019787482,3.64310557605105,52.6784547667738,-29.0715565654252,-23.6068982013486
4.19180201082753,-43.3611018249231,-32.4549397628578,10.9061620620653,37.9080207938905,-27.1336319434942,-10.7743888503962
4.19695797886053,-35.5415354365259,-22.3677898094765,13.1737456270494,28.9546626230012,-24.3576405317876,-4.59702209121358
4.20211394689353,-31.3857078116925,-21.005371953367,10.3803358583255,26.1955398825298,-20.883021835009,-5.31251804752073
4.20726991492653,-28.6416441829413,-21.5009747537302,7.14066942921109,25.0713094683357,-17.8911568060762,-7.18015266225955
4.21242588295953,-24.3500774934584,-16.7437471893518,7.60633030410663,20.5469123414051,-15.9782038987825,-4.56870844262257
4.21758185099252,-16.8802648967697,-5.96195260000774,10.918312296762,11.4211087483887,-13.8992885967658,2.47817984837712
4.22273781902552,-7.40233100571177,5.1653995096684,12.5677305153802,1.11846574802169,-9.98503076054597,8.86656501252429
4.22789378705852,0.81172818811001,10.6309680731936,9.8192398850836,-5.72134813065181,-4.50375584848679,10.2251039791386
4.23304975509152,5.3388909596,9.61040963201532,4.27151867241532,-7.47465029580766,0.53368614359234,6.94096415221532
4.23820572312452,6.34986414766376,5.50359502866034,-0.846269119003423,-5.92672958816205,3.59806663333359,2.32866295482846
4.24336169115752,4.84834906855521,0.990019833595541,-3.85832923495967,-2.91918445107538,4.35333915175744,-1.43415470068207
4.24851765919051,0.526150486724826,-4.36846886605221,-4.89461935277704,1.92115918966369,2.71038491975093,-4.63154410941462
4.25367362722351,-7.26127657173047,-12.1912742411388,-4.92999766940834,9.72627540643464,-1.16563945116106,-8.56063595527358
4.25882959525651,-17.2284228549769,-22.1364230938374,-4.90800023886047,19.6824229744071,-6.16021130805821,-13.5222116663489
4.26398556328951,-26.1076600407809,-30.7112180046826,-4.60355796390168,28.4094390227318,-10.7520510384396,-17.6573879842921
4.26914153132251,-30.5566854494922,-33.1852898246585,-2.62860437516628,31.8709876370754,-13.964040537163,-17.9069470999124
4.2742974993555,-28.7011396025186,-27.3192281645391,1.38191143797949,28.0101838835288,-15.041525520249,-12.9686583632798
4.2794534673885,-20.6363375664609,-15.4096180075554,5.22671955890554,18.0229777870082,-12.9315285626832,-5.09144922432493
4.2846094354215,-8.4313338374195,-2.25338647269844,6.17794736472107,5.34236015505897,-7.30464060107029,1.96228044601132
4.2897654034545,4.40987025793895,8.65063768072575,4.2407674227868,-6.53025396933235,0.0845514175760727,6.44570255175628
4.2949213714875,14.3393709873646,16.1816169130961,1.84224592573147,-15.2604939502303,6.24856253081657,9.01193141941378
4.3000773395205,19.4741309418993,19.7704973738123,0.296366431912929,-19.6223141578558,9.58888225499321,10.0334319028626
4.30523330755349,20.3841278462609,18.8696484824629,-1.51447936379803,-19.6268881643619,10.9493036050295,8.67758455933243
4.31038927558649,19.1503748312831,14.8402763882149,-4.31009844306816,-16.995325609749,11.7302366371756,5.26508897257338
4.31554524361949,17.1891106981142,10.7416845903958,-6.44742610771842,-13.965397644255,11.8182684029163,2.14712924133869
4.32070121165249,13.6921205456386,7.41022159534205,-6.28189895029658,-10.5511710704903,9.9870097479676,0.564161322522734
4.32585717968549,6.83827921354218,2.31103007393596,-4.52724913960622,-4.57465464373907,5.6827641765742,-1.10810953283513
4.33101314771848,-2.51024956148657,-4.95458171351017,-2.4443321520236,3.73241563749837,-0.0329587047314823,-3.69945693276689
4.33616911575148,-8.996760985343,-8.70000600024723,0.296754985095774,8.84838349279512,-4.64675798521939,-4.20162550757573
4.34132508378448,-6.63491937566843,-2.80309068452438,3.83182869114406,4.7190050300964,-5.23337403340624,0.514369003309839
4.34648105181748,5.08822919691774,11.3320710841943,6.24384188727655,-8.21015014055602,-0.577806345179405,8.78795648573542
4.35163701985048,20.4797590594565,26.3715571596484,5.89179810019185,-23.4256581095524,7.29398047963233,16.1316776299201
4.35679298788348,33.3370723262047,37.3674633919679,4.03039106576317,-35.3522678590863,14.6533406302208,20.6989272288655
4.36194895591647,41.6392858321269,44.7978886135501,3.15860278142313,-43.2185872228385,19.2403415253519,23.9782456974866
4.36710492394947,46.1329274560309,50.1334250611611,4.00049760513015,-48.133176258596,21.0662149254504,27.0669613331456
4.37226089198247,46.9632737065909,52.4207654131551,5.45749170656421,-49.692019559873,20.7528910000133,28.9391285598597
4.37741686001547,44.2502276967404,50.6827784223707,6.4325507256303,-47.4665030595555,18.908838485555,28.5576645740005
4.38257282804847,40.8072638075464,47.4195808121601,6.61231700461369,-44.1134223098532,17.0974734014664,27.0159489083869
4.38772879608146,40.9929735132662,47.1678223560813,6.17484884281503,-44.0803979346738,17.4090623352256,26.6713355994481
4.39288476411446,45.9277941670608,51.3424768834012,5.41468271634048,-48.635135525231,20.2565557253601,28.3785797998709
4.39804073214746,51.9284966608634,56.1650248931001,4.23652823223667,-54.0467607769817,23.8459842143134,30.2007765626684
4.40319670018046,55.0695405474086,57.1086742291615,2.03913368175296,-56.089107388285,26.5152034328278,29.5739039554572
4.40835266821346,56.105596096281,54.9206111856096,-1.18498491067147,-55.5131036409453,28.6452905034763,26.867813137469
4.41350863624646,59.3526452085929,55.5067494864268,-3.84589572216604,-57.4296973475098,31.5992704653794,25.8304268821304
4.41866460427945,67.0547668795859,63.2560792725813,-3.79868760700455,-65.1554230760836,35.4267272432952,29.7286958327884
4.42382057231245,76.6147113925082,76.1157828494648,-0.498928543043448,-76.3652471209865,38.5568199677758,37.8084271532107
4.42897654034545,84.2373358692538,88.5370904318024,4.29975456254866,-86.3872131505281,39.9687906533526,46.4184224971755
4.43413250837845,89.6504791617407,97.2125686909942,7.56208952925348,-93.4315239263675,41.0441948162436,52.3873291101239
4.43928847641145,95.0266919507694,101.439280231841,6.41258828107198,-98.2329860913054,44.3070518348487,53.9259342564567
4.44444444444444,100.201245084728,100.570281721163,0.369036636434586,-100.385763402946,49.9161042241469,50.4696591787987
4.44960041247744,102.529243591919,96.0582317161871,-6.47101187573165,-99.2937376540529,54.5001277338252,44.7936099202277
4.45475638051044,102.454040449121,94.5284651183173,-7.92557533080382,-98.4912527837193,55.1898078899625,43.3014448937568
4.45991234854344,105.525241552942,102.65244761627,-2.87279393667232,-104.088844584606,54.1990177448074,49.8898268397989
4.46506831657644,115.710919499593,118.155251388668,2.44433188907463,-116.933085444131,56.6332938052593,60.2997916388712
4.47022428460944,128.690748073831,130.583806672957,1.89305859912662,-129.637277373394,63.398844737352,66.2384326360419
4.47538025264243,135.308656674421,132.210606101197,-3.09805057322393,-133.759631387809,69.2033536238225,64.5562777639866
4.48053622067543,131.172542758251,124.976441435186,-6.19610132306539,-128.074492096719,68.6843220406584,59.3901700560603
4.48569218870843,120.332974716288,116.318456057086,-4.01451865920245,-118.325715386687,62.1737466877453,56.1519686989417
4.49084815674143,110.190644149013,111.776551651653,1.58590750263971,-110.983597900333,54.3023683231867,56.6812295771463
4.49600412477443,105.706257760821,112.929646722787,7.22338896196619,-109.317952241804,49.2414343994272,60.0765178423765
4.50116009280742,108.556208337332,119.277614456924,10.7214061195917,-113.916911397128,48.9174011088701,64.9995102882577
4.50631606084042,118.08876854053,129.034162460414,10.9453939198842,-123.561465500472,53.5716873103227,69.9897781901489
4.51147202887342,130.369180600645,138.360852081287,7.99167148064186,-134.365016340966,61.1887545600017,73.1762617809645
4.51662799690642,138.195471565659,141.757728351796,3.56225678613691,-139.976599958728,67.3166073897613,72.6599925689667
4.52178396493942,135.614126434273,134.840744602687,-0.773381831586363,-135.22743551848,68.1937541329299,67.0336813855503
4.52693993297242,123.21842301873,118.208984522639,-5.00943849609092,-120.713703770684,64.1139307574104,56.599773013274
4.53209590100541,107.982239115014,99.5131710092422,-8.46906810577174,-103.747705062128,58.2256536103929,45.5220514517353
4.53725186903841,98.2276166899484,90.765640047895,-7.46197664205341,-94.4966283689217,52.8447966660009,41.6518317029208
4.54240783707141,99.3998483851157,100.978856164555,1.57900777943934,-100.189352274835,48.9104203028382,51.2789319719972
4.54756380510441,112.898319545743,129.041560972975,16.1432414272313,-120.969940259359,48.3775390592561,72.592401200103
4.55271977313741,135.889695479692,163.192316215015,27.3026207353233,-149.541005847353,54.2935373721841,95.2474684751691
4.55787574117041,161.157093945927,188.560863546209,27.403769600282,-174.858978746068,66.8766621728226,107.982316573246
4.5630317092034,178.884561308417,196.664763027312,17.780201718895,-187.774662167865,80.5521797947612,107.222482373104
4.5681876772364,181.821306975062,188.844983154162,7.02367617910011,-185.333145064612,87.3988153979808,97.934329666631
4.5733436452694,170.920405248176,172.351360417308,1.43095516913218,-171.635882832742,84.744725039522,86.8911577932203
4.5784996133024,154.963739459083,154.362603771244,-0.601135687839303,-154.663171615164,77.7824375734612,76.8807340417023
4.5836555813354,142.433505586957,138.34308964154,-4.09041594541654,-140.388297614248,73.2619607661865,67.1263368480617
4.58881154936839,134.121890107456,123.830977236207,-10.2909128712489,-128.976433671831,72.2064014893522,56.7700321824789
4.59396751740139,125.389123114544,109.620859016535,-15.7682640980098,-117.504991065539,70.5786936062771,46.9262974592624
4.59912348543439,114.364054967602,97.7272322723355,-16.6368226952662,-106.045643619969,65.5004388314339,40.5452047885346
4.60427945346739,104.690476185037,92.5811345202161,-12.1093416648214,-98.6358053526267,58.3999089249294,40.2358964276974
4.60943542150039,99.8695542414061,94.6096400568766,-5.25991418452955,-97.2395971491414,52.5647342129678,44.6748629361735
4.61459138953338,97.8599984723487,96.7125342663088,-1.1474642060399,-97.2862663693287,49.5037313391943,47.7825350301344
4.61974735756638,93.3201476683196,90.5476434247218,-2.77250424359777,-91.9338955465207,48.0463259559587,43.887569590562
4.62490332559938,84.0571442398715,75.5714432333406,-8.48570100653089,-79.814293736606,46.2714226232012,33.5428711134048
4.63005929363238,72.964738362074,58.666912230522,-14.297826131552,-65.815825296298,43.631282246813,22.184543049485
4.63521526166538,63.2650270216755,45.3552103032998,-17.9098167183757,-54.3101186624877,40.5874218700256,13.7226967924621
4.64037122969838,54.0836520948565,34.7621831990915,-19.321468895765,-44.422917646974,36.7025604953107,7.72035715166329
4.64552719773137,42.4283862887537,23.3842779777869,-19.0441083109668,-32.9063321332703,30.7362472998603,2.17008483341002
4.65068316576437,27.6850276862395,10.1517224156115,-17.533305270628,-18.9183750509255,22.6091664784337,-3.69079142750824
4.65583913379737,11.4415748682726,-4.0172720802612,-15.4588469485338,-3.71215139400569,13.4502109084032,-9.73805951439749
4.66099510183037,-5.70280269848145,-18.9425298162419,-13.2397271177604,12.3226662573617,3.76846220963948,-16.0911284670011
4.66615106986337,-23.6739053731946,-34.6903279721882,-11.0164225989936,29.1821166726914,-6.32874138710052,-22.8533752855909
4.67130703789637,-40.0928589372261,-49.7255104797085,-9.63265154248243,44.9091847084673,-15.2301036973718,-29.6790810110955
4.67646300592936,-51.6049974442292,-62.0053552205103,-10.4003577762811,56.8051763323698,-20.6023198339741,-36.2028564983957
4.68161897396236,-58.0103727293803,-71.0941362001082,-13.0837634707279,64.5522544647442,-22.4633046293262,-42.088949835418
4.68677494199536,-62.135985876094,-77.1269029517496,-14.9909170756556,69.6314444139218,-23.5725344002192,-46.0589100137026
4.69193091002836,-65.5339222675102,-78.2072643472669,-12.6733420797568,71.8705933073886,-26.4302900938767,-45.4403032135119
4.69708687806136,-66.4257724876914,-70.9794398143797,-4.55366732668828,68.7026061510356,-30.9360525805016,-37.766553570534
4.70224284609435,-62.0455340705188,-54.9476393190772,7.0978947514416,58.496586694798,-34.5717144109802,-23.9248722838178
4.70739881412735,-52.4675819861849,-36.2271138091687,16.2404681770162,44.3473478976768,-34.3540250816006,-9.99332281607623
4.71255478216035,-42.9516655180151,-25.8193643131517,17.1323012048634,34.3855149155834,-30.0419833614393,-4.34353155414416
4.71771075019335,-41.6796161958865,-31.5656684440987,10.1139477517878,36.6226423199926,-25.8967819738371,-10.7258603461554
4.72286671822635,-52.0596920298335,-50.2409655796908,1.81872645014271,51.1503288047622,-26.9392092399881,-24.2111195647741
4.72802268625935,-67.2431832352328,-69.3507005870374,-2.10751735180462,68.2969419111351,-32.5678329417141,-35.729108969421
4.73317865429234,-76.0392456978926,-78.7751700952237,-2.73592439733113,77.4072078965581,-36.6516606502807,-40.7555472462774
4.73833462232534,-74.8514395720957,-79.2785752352913,-4.42713566319557,77.0650074036935,-35.2121519544501,-41.8528554492434
4.74349059035834,-69.9495154125259,-77.9845851577357,-8.03506974520987,73.9670502851308,-30.957222833658,-43.0098274514728
4.74864655839134,-67.8882958150213,-78.3464917759777,-10.4581959609563,73.1173937954995,-28.7150499270325,-44.402343868467
4.75380252642434,-69.09248631466,-78.5211382998401,-9.42865198518004,73.80681230725,-29.83191716474,-43.9748951425101
4.75895849445733,-72.4241875690622,-78.2369157821363,-5.81272821307405,75.3305516755993,-33.3057296779941,-42.0248219976052
4.76411446249033,-80.0953583842084,-81.7003275024314,-1.60496911822304,80.8978429433199,-39.2451946329927,-41.6526483103272
4.76927043052333,-93.2905291479511,-91.2102497174746,2.08027943047654,92.2503894327129,-47.6854042892138,-44.564985143499
4.77442639855633,-105.979959486058,-101.337326466842,4.64263301921606,103.65864297645,-55.311296252637,-48.3473467238129
4.77958236658933,-108.820384093123,-103.534953094049,5.28543099907374,106.177668593586,-57.0529075460983,-49.1247610474877
4.78473833462233,-99.7506305607468,-95.7639393357247,3.98669122502216,97.7572849482357,-51.8686608928845,-45.8886240553513
4.78989430265532,-86.959895255511,-84.1147339929027,2.84516126260826,85.5373146242069,-44.9025282590596,-40.6347863651472
4.79505027068832,-79.922136417065,-74.9069724687438,5.01516394832112,77.4145544429044,-42.468650182693,-34.9459042602114
4.80020623872132,-80.0242088863039,-68.9302859822649,11.093922904039,74.4772474342844,-45.5590658951714,-28.918181539113
4.80536220675432,-81.8054842058425,-64.793233205317,17.0122510005255,73.2993587055797,-49.408867603184,-23.8904911023958
4.81051817478732,-81.3361806237377,-64.138037355595,17.1981432681427,72.7371089896664,-49.2671619459402,-23.4699470437262
4.81567414282032,-80.3744650456175,-69.9615762076095,10.412888838008,75.1680206266135,-45.3936769418128,-29.7743436848007
4.82083011085331,-82.6322698549291,-81.2653335030914,1.36693635183764,81.9488016790102,-41.9996031033834,-39.9491985756269
4.82598607888631,-88.7044203445903,-92.8646110136384,-4.16019066904811,90.7845156791143,-42.2721148377711,-48.5124008413433
4.83114204691931,-95.5046213656992,-100.343068267911,-4.8384469022115,97.923844816805,-45.3330872317439,-52.5907575850611
4.83629801495231,-99.0438767887635,-102.315900063101,-3.2720232743373,100.679888425932,-47.8859267572131,-52.793961668719
4.84145398298531,-97.025259552952,-98.287541683267,-1.26228213031499,97.6564006181095,-47.8814887113185,-49.774911906791
4.8466099510183,-89.9951304056474,-88.3966665797901,1.59846382585738,89.1958984927188,-45.7967971157524,-43.3991013769663
4.8517659190513,-81.0015997809505,-76.0327911522034,4.96880862874707,78.5171954665769,-42.9852042048488,-35.5319912617282
4.8569218870843,-73.8013834759149,-66.8876476099417,6.91373586597321,70.3445155429283,-40.357559670944,-29.9869558719842
4.8620778551173,-70.5332043142505,-63.8737164007416,6.6594879135089,67.203460357496,-38.5963461138797,-28.6071142436163
4.8672338231503,-70.3440984354981,-65.0462737800896,5.29782465540856,67.6951861077938,-37.8209615454533,-29.8742245623405
4.87238979118329,-70.1992986478419,-66.8215983635119,3.37770028433,68.5104485056769,-36.788499466086,-31.7219490395909
4.87754575921629,-67.8686969488005,-67.2878994345205,0.580797514280064,67.5782981916605,-34.2247472315403,-33.3535509601202
4.88270172724929,-64.4335746270148,-66.5362983912248,-2.10272376420997,65.4849365091198,-31.1654254314024,-34.3195110777174
4.88785769528229,-63.2208495213777,-66.2377976726373,-3.01694815125953,64.7293235970075,-30.1019506850591,-34.6273729119484
4.89301366331529,-66.391825344037,-69.4353633078248,-3.04353796378771,67.9135943259309,-31.6741436901247,-36.2394506358062
4.89816963134829,-73.3298620288567,-77.8874698377351,-4.55760780887843,75.6086659332959,-34.3861271099891,-41.2225388233068
4.90332559938128,-81.5235406889107,-87.6428176433616,-6.11927695445095,84.5831791661362,-37.7021318672299,-46.8810472989063
4.90848156741428,-87.4463085811131,-89.88201550308,-2.43570692196687,88.6641620420965,-42.5053008295731,-46.1588612125234
4.91363753544728,-87.6589842684091,-79.892814761488,7.76616950692109,83.7758995149486,-47.7125768876651,-36.0633226272835
4.91879350348028,-81.6340100562398,-64.2033777645789,17.4306322916609,72.9186939104093,-49.5323211739503,-23.386372736459
4.92394947151328,-73.1798786092394,-54.7197591763129,18.4601194329265,63.9498188927762,-45.8199990210829,-18.1298198716932
4.92910543954627,-67.0363377533617,-55.6084416568809,11.4278960964809,61.3223897051213,-39.2321169249213,-22.0902727802
4.93426140757927,-64.5404957312493,-60.0573375994385,4.48315813181086,62.2989166653439,-34.5118269315301,-27.7870897338138
4.93941737561227,-64.1375695064822,-60.944653765977,3.19291574050521,62.5411116362296,-33.6652426234937,-28.8758690127359
4.94457334364527,-65.1122461746172,-60.3242853859093,4.78796078870785,62.7182657802633,-34.9501034816625,-27.7681622986007
4.94972931167827,-68.9568113490222,-65.7918826673354,3.16492868168683,67.3743470081788,-36.0608700153545,-31.3134769928243
4.95488527971127,-77.2637281249748,-80.5076459883792,-3.24391786340432,78.885687056677,-37.0099051307853,-41.8757819258917
4.96004124774426,-89.4031789309747,-99.8459375115485,-10.4427585805738,94.6245582212616,-39.4802101752005,-55.1443480460612
4.96519721577726,-102.274991769973,-116.172040800781,-13.8970490308085,109.223516285377,-44.188971369582,-65.0345449157948
4.97035318381026,-111.313753659477,-123.516817077786,-12.2030634183098,117.415285368632,-49.5553451205834,-67.8599402480481
4.97550915184326,-111.417320053364,-117.921888416978,-6.5045683636141,114.669604235171,-52.4563758448748,-62.2132283902959
4.98066511987626,-98.9653834817876,-98.0070579863762,0.958325495411358,98.4862207340819,-49.9618544885995,-48.5243662454824
4.98582108790926,-76.0154841142242,-69.0627136287345,6.95277048548969,72.5390988714794,-41.4841272998569,-31.0549715716224
4.99097705594225,-52.4690889390527,-44.1217426015052,8.34734633754751,48.2954157702789,-30.4082176383001,-17.8871981319788
4.99613302397525,-40.388923036638,-35.3050566793468,5.08386635729126,37.8469898579924,-22.7363946969646,-15.1105951610278
5.00128899200825,-43.8216952901108,-43.1575945407133,0.66410074939747,43.489644915412,-22.2428980197541,-21.2467468956579
5.00644496004125,-55.7766137397123,-57.7560722400596,-1.97945850034729,56.7663429898859,-26.8985776196825,-29.8677653702034
5.01160092807425,-66.3985050855905,-70.0467184448331,-3.6482133592426,68.2226117652118,-31.375145863174,-36.8474659020379
5.01675689610724,-72.0379288100285,-78.4503592580162,-6.41243044798773,75.2441440340224,-32.8127491810204,-42.431394853002
5.02191286414024,-75.2069968143518,-84.7596815326696,-9.55268471831786,79.9833391735107,-32.8271560480169,-47.1561831254937
5.02706883217324,-78.4555493268341,-88.3591613074748,-9.90361198064063,83.4073553171545,-34.2759686730968,-49.1313866440577
5.03222480020624,-80.9008334329098,-86.7052232608551,-5.80438982794529,83.8030283468824,-37.5482218024823,-46.2548065444002
5.03738076823924,-79.9521683068387,-79.4145656191688,0.537602687669903,79.6833669630037,-40.2448854972543,-39.4384814657494
5.04253673627224,-74.6412592922481,-69.8472113666314,4.79404792561678,72.2442353294397,-39.7176536089325,-32.5265817205073
5.04769270430523,-66.8221641523779,-62.2071818599135,4.6149822924644,64.5146730061457,-35.7185732224212,-28.7960997837246
5.05284867233823,-59.4493656175462,-57.0443355363617,2.40503008118453,58.2468505769539,-30.9271978493654,-27.3196527275886
5.05800464037123,-53.9546688898036,-50.6686426581643,3.28602623163928,52.311655773984,-28.6203475607214,-23.6913082132625
5.06316060840423,-49.4826559258941,-40.5718648827866,8.91079104310745,45.0272604043404,-29.1967234845008,-15.8305369198396
5.06831657643723,-44.7897495309738,-30.3682126153972,14.4215369155766,37.5789810731855,-29.6056432232752,-7.97333784991028
