t,leadI,leadII,leadIII,aVR,aVL,aVF
0,-4.99751203231301,8.66823021544985,13.6657422477629,-1.83535909156842,-9.33162714003794,11.1669862316064
0.00216309755569976,4.39992972240384,38.6773144205937,34.2773846981898,-21.5386220714988,-14.938727487893,36.4773495593918
0.00432619511139952,10.3634678381172,65.25555331023,54.8920854721127,-37.8095105741736,-22.2643088169978,60.0738193911714
0.00648929266709929,11.9953739832386,83.4643337304151,71.4689597471765,-47.7298538568269,-29.736792881969,77.4666467387958
0.00865239022279905,9.12237365947385,90.9519986521597,81.8296249926858,-50.0371861558168,-36.353625666606,86.3908118224227
0.0108154877784988,2.48844399342028,88.2700500798129,85.7816060863926,-45.3792470366166,-41.6465810464862,87.0258280831028
0.0129785853341986,-5.99897719750822,78.8751410521805,84.8741182496888,-36.4380819273362,-45.4365477235985,81.8746296509347
0.0151416828898983,-13.570061239619,68.1688217114503,81.7388829510692,-27.2993802359157,-47.6544720953441,74.9538523312598
0.0173047804455981,-17.6421021124785,61.3693560937539,79.0114582062324,-21.8636269906377,-48.3267801593555,70.1904071499932
0.0194678780012979,-17.1176575406262,61.1214532330279,78.2391107736541,-22.0018978462008,-47.6783841571402,69.680282003341
0.0216309755569976,-13.0123369055813,66.3913682107597,79.403705116341,-26.6895156525892,-46.2080210109611,72.8975366635503
0.0237940731126974,-7.92782164431804,73.3554734242906,81.2832950686087,-32.7138258899863,-44.6055583564633,77.3193842464496
0.0259571706683971,-4.74204806791641,77.5599913742764,82.3020394421928,-36.40897165318,-43.5220437550546,79.9310154082346
0.0281202682240969,-5.2296056656491,76.1750816040127,81.4046872696618,-35.4727379691818,-43.3171464676554,78.7898844368372
0.0302833657797967,-9.19061372523396,69.4231043085672,78.6137180338011,-30.1162452916666,-43.9021658795176,74.0184111711842
0.0324464633354964,-14.5255092716354,60.5214732957531,75.0469825673886,-22.9979820120589,-44.786245919512,67.7842279315709
0.0346095608911962,-18.3605048901101,53.975305226299,72.3358101164092,-17.8074001680944,-45.3481575032597,63.1555576713541
0.036772658446896,-18.6866613600802,52.9805631117596,71.6672244718398,-17.1469508758397,-45.17694291596,62.3238937917997
0.0389357560025957,-15.4970194154467,57.5569805652374,73.0539999806841,-21.0299805748954,-44.2755096980654,65.3054902729608
0.0410988535582955,-10.7050127111178,64.6498270691159,75.3548397802337,-26.9724071789991,-43.0299262456757,70.0023334246748
0.0432619511139952,-7.0375702016529,69.9136514137872,76.9512216154401,-31.4380406060671,-41.9943959085465,73.4324365146136
0.045425048669695,-6.62656076126723,69.9823465228683,76.6089072841355,-31.6778928808005,-41.6177340227014,73.2956269035019
0.0475881462253948,-9.92082116427079,64.1920626700261,74.1128838342969,-27.1356207528776,-42.0168524992838,69.1524732521615
0.0497512437810945,-15.3709219407921,55.0544190361977,70.4253409769898,-19.8417485477028,-42.898131458891,62.7398800065937
0.0519143413367943,-20.1608321496593,47.073586426229,67.2344185758883,-13.4563771382849,-43.6976253627738,57.1540025010587
0.054077438892494,-21.7703409526932,44.2394636041268,66.00980455682,-11.2345613257168,-43.8900727547566,55.1246340804734
0.0562405364481938,-19.4488205821584,47.6856449245002,67.1344655066586,-14.1184121711709,-43.2916430444085,57.4100552155794
0.0584036340038936,-14.5739441811509,55.1572991727303,69.7312433538812,-20.2916774957897,-42.152593767516,62.4442712633057
0.0605667315595933,-9.78267721038401,62.4227738472823,72.2054510576663,-26.3200483184492,-40.9940641340252,67.3141124524743
0.0627298291152931,-7.60416006083153,65.4910450957689,73.0952051566004,-28.9434425174687,-40.349682608716,69.2931251261846
0.0648929266709929,-9.24518029363063,62.5829709608924,71.828151254523,-26.6688953336309,-40.5366657740768,67.2055611077077
0.0670560242266926,-13.9176927243171,55.1046461037761,69.0223388280933,-20.5934766897295,-41.4700157762052,62.0634924659347
0.0692191217823924,-19.1343162896714,47.0088926266838,66.1432089163552,-13.9372881685062,-42.6387626030133,56.5760507715195
0.0713822193380921,-22.0655814330002,42.6204644275828,64.686045860583,-10.2774414972913,-43.3758136467916,53.6532551440829
0.0735453168937919,-21.198432238052,44.1364451834023,65.3348774214543,-11.4690064726752,-43.2666548297532,54.7356613024283
0.0757084144494917,-17.1442986382822,50.4373664845925,67.5816651228747,-16.6465339231552,-42.3629818805784,59.0095158037336
0.0778715120051914,-12.1620541415137,57.8435085979999,70.0055627395136,-22.8407272282431,-41.0838084405137,63.9245356687568
0.0800346095608912,-8.9211346797176,62.1212860630802,71.0424207427978,-26.6000756916813,-39.9817777112577,66.581853402939
0.082197707116591,-9.18778289071216,60.6501523905424,69.8379352812546,-25.7311847499151,-39.5128590859834,65.2440438358985
0.0843608046722907,-12.9024767724377,53.8150565408273,66.717533313265,-20.4562898841948,-39.8100050428514,60.2662949270462
0.0865239022279905,-18.1069290540103,44.9138039048853,63.0207329588956,-13.4034374254375,-40.563831006453,53.9672684318905
0.0886869997836902,-21.9524875186009,38.4473926715136,60.3998801901146,-8.24745257645634,-41.1761838543578,49.4236364308141
0.09085009733939,-22.3324727804677,37.5923699625046,59.9248427429722,-7.62994859101845,-41.1286577617199,48.7586063527384
0.0930131948950898,-19.0868636786915,42.3909904173979,61.4778540960894,-11.6520633693532,-40.2823588873905,51.9344222567437
0.0951762924507895,-13.9933751613645,49.839621129727,63.8329962910915,-17.9231229841812,-38.913185726228,56.8363087104093
0.0973393900064893,-9.7308110763953,55.6328209545331,65.3636320309284,-22.9510049390689,-37.5472215536618,60.4982264927307
0.099502487562189,-8.53507613250406,56.3936415457951,64.9287176782992,-23.9292827066455,-36.7318969054016,60.6611796120471
0.101665585117889,-11.0851856400074,51.389589792743,62.4747754327504,-20.1522020763678,-36.7799805363789,56.9321826127467
0.103828682673589,-16.0464451255874,43.0388024027289,59.0852475283164,-13.4961786385708,-37.5658463269519,51.0620249655227
0.105991780229288,-20.6805448523935,35.735963153237,56.4165080056305,-7.52770915042177,-38.548526429012,46.0762355794338
0.108154877784988,-22.3966715428026,33.3495545995194,55.7462261423219,-5.47644152835842,-39.0714488425622,44.5478903709207
0.110317975340688,-20.2893633654026,36.9514849185949,57.2408482839976,-8.33106077659615,-38.7651058247001,47.0961666012962
0.112481072896388,-15.5880477961414,44.345558049691,59.9336058458323,-14.3787551267748,-37.7608268209868,52.1395819477616
0.114644170452087,-10.8515822107479,51.4281000807509,62.2796822914988,-20.2882589350015,-36.5656322511234,56.8538911861249
0.116807268007787,-8.60154315678722,54.3259829214937,62.9275260782809,-22.8622198823532,-35.7645346175341,58.6267544998873
0.118970365563487,-10.0748251977438,51.3385264161591,61.4133516139029,-20.6318506092077,-35.7440884058233,56.375939015031
0.121133463119187,-14.5275314158587,43.8941492567383,58.421680672597,-14.6833089204398,-36.4746060442278,51.1579149646677
0.123296560674886,-19.5147716945477,35.8959711484682,55.4107428430159,-8.19059972696022,-37.4627572687818,45.653356995742
0.125459658230586,-22.2313774522445,31.565022093024,53.7963995452685,-4.66682232038976,-38.0138884987565,42.6807108191462
0.127622755786286,-21.1729327448328,33.0187456870391,54.1916784318719,-5.92290647110319,-37.6823055883523,43.6052120594555
0.129785853341986,-16.9687604912357,39.1567435441977,56.1255040354334,-11.093991526481,-36.5471322633345,47.6411237898155
0.131948950897685,-11.9157312355301,46.3998920377672,58.3156232732973,-17.2420804011186,-35.1156772544137,52.3577576555323
0.134112048453385,-8.72449790553998,50.6268789336436,59.3513768391835,-20.9511905140518,-34.0379373723618,54.9891278864135
0.136275146009085,-9.18144747994941,49.2819580200249,58.4634054999743,-20.0502552700377,-33.8224264899619,53.8726817599996
0.138438243564785,-13.1978349563685,42.7464546542874,55.9442896106559,-14.7743098489595,-34.5710622835122,49.3453721324717
0.140601341120485,-18.7271312144143,34.2587372297305,52.9858684441447,-7.76580300765809,-35.8564998292795,43.6223028369376
0.142764438676184,-22.8311980701023,28.2161405095122,51.0473385796145,-2.69247121970494,-36.9392683248584,39.6317395445634
0.144927536231884,-23.3854518859941,27.6967518223673,51.0822037083613,-2.15564996818661,-37.2338277971777,39.3894777653643
0.147090633787584,-20.2670258252846,32.7262216073592,52.9932474326438,-6.22959789103732,-36.6301366289642,42.8597345200015
0.149253731343284,-15.288143242898,40.3662281642135,55.6543714071115,-12.5390424606578,-35.4712573250047,48.0102997856625
0.151416828898983,-11.1460712523897,46.3892260899833,57.535297342373,-17.6215774187968,-34.3406842973813,51.9622617161782
0.153579926454683,-10.0735538773316,47.4479581784478,57.5215120557794,-18.6872021505581,-33.7975329665555,52.4847351171136
0.155743024010383,-12.7143346277335,42.7755954366807,55.4899300644142,-15.0306304044736,-34.1021323460738,49.1327627505474
0.157906121566083,-17.6860149450732,34.7136160187269,52.3996309638001,-8.51380053682684,-35.0428229544367,43.5566234912635
0.160069219121782,-22.2306327000819,27.5646172418239,49.7952499419058,-2.66699227087096,-36.0129413209939,38.6799335918648
0.162232316677482,-23.7948076375167,25.1213186822288,48.9161263197455,-0.663255522356081,-36.3554669786311,37.0187225009872
0.164395414233182,-21.5510611341518,28.4335753317797,49.9846364659316,-3.44125709881395,-35.7678488000417,39.2091058988557
0.166558511788882,-16.794223092362,35.3503588090132,52.1445819013753,-9.27806785832561,-34.4694024968686,43.7474703551943
0.168721609344581,-12.1049663710277,41.8769028673213,53.9818692383491,-14.8859682481468,-33.0434178046884,47.9293860528352
0.170884706900281,-9.99859060926727,44.2940395761213,54.2926301853886,-17.147724483427,-32.1456103973279,49.293334880755
0.173047804455981,-11.7025379566066,41.040336520076,52.7428744766827,-14.6688992817347,-32.2227062166447,46.8916054983794
0.175210902011681,-16.453842452587,33.6087185114424,50.0625609640294,-8.57743802942767,-33.2582017083082,41.8356397377359
0.17737399956738,-21.7594564220013,25.8625628518924,47.6220192738938,-2.05155321494557,-34.6907378479475,36.7422910628931
0.17953709712308,-24.7472231834931,21.8815233902463,46.6287465737394,1.43284989662339,-35.6879848786162,34.2551349819928
0.18170019467878,-23.8535886501006,23.6237689767418,47.4773576268425,0.114909836679402,-35.6654731384716,35.5505633017922
0.18386329223448,-19.6643374304234,29.9217869376024,49.5861243680258,-5.12872475358948,-34.6252308992246,39.7539556528141
0.18602638979018,-14.4421418798605,37.2405128295261,51.6826547093866,-11.3991854748328,-33.0623982946236,44.4615837694564
0.188189487345879,-10.8796427252159,41.5638751191485,52.4435178443644,-15.3421161969663,-31.6615802847902,47.0036964817564
0.190352584901579,-10.7954382961009,40.4337917638233,51.2292300599243,-14.8191767338612,-31.0123341780126,45.8315109118738
0.192515682457279,-14.2098764165071,34.2514913658635,48.4613677823707,-10.0208074746782,-31.3356220994389,41.3564295741171
0.194678780012979,-19.2202109441713,26.166758012914,45.3869689570853,-3.47327353437133,-32.3035899506283,35.7768634849997
0.196841877568678,-22.9711155051522,20.4114001849715,43.3825156901237,1.27985766009034,-33.176815597638,31.8969579375476
0.199004975124378,-23.317241684601,19.9210180979972,43.2382597825983,1.69811179330191,-33.2777507335997,31.5796389402977
0.201168072680078,-20.0737826948181,24.7052679212614,44.7790506160794,-2.31574261322164,-32.4264166554488,34.7421592686704
0.203331170235778,-15.0186060545413,31.9304445698969,46.9490506244382,-8.4559192576778,-30.9838283394898,39.4397475971676
0.205494267791477,-10.8334270881713,37.5206694824688,48.3540965706401,-13.3436211971488,-29.5937618294057,42.9373830265544
0.207657365347177,-9.72850451230698,38.3006119112719,48.0291164235788,-14.2860536994824,-28.8788104679429,43.1648641674253
0.209820462902877,-12.3239794676042,33.6635635252148,45.987542992819,-10.6697920288053,-29.1557612302116,39.8255532590169
0.211983560458577,-17.2290342952411,25.9913296202568,43.220363915498,-4.38114766250786,-30.2246991053696,34.6058467678774
0.214146658014276,-21.7033435638766,19.440298063891,41.1436416277676,1.13152274999277,-31.4234925958221,30.2919698458293
0.216309755569976,-23.2143137392265,17.5705317261698,40.7848454653963,2.82189100652838,-31.9995796023114,29.177688595783
0.218472853125676,-20.9128825625363,21.2845138364072,42.1973963989435,-0.18581563693543,-31.5551394807399,31.7409551176753
0.220635950681376,-16.0309559353698,28.4240930819325,44.4550490173023,-6.19656857328137,-30.2430024763361,36.4395710496174
0.222799048237075,-11.0887358559102,35.0588524697968,46.1475883257069,-11.9850583069433,-28.6181620908085,40.6032203977518
0.224962145792775,-8.56484177724091,37.5372726876825,46.1021144649234,-14.4862154552208,-27.3334781210822,41.819693576303
0.227125243348475,-9.67692727160723,34.3507911798907,44.0277184514979,-12.3369319541417,-26.8523228615526,39.1892548156943
0.229288340904175,-13.7069921945028,27.04029358131,40.7472857758128,-6.66665069340362,-27.2271389851578,33.8937896785614
0.231451438459875,-18.2850787436557,19.5047662816622,37.7898450253178,-0.609843769003234,-28.0374618844868,28.64730565349
0.233614536015574,-20.7023795747149,15.8013687946571,36.503748369372,2.45050539002889,-28.6030639720434,26.1525585820145
0.235777633571274,-19.5250754581168,17.8028229419878,37.3278984001047,0.861126258064477,-28.4264869291107,27.5653606710462
0.237940731126974,-15.3830758055706,24.2714563337974,39.654532139368,-4.44419026411339,-27.5188039724693,31.9629942365827
0.240103828682674,-10.4815421655468,31.662181422597,42.1437235881438,-10.5903196285251,-26.3126328768453,36.9029525053704
0.242266926238373,-7.38224569667069,35.9729502442938,43.3551959409645,-14.2953522738116,-25.3687208188176,39.6640730926292
0.244430023794073,-7.75858925606587,34.7779665741138,42.5365558301796,-13.5096886590239,-25.1475725431228,38.6572612021467
0.246593121349773,-11.512622501557,28.5639838083595,40.0766063099165,-8.52568065340128,-25.7946144057367,34.320295059138
0.248756218905473,-16.6729658272004,20.5877725315813,37.2607383587817,-1.95740335219042,-26.9668520929911,28.9242554451815
0.250919316461172,-20.3847313556674,15.1165709714127,35.5013023270801,2.63408019212734,-27.9430168413737,25.3089366492464
0.253082414016872,-20.5647494003625,15.0110043055171,35.5757537058796,2.77687254742272,-28.0702515531211,25.2933790056984
0.255245511572572,-17.1127737149698,20.155329797676,37.2681035126458,-1.52127804135307,-27.1904386138078,28.7117166551609
0.257408609128272,-11.8674048452776,27.6280357920673,39.4954406373449,-7.88031547339488,-25.6814227413113,33.5617382147061
0.259571706683971,-7.52913772175823,33.3398014335109,40.8689391552691,-12.9053318558763,-24.1990384385137,37.10437029439
0.261734804239671,-6.30765229868672,34.1504460334119,40.4580983320987,-13.9213968673626,-23.3828753153927,37.3042721827553
0.263897901795371,-8.82923679155331,29.4970090713444,38.3262458628977,-10.3338861398955,-23.5777413272255,33.9116274671211
0.266060999351071,-13.7098412078268,21.7927939772829,35.5026351851097,-4.04147638472803,-24.6062381964683,28.6477145811963
0.268224096906771,-18.2065023231384,15.1976282867374,33.4041306098758,1.5044370182005,-25.8053164665071,24.3008794483066
0.27038719446247,-19.8004697653321,13.2342723922138,33.0347421575459,3.28309868655918,-26.417605961439,23.1345072748798
0.27255029201817,-17.6822498361805,16.7465202594564,34.4287700956369,0.467864788362053,-26.0555099659087,25.5876451775467
0.27471338957387,-13.0999800427683,23.5554582462885,36.6554382890568,-5.22773910176012,-24.8777091659125,30.1054482676727
0.27687648712957,-8.53843903783348,29.7805601877765,38.31899922561,-10.6210605749715,-23.4287191317217,34.0497797066933
0.279039584685269,-6.42736495128175,31.8570564176198,38.2844213689015,-12.714845733169,-22.3558931600916,35.0707388932606
0.281202682240969,-7.96508853939983,28.3654795122983,36.3305680516981,-10.2001954864492,-22.147828295549,32.3480237819982
0.283365779796669,-12.4252288035248,20.9141822560887,33.3394110596135,-4.24447672628198,-22.8823199315692,27.1267966578511
0.285528877352369,-17.38579590251,13.3994284613491,30.7852243638591,1.99318372058042,-24.0855101331846,22.0923264126041
0.287691974908068,-20.0525619905689,9.79171760544289,29.8442795960118,5.13042219256298,-24.9484207932903,19.8179986007273
0.289855072463768,-18.9464466549467,11.8551640935968,30.8016107485436,3.54564128067495,-24.8740287017452,21.3283874210702
0.292018170019468,-14.7299677051064,18.2894184430982,33.0193861482047,-1.77972536899591,-23.8746769266556,25.6544022956515
0.294181267575168,-9.69971100925441,25.5495890125734,35.2493000218278,-7.92493900165951,-22.4745055155411,30.3994445172006
0.296344365130867,-6.51851142843371,29.6844665445952,36.2029779730289,-11.5829775580808,-21.3607447007313,32.9437222588121
0.298507462686567,-6.90858843234571,28.3461317476649,35.2547201800106,-10.7187716576596,-21.0816543061782,31.8004259638377
0.300670560242267,-10.7397282675116,22.0766864230377,32.8164146905493,-5.66847907776304,-21.7780714790305,27.4465505567935
0.302833657797967,-15.9742600923047,14.1088635657247,30.0831236580294,0.932698263290009,-23.028691875167,22.095993611877
0.304996755353666,-19.7458534914446,8.6090310216101,28.3548845130547,5.56841123491723,-24.0503690022496,18.4819577673324
0.307159852909366,-20.0265753518828,8.34687831807129,28.3734536699541,5.83984851690575,-24.2000145109184,18.3601659940127
0.309322950465066,-16.7447464745303,13.209512145777,29.9542586203074,1.76761716437665,-23.3495025474189,21.5818853830422
0.311486048020766,-11.6909452717547,20.365128175772,32.0560734475267,-4.33709145200867,-21.8735093596407,26.2106008116494
0.313649145576466,-7.50328697130864,25.8375769200339,33.3408638913426,-9.16714497436264,-20.4220754313256,29.5892204056882
0.315812243132165,-6.37017569646841,26.5731098405801,32.9432855370485,-10.1014670720558,-19.6567306167585,29.7581976888143
0.317975340687865,-8.92044291704835,22.0412476906374,30.9616906076857,-6.56040238679451,-19.941066762367,26.5014691491616
0.320138438243565,-13.7776584088468,14.6119904956708,28.3896489045176,-0.41716604341196,-21.0836536566822,21.5008197000942
0.322301535799265,-18.2207176432976,8.31936735042687,26.5400849937244,4.95067514643535,-22.380401318511,17.4297261720757
0.324464633354964,-19.7629427103197,6.5418384336963,26.304781144016,6.61055213831168,-23.0338619271678,16.4233097888561
0.326627730910664,-17.6295483446015,10.0685314596173,27.6980798042188,3.78050844249208,-22.6638140744102,18.8833056319181
0.328790828466364,-13.1038051842602,16.7663930873312,29.8701982715914,-1.83129395153549,-21.4870017279258,23.3182956794613
0.330953926022064,-8.68340773564064,22.8249482782797,31.5083560139203,-7.07077027131952,-20.0958818747805,27.1666521461
0.333117023577763,-6.76096469738195,24.7471535663556,31.5081182637376,-8.99309443448683,-19.1345414805598,28.1276359150466
0.335280121133463,-8.43789396614362,21.1803924900799,29.6182864562235,-6.37124926196815,-19.0280902111836,25.3993394731517
0.337443218689163,-12.8719035358754,13.7652289660406,26.637132501916,-0.446662715082589,-19.7545180188957,20.2011807339783
0.339606316244863,-17.603766019809,6.36800570121105,23.9717717210201,5.61788015929897,-20.7877688704145,15.1698887111156
0.341769413800562,-19.926059018264,2.87882897081969,22.8048879890836,8.52361502372213,-21.3654735036738,12.8418584799517
0.343932511356262,-18.5016534340622,4.99516512494569,23.4968185590079,6.75324415455825,-20.999235996535,14.2459918419768
0.346095608911962,-14.0943312282128,11.4327470657713,25.5270782939841,1.33079208122074,-19.8107047610984,18.4799126798777
0.348258706467662,-9.01673040620435,18.7243838375057,27.7411142437101,-4.85382671565068,-18.3789223249572,23.2327490406079
0.350421804023361,-5.87985168154632,22.9809395917014,28.8607912732477,-8.55054395507753,-17.370321477397,25.9208654324745
0.352584901579061,-6.34009013009241,21.8676122285402,28.2077023586326,-7.76376104922391,-17.2738962443625,25.0376572935864
0.354747999134761,-10.222424919673,15.9146886203657,26.1371135400386,-2.84613185034636,-18.1797692298558,21.0259010802021
0.356911096690461,-15.4626263525439,8.33427040828175,23.7968967608257,3.56417797213107,-19.6297615566848,16.0655835845537
0.35907419424616,-19.1839106569855,3.23174262530728,22.4156532822928,7.97608401583912,-20.7997819696391,12.8236979538
0.36123729180186,-19.3764148701685,3.26836778714824,22.6447826573167,8.05402354151014,-21.0105987637426,12.9565752222325
0.36340038935756,-16.0194653170707,8.2385621489596,24.2580274660303,3.89045158405557,-20.1387463915505,16.248294807495
0.36556348691326,-10.9649970196294,15.2990836125091,26.2640806321384,-2.16704329643985,-18.6145388258839,20.7815821223237
0.36772658446896,-6.87566315252706,20.5533185164914,27.4289816690185,-6.83882768198217,-17.1523224107728,23.9911500927549
0.369889682024659,-5.89863139934512,21.0724070636695,26.9710384630146,-7.58688783216219,-16.4348349311799,24.0217227633421
0.372052779580359,-8.5729573561727,16.4361978757525,25.0091552319252,-3.9316202597899,-16.791056294049,20.7226765538389
0.374215877136059,-13.4215765833677,9.06264780767721,22.4842243910449,2.17946438784526,-17.9529004872063,15.7734360993611
0.376378974691759,-17.6588441629387,2.9398885874257,20.5987327503644,7.35947778775649,-19.1287884566515,11.769310668895
0.378542072247458,-18.8094200647186,1.34023504913621,20.1496551138548,8.73459250779121,-19.4795375892867,10.7449450814955
0.380705169803158,-16.1762899612749,4.98726476493988,21.1635547262148,5.5945125981675,-18.6699223437448,13.0754097455773
0.382868267358858,-11.1448678333139,11.7807788402663,22.9256466735802,-0.317955503476169,-17.035257253447,17.3532127569232
0.385031364914558,-6.30568160604679,17.9905075538706,24.2961891599174,-5.84241297391193,-15.3009353829821,21.143348356894
0.387194462470257,-4.11936485165367,20.1668306333679,24.2861954850216,-8.02373289085712,-14.2027801683376,22.2265130591948
0.389357560025957,-5.72571373477503,16.9568652933817,22.6825790281567,-5.61557577930333,-14.2041463814659,19.8197221607692
0.391520657581657,-10.2740072948806,9.97165892950545,20.2456662243861,0.151174182687592,-15.2598367596334,15.1086625769458
0.393683755137357,-15.2462992686174,3.0182541046962,18.2645533733136,6.11402258196059,-16.7554263209655,10.6414037390049
0.395846852693056,-17.8657921047217,-0.102034616422614,17.7637574882991,8.98391336057217,-17.8147747965104,8.83086143593824
0.398009950248756,-16.7270326632836,2.20786466819598,18.9348973314796,7.25958399754383,-17.8309649973816,10.5713809998378
0.400173047804456,-12.5045418810637,8.59987490145699,21.1044167825206,1.95233348980333,-16.8044793317921,14.8521458419888
0.402336145360156,-7.43801371198171,15.6358379228882,23.0738516348699,-4.09891210545325,-15.2559326734258,19.3548447788791
0.404499242915855,-4.13866251539348,19.5412369607056,23.6798994760991,-7.70128722265608,-13.9092809957463,21.6105682184024
0.406662340471555,-4.33051009894687,18.1141890097485,22.4446991086954,-6.89183945540083,-13.3876046038211,20.279444059222
0.408825438027255,-7.93403314355207,11.9821981649809,19.916231308533,-2.02408251071442,-13.9251322260425,15.9492147367569
0.410988535582955,-12.9483369494375,4.40916230910317,17.3574992585406,4.26958732016714,-15.152918103989,10.8833307838219
0.413151633138655,-16.4763690752461,-0.495326670736958,15.9810424045091,8.48584787299151,-16.2287057398776,7.74285786688607
0.415314730694354,-16.4556496389933,-0.118288433271616,16.3373612057217,8.28696903613246,-16.3965054223575,8.10953638622503
0.417477828250054,-12.8820075182875,5.2603554808031,18.1423629990906,3.8108260187422,-15.5121852586891,11.7013592399469
0.419640925805754,-7.68964912155339,12.7176927584581,20.4073418800115,-2.51402181845235,-14.0484955007824,16.5625173192348
0.421804023361454,-3.59687303390652,18.2698733544842,21.8667463883907,-7.33650016028883,-12.7318097111486,20.0683098714374
0.423967120917153,-2.72743787635977,18.9323599912803,21.6597978676401,-8.10246105746028,-12.1936178719999,20.2960789294602
0.426130218472853,-5.54911224518609,14.307105227055,19.8562174722411,-4.37899649093444,-12.7026648587136,17.081661349648
0.428293316028553,-10.5237749687407,6.8878603236558,17.4116352923965,1.81795732254245,-13.9677051305686,12.1497478080262
0.430456413584253,-14.8403619213078,0.742816727316836,15.5831786486246,7.04877259699547,-15.2117702849662,8.16299768797072
0.432619511139952,-16.0361757004496,-0.798833186876749,15.2373425135729,8.41750444366318,-15.6367591070112,7.21925466334805
0.434782608695652,-13.4522097512848,2.98631148716424,16.438521238449,5.23294913206026,-14.9453654948669,9.71241636280662
0.436945706251352,-8.49197454442447,9.92585104224773,18.4178255866722,-0.716938248911631,-13.4549000655483,14.17183831446
0.439108803807052,-3.71114016460071,16.2070642383088,19.9182044029095,-6.24796203685403,-11.8146722837551,18.0626343206091
0.441271901362751,-1.50191346041098,18.3663740142465,19.8682874746575,-8.43223027691777,-10.6851004675342,19.117330744452
0.443434998918451,-2.9474526842626,15.1071367338286,18.0545894180912,-6.07984202478302,-10.5010210511769,16.5808630759599
0.445598096474151,-7.19285603165773,8.1211200850055,15.3139761166632,-0.464132026673887,-11.2534160741605,11.7175481008344
0.447761194029851,-11.767288301949,1.28199874236905,13.049287044318,5.24264477978996,-12.4082876731335,7.16564289334354
0.44992429158555,-13.9498080138535,-1.5928139309445,12.356994082909,7.77131097239899,-13.1534010483812,5.38209007598224
0.45208738914125,-12.3936034425037,1.03820820848892,13.4318116509926,5.6776976170074,-12.9127075467482,7.23500992974078
0.45425048669695,-7.85482760362707,7.72798290240148,15.5828105060285,0.063422350612794,-11.7188190548278,11.655396704215
0.45641358425265,-2.63222052331322,14.9596488511004,17.5918693744136,-6.16371416389359,-10.1120449488634,16.275759112757
0.45857668180835,0.69704718111076,18.9421775744221,18.2451303933113,-9.81961237776643,-8.77404160610029,18.5936539838667
0.460739779364049,0.535867854680919,17.5212518240445,16.9853839693636,-9.02855983936272,-8.22475805734134,17.2533178967041
0.462902876919749,-2.89617500223541,11.410676033211,14.3068510354464,-4.25725051548779,-8.60151301884091,12.8587635343287
0.465065974475449,-7.56541376464256,3.94970256870286,11.5151163333454,1.80785559796985,-9.54026504899399,7.73240945102414
0.467229072031149,-10.7077782414352,-0.726700002485302,9.98107823894991,5.71723912196026,-10.3444282401926,4.6271891182323
0.469392169586848,-10.4587124926769,-0.040272765379342,10.4184397272975,5.24949262902811,-10.4385761099872,5.1890834809591
0.471555267142548,-6.90756323816843,5.63995078319286,12.5475140213613,0.633806227487788,-9.72753862976486,9.09373240227708
0.473718364698248,-1.93119904859461,13.2832940748761,15.2144931234707,-5.67604751314076,-8.57284608603267,14.2488935991734
0.475881462253948,1.86676942025326,18.8341415109791,16.9673720907258,-10.3504554656162,-7.55030133523628,17.9007568008524
0.478044559809647,2.45527876656311,19.3124219251913,16.8571431586282,-10.8838503458772,-7.20093219603253,18.0847825419097
0.480207657365347,-0.565262324752613,14.4136291921883,14.9788915169409,-6.92418343371786,-7.77207692084678,14.6962603545646
0.482370754921047,-5.61537942211218,6.78132443251044,12.3967038546226,-0.58297250519913,-9.00604163836741,9.58901414356654
0.484533852476747,-9.90040827105557,0.610473368620887,10.5108816396765,4.64496745121734,-10.205644955366,5.56067750414867
0.486696950032446,-11.0363339118913,-0.760802806080733,10.2755311058106,5.89856835898602,-10.6559325088509,4.75736414986492
0.488860047588146,-8.45301604209666,3.2398464515711,11.6928624936678,2.60658479526278,-10.0729392678822,7.46635447261943
0.491023145143846,-3.59719069489445,10.2266505229494,13.8238412178438,-3.31472991402745,-8.71051595636913,12.0252458703966
0.493186242699546,0.979545681925799,16.276814167105,15.2972684851792,-8.62817992451539,-7.15886140162669,15.7870413261421
0.495349340255246,2.9104586625488,17.969452847455,15.0589941849062,-10.4399557550019,-6.07426776117869,16.5142235161806
0.497512437810945,1.14684259611078,14.1323565957264,12.9855139996156,-7.63959959591859,-5.91933570175241,13.558935297671
0.499675535366645,-3.41347418829007,6.58050381977854,9.99397800806861,-1.58351481574424,-6.70372609817934,8.28724091392358
0.501838632922345,-8.26272701009169,-0.740435524872908,7.52229148521878,4.5015812674823,-7.89250924765524,3.39092798017294
0.504001730478045,-10.6918973958713,-4.00041591494454,6.69148148092678,7.34615665540793,-8.69168943839905,1.34553278299112
0.506164828033744,-9.43573232299862,-1.69408950915502,7.7416428138436,5.56491091607682,-8.58868756842111,3.02377665234429
0.508327925589444,-5.35240945064438,4.65685941514447,10.0092688657888,0.347775017749957,-7.68083915821661,7.33306414046666
0.510491023145144,-0.790807619084113,11.4638923491432,12.2546999682273,-5.33654236502954,-6.52275379365571,11.8592961586853
0.512654120700844,1.70579798826357,14.9381420710723,13.2323440828087,-8.32197002966793,-5.76327304727257,14.0852430769405
0.514817218256543,0.652797205709632,13.0186297588053,12.3658325530957,-6.83571348225747,-5.85651767369303,12.6922311559505
0.516980315812243,-3.57920834295374,6.52634893920222,10.105557282156,-1.47357029812424,-6.84238281255485,8.31595311067909
0.519143413367943,-8.8438771659701,-1.17453759109318,7.66933957487691,5.00920737853164,-8.25660837042351,3.24740099189187
0.521306510923643,-12.3572647013294,-6.03423898941979,6.32302571190959,9.19575184537459,-9.34014520661949,0.144393361244902
0.523469608479342,-12.32122239708,-5.60137850878677,6.71984388829325,8.96130045293339,-9.52053314268663,0.559232689753241
0.525632706035042,-8.93526909426819,-0.302296400862943,8.63297269340524,4.61878274756556,-8.78412089383671,4.16533814627115
0.527795803590742,-4.15960007984651,6.89545453714287,11.0550546169894,-1.36792722864818,-7.60732734841794,8.97525457706612
0.529958901146442,-0.589682124142179,12.078235061644,12.6679171857862,-5.74427646875091,-6.62879965496418,12.3730761237151
0.532121998702141,-0.180021041017241,12.3950916542452,12.5751126952624,-6.10753530661398,-6.37756686813984,12.4851021747538
0.534285096257841,-3.27255388738028,7.57684915306521,10.8494030404455,-2.15214763284246,-7.06097846391289,9.21312609675535
0.536448193813541,-8.29417601339144,0.177136439905752,8.47131245329719,4.05851978674284,-8.38274423334431,4.32422444660147
0.538611291369241,-12.5032957424942,-5.80761478203486,6.69568096045936,9.15545526226454,-9.59948835147679,0.444033089212249
0.54077438892494,-13.5762218413839,-7.24028056285202,6.33594127853188,10.408251202118,-9.95608155995789,-0.452169642160072
0.54293748648064,-10.9862020328568,-3.57883946255797,7.40736257029881,7.28252074770737,-9.19678230157779,1.91426155387042
0.54510058403634,-6.21054470681959,2.97432764880858,9.18487235562817,1.6181085290055,-7.69770853122388,6.07960000221838
0.54726368159204,-1.81267429920868,8.73835859052818,10.5510328897369,-3.46284214565975,-6.18185359447277,9.64469574013252
0.54942677914774,-0.116928304843775,10.4370339671362,10.55396227198,-5.16005283114621,-5.33544528841188,10.4954981195581
0.551589876703439,-2.06265599466575,6.92446844336699,8.98712443803274,-2.43090622435062,-5.52489021634925,7.95579644069987
0.553752974259139,-6.64158729898336,-0.0429214625366825,6.59866583644667,3.34225438076002,-6.62012656771502,3.277872186955
0.555916071814839,-11.327972043683,-6.65904572681885,4.66892631686413,8.99350888525091,-7.99844918027356,-0.995059704977356
0.558079169370539,-13.4819594503644,-9.27815183473807,4.20380761562633,11.3800556425512,-8.84288353299537,-2.53717210955587
0.560242266926238,-11.8924303786337,-6.51048199972378,5.38194837890992,9.20145618917874,-8.63718937877181,-0.564266810406929
0.562405364481938,-7.41115716088042,0.139243144695314,7.55040030557574,3.63595700809255,-7.48077873322808,3.84482172513552
0.564568462037638,-2.38029924766089,7.16757839996444,9.54787764762533,-2.39363957615177,-5.96408844764311,8.35772802379489
0.566731559593338,0.614847408053961,10.8623740614914,10.2475266534374,-5.73861073477267,-4.81633962269173,10.5549503574644
0.568894657149037,0.0203061598492411,9.21327837879224,9.192972218943,-4.61679226932074,-4.58633302954688,9.20312529886762
0.571057754704737,-3.84119095554765,3.05544309736004,6.89663405290769,0.392873929093806,-5.36891250422767,4.97603857513387
0.573220852260437,-8.80986337614464,-4.2763079427671,4.53355543337754,6.54308565945587,-6.67170940476109,0.128623745305216
0.575383949816137,-12.0284374453091,-8.77541214083935,3.25302530446971,10.4019247930742,-7.64073137488938,-2.76119341818482
0.577547047371836,-11.6207173056721,-8.01463668082353,3.60608062484859,9.81767699324783,-7.61339896526036,-2.20427802798747
0.579710144927536,-7.75880464796388,-2.43832596871849,5.32047867924539,5.09856530834118,-6.53964166360463,1.44107635526345
0.581873242483236,-2.43416727057134,4.95806795623412,7.39223522680545,-1.26195034283139,-4.9132012486884,6.17515159151979
0.584036340038936,1.68790880597539,10.2578253518635,8.56991654588807,-5.97286707891942,-3.44100386995634,9.41387094887576
0.586199437594636,2.5774518228049,10.6607150838349,8.08326326103004,-6.61908345331992,-2.75290571911257,9.37198917243249
0.588362535150335,-0.144251619878943,5.96694813301883,6.11119975289778,-2.91134825656994,-3.12772568638836,6.0390739429583
0.590525632706035,-4.88775288254594,-1.22663548578294,3.661117396763,3.05719418416444,-4.27443513965447,1.21724095549003
0.592688730261735,-8.8720683297672,-6.89641269868096,1.97565563108624,7.88424051422408,-5.42386198042672,-2.46037853379736
0.594851827817435,-9.73977553592442,-7.87902750190241,1.86074803402201,8.80940151891342,-5.80026178497322,-3.0091397339402
0.597014925373134,-6.94248102047572,-3.65322130416001,3.2892597163157,5.29785116231787,-5.11587036839571,-0.181980793922154
0.599178022928834,-1.94616057039962,3.46674364977832,5.41290422017794,-0.760291539689351,-3.67953239528878,4.43982393497813
0.601341120484534,2.68331308637583,9.65612050829421,6.97280742191838,-6.16971679733502,-2.14474716777127,8.31446396510629
0.603504218040234,4.59582462959574,11.5805463347567,6.98472170516101,-8.08818548217624,-1.19444853778263,9.28263401995888
0.605667315595933,2.81086142844045,8.15040956179365,5.3395481333532,-5.48063549511705,-1.26434335245638,6.74497884757343
0.607830413151633,-1.68116660647827,1.23029645269574,2.91146305917401,0.225435076891266,-2.29631483282614,2.07087975593488
0.609993510707333,-6.31806738833966,-5.2491694338223,1.06889795451736,5.78361841108098,-3.69348267142851,-2.09013573965247
0.612156608263033,-8.39741368237241,-7.54604785670134,0.851365825671074,7.97173076953687,-4.62438975402174,-3.34734101551513
0.614319705818732,-6.68555723476825,-4.31080375706335,2.3747534777049,5.4981804959158,-4.53015535623658,-0.968025139679227
0.616482803374432,-2.07230182948137,2.76663162387501,4.83893345335638,-0.347164897196823,-3.45561764141888,3.8027825386157
0.618645900930132,3.04871301737291,10.0103205802342,6.9616075628613,-6.52951679880356,-1.95644727274419,8.48596407154775
0.620808998485832,6.07431025470774,13.6747504346903,7.60044017998257,-9.87453034469902,-0.763064962637415,10.6375953073364
0.622972096041531,5.4752137096545,11.8446808917963,6.36946718214182,-8.65994730072541,-0.447126736243661,9.10707403696907
0.625135193597231,1.63051628971922,5.51450020221498,3.88398391249576,-3.5725082459671,-1.12673381138827,4.69924205735537
0.627298291152931,-3.24439500238444,-1.81781092851111,1.42658407387334,2.53110296544778,-2.33548953812889,-0.195613427318886
0.629461388708631,-6.28878478317258,-6.05123201828772,0.23755276488486,6.17000840073015,-3.26316877402872,-2.90683962670143
0.631624486264331,-5.69054285969199,-4.81120258639473,0.87934027329726,5.25087272304336,-3.28494156649462,-1.96593115654873
0.63378758382003,-1.70374227570872,1.26109812346553,2.96484039917425,0.221322076121595,-2.33429133744148,2.11296926131989
0.63595068137573,3.64093278577216,8.94097615790571,5.30004337213354,-6.29095447183894,-0.82955529318069,7.12050976501963
0.63811377893143,7.70023425408739,14.1736326160013,6.47339836191388,-10.9369334350443,0.613417946086756,10.3235154889576
0.64027687648713,8.50629465399162,14.1753364550554,5.66904180106375,-11.3408155545235,1.41862642646394,9.92218912805956
0.642439974042829,5.73804617105822,8.90092631020363,3.16288013914541,-7.31948624063092,1.2875830159564,6.03190322467452
0.644603071598529,0.990066128719626,1.16593754471955,0.175871415999929,-1.07800183671959,0.407097356359849,0.670904480359741
0.646766169154229,-3.01814159126285,-4.80760142067635,-1.7894598294135,3.9128715059696,-0.614340880924679,-3.29853062504492
0.648929266709929,-4.02559769717674,-5.78200696840332,-1.75640927122658,4.90380233279003,-1.13459421297508,-3.76920811981495
0.651092364265628,-1.55701397760114,-1.36955926475179,0.187454712849352,1.46328662117646,-0.872234345225245,-0.591052275951217
0.653255461821328,2.93362364311147,5.85657348934669,2.92294984623522,-4.39509856622908,0.00533689843812368,4.38976166779095
0.655418559377028,6.98874469964909,11.9034897911938,4.91474509154469,-9.44611724542143,1.0369998040522,8.40911744136923
0.657581656932728,8.40467784548199,13.4578436735444,5.05316582806238,-10.9312607595132,1.6757560087098,9.25550475080338
0.659744754488427,6.31989163447004,9.55061378634022,3.23072215187018,-7.93525271040513,1.54458474129993,6.3906679691052
0.661907852044127,1.76805285536896,2.14612481355695,0.378071958187988,-1.95708883446296,0.694990448590488,1.26209838587247
0.664070949599827,-2.75995394603623,-4.79860803470203,-2.03865408866579,3.77928099036913,-0.36064992868522,-3.41863106168391
0.666234047155527,-4.72735557034206,-7.57907557552502,-2.85172000518297,6.15321557293354,-0.937817782579543,-5.215397790354
0.668397144711226,-3.05887776370061,-4.90689522834037,-1.84801746463977,3.98288649602049,-0.60543014953042,-3.37745634649007
0.670560242266926,1.30549052242318,1.50909704974097,0.203606527317795,-1.40729378608208,0.550941997552691,0.856351788529384
0.672723339822626,6.04186621123871,8.08126210212598,2.03939589088726,-7.06156415668234,2.00123516017572,5.06032899650662
0.674886437378326,8.66892143045604,11.2245577458501,2.55563631539403,-9.94673958815305,3.05664255753101,6.89009703062204
0.677049534934026,7.75561732886709,9.13251719396072,1.37689986509363,-8.44406726141391,3.18935873188673,5.25470852952718
0.679212632489725,3.71112621595857,2.78476348082219,-0.926362735136379,-3.24794484839038,2.31874447554748,0.929200372842907
0.681375730045425,-1.30119493679765,-4.44456085095834,-3.14336591416069,2.87287789387799,0.92108548868152,-3.79396338255951
0.683538827601125,-4.53431188984423,-8.64871370585183,-4.11440181600761,6.59151279784803,-0.209955036918309,-6.38155776092972
0.685701925156825,-4.29884585531131,-7.64610576240801,-3.34725990709671,5.97247580885966,-0.4757929741073,-5.49668283475236
0.687865022712524,-0.917072221218618,-2.13997196416136,-1.22289974294274,1.52852209268999,0.152913760862063,-1.68143585355205
0.690028120268224,3.60862327086261,4.79722363185746,1.18860036099485,-4.20292345136004,1.21001145493388,2.99291199642616
0.692191217823924,6.75539087173349,9.39540687276477,2.64001600103128,-8.07539887224913,2.05768743535111,6.01771143689802
0.694354315379624,6.72615864669966,9.1061875135741,2.38002886687444,-7.91617308013688,2.17306488991261,5.74310819022427
0.696517412935323,3.35636635683949,3.93852275342431,0.582156396584814,-3.6474445551319,1.38710498012734,2.26033957500456
0.698680510491023,-1.68804719802741,-3.44611619523599,-1.75806899720858,2.5670816966317,0.0350108995905885,-2.60209259622228
0.700843608046723,-5.73144873823934,-9.11333011839514,-3.3818813801558,7.42238942831724,-1.17478367904177,-6.24760574927547
0.703006705602423,-6.62611469034156,-10.0893702042749,-3.46325551393331,8.35774244730822,-1.58142958820412,-6.77631285910409
0.705169803158122,-4.0019310409614,-6.07261783005572,-2.07068678909432,5.03727443550856,-0.965622125933542,-4.07165230957502
0.707332900713822,0.613671024823894,0.49600995227874,-0.117661072545154,-0.554840488551317,0.365666048684524,0.189174439866793
0.709495998269522,4.71077093727067,5.87235614318172,1.16158520591105,-5.2915635402262,1.77459286567981,3.51697067454638
0.711659095825222,6.07378479476262,6.96064481187793,0.886860017115303,-6.51721480332028,2.59346238882366,3.92375241449662
0.713822193380921,3.87139830144342,2.90195818186402,-0.969440119579403,-3.38667824165372,2.42041921051141,0.966259031142307
0.715985290936621,-0.828116939258472,-4.35686822739447,-3.528751288136,2.59249258332647,1.35031717443876,-3.94280975776524
0.718148388492321,-5.51560963411184,-11.0165214243118,-5.50091179019999,8.26606552921184,-0.00734892195592352,-8.25871660725591
0.720311486048021,-7.67506147242898,-13.5991692343346,-5.92410776190559,10.6371153533818,-0.875476855261695,-9.76163849812008
0.722474583603721,-6.30452322692508,-10.946924864287,-4.64240163736191,8.62572404560603,-0.831060794781585,-7.79466325082445
0.72463768115942,-2.39758590482744,-4.73242267704626,-2.33483677221882,3.56500429093685,-0.0313745663043079,-3.53362972463254
0.72680077871512,1.77443325450924,1.57479444988439,-0.199638804624847,-1.67461385219682,0.987036029567044,0.687577822629773
0.72896387627082,3.86396537772071,4.51645470203067,0.652489324309961,-4.19021003987569,1.60573802670537,2.58447201317032
0.73112697382652,2.56078561433908,2.41048674058359,-0.150298873755489,-2.48563617746134,1.35554224404729,1.13009393341405
0.733290071382219,-1.66263523507053,-3.69229875212386,-2.02966351705333,2.6774669935972,0.183514140991399,-2.8609811345886
0.735453168937919,-6.62908869137583,-10.4872718606985,-3.85818316932271,8.55818027603719,-1.38545276102656,-7.17272751501062
0.737616266493619,-9.63529723713949,-14.2666398110644,-4.63134257392495,11.950968524102,-2.50197733160727,-9.44899119249469
0.739779364049319,-9.089947048224,-13.0330665935664,-3.94311954534244,11.0615068208952,-2.57341375144078,-8.48809306945444
0.741942461605018,-5.41498584808775,-7.54369488605647,-2.12870903796872,6.47934036707211,-1.64313840505952,-4.83620196201259
0.744105559160718,-0.668841368873586,-0.805740540891492,-0.136899172017905,0.737290954882539,-0.265971098427841,-0.471319856454699
0.746268656716418,2.62319332751569,3.5309913579091,0.907798030393415,-3.07709234271239,0.857697648561135,2.21939469415126
0.748431754272118,2.70009693028879,3.04255998260862,0.342463052319829,-2.87132845644871,1.17881693898448,1.69251151746423
0.750594851827817,-0.578569883047123,-2.1731846011923,-1.59461471814518,1.37587724211971,0.508022417549029,-1.88389965966874
0.752757949383517,-5.58080806565292,-9.46746382691549,-3.88665576126257,7.5241359462842,-0.847076152195172,-6.67705979408903
0.754921046939217,-9.70161676962678,-15.0767373356734,-5.3751205660466,12.3891770526501,-2.16324810179009,-10.22592895086
0.757084144494917,-10.8497742375158,-16.2508412524937,-5.40106701497799,13.5503077450047,-2.72435361126888,-10.8259541337359
0.759247242050616,-8.68220172093697,-12.7390471534878,-4.05684543255087,10.7106244372124,-2.31267814419305,-8.39794629301935
0.761410339606316,-4.70567830504915,-6.79862590158656,-2.09294759653741,5.75215210331785,-1.30636535425587,-4.44578674906199
0.763573437162016,-1.32793523212623,-1.90193189375454,-0.573996661628307,1.61493356294038,-0.376969285248961,-1.23796427769142
0.765736534717716,-0.614969791127564,-0.930965615398748,-0.315995824271184,0.772967703263156,-0.14948698342819,-0.623480719834966
0.767899632273416,-3.28772127670858,-4.66542545107957,-1.37770417437099,3.97657336389408,-0.955008551168795,-3.02156481272528
0.770062729829115,-8.24038400939631,-11.2753794175281,-3.03499540813182,9.75788171346222,-2.60269430063224,-7.15518741282997
0.772225827384815,-12.9877868274052,-17.2847940816432,-4.29700725423806,15.1362904545242,-4.34538978658356,-10.7909006679407
0.774388924940515,-15.0870733353863,-19.5850099891154,-4.49793665372907,17.3360416622508,-5.29456834082862,-12.0414733214222
0.776552022496215,-13.6210937764374,-17.1733114431257,-3.55221766668833,15.3972026097815,-5.03443805487453,-10.362764554907
0.778715120051914,-9.64118488288759,-11.5822650308614,-1.94108014797377,10.6117249568745,-3.85005236745691,-6.76167258941757
0.780878217607614,-5.44397459361154,-6.00829837729646,-0.56432378368492,5.726136485454,-2.43982540496331,-3.28631108049069
0.783041315163314,-3.35874747430501,-3.69010045768933,-0.331352983384313,3.52442396599717,-1.51369724546035,-2.01072672053682
0.785204412719014,-4.62666298147509,-6.20318888599326,-1.57652590451816,5.41492593373417,-1.52506853847846,-3.88985739525571
0.787367510274713,-8.71121198712709,-12.4862039380648,-3.7749919509377,10.5987079625959,-2.46811001809469,-8.13059794450125
0.789530607830413,-13.458048719578,-19.3339309841452,-5.87588226456721,16.3959898518616,-3.79108322750538,-12.6049066243562
0.791693705386113,-16.280023199699,-23.2531734926838,-6.97315029298476,19.7665983461914,-4.65343645335713,-15.1131618928343
0.793856802941813,-15.7122143382064,-22.4211722900262,-6.70895795181978,19.0666933141163,-4.50162819319331,-14.565065120923
0.796019900497512,-12.2320689070166,-17.5233800694808,-5.29131116246418,14.8777244882487,-3.4703788722762,-11.4073456159725
0.798182998053212,-7.86499966158738,-11.2786268705324,-3.41362720894504,9.5718132660599,-2.22568622632117,-7.34612703973873
0.800346095608912,-5.04531374590717,-7.05054222625519,-2.00522848034802,6.04792798608118,-1.52004263277958,-4.5278853533016
0.802509193164612,-5.43079004334795,-7.13285173386251,-1.70206169051456,6.28182088860523,-1.86436417641669,-4.41745671218854
0.804672290720311,-9.06155226242235,-11.467746081254,-2.4061938188317,10.2646491718382,-3.32767922179533,-6.93696995004287
0.806835388276011,-14.2070475786638,-17.587965632693,-3.38091805402922,15.8975066056784,-5.41306476231728,-10.4844418433611
0.808998485831711,-18.2254865275963,-22.0418196390344,-3.8163331114381,20.1336530833153,-7.20457670807909,-12.9290763752362
0.811161583387411,-19.1031498882517,-22.403791837708,-3.30064194945629,20.7534708629798,-7.90125396939769,-12.8522168935821
0.813324680943111,-16.6144438994609,-18.5267597853221,-1.91231588586119,17.5706018423915,-7.35106400679984,-10.2195378355916
0.81548777849881,-12.3166701246397,-12.492345371065,-0.175675246425243,12.4045077478524,-6.07049743910725,-6.33401030874511
0.81765087605451,-8.59960438164521,-7.51487235453814,1.08473202710707,8.05723836809167,-4.84216820437614,-3.21507016371554
0.81981397361021,-7.49098483683977,-6.30738081070656,1.18360402613321,6.89918282377317,-4.33729443148649,-2.56188839228668
0.82197707116591,-9.65870055962132,-9.57516304889819,0.0835375107231329,9.61693180425976,-4.87111903517223,-4.74581276908753
0.824140168721609,-13.940643672941,-15.4768574264184,-1.5362137534774,14.7087505496797,-6.2022149597318,-8.50653558994789
0.826303266277309,-17.8422503343657,-20.6077185435604,-2.76546820919465,19.224984438963,-7.53839106258553,-11.6865933763775
0.828466363833009,-18.9750642260029,-21.9929297559034,-3.01786552990048,20.4839969909531,-7.9785993480512,-12.5053976429019
0.830629461388709,-16.495107660545,-18.7323701603372,-2.23726249979218,17.6137389104411,-7.1289225803764,-10.4848163300647
0.832792558944408,-11.5048075465255,-12.3982890498999,-0.89348150337436,11.9515482982127,-5.30566302157558,-6.64588527663712
0.834955656500108,-6.34583674689023,-6.2096931781239,0.136143568766329,6.27776496250706,-3.24099015782828,-3.03677480467879
0.837118754055808,-3.40824349631066,-3.4137990865415,-0.00555559023084129,3.41102129142608,-1.70134395303991,-1.70967733838617
0.839281851611508,-3.9805100699521,-5.54434472273344,-1.56383465278134,4.76242739634277,-1.20833770858538,-3.55408968775739
0.841444949167207,-7.51030502173936,-11.4249658951846,-3.9146608734452,9.46763545846196,-1.79782207414708,-7.66981338431488
0.843608046722907,-11.7553740913445,-17.6692198369218,-5.91384574557733,14.7122969641331,-2.92076417288357,-11.7915327912496
0.845771144278607,-14.0308380698905,-20.6289716841614,-6.59813361427098,17.329904877026,-3.71635222780974,-13.6135526492162
0.847934241834307,-12.8336367381143,-18.501911483153,-5.66827474503866,15.6677741106336,-3.58268099653782,-12.0850931140958
0.850097339390006,-8.64716618216819,-12.2150378053358,-3.5678716231676,10.431101993752,-2.53964727950029,-7.8914547142517
0.852260436945706,-3.50210501901273,-4.82490032387526,-1.32279530486252,4.16350267144399,-1.0896548570751,-3.07384781436889
0.854423534501406,0.143459755027337,0.0500700893315269,-0.0933896656958098,-0.0967649221794318,0.118424710361573,-0.0216597881821414
0.856586632057106,0.570541748563855,0.0437805568959391,-0.526761191667916,-0.307161152729897,0.548651470115885,-0.241490317385988
0.858749729612805,-2.31232425004991,-4.65583201476933,-2.34350776471942,3.48407813240962,0.0155917573347537,-3.49966988974437
0.860912827168505,-6.75676433691478,-11.251672087386,-4.49490775047121,9.00421821215039,-1.13092829322179,-7.8732899189286
0.863075924724205,-10.0185368474818,-15.8282906435032,-5.80975379602143,12.9234137454925,-2.10439152573018,-10.8190222197623
0.865239022279905,-9.95621964597088,-15.5856582122096,-5.6294385662387,12.7709389290902,-2.16339053986609,-10.6075483892241
0.867402119835605,-6.31416064087658,-10.3868491547826,-4.072688513906,8.35050489782958,-1.12073606348529,-7.22976883434429
0.869565217391304,-0.794016309160568,-2.77934146475286,-1.98532515559229,1.78667888695671,0.595654423215862,-2.38233331017258
0.871728314947004,3.95800763634684,3.37934844057345,-0.578659195773383,-3.66867803846014,2.26833341606011,1.40034462240003
0.873891412502704,5.69957662098174,4.93564043423457,-0.763936186747173,-5.31760852760816,3.23175640386446,2.0858521237437
0.876054510058404,3.70727140970325,1.13349180699963,-2.57377960270362,-2.42038160835144,3.14052550620344,-0.720143897851997
0.878217607614103,-0.757009520561382,-5.86343533840376,-5.10642581784238,3.31022242948257,2.1747081486405,-5.48493057812307
0.880380705169803,-5.02887504655924,-12.061873940013,-7.03299889345375,8.54537449328611,1.00206192344726,-9.54743641673337
0.882543802725503,-6.54830399233619,-13.9033180195348,-7.35501402719859,10.2258110059355,0.403355017431203,-10.6291660233667
0.884706900281203,-4.34928916012625,-10.2845299804401,-5.93524082031382,7.31690957028316,0.792975830093788,-8.10988540037695
0.886869997836902,0.485765764629761,-3.03919599690436,-3.52496176153412,1.2767151161373,2.00536376308194,-3.28207887921924
0.889033095392602,5.54558524488246,4.15603215316956,-1.3895530917129,-4.85080869902601,3.46756916829768,1.38323953072833
0.891196192948302,8.36124081147386,7.66405262508257,-0.697188186391294,-8.01264671827822,4.52921449893258,3.48343221934564
0.893359290504002,7.62050789877135,5.74356075746991,-1.87694714130144,-6.68203432812063,4.74872752003639,1.93330680808424
0.895522388059702,3.89627380360194,-0.426427607329629,-4.32270141093157,-1.73492309813616,4.10948760726676,-2.3745645091306
0.897685485615401,-0.547784528481941,-7.25397783923926,-6.70619331075732,3.9008811838606,3.07920439113769,-6.98008557499829
0.899848583171101,-2.99438612371793,-10.747841087843,-7.75345496412502,6.87111360578044,2.37953442020354,-9.25064802598398
0.902011680726801,-1.88153412442873,-8.8368031594188,-6.95526903499007,5.35916864192376,2.53686745528067,-7.89603609720444
0.9041747782825,2.33595649771566,-2.45930106261437,-4.79525756033002,0.0616722824493543,3.56560702902284,-3.62727931147219
0.9063378758382,7.56836437765401,5.08000981987274,-2.48835455778126,-6.32418709876337,5.02835946771764,1.29582763104574
0.9085009733939,11.2395314575459,9.88442856222,-1.35510289532588,-10.5619800098829,6.29731717643588,4.26466283344706
0.9106640709496,11.5430217847947,9.44257358106803,-2.10044820372668,-10.4927976829314,6.82173499426069,3.67106268867067
0.9128271685053,8.38981623315159,3.96858296632092,-4.42123326683068,-6.17919959973625,6.40552474999113,-0.22632515025488
0.914990266060999,3.57991537372013,-3.57813181853692,-7.15804719225704,-0.000891777591604637,5.36898128298859,-5.36808950539698
0.917153363616699,-0.140249520721142,-9.04196846710003,-8.90171894637889,4.59110899391059,4.38073471282888,-8.97184370673946
0.919316461172399,-0.706534826424729,-9.45996139349418,-8.75342656706945,5.08324810995945,4.02344587032236,-9.10669398028181
0.921479558728099,2.08275049409416,-4.75426597715853,-6.83701647125269,1.33575774153219,4.45988348267342,-5.79564122420561
0.923642656283798,6.60650534130501,2.34497375750338,-4.26153158380163,-4.47573954940419,5.43401846255332,-0.95827891314913
0.925805753839498,10.3977106004833,7.88416451664577,-2.51354608383748,-9.14093755856451,6.45562834216037,2.68530921640414
0.927968851395198,11.3777052109385,8.75286418877849,-2.62484102216001,-10.0652846998585,7.00127311654926,3.06401158330924
0.930131948950898,8.90601295008811,4.30079714146243,-4.60521580862568,-6.60340504577527,6.7556143793569,-0.152209333581624
0.932295046506597,4.23086982745905,-3.19708028930175,-7.4279501167608,-0.516894769078647,5.82940997210992,-5.31251520303127
0.934458144062297,-0.0838076821954985,-9.66309536573349,-9.57928768353799,4.87345152396449,4.74774000067125,-9.62119152463574
0.936621241617997,-1.64055516994495,-11.5597454887891,-9.9191903188442,6.60015032936705,4.13931757444963,-10.7394679038167
0.938784339173697,0.355014777378116,-7.96946541154959,-8.32448018892771,3.80722531708574,4.33974748315291,-8.14697280023865
0.940947436729397,4.72134570293402,-0.968481305245369,-5.68982700817939,-1.87643219884432,5.2055863555567,-3.32915415671238
0.943110534285096,9.06153599152186,5.66702615547796,-3.3945098360439,-7.36428107349991,6.22802291378288,1.13625815971703
0.945273631840796,11.0018549201449,8.4006436119945,-2.60121130815043,-9.70124926606972,6.80153311414768,2.89971615192204
0.947436729396496,9.3458398798666,5.68365359404643,-3.66218628582017,-7.51474673695652,6.50401308284339,1.01073365411313
0.949599826952195,4.76677959110401,-1.1489137258316,-5.91569331693562,-1.8089329326362,5.34123645401981,-3.53230352138361
0.951762924507895,-0.406573498524608,-8.47008433151603,-8.06351083299142,4.43832891502032,3.82846866723341,-8.26679758225372
0.953926022063595,-3.45621259621288,-12.3841423560281,-8.92792975981523,7.92017747612049,2.73585858180117,-10.6560360579217
0.956089119619295,-2.88048554930931,-10.9606167992869,-8.08013124997756,6.92055117429809,2.59982285033412,-9.52037402463222
0.958252217174995,0.796770298687179,-5.21972533243535,-6.01649563112252,2.21147751687408,3.40663296490485,-5.61811048177893
0.960415314730694,5.45504832633131,1.54949063223246,-3.90555769409885,-3.50226947928189,4.68030301021508,-1.17803353093319
0.962578412286394,8.52499381692034,5.54684838447783,-2.97814543244252,-7.03592110069908,5.75156962468143,1.28435147601765
0.964741509842094,8.21058019611078,4.40639466690443,-3.80418552920635,-6.30848743150761,6.00738286265857,0.301104568849041
0.966904607397794,4.42784425473188,-1.51775137072239,-5.94559562545427,-1.45504644200475,5.18671994009307,-3.73167349808833
0.969067704953493,-0.99077786634416,-9.22401987119915,-8.23324200485499,5.10739886877165,3.62123206925541,-8.72863093802707
0.971230802509193,-5.21828434022105,-14.6646518673369,-9.44636752711588,9.94146810377899,2.11404159344742,-12.0555096972264
0.973393900064893,-6.10279710810497,-15.0333545123449,-8.93055740423993,10.5680758102249,1.41388014806748,-11.9819559582924
0.975556997620593,-3.42682718792253,-10.3077055354983,-6.88087834757582,6.86726636171043,1.72702557982664,-8.59429194153708
0.977720095176292,1.11440413743858,-3.16705900323701,-4.2814631406756,1.02632743289922,2.69793363905709,-3.72426107195631
0.979883192731992,4.95539328728479,2.49643227279546,-2.45896101448933,-3.72591278004013,3.70717715088706,0.0187356291530634
0.982046290287692,5.93835978429031,3.58609558934837,-2.35226419494195,-4.76222768681934,4.14531198961613,0.616915697203211
0.984209387843392,3.36853843058559,-0.582627523620708,-3.9511659542063,-1.39295545348244,3.65985219239594,-2.2668967389135
0.986372485399092,-1.49860080349777,-7.81770689099564,-6.31910608749788,4.65815384724671,2.41025264200006,-7.06840648924676
0.988535582954791,-6.00527396383163,-14.182063074882,-8.17678911105035,10.0936685193568,1.08575757360936,-11.1794260929662
0.990698680510491,-7.63046966559176,-16.2490436263207,-8.61857396072892,11.9397566459562,0.494052147568581,-12.4338087935248
0.992861778066191,-5.51947198044594,-13.0420525536843,-7.52258057323831,9.2807622670651,1.00155429639618,-10.2823165634613
0.995024875621891,-0.888749790169129,-6.45298189719477,-5.56423210702565,3.67086584368195,2.33774115842826,-6.00860700211021
0.99718797317759,3.77701132004411,-0.134813027127237,-3.91182434717135,-1.82109914645844,3.84441783360773,-2.02331868714929
0.99935107073329,6.01249983283721,2.38889046937227,-3.62360936346494,-4.20069515110474,4.81805459815107,-0.617359447046333
1.00151416828899,4.55822500957653,-0.431252681453955,-4.98947769103049,-2.06348616406129,4.77385135030351,-2.71036518624222
1.00367726584469,0.0807041802277553,-7.20360424220667,-7.28430842243443,3.56145003098946,3.68250630133109,-7.24395633232055
1.00584036340039,-5.0374667661963,-14.2264889917935,-9.18902222559723,9.63197787899492,2.07577772970047,-11.7077556086954
1.00800346095609,-8.00522480711656,-17.606407680306,-9.60118287318943,12.8058162437113,0.797979033036434,-13.6037952767477
1.01016655851179,-7.2897515089988,-15.484548737252,-8.19479722825316,11.3871501231254,0.452522859627177,-11.8396729827526
1.01232965606749,-3.44106680806996,-8.95236475019526,-5.5112979421253,6.19671577913261,1.03511556702767,-7.23183134616028
1.01449275362319,1.35937990326192,-1.38882824463728,-2.74820814789921,0.0147241706876784,2.05379402558057,-2.06851819626824
1.01665585117889,4.47403437292637,3.2821711528349,-1.19186322009147,-3.87810276288063,2.83294879650892,1.04515396637171
1.01881894873459,4.09048800554885,2.60926383755206,-1.48122416799679,-3.34987592155045,2.78585608677282,0.564019834777632
1.02098204629029,0.207961172784735,-3.04257912006958,-3.25054029285431,1.41730897364242,1.72925073281952,-3.14655970646194
1.02314514384599,-5.19733226549046,-10.5848072640021,-5.38747499851162,7.89106976474627,0.0950713665105827,-7.98614113125685
1.02530824140169,-9.18508825305338,-15.8818110000513,-6.69672274699795,12.5334496265524,-1.24418275302772,-11.2892668735246
1.02747133895739,-9.58598075516861,-16.0869461711259,-6.50096541595729,12.8364634631472,-1.54250766960566,-11.2939557935416
1.02963443651309,-6.26144729217368,-11.1602695672944,-4.89882227512068,8.71085842973403,-0.681312508526501,-8.02954592120753
1.03179753406879,-1.03630628675829,-3.77359584505116,-2.73728955829287,2.40495106590473,0.850491635767291,-3.25544270167202
1.03396063162449,3.38879774318468,2.14867408240998,-1.24012366077471,-2.76873591279733,2.31446070197969,0.454275210817634
1.03612372918019,4.75764493486405,3.45186708071938,-1.30577785414467,-4.10475600779171,3.03171139450436,1.07304461328736
1.03828682673589,2.35716336804857,-0.572362534054683,-2.92952590210326,-0.892400416996946,2.64334463507592,-1.75094421807897
1.04044992429159,-2.48992704474247,-7.69369437525342,-5.20376733051095,5.09181070999795,1.35692014288424,-6.44873085288219
1.04261302184729,-7.01566245915052,-13.9012057029706,-6.8855432438201,10.4584340810606,-0.0650596076652104,-10.3933744733954
1.04477611940298,-8.58322837926335,-15.7074928980633,-7.1242645188,12.1453606386633,-0.729481930231675,-11.4158787084317
1.04693921695868,-6.23917691707324,-12.1230081487044,-5.88383123163111,9.18109253288879,-0.177672842721062,-9.00341969016773
1.04910231451438,-1.1754219552476,-5.08161971331095,-3.90619775806335,3.12852083427928,1.36538790140788,-4.49390873568715
1.05126541207008,4.0335899535274,1.67510423253264,-2.35848572099476,-2.85434709303002,3.19603783726108,-0.341690744231059
1.05342850962578,6.77517727792903,4.5097968278927,-2.26538045003633,-5.64248705291087,4.52027886398268,1.12220818892819
1.05559160718148,5.68055933015471,1.78099850792798,-3.89956082222673,-3.73077891904134,4.79006007619072,-1.05928115714938
1.05775470473718,1.3962814952106,-5.1270628847891,-6.52334437999971,1.86539069478925,3.95981293760515,-5.82520363239441
1.05991780229288,-3.62914514161517,-12.3974650392956,-8.76831989768044,8.01330509045539,2.56958737803263,-10.582892468488
1.06208089984858,-6.48046741900227,-15.9556959494348,-9.47522853043249,11.2180816842185,1.49738055571511,-12.7154622399336
1.06424399740428,-5.48714728102412,-13.8265380719042,-8.33939079088012,9.65684267646418,1.426121754928,-11.0829644313922
1.06640709495998,-1.13551929861124,-7.10272796613271,-5.96720866752147,4.11912363237198,2.41584468445511,-6.53496831682709
1.06857019251568,4.3189813678122,0.763058445073042,-3.55592292273916,-2.54101990644262,3.93745214527568,-1.39643223883306
1.07073329007138,8.08224488956238,5.73366247929695,-2.34858241026543,-6.90795368442966,5.2154136499139,1.69254003451576
1.07289638762708,8.205988700991,5.23573655537463,-2.97025214561637,-6.72086262818282,5.58812042330368,1.13274220487913
1.07505948518278,4.61982075031612,-0.419277196435733,-5.03909794675186,-2.1002717769402,4.82945934853399,-2.72918757159379
1.07722258273848,-0.694479985409259,-8.07199871711526,-7.377518731706,4.38323935126226,3.34151937314837,-7.72475872441063
1.07938568029418,-4.71504223455047,-13.4294709279441,-8.71442869339367,9.0722565812473,1.9996932294216,-11.0719498106689
1.08154877784988,-5.14556213714435,-13.5198634320523,-8.37430129490794,9.33271278459832,1.61436957888179,-10.9470823634801
1.08371187540558,-1.74836994961268,-8.32011708342721,-6.57174713381453,5.03424351651994,2.41168859210092,-7.44593210862087
1.08587497296128,3.63968979735425,-0.647363771884461,-4.28705356923871,-1.4961630127349,3.96337168329648,-2.46720867056159
1.08803807051698,8.19434025267579,5.42106586875954,-2.77327438391625,-6.80770306071766,5.48380731829602,1.32389574242164
1.09020116807268,9.54171593035872,6.66159123750259,-2.88012469285612,-8.10165358393066,6.21092031160742,1.89073327232324
1.09236426562838,6.96597776087819,2.40059217027425,-4.56538559060394,-4.68328496557622,5.76568167574107,-1.08239671016485
1.09452736318408,1.89812938688468,-5.00072984653331,-6.89885923341798,1.55130022982432,4.39849431015133,-5.94979453997565
1.09669046073978,-2.75075075976758,-11.3473850886755,-8.59663432890791,7.04906792422154,2.92294178457017,-9.97200970879171
1.09885355829548,-4.26854135639734,-13.0195814866247,-8.75104013022738,8.64406142151103,2.24124938691502,-10.8853108084261
1.10101665585118,-1.76187772090063,-9.05025179299007,-7.28837407208945,5.40606475694535,2.76324817559441,-8.16931293253976
1.10317975340688,3.4376263715447,-1.54410964927942,-4.98173602082412,-0.946758361132638,4.20968119618441,-3.26292283505177
1.10534285096258,8.65482438182298,5.55022874839042,-3.10459563343256,-7.1025265651067,5.87971000762777,1.22281655747893
1.10750594851828,11.2714301845596,8.47629091821785,-2.79513926634175,-9.87386055138872,7.03328472545067,2.84057582593805
1.10966904607398,9.98474155819002,5.62924816479204,-4.35549339339798,-7.80699486149103,7.170117475794,0.63687738569703
1.11183214362968,5.52360923060377,-1.44733804736717,-6.97094727797094,-2.0381355916183,6.24727825428735,-4.20914266266905
1.11399524118538,0.390447652639594,-8.76694095919158,-9.15738861183117,4.18824665327599,4.77391813223538,-8.96216478551137
1.11615833874108,-2.5182805453739,-12.1836462508486,-9.66536570547469,7.35096339811124,3.5735425800504,-10.9245059781616
1.11832143629678,-1.64124759842069,-9.79982825893593,-8.15858066051524,5.72053792867831,3.25866653104728,-8.97920445972559
1.12048453385248,2.42120262160768,-2.88581745983761,-5.30702008144528,0.232307419114965,3.86411135152648,-4.09641877064145
1.12264763140818,7.40887597691439,4.94684425511774,-2.46203172179665,-6.17786011601606,4.93545384935552,1.24240626666055
1.12481072896388,10.6415106734889,9.59310282210051,-1.04840785138841,-10.1173067477947,5.84495926243867,4.27234748535605
1.12697382651958,10.3305775029735,8.52147008128487,-1.80910742168865,-9.4260237921292,6.06984246233109,3.35618132979811
1.12913692407528,6.53598749250838,2.19383824278943,-4.34214924971895,-4.36491286764891,5.43906837111367,-1.07415550346476
1.13130002163098,1.27513359877914,-6.0360722539651,-7.31120585274424,2.38046932759298,4.29316972576169,-6.67363905335467
1.13346311918668,-2.52946780888904,-11.7238778867708,-9.19441007788176,7.12667284782992,3.33247113449636,-10.4591439823263
1.13562621674237,-2.76935323529554,-11.8309139841094,-9.0615607488139,7.30013360970249,3.14610375675918,-10.4462373664617
1.13778931429807,0.6335409068665,-6.38247677111586,-7.01601767798237,2.87446793212468,3.82477929242443,-6.69924722454912
1.13995241185377,5.79416832402957,1.63407723182319,-4.16009109220638,-3.71412277792638,4.97712970811797,-1.26300693019159
1.14211550940947,9.95366700424684,7.92829254797496,-2.02537445627188,-8.9409797761109,5.98952073025936,2.95145904585154
1.14427860696517,10.8597923818295,9.14468703835153,-1.71510534347795,-10.0022397100905,6.28744886265372,3.71479084743679
1.14644170452087,7.91193288543427,4.62061895260568,-3.29131393282858,-6.26627591901998,5.60162340913143,0.664652509888549
1.14860480207657,2.6089951599145,-3.1669088678391,-5.7759040277536,0.278956853962299,4.19244959383405,-4.47140644779635
1.15076789963227,-2.14465006984123,-9.88182977018064,-7.73717970033941,6.01323992001094,2.79626481524909,-8.80950473526002
1.15293099718797,-3.70791854835055,-11.8078548926023,-8.09993634425176,7.75788672047643,2.19600889795061,-9.95389561842703
1.15509409474367,-1.28066638039596,-7.97202447569127,-6.69135809529532,4.62634542804362,2.70534585744968,-7.3316912854933
1.15725719229937,3.73956084662848,-0.552121312642655,-4.29168215927113,-1.59371976699291,4.01562150294981,-2.42190173595689
1.15942028985507,8.67281448095449,6.41927450656093,-2.25353997439356,-7.54604449375771,5.46317722767403,2.08286726608368
1.16158338741077,10.9394616424337,9.1381741932101,-1.8012874492236,-10.0388179178219,6.37037454582865,3.66844337199325
1.16374648496647,9.29676250319689,5.99162434458643,-3.30513815861045,-7.64419342389166,6.30095033090367,1.34324309298799
1.16590958252217,4.55449877391176,-1.44300519936719,-5.99750397327895,-1.55574678727229,5.27600137359535,-3.72025458632307
1.16807268007787,-0.718222037411493,-9.11210424467829,-8.3938822072668,4.91516314104489,3.83783008492765,-8.75299322597254
1.17023577763357,-3.60226415718257,-12.8031983187764,-9.20093416159385,8.2027312379795,2.79933500220564,-11.0020662401851
1.17239887518927,-2.53505256137454,-10.5757879130755,-8.04073535170093,6.55542023722501,2.7528413951632,-9.3082616323882
1.17456197274497,1.85473907355674,-3.69251566310781,-5.54725473666456,0.918888294775535,3.70099690511065,-4.61988519988618
1.17672507030067,7.20480166159329,4.20453065211003,-3.00027100948326,-5.70466615685166,5.10253633553828,0.602129821313387
1.17888816785637,10.6921138030251,8.97486464486334,-1.71724915816179,-9.83348922394423,6.20468148059346,3.62880774335077
1.18105126541207,10.4454558893223,8.08303475371574,-2.36242113560652,-9.264245321519,6.40393851246439,2.86030680905461
1.18321436296777,6.54640415912124,2.00760285544349,-4.53880130367774,-4.27700350728237,5.54260273139949,-1.26559922411712
1.18537746052347,1.10262658082708,-5.8946498621679,-6.99727644299498,2.39601164067041,4.04995151191103,-6.44596315258144
1.18754055807917,-2.85176096740042,-11.2128301434537,-8.3610691760533,7.03229555542707,2.75465410432644,-9.78694965975351
1.18970365563487,-3.12248442202768,-10.9774622123094,-7.85497779028176,7.04997331716856,2.36624668412704,-9.4162200012956
1.19186675319057,0.379973339985028,-5.29108186102995,-5.67105520101498,2.45555426052246,3.0255142705,-5.48106853102247
1.19402985074627,5.7096786111101,2.80997209183867,-2.89970651927143,-4.25982535147438,4.30469256519077,-0.0448672137163832
1.19619294830197,10.0259750700239,9.03586883238293,-0.990106237640978,-9.53092195120341,5.50804065383244,4.02288129737097
1.19835604585767,11.0202846137662,10.0738452216396,-0.946439392126562,-10.5470649177029,5.98336200294638,4.56370291475654
1.20051914341337,8.09568714518744,5.32717160108365,-2.76851554410379,-6.71142937313555,5.43210134464561,1.27932802848993
1.20268224096907,2.81784017654932,-2.64831541380737,-5.4661555903567,-0.084762381370977,4.14199788345301,-4.05723550208203
1.20484533852477,-1.85362577328501,-9.45458843362794,-7.60096266034293,5.65410710345648,2.87366844352896,-8.52777554698544
1.20700843608047,-3.30787537521009,-11.3735861208531,-8.06571074564304,7.34073074803161,2.37891768521648,-9.71964843324809
1.20917153363617,-0.815031569331438,-7.48801376879925,-6.67298219946781,4.15152266906535,2.92897531506819,-7.08049798413353
1.21133463119187,4.20239016109436,-0.0402682646846682,-4.24265842577903,-2.08106094820485,4.2225242934367,-2.14146334523185
1.21349772874757,9.08023123545615,6.90295151487758,-2.17727972057858,-7.99159137516686,5.62875547801737,2.3628358971495
1.21566082630327,11.2491056028656,9.54516627249206,-1.70393933037351,-10.3971359376788,6.47652246661954,3.92061347105927
1.21782392385897,9.46395915621643,6.31350937059923,-3.15044978561719,-7.88873426340783,6.30720447091681,1.58152979249102
1.21998702141467,4.54576500330009,-1.17135643274187,-5.71712143604196,-1.68720428527911,5.13144321967103,-3.44423893439192
1.22215011897037,-0.893731968474775,-8.83812037575064,-7.94438840727586,4.86592617211271,3.52532821940054,-8.39125439151325
1.22431321652607,-3.89344866631813,-12.4898598667381,-8.59641120041999,8.19165426652813,2.35148126705093,-10.5431355335791
1.22647631408177,-2.9052456237725,-10.2339344461736,-7.32868882240113,6.56959003497307,2.21172159931432,-8.78131163428738
1.22863941163746,1.38844708229117,-3.40793377369253,-4.7963808559837,1.00974334570068,3.09241396913744,-4.10215731483811
1.23080250919316,6.61665032105584,4.27463431817903,-2.3420160028768,-5.44564231961743,4.47933316196632,0.966309157651114
1.23296560674886,10.0133855371503,8.66637796821107,-1.34700756893926,-9.3398817526807,5.68019655304479,3.65968519963591
1.23512870430456,9.75811621194151,7.32671197534071,-2.43140423660081,-8.54241409364111,6.09476022427116,2.44765386936995
1.23729180186026,5.93066539400989,0.885817262977032,-5.04484813103285,-3.40824132849346,5.48775676252137,-2.07951543402791
1.23945489941596,0.613829242236584,-7.19021769795177,-7.80404694018835,3.28819422785759,4.20893809121247,-7.49713231907006
1.24161799697166,-3.1771651636358,-12.4933633450855,-9.31619818144971,7.83526425436065,3.06951650890695,-10.9047807632676
1.24378109452736,-3.27709458691044,-12.1472618694152,-8.87016728250475,7.71217822816281,2.79653634779716,-10.50871457596
1.24594419208306,0.351188076741515,-6.34796277239766,-6.69915084913918,2.99838734782807,3.52516946294035,-6.52355681076842
1.24810728963876,5.71917862415486,1.82698523245715,-3.89219339169771,-3.77308192830601,4.80568600792629,-1.03260407962028
1.25027038719446,9.9957687286116,8.09125799697839,-1.90451073163321,-9.043513362795,5.95013973012241,3.09337363267259
1.25243348475016,10.9299642087642,9.17926778437698,-1.75069642438719,-10.0546159965706,6.34033031657568,3.7142856799949
1.25459658230586,7.97366587374662,4.57328902558975,-3.40037684815687,-6.27347744966818,5.68702136095174,0.586456088716439
1.25675967986156,2.68387610982799,-3.12037503154495,-5.80425114137294,0.218249460858478,4.24406362560047,-4.46231308645894
1.25892277741726,-2.01403796157638,-9.52590234748796,-7.51186438591159,5.76997015453217,2.7489132121676,-8.51888336669978
1.26108587497296,-3.49764874984901,-11.0044035331183,-7.50675478326932,7.25102614148367,2.00455301671016,-9.25557915819382
1.26324897252866,-0.983614225030998,-6.74363922034339,-5.76002499531239,3.86362672268719,2.3882053851407,-6.25183210782789
1.26541207008436,4.12633441624016,0.906390458042864,-3.21994395819729,-2.51636243714151,3.67313918721872,-1.15677675007721
1.26757516764006,9.13588190627073,7.81535291537156,-1.32052899089917,-8.47561741082115,5.22820544858495,3.2474119622362
1.26973826519576,11.4523693761825,10.2381023799783,-1.2142669962042,-10.8452358780804,6.33331818619337,4.51191769188706
1.27190136275146,9.86837994472741,6.77967248605915,-3.08870745866826,-8.32402621539328,6.47854370169784,1.84548251369544
1.27406446030716,5.27632885705354,-0.739214164429535,-6.01554302148308,-2.268557346312,5.64593593926831,-3.37737859295631
1.27622755786286,0.307950269766934,-8.14149541149482,-8.44944568126176,3.91677257086394,4.37869797551435,-8.29547054637829
1.27839065541856,-2.13805706901592,-11.2332942987744,-9.0952372297585,6.68567568389517,3.47859008037129,-10.1642657642665
1.28055375297426,-0.600693218936975,-8.20061871174396,-7.59992549280698,4.40065596534047,3.499616136935,-7.90027210227547
1.28271685052996,4.16592552795152,-0.518775786481056,-4.68470131443258,-1.82357487073523,4.42531342119205,-2.60173855045682
1.28487994808566,9.72304983643902,7.94213116480483,-1.78091867163419,-8.83259050062193,5.75198425403661,3.08060624658532
1.28704304564136,13.2530991903572,12.9104365501812,-0.342662640175993,-13.0817678702692,6.79788091526662,6.28388695500263
1.28920614319706,12.958655726543,11.8700655004379,-1.08859022610513,-12.4143606134905,7.02362297632407,5.39073763716638
1.29136924075276,9.04370487348379,5.45069974056616,-3.59300513291763,-7.24720230702498,6.31835500320071,0.928847303824266
1.29353233830846,3.73833856161334,-2.76014530391293,-6.49848386552627,-0.489096628850205,5.1184112135698,-4.6293145847196
1.29569543586416,0.107773520944697,-8.14298129628537,-8.25075481723007,4.01760388767034,4.17926416908738,-8.19686805675772
1.29785853341986,0.260189311554697,-7.66827957977769,-7.92846889133238,3.70404513411149,4.09432910144354,-7.79837423555503
1.30002163097556,4.16567366000974,-1.56425361093102,-5.72992727094076,-1.30071002453936,4.94780046547525,-3.64709044093589
1.30218472853126,9.79097669435383,6.89861411250101,-2.89236258185282,-8.34479540342742,6.34166963810333,2.00312576532409
1.30434782608696,14.2543532860088,13.2180734204449,-1.03627986556391,-13.7362133532268,7.64531657578633,6.09089677744047
1.30651092364266,15.2848581195214,14.030319416769,-1.25453870275238,-14.6575887681452,8.2696984111369,6.38789035700832
1.30867402119836,12.3805826904266,8.89513976944678,-3.4854429209798,-10.6378612299367,7.93301280570319,2.70484842423349
1.31083711875406,7.15949039388084,0.635785449357611,-6.52370494452323,-3.89763792161922,6.84159766920203,-2.94395974758281
1.31300021630976,2.56875982290273,-6.09979279538621,-8.66855261828893,1.76551648624174,5.61865622059583,-7.38417270683757
1.31516331386546,1.21733228435069,-7.46951070941391,-8.68684299376459,3.12608921253161,4.95208763905764,-8.07817685158925
1.31732641142116,3.85363294971161,-2.65690358882433,-6.51053653853594,-0.598364680443641,5.18208474412377,-4.58372006368013
1.31948950897685,9.02108757860822,5.78328787603356,-3.23779970257466,-7.40218772732089,6.12944364059144,1.27274408672945
1.32165260653255,13.9693040360392,13.4400553745449,-0.529248661494325,-13.704679705292,7.24927634876676,6.45540335652527
1.32381570408825,16.1016303817114,16.333240117399,0.231609735687631,-16.2174352495552,7.93501032301189,8.28242492654333
1.32597880164395,14.2683227341696,12.9329142034293,-1.33540853074025,-13.6006184687995,7.80186563245491,5.79875283634454
1.32814189919965,9.42049361392445,5.08142342774678,-4.33907018617767,-7.25095852083561,6.87978190005106,0.371176620784556
1.33030499675535,4.21191084809199,-2.861017409043,-7.07292825713499,-0.675446719524492,5.64241955261349,-4.966972833089
1.33246809431105,1.54868494580741,-6.47875748351048,-8.02744242931789,2.46503626885154,4.78806368756265,-7.25309995641418
1.33463119186675,2.89473116000828,-3.85496641772024,-6.74969757772852,0.480117628855979,4.8222143688684,-5.30233199772438
1.33679428942245,7.47988856463262,3.48113908324815,-3.99874948138448,-5.48051382394038,5.73931902300855,-0.258805199068167
1.33895738697815,12.8261123077749,11.5407229879776,-1.28538931979726,-12.1834176478763,7.05575081378608,5.12766683409019
1.34112048453385,16.0665714460799,15.9757336553388,-0.09083779074113,-16.0211525507094,8.07870461841053,7.94244793229884
1.34328358208955,15.3726102420485,14.2944999020905,-1.07811033995802,-14.8335550720695,8.22536029100327,6.60819478106623
1.34544667964525,10.9633472307616,7.24226801574186,-3.72107921501971,-9.10280762325172,7.34221322289064,1.76059440036108
1.34760977720095,5.12610621676922,-1.46606295435564,-6.59216917112486,-1.83002163120679,5.85913769394704,-4.02911606274025
1.34977287475665,0.993102974113327,-7.15828190555886,-8.15138487967219,3.08258946572277,4.57224392689276,-7.65483339261553
1.35193597231235,0.714093406799353,-6.84710268042151,-7.56119608722086,3.06650463681108,4.13764474701011,-7.20414938382119
1.35409906986805,4.25037105892684,-0.844267403794923,-5.09463846272176,-1.70305182756596,4.6725047608243,-2.96945293325834
1.35626216742375,9.51530456926381,7.52626932646239,-1.98903524280142,-8.5207869478631,5.75216990603262,2.76861704183048
1.35842526497945,13.5661455729236,13.7628378833119,0.196692310388308,-13.6644917281177,6.68472663126762,6.97976509685008
1.36058836253515,14.1113307495411,14.5078772240162,0.396546474475016,-14.3096039867786,6.85739213753306,7.45221184924559
1.36275146009085,10.690576608552,9.27210453980597,-1.41847206874607,-9.981340574179,6.05452433864905,3.92681623552995
1.36491455764655,5.00490287487323,0.789322725765551,-4.21558014910768,-2.89711280031939,4.61024151199045,-1.71312871167106
1.36707765520225,0.0827285614254407,-6.35638314768997,-6.43911170911541,3.13682729313227,3.26092013527043,-6.39774742840269
1.36924075275795,-1.44113847840227,-8.32544893494545,-6.88431045654318,4.88329370667386,2.72158598907046,-7.60487969574432
1.37140385031365,1.12972502965679,-4.24474687748578,-5.37447190714258,1.55751092391449,3.25209846839969,-4.80960939231418
1.37356694786935,6.25059933355263,3.42417685629556,-2.82642247725707,-4.83738809492409,4.53851090540485,0.298877189519242
1.37573004542505,11.1094250267254,10.3701818328705,-0.739243193854922,-10.739803429798,5.92433411029017,4.81546931950779
1.37789314298075,13.0938188897686,12.710050954343,-0.383767935425555,-12.9019349220558,6.73879341259707,6.16314150945874
1.38005624053645,11.064977752579,8.99293370149177,-2.07204405108723,-10.0289557270354,6.56851090183311,3.46044482520227
1.38221933809215,6.00746862487714,1.07141342426567,-4.93605520061147,-3.5394410245714,5.4717619127443,-1.9323208881729
1.38438243564785,0.618462498658054,-6.78711172539655,-7.40557422405461,3.08432461336925,4.01201836135633,-7.09634297472558
1.38654553320355,-2.18860582627257,-10.333640611021,-8.14503478474843,6.26112321864678,2.97821447923793,-9.23933769788471
1.38870863075925,-0.985239664154495,-7.79247862024973,-6.80723895609523,4.38885914220211,2.91099964597037,-7.29985878817248
1.39087172831495,3.42405797754213,-0.69812171671655,-4.12217969425868,-1.36296813041279,3.77311883590041,-2.41015070548761
1.39303482587065,8.5602429181823,7.08777736595341,-1.47246555222888,-7.82401014206786,5.01635423520559,2.80765590686226
1.39519792342635,11.6050245298119,11.3717528666868,-0.233271663125075,-11.4883886982493,5.91914809646847,5.56924060178086
1.39736102098205,10.8156806762408,9.75738818366125,-1.05829249257955,-10.286534429951,5.93698658441018,4.34954784554085
1.39952411853775,6.47340293419342,2.99414345651965,-3.47925947767378,-4.73377319535654,4.9763312059336,-0.242558010577064
1.40168721609345,0.857546109635262,-5.28473948673165,-6.14228559636691,2.21359668854819,3.49991585300108,-5.71351254154928
1.40385031364915,-2.9661198373278,-10.5446101015809,-7.57849026425313,6.75536496945437,2.30618521346266,-9.06155018291703
1.40601341120485,-2.93757499625955,-9.93125259199421,-6.99367759573465,6.43441379412688,2.02805129973755,-8.46246509386443
1.40817650876055,0.83710549442938,-3.82513256785858,-4.66223806228796,1.4940135367146,2.74967177835867,-4.24368531507327
1.41033960631624,6.27644711428984,4.45063185619637,-1.82581525809346,-5.36353948524311,4.05113118619165,1.31240829905145
1.41250270387194,10.510534653697,10.455436517939,-0.0550981357579783,-10.482985585818,5.28281639472749,5.20016919109053
1.41466580142764,11.3055139731213,10.9694715972521,-0.336042375869182,-11.1374927851867,5.82077817449525,5.31671461069148
1.41682889898334,8.18376575463033,5.69096225711713,-2.49280349751319,-6.93736400587373,5.33828462607176,1.59907937980197
1.41899199653904,2.77786709654197,-2.53010655231609,-5.30797364885806,-0.12388027211294,4.04292037270002,-3.91904010058708
1.42115509409474,-1.95799523369335,-9.18164141619981,-7.22364618250646,5.56981832494658,2.63282547440656,-8.20264379935313
1.42331819165044,-3.43868872809786,-10.635304606227,-7.19661587812915,7.03699666716243,1.87896357501564,-8.91596024217807
1.42548128920614,-0.96691293940381,-6.18994937634356,-5.22303643693975,3.57843115787368,2.12806174876797,-5.70649290664165
1.42764438676184,3.96587256759853,1.65462326767223,-2.3112492999263,-2.81024791763538,3.13856093376242,-0.328313016127038
1.42980748431754,8.61934241191914,8.64625981143039,0.0269173995112517,-8.63280111167476,4.29621250620394,4.33658860547082
1.43197058187324,10.4500983607493,10.9986726053964,0.548574244647142,-10.7243854830729,4.95076205805107,5.77362342502179
1.43413367942894,8.38316721705021,7.3518276324283,-1.0313395846219,-7.86749742473926,4.70725340083606,3.1602440239032
1.43629677698464,3.44360023160061,-0.380582678952784,-3.82418291055339,-1.53150877632391,3.633891571077,-2.10238279475309
1.43845987454034,-1.64745021582075,-7.90974084210319,-6.26229062628244,4.77859552896197,2.30742020523084,-7.08601573419281
1.44062297209604,-3.95268289790766,-11.0176355460809,-7.06495264817324,7.48515922199428,1.55613487513279,-9.04129409712707
1.44278606965174,-2.07108945443258,-8.00584225645189,-5.93475280201931,5.03846585544223,1.93183167379337,-6.9702975292356
1.44494916720744,3.07573095644508,-0.510668397469189,-3.58639935391427,-1.28253127948795,3.33106515517968,-2.04853387569173
1.44711226476314,8.87265624596735,7.51726380438882,-1.35539244157853,-8.19496002517808,5.11402434377294,3.08093568140514
1.44927536231884,12.4297831374431,11.8740962734983,-0.555686863944766,-12.1519397054707,6.49273500069392,5.65920470477677
1.45143845987454,11.9984053642543,10.2558178090275,-1.74258755522686,-11.1271115866409,6.8704964597406,4.25661512690032
1.45360155743024,7.88453836741467,3.53805090097235,-4.34648746644233,-5.71129463419351,6.1155129169285,-0.40421828273499
1.45576465498594,2.40055413397236,-4.57859188979142,-6.97914602376377,1.08901887790953,4.68985007886806,-5.77886895677759
1.45792775254164,-1.3635602956422,-9.58745294062713,-8.22389264498492,5.47550661813467,3.43016617467136,-8.90567279280602
1.46009085009734,-1.35141217927411,-8.7365021006974,-7.38508992142329,5.04395713998576,3.01683887107459,-8.06079601106034
1.46225394765304,2.28868697733635,-2.51947595740794,-4.80816293474429,0.115394490035794,3.54842495604032,-3.66381944607611
1.46441704520874,7.42137328153557,5.69822695326185,-1.72314632827372,-6.55980011739871,4.57225980490465,1.98754031249407
1.46658014276444,11.1610078417111,11.5200401759098,0.359032334198695,-11.3405240088104,5.40098775375619,5.93953625505423
1.46874324032014,11.3195272044472,11.7909388849148,0.471411680467611,-11.555233044681,5.42405776198979,6.1311752826912
1.47090633787584,7.52920630457948,6.2563144730568,-1.27289183152268,-6.89276038881814,4.40104906805108,2.49171132076706
1.47306943543154,1.56842713061786,-2.20196737219056,-3.77039450280841,0.316770120786349,2.66941081671314,-2.98618093749948
1.47523253298724,-3.51126770177134,-9.06785257382487,-5.55658487205353,6.28956013779811,1.0226585851411,-7.3122187229392
1.47739563054294,-5.13916750258122,-10.7382466579564,-5.59907915537514,7.93870708026878,0.22995582639696,-8.16866290666574
1.47955872809864,-2.71751259686511,-6.53389904350841,-3.81638644664331,4.62570582018676,0.549436924889099,-5.17514274507586
1.48172182565434,2.15977231488348,1.05940400482671,-1.10036831005677,-1.6095881598551,1.63007031247012,-0.0204821526150267
1.48388492321004,6.70911096159475,7.82649967811632,1.11738871652157,-7.26780531985554,2.79586112253659,4.47194419731895
1.48604802076574,8.39380821478744,9.99921500271596,1.60540678792852,-9.1965116087517,3.39420071342946,5.80231089532224
1.48821111832144,6.17061886678191,6.22483498844456,0.0542161216626456,-6.19772692761323,3.05820137255963,3.1395255550536
1.49037421587714,1.12149121948684,-1.55901169299626,-2.6805029124831,0.218760236754712,1.90099706598497,-2.11975730273968
1.49253731343284,-3.99634157140166,-9.0639141320378,-5.06757256063614,6.53012785171973,0.535615494617237,-7.06574334633697
1.49470041098854,-6.30206163726691,-12.1430334984363,-5.84097186116937,9.22254756785159,-0.230544888048768,-8.99200267980282
1.49686350854424,-4.51494026043242,-9.19785084957308,-4.68291058914066,6.85639555500275,0.0839851643541163,-6.94038071935687
1.49902660609994,0.380653140790558,-1.91010901869987,-2.29076215949043,0.764727938954658,1.3357076501405,-2.10043558909515
1.50118970365563,5.81673062220739,5.79889946420079,-0.0178311580066044,-5.80781504320409,2.917280890107,2.89053415309709
1.50335280121133,8.98954092817812,9.77263445579196,0.783093527613842,-9.38108769198504,4.10322370028214,5.2778639917029
1.50551589876703,8.20659812436158,7.74176157403777,-0.464836550323817,-7.97417984919968,4.3357173373427,3.63846251185698
1.50767899632273,3.80351177319548,0.642534349307105,-3.16097742388837,-2.22302306125129,3.48224459854193,-1.25922153729063
1.50984209387843,-1.88536909528221,-7.74936515066247,-5.86399605538026,4.81736712297234,1.98931348004902,-6.80668060302136
1.51200519143413,-5.76467676036682,-12.9156108409166,-7.15093408054978,9.34014380064171,0.693128660091482,-10.0332724607332
1.51416828898983,-5.79351013916641,-12.137132253747,-6.3436221145806,8.96532119645671,0.275055987707095,-9.2403771841638
1.51633138654553,-2.12788964760195,-5.90052859376501,-3.77263894616306,4.01420912068348,0.822374649280556,-4.83658376996404
1.51849448410123,3.11831405761349,2.44813818375568,-0.670175873857806,-2.78322612068459,1.89424496573565,0.888981154948939
1.52065758165693,7.09528700693499,8.48404168291376,1.38875467597877,-7.78966434492438,2.85326616547811,4.93639817944627
1.52282067921263,7.62997924599974,9.02307109655589,1.39309185055615,-8.32652517127781,3.11844369772179,5.20808147355602
1.52498377676833,4.32077472454893,3.83133192138944,-0.489442803159487,-4.07605332296919,2.40510876385421,1.67094455911498
1.52714687432403,-1.12329863408213,-4.1814912399157,-3.05819260583357,2.65239493699892,0.967446985875718,-3.61984192287463
1.52930997187973,-5.71534010919981,-10.5371286365202,-4.82178852732038,8.12623437286,-0.446775790939714,-7.67945858192028
1.53147306943543,-6.92499833201677,-11.7342720588255,-4.80927372680873,9.32963519542113,-1.05786230260402,-8.27177289281711
1.53363616699113,-4.15553457899024,-7.18020135904231,-3.02466678005207,5.66786796901628,-0.565433899469084,-5.10243406954719
1.53579926454683,1.03936805043923,0.615576514320967,-0.423791536118259,-0.827472282380096,0.731579793278742,0.0958924891013542
1.53796236210253,5.90656360878475,7.46369334570868,1.55712973692392,-6.68512847724671,2.17471693593041,4.5104115413163
1.54012545965823,7.893632199602,9.65702908850488,1.76339688890288,-8.77533064405344,3.06511765534956,5.71021298870388
1.54228855721393,5.91879758550835,5.91678121881043,-0.0020163666979176,-5.91778940215939,2.96040697610313,2.95738242605626
1.54445165476963,1.03450449230803,-1.77878208525455,-2.81328657756258,0.372138796473258,1.92389553493531,-2.29603433140856
1.54661475232533,-4.00335524099089,-9.15077374961589,-5.147418508625,6.57706449530339,0.572031633817055,-7.14909612912045
1.54877784988103,-6.27917689178394,-12.0796042272534,-5.80042733546944,9.17939055951866,-0.239374778157251,-8.94001578136141
1.55094094743673,-4.45626375624961,-8.98228675373208,-4.52602299748247,6.71927525499084,0.034879620616433,-6.75415487560728
1.55310404499243,0.518038463455124,-1.55138293542878,-2.0694213988839,0.516672235986828,1.29372993116951,-1.81040216715634
1.55526714254813,6.06568960408174,6.26686682097847,0.201177216896733,-6.16627821253011,2.9322561935925,3.2340220189376
1.55743024010383,9.34784462398858,10.2938264515561,0.945981827567522,-9.82083553777234,4.20093139821053,5.61990413956181
1.55959333765953,8.66089662474952,8.28927567558664,-0.371620949162878,-8.47508615016808,4.5162587869562,3.95882736321188
1.56175643521523,4.37830430625086,1.28030956886876,-3.0979947373821,-2.82930693755981,3.73814952181648,-0.908842584256672
1.56391953277093,-1.11243565734494,-6.86389427426464,-5.7514586169197,3.98816496580479,2.31951147978738,-6.30767644559217
1.56608263032663,-4.71280082873426,-11.6109997293553,-6.89819890062101,8.16190027904477,1.09269903594338,-9.25459931498815
1.56824572788233,-4.44115109879932,-10.3364776783569,-5.89532657955757,7.38881438857811,0.727087740379126,-8.11590212895723
1.57040882543803,-0.522888945576572,-3.67137755863218,-3.14848861305561,2.09713325210438,1.31279983373952,-3.4099330858439
1.57257192299373,4.88247987818978,4.93268522144017,0.0502053432503953,-4.90758254981497,2.41613726746969,2.49144528234528
1.57473502054943,8.8945081197214,11.0256057768099,2.13109765708847,-9.96005694826563,3.38170523131646,6.57835171694917
1.57689811810513,9.33476389399505,11.4679514620137,2.13318756801869,-10.4013576780044,3.60078816298818,6.80056951501622
1.57906121566083,5.85291614591023,6.10414443882536,0.251228292915124,-5.9785302923678,2.80084392649755,3.17768636587024
1.58122431321653,0.260195265149825,-2.07990660175424,-2.34010186690407,0.909855668302209,1.30014856602695,-2.21000423432915
1.58338741077223,-4.34492725856379,-8.532075697567,-4.18714843900321,6.43850147806539,-0.0788894097802899,-6.3596120682851
1.58555050832793,-5.36115777988849,-9.68546824773007,-4.32431046784158,7.52331301380928,-0.518423656023453,-7.00488935778583
1.58771360588363,-2.2099537620144,-4.94779362591962,-2.73783986390522,3.57887369396701,0.263943050945407,-3.84281674491242
1.58987670343933,3.44265084989653,3.07830311032133,-0.364347739575207,-3.26047698010893,1.90349929473587,1.35697768537306
1.59203980099502,8.69452019634717,10.0805424283576,1.38602223201046,-9.3875313123524,3.65424898216835,5.73328233018405
1.59420289855072,10.8831828740737,12.2766745016611,1.3934916275874,-11.5799286878674,4.74484562324316,6.83508306462426
1.59636599610642,8.90716447963837,8.38523402940671,-0.521930450231665,-8.64619925452254,4.71454746493502,3.93165178958752
1.59852909366212,3.88389107919159,0.44853786917983,-3.43535321001176,-2.16621447418571,3.65962214460168,-1.49340767041596
1.60069219121782,-1.34170795983377,-7.14229641326055,-5.80058845342677,4.24200218654716,2.2294402467965,-6.47144243334366
1.60285528877352,-3.79045547226031,-10.1717454958789,-6.3812900236186,6.98110048406961,1.29541727567915,-8.27651775974876
1.60501838632922,-2.09693150132816,-7.05409392000895,-4.95716241868078,4.57551271066856,1.43011545867631,-6.00562816934487
1.60718148388492,2.78815172905608,0.430958039635073,-2.357193689421,-1.60955488434557,2.57267270923854,-0.963117824892965
1.60934458144062,8.26341527522785,8.24329681164127,-0.0201184635865737,-8.25335604343456,4.14176686940721,4.11158917402735
1.61150767899632,11.4620595753298,12.1727519702304,0.710692394900621,-11.8174057727801,5.3756835902146,6.44172218256553
1.61367077655202,10.6449327289962,10.0009915239482,-0.643941205047959,-10.3229621264722,5.64443696702207,4.67852515945013
1.61583387410772,6.14085584744735,2.78108155097629,-3.35977429647106,-4.46096869921182,4.7503150719592,-0.289346372747385
1.61799697166342,0.321048027070965,-5.60252246986674,-5.92357049693771,2.64073722139789,3.12230926200434,-5.76304648340222
1.62016006921912,-3.65982971487375,-10.6002753243631,-6.94044560948939,7.13005251961845,1.64030794730782,-8.77036046692626
1.62232316677482,-3.72748564610968,-9.58186703882766,-5.85438139271798,6.65467634246867,1.06344787330415,-7.71812421577282
1.62448626433052,-0.0628109786876401,-3.20132956017515,-3.13851858148751,1.63207026943139,1.53785380139993,-3.16992407083133
1.62664936188622,5.15386743237279,5.07410665083859,-0.0797607815342047,-5.11398704160569,2.6168141069535,2.49717293465219
1.62881245944192,9.00320249743446,10.8300572402305,1.82685474279601,-9.91662986883246,3.58817387731922,6.32845599151324
1.63097555699762,9.29221615236927,10.9850250878819,1.69280893551264,-10.1386206201256,3.79970360842831,6.33891701169728
1.63313865455332,5.67912827012381,5.41680013321646,-0.26232813690735,-5.54796420167014,2.97072820351558,2.57723599815456
1.63530175210902,-0.0424179430771296,-2.88988214135593,-2.8474641982788,1.46615004221653,1.40252312760084,-2.86867316981737
1.63746484966472,-4.84438469605936,-9.43974564362355,-4.5953609475642,7.14206516984146,-0.124511874247581,-7.01755329559387
1.63962794722042,-6.20418418944503,-10.775181929991,-4.57099774054595,8.489683059718,-0.816593224449541,-7.67308983526846
1.64179104477612,-3.57897690574837,-6.38748595133451,-2.80850904558614,4.98323142854144,-0.385233930081114,-4.59799749846033
1.64395414233182,1.38901183163391,1.13569609875508,-0.253315732878828,-1.2623539651945,0.82116378225637,0.441190182938128
1.64611723988752,5.88773072815904,7.59250855414477,1.70477782598573,-6.7401196411519,2.09147645108665,4.64864319006525
1.64828033744322,7.38843320149167,9.35463112822936,1.96619792673769,-8.37153216486051,2.71111763737699,5.66041452748352
1.65044343499892,4.9024423473016,5.27596920472832,0.373526857426715,-5.08920577601496,2.26445774493744,2.82474803107752
1.65260653255462,-0.407420693403495,-2.57252107982073,-2.16510038641723,1.48997088661211,0.878839846506869,-2.36881073311898
1.65476963011032,-5.72562350584206,-9.94786590846133,-4.22224240261928,7.8367447071517,-0.751690551611391,-7.08505415554031
1.65693272766602,-8.17763130814402,-12.8788537790335,-4.70122247088943,10.5282425435887,-1.73820441862729,-8.79003812496144
1.65909582522172,-6.54026283760462,-9.93726607945011,-3.39700324184549,8.23876445852736,-1.57162979787956,-6.6671346606478
1.66125892277742,-1.85536424031175,-2.89323947451537,-1.03787523420362,2.37430185741356,-0.408744503054066,-1.96555735435949
1.66342202033312,3.28054815412885,4.34828005841958,1.06773190429073,-3.81441410627422,1.10640812491906,2.70800598135516
1.66558511788882,6.07405285851779,7.77313628307553,1.69908342455775,-6.92359457079666,2.18748471698002,4.73610985381664
1.66774821544452,4.89756128673077,5.33478571883949,0.437224432108717,-5.11617350278513,2.23016842731103,2.8860050754741
1.66991131300022,0.202996310719222,-1.84440032862729,-2.04739663934651,0.820702008954033,1.12519647503287,-1.9458984839869
1.67207441055592,-5.55806843354279,-9.93289511794332,-4.37482668440053,7.74548177574305,-0.591620874571131,-7.15386090117192
1.67423750811162,-9.24337860266719,-14.5397561813208,-5.29637757865363,11.891567391994,-1.97350051200678,-9.91806687998722
1.67640060566732,-8.87123704462958,-13.2194910163617,-4.34825397173211,11.0453640304956,-2.26149153644874,-8.7838724940469
1.67856370322302,-4.74255502480644,-6.70792931713062,-1.96537429232418,5.72524217096853,-1.38859036624113,-4.3366518047274
1.68072680077872,0.856172025236031,1.57757589931133,0.721403874075296,-1.21687396227368,0.0673840755803674,1.14948988669331
1.68288989833441,4.95720266596447,7.32660579175776,2.3694031257933,-6.14190422886112,1.29389977008558,4.84800445877553
1.68505299589011,5.40206465105831,7.56295329693768,2.16088864587937,-6.482508973998,1.62058800258947,4.86192097140852
1.68721609344581,1.94145100077814,2.24818651449412,0.306735513715982,-2.09481875763613,0.81735774353108,1.27746101410505
1.68937919100151,-3.51733825152848,-5.61735086526856,-2.10001261374009,4.56734455839852,-0.708662818894194,-3.85868173950433
1.69154228855721,-7.87195188519297,-11.6320831233807,-3.76013123818776,9.75201750428685,-2.05591032350261,-7.69610718078424
1.69370538611291,-8.63302850919305,-12.4962747467636,-3.86324623757057,10.5646516279783,-2.38489113581124,-8.17976049216709
1.69586848366861,-5.37455004156925,-7.80881630652171,-2.43426626495246,6.59168317404548,-1.4701418883084,-5.12154128573708
1.69803158122431,0.144354744649721,-0.160055831527238,-0.304410576176959,0.00785054343875835,0.22438266041334,-0.232233203852099
1.70019467878001,5.04086633833,6.32316562928428,1.28229929095428,-5.68201598380714,1.87928352368786,3.80273246011928
1.70235777633571,6.7783826672882,8.12079063327517,1.34240796598697,-7.44958665028168,2.71798735065062,4.73159929963107
1.70452087389141,4.4217478784873,4.17371640734106,-0.248031471146238,-4.29773214291418,2.33488967481677,1.96284246809741
1.70668397144711,-0.787435582323127,-3.41836485260669,-2.63092927028356,2.10290021746491,0.921746843980218,-3.02464706144513
1.70884706900281,-5.97452156820171,-10.4329873516235,-4.45846578342174,8.20375445991258,-0.758027892389984,-7.4457265675226
1.71101016655851,-8.23819316239448,-12.9396162411683,-4.70142307877382,10.5889047017814,-1.76838504181033,-8.82051965997106
1.71317326411421,-6.35153185090098,-9.54439853091156,-3.19286668001058,7.94796519090627,-1.5793325854452,-6.36863260546107
1.71533636166991,-1.38160891109598,-2.04230541900246,-0.660696507906483,1.71195716504922,-0.360456201594749,-1.35150096345447
1.71749945922561,4.02253522934225,5.62361971204473,1.60108448270247,-4.82307747069349,1.21072537331989,3.6123520973736
1.71966255678131,7.02755804373604,9.38253987170936,2.35498182797332,-8.2050489577227,2.33628810788136,5.86876084984134
1.72182565433701,6.00783738722275,7.15136281130063,1.14352542407788,-6.57960009926169,2.43215598157243,4.14744411768926
1.72398875189271,1.43983877532707,0.0703887628403752,-1.3694500124867,-0.755113769083724,1.40464439390688,-0.649530624823161
1.72615184944841,-4.21620243687849,-7.97644863364192,-3.76024619676344,6.09632553526021,-0.227978120057524,-5.86834741520268
1.72831494700411,-7.8486103375775,-12.5576306767608,-4.70902033918331,10.2031205071692,-1.56979499919709,-8.63332550797207
1.73047804455981,-7.52468286636794,-11.227973686061,-3.70329081969309,9.37632827621448,-1.91069602333742,-7.46563225287706
1.73264114211551,-3.55190293708324,-4.75547246842112,-1.20356953133788,4.15368770275218,-1.17416670287268,-2.9795209998795
1.73480423967121,1.85242062927938,3.41939978197165,1.56697915269227,-2.63591020562551,0.142720738293557,2.49318946733196
1.73696733722691,5.81867375399113,8.99415016732169,3.17547641333056,-7.40641196065641,1.32159867033029,6.08481329032612
1.73913043478261,6.23623878574955,9.01834390264253,2.78210511689298,-7.62729134419604,1.72706683442829,5.90022450976776
1.74129353233831,2.83439667478461,3.49437883897266,0.659982164188053,-3.16438775687864,1.08720725529828,2.07718050158036
1.74345662989401,-2.52652509426545,-4.50468864076263,-1.97816354649719,3.51560686751404,-0.27418077388413,-3.24142609362991
1.74561972744971,-6.77930017303339,-10.4865231676255,-3.70722299459211,8.63291167032945,-1.53603858922064,-7.09687308110881
1.74778282500541,-7.45886988295778,-11.0985616537242,-3.63969177076642,9.27871576834099,-1.90958905609568,-7.36912671224531
1.74994592256111,-4.16043283686943,-5.97088452415023,-1.8104516872808,5.06565868050983,-1.17499057479432,-3.89066810571552
1.75210902011681,1.35544787682211,2.18688887903556,0.831441002213445,-1.77116837792883,0.262003437304333,1.5091649406245
1.75427211767251,6.22650929770273,9.0816113095729,2.85510201187017,-7.65406030363781,1.68570364291628,5.96835666072153
1.75643521522821,7.92933883589518,11.0630429436426,3.13370410774744,-9.49619088976891,2.39781736407387,7.09837352569504
1.75859831278391,5.53619367124924,7.04511251793215,1.50891884668292,-6.2906530945907,2.01363741228316,4.27701568230754
1.76076141033961,0.321553360371897,-0.805720960614943,-1.12727432098684,0.242083800121523,0.724413840679369,-0.966497640800892
1.76292450789531,-4.79726655823618,-8.15535332949855,-3.35808677126237,6.47630994386737,-0.719589893486907,-5.75672005038046
1.76508760545101,-6.92542717959184,-10.9739633444763,-4.04853616488445,8.94969526203407,-1.4384455073537,-7.51124975468037
1.76725070300671,-4.9030922940486,-7.84167255950418,-2.93858026545558,6.37238242677639,-0.982256014296508,-5.39012641247988
1.76941380056241,0.140749887602599,-0.590956554618185,-0.731706442220784,0.225103333507793,0.436228164911691,-0.661331498419484
1.77157689811811,5.55436443066668,6.80582456883456,1.25146013816789,-6.18009449975062,2.15145214624939,4.02864235350123
1.7737399956738,8.5430399292828,10.281337585143,1.73829765586018,-9.41218875721289,3.40237113671131,6.00981762050158
1.7759030932295,7.5238166868594,7.77323445351108,0.249417766651685,-7.64852557018524,3.63719946010386,4.01132611008138
1.7780661907852,3.00174311199305,0.455858218148503,-2.54588489384454,-1.72880066507078,2.7738140029188,-1.04501333784802
1.7802292883409,-2.5615448190525,-7.74485539841939,-5.18331057936689,5.15320010873595,1.3108828801572,-6.46408298889314
1.7823923858966,-6.08436718234254,-12.3455591228037,-6.26119194046119,9.21496315257313,0.0884123790593252,-9.30337553163246
1.7845554834523,-5.68492099552841,-10.845665854721,-5.16074485919259,8.2652934251247,-0.262088068167907,-8.0032053569568
1.786718581008,-1.72088330653672,-4.01275103698186,-2.29186773044515,2.86681717175929,0.285492211954216,-3.15230938371351
1.7888816785637,3.55992544650048,4.60838899445953,1.04846354795906,-4.08415722048,1.25573094927071,2.8284262712093
1.7910447761194,7.27406751251811,10.5478997154963,3.27383220297819,-8.9109836140072,2.00011765476996,6.91086595923724
1.7932078736751,7.32024463776451,10.7366363457654,3.41639170800087,-9.02844049176494,1.95192646488182,7.07651402688312
1.7953709712308,3.48835773791926,5.18326680626874,1.69490906834948,-4.335812272094,0.896724334784891,3.43908793730911
1.7975340687865,-2.2646508188374,-2.95750028329525,-0.692849464457854,2.61107555106633,-0.785900677189773,-1.82517487387655
1.7996971663422,-6.8023120764026,-9.13539223688839,-2.33308016048579,7.96885215664549,-2.2346159579584,-5.73423619868709
1.8018602638979,-7.65440778319828,-9.99982231165748,-2.3454145284592,8.82711504742788,-2.65449662736954,-6.17261842005834
1.8040233614536,-4.4664345507809,-5.22484122584836,-0.758406675067461,4.84563788831463,-1.85401393785672,-2.99162395045791
1.8061864590093,0.925490490101332,2.45940828065433,1.533917790553,-1.69244938537783,-0.304213650225835,1.99666303560367
1.808349556565,5.60713517918498,8.82448129627347,3.21734611708849,-7.21580823772922,1.19489453104825,6.02091370668098
1.8105126541207,7.05826804033328,10.3352415682583,3.27697352792506,-8.69675480429581,1.89064725620411,6.8061075480917
1.8126757516764,4.38674975938959,5.99282516507675,1.60607540568716,-5.18978746223317,1.39033717685122,3.79945028538196
1.8148388492321,-1.09531383252485,-2.0134473642828,-0.918133531757951,1.55438059840382,-0.0885901503834488,-1.46579044802037
1.8170019467878,-6.43628207919858,-9.40268227772277,-2.96640019852419,7.91948217846067,-1.73494094033719,-6.18454123812348
1.8191650443435,-8.72210666968224,-12.251333269908,-3.52922660022575,10.4867199697951,-2.59644003472824,-7.89027993506688
1.8213281418992,-6.80388409195296,-9.22628017071872,-2.42239607876576,8.01508213133584,-2.1907440065936,-5.82433812474224
1.8234912394549,-1.84798886051802,-2.18517264623512,-0.337183785717102,2.01658075337657,-0.755402537400458,-1.26117821597611
1.8256543370106,3.45318069180628,4.92449374051802,1.47131304871174,-4.18883721616215,0.990933821547272,3.19790339461488
1.8278174345663,6.29994913383328,8.10504280586548,1.8050936720322,-7.20249596984938,2.24742773090054,4.95506823894884
1.829980532122,5.15637097106228,5.39629709938313,0.239926128320842,-5.27633403522271,2.45822242137072,2.81811161385198
1.8321436296777,0.591075384642963,-1.94040085189609,-2.53147623653905,0.674662733626562,1.56127581059101,-2.23593854421757
1.8343067272334,-4.90355374362687,-9.97403420147348,-5.07048045784661,7.43879397255017,0.0834633571098742,-7.52225732966005
1.8364698247891,-8.26288493417916,-14.35363816059,-6.09075322641083,11.3082615473846,-1.08606585388416,-10.2221956935004
1.8386329223448,-7.64669191674593,-12.7988435953087,-5.15215167856276,10.2227677560273,-1.24727011909158,-8.97549763693572
1.8407960199005,-3.4626473916542,-6.21003379516648,-2.74738640351227,4.83634059341034,-0.357630494070966,-4.47871009933938
1.8429591174562,1.97770256906917,1.94508626135846,-0.0326163077107058,-1.96139441521382,1.00515943838994,0.956234976823879
1.8451222150119,5.74283870238956,7.42715799743526,1.6843192950457,-6.58499834991241,2.02925970367193,4.55573864624048
1.8472853125676,5.75003829554234,7.3858482505797,1.63580995503737,-6.56794327306102,2.05711417025248,4.51082910280853
1.8494484101233,1.86300133040064,1.91732350787227,0.0543221774716347,-1.89016241913646,0.904339576464502,0.985822842671954
1.851611507679,-3.8958041010851,-5.86331907485778,-1.96751497377268,4.87956158797144,-0.96414456365621,-3.91541702431523
1.8537746052347,-8.37710316951773,-11.5324096085377,-3.15530643902001,9.95475638902773,-2.61089836524886,-7.34385802377887
1.8559377027904,-9.13942505207562,-11.9098919708507,-2.77046691877509,10.5246585114632,-3.18447906665027,-7.3401794448129
1.8581008003461,-5.84501499433157,-6.78949292422824,-0.944477929896676,6.31725395927991,-2.45026853221745,-3.86698542706246
1.8602638979018,-0.313420162010058,1.08936556394902,1.40278572595908,-0.387972700969482,-0.858102943984568,1.24607564495405
1.8624269954575,4.5575710576251,7.56834962238156,3.01077856475647,-6.06296034000333,0.773396246434313,5.28956409356902
1.86459009301319,6.2560368220636,9.2056034298716,2.949566607808,-7.7308201259676,1.6532351071278,6.0775850188398
1.86675319056889,3.91212025878602,5.07982754767265,1.16770728888663,-4.49597390322934,1.37220648494969,3.12376741827964
1.86891628812459,-1.16106999640228,-2.57412207674293,-1.41305208034064,1.8675960365726,0.12599104196918,-1.99358707854178
1.87107938568029,-6.09052636092124,-9.48443570674705,-3.39390934582581,7.78748103383414,-1.34830850754771,-6.43917252628643
1.87324248323599,-8.09034066386142,-11.8115363830627,-3.72119571920128,9.95093852346206,-2.18457247233007,-7.76636605113199
1.87540558079169,-6.1051432382437,-8.34581791219912,-2.24067467395542,7.22548057522141,-1.93223428214414,-5.29324629307727
1.87756867834739,-1.31231495790164,-1.03429558976074,0.278019368140894,1.17330527383119,-0.795167163021266,-0.378138110809925
1.87973177590309,3.6675431132167,6.1651631934779,2.4976200802612,-4.9163531533473,0.584961516477754,4.33139163686955
1.88189487345879,6.14297407751918,9.31078016997682,3.16780609245764,-7.726877123748,1.48758399253077,6.23929313121723
1.88405797101449,4.66573969806714,6.51873558911717,1.85299589105004,-5.59223764359215,1.40637190350855,4.1858657400836
1.88622106857019,-0.139622678312913,-0.894183501572204,-0.754560823259292,0.516903089942558,0.307469072473189,-0.824372162415748
1.88838416612589,-5.74095778934313,-8.97535943579763,-3.2344016464545,7.35815861257038,-1.25327807144432,-6.10488054112606
1.89054726368159,-9.05896688663164,-13.3691371392206,-4.31017025258894,11.2140520129261,-2.37439831702135,-8.83965369590477
1.89271036123729,-8.28915583716255,-11.7920249206779,-3.50286908351534,10.0405903789202,-2.3931433768236,-7.64744700209662
1.89487345879299,-3.90414645341208,-5.14753136780443,-1.24338491439235,4.52583891060826,-1.33038076950986,-3.19545814109839
1.89703655634869,1.74859938289397,3.07963673913863,1.33103735624467,-2.4141180610163,0.208781013324649,2.20533704769165
1.89919965390439,5.74301181660872,8.61510426044732,2.8720924438386,-7.17905803852802,1.43545968638506,5.74359835214296
1.90136275146009,6.0064311932398,8.5680430117438,2.561611818504,-7.2872371024918,1.7224096873679,5.5648274151239
1.90352584901579,2.39004730179414,3.02028924424931,0.630241942455179,-2.70516827302172,0.879902679669478,1.82526559335225
1.90568894657149,-3.1242639634593,-4.89423561555806,-1.76997165209875,4.00924978950868,-0.677146155680275,-3.33210363382841
1.90785204412719,-7.44395033663546,-10.7166639118545,-3.272713575219,9.08030712424496,-2.08561838070823,-6.99468874353673
1.91001514168289,-8.16800588653847,-11.2281600544214,-3.06015416788296,9.69808297047994,-2.55392585932776,-7.14415711115219
1.91217823923859,-4.95530958116299,-6.20270926022766,-1.24739967906467,5.57900942069532,-1.85395495104916,-3.72505446964616
1.91434133679429,0.418106630569755,1.5977418886603,1.17963525809055,-1.00792425961503,-0.380764313760396,1.38868857337542
1.91650443434999,5.10309680056244,7.96568250810998,2.86258570754754,-6.53438965433621,1.12025554650745,5.41413410782876
1.91866753190569,6.61314559189081,9.44468221971658,2.83153662782576,-8.02891390580369,1.89080448203253,6.13810942377117
1.92083062946139,4.09598938223878,5.16714318709271,1.07115380485393,-4.63156628466574,1.51241778869242,3.11914849597332
1.92299372701709,-1.10367593222405,-2.56733003072835,-1.4636540985043,1.8355029814762,0.179989083140125,-2.01549206461633
1.92515682457279,-6.07614549852349,-9.4753144611697,-3.39916896264621,7.77572997984659,-1.33848826793864,-6.43724171190796
1.92731992212849,-8.01285285485781,-11.7465269981459,-3.73367414328809,9.87968992650185,-2.13958935578486,-7.74010057071699
1.92948301968419,-5.86433244138685,-8.20594932199011,-2.34161688060326,7.03514088168848,-1.76135778039179,-5.27378310129669
1.93164611723989,-0.842131298717103,-0.826502787993491,0.0156285107236123,0.834317043355297,-0.428879904720358,-0.405437138634939
1.93380921479559,4.38636536046135,6.42274931370935,2.036383953248,-5.40455733708535,1.17499070360667,4.22956663347868
1.93597231235129,7.08068556990029,9.60362004615591,2.52293447625561,-8.3421528080281,2.27887554682234,6.06327726120576
1.93813540990699,5.75580220896187,6.85150172113992,1.09569951217805,-6.3036519650509,2.33005134839191,3.97360061665899
1.94029850746269,1.03380906890164,-0.480773754403973,-1.51458282330561,-0.276517657248832,1.27419594610362,-0.997678288854792
1.94246160501839,-4.53497693860267,-8.40502061440949,-3.87004367580682,6.46999877650608,-0.332466631397923,-6.13753214510816
1.94462470257409,-7.86965076356784,-12.5628687249919,-4.69321796142408,10.2162597442799,-1.58821640107188,-8.628043343208
1.94678780012979,-7.17804230207739,-10.7269207081091,-3.54887840603171,8.95248150509325,-1.81458194802284,-7.13789955707041
1.94895089768549,-2.93399808544098,-3.90534099459523,-0.971342909154246,3.41966954001811,-0.981327588143368,-2.43834195187474
1.95111399524119,2.52070935575119,4.32058243818738,1.7998730824362,-3.42064589696929,0.360418136657497,3.06022776031179
1.95327709279688,6.26803782978509,9.65156621369091,3.38352838390581,-7.959802021738,1.44225472293964,6.51754729879836
1.95544019035258,6.28032882399792,9.26213963619966,2.98181081220174,-7.77123423009879,1.64925900589809,6.1219752242007
1.95760328790828,2.49915259768753,3.35310976759659,0.853957169909067,-2.92613118264206,0.82259771388923,2.10353346875283
1.95976638546398,-3.02582452751902,-4.83050138488213,-1.80467685736311,3.92816295620058,-0.610573835077958,-3.31758912112262
1.96192948301968,-7.21993759382892,-10.7744954778379,-3.55455788400901,8.99721653583342,-1.83268985490995,-7.16452668092347
1.96409258057538,-7.77231507615164,-11.2621742825854,-3.48985920643377,9.51724467936853,-2.14122793485894,-7.37601674450959
1.96625567813108,-4.44191081454054,-6.09894943036496,-1.65703861582442,5.27043012245275,-1.39243609935806,-3.87799402309469
1.96841877568678,0.938241628384239,1.90352615259586,0.965284524211625,-1.42088389049005,-0.0135214479136931,1.43440533840374
1.97058187324248,5.53193178808098,8.47148404255234,2.93955225447136,-7.00170791531666,1.29618976680481,5.70551814851185
1.97274497079818,6.92272373023745,10.0853269827271,3.16260325248962,-8.50402535648226,1.88006023887391,6.62396511760834
1.97490806835388,4.32133927416277,5.84840185551189,1.52706258134912,-5.08487056483733,1.39713834640683,3.6877322184305
1.97707116590958,-0.904435461439986,-1.91681112174327,-1.01237566030328,1.41062329159163,0.0539700994316479,-1.46459339102327
1.97923426346528,-5.83836018971224,-8.87435487851985,-3.03599468880761,7.35635753411604,-1.40118275045231,-5.95517478366373
1.98139736102098,-7.6913019683993,-11.1777784410956,-3.48647647269626,9.43454020474743,-2.10241274785152,-7.33212745689591
1.98356045857668,-5.47293268998936,-7.65850430955343,-2.18557161956407,6.5657184997714,-1.64368053521264,-4.92203796455875
1.98572355613238,-0.457866524526528,-0.340978672955982,0.116887851570546,0.399422598741255,-0.287377188048537,-0.112045410692718
1.98788665368808,4.65110292544784,6.73115522944336,2.08005230399552,-5.6911290774456,1.28552531072616,4.40560376671944
1.99004975124378,7.11422432572762,9.58904608034541,2.47482175461779,-8.35163520303652,2.31970128555492,6.0319339174816
1.99221284879948,5.47707864182715,6.44476420153625,0.967685559709097,-5.9609214216817,2.25469654105903,3.70622488062267
1.99437594635518,0.401614282905857,-1.19707195007719,-1.59868623298305,0.397728833585666,1.00015025794445,-1.39787909153012
1.99653904391088,-5.51517945740977,-9.23723710099614,-3.72205764358637,7.37620827920295,-0.896560906911696,-6.47964737229126
1.99870214146658,-9.13799336383967,-13.3338342556547,-4.19584089181504,11.2359138097472,-2.47107623601232,-8.76483757373487
2.00086523902228,-8.641033416308,-11.3806148948756,-2.73958147856761,10.0108241555918,-2.9507259688702,-7.06009818672161
2.00302833657798,-4.49524578731042,-4.51885334450565,-0.0236075571952341,4.50704956590804,-2.23581911505759,-2.27123045085044
2.00519143413368,0.958704037669513,3.59065704355123,2.63195300588172,-2.27468054061037,-0.836624484106103,3.11130502471648
2.00735453168938,4.80526417316122,8.65223415252354,3.84696997936232,-6.72874916284238,0.479147096899446,6.24960206594293
2.00951762924508,4.98070375330678,7.94878100531751,2.96807725201073,-6.46474237931215,1.00631325064803,5.45842912866412
2.01168072680078,1.34507655149819,1.84382937864887,0.498752827150676,-1.59445296507353,0.423161862173757,1.17129110289977
2.01384382435648,-4.11487272203123,-6.33554742081545,-2.22067469878422,5.22521007142334,-0.947099011623504,-4.27811105979984
2.01600692191218,-8.32136492488501,-12.1463735574224,-3.82500863253743,10.2338692411537,-2.24817814617379,-7.98569109497994
2.01817001946788,-8.94036000988076,-12.5243267767775,-3.58396676689672,10.7323433933291,-2.67819662149202,-8.05414677183711
2.02033311702358,-5.75618888893049,-7.38614540050188,-1.62995651157139,6.57116714471619,-2.06311618867955,-4.50805095603664
2.02249621457928,-0.651145323298772,0.451174756049275,1.10232007934805,0.0999852836247487,-0.87673270132341,0.776747417698661
2.02465931213498,3.55000984155634,6.79992709191601,3.24991725035967,-5.17496846673618,0.150046295598337,5.02492217113784
2.02682240969068,4.52166846306333,8.25371766467799,3.73204920161466,-6.38769306387066,0.394809630724335,5.99288343314632
2.02898550724638,1.58963558713031,3.99525768455285,2.40562209742254,-2.79244663584158,-0.407993255146113,3.2004398909877
2.03114860480208,-3.80451549479091,-3.64331023911576,0.161205255675148,3.72391286695333,-1.98286037523303,-1.74105249172031
2.03331170235778,-8.74901772801511,-10.4075673943839,-1.65854966636878,9.5782925611995,-3.54523403082317,-6.03305853037634
2.03547479991348,-10.5218763046051,-12.5906720249144,-2.06879572030924,11.5562741647597,-4.22654029214794,-7.3297338726118
2.03763789746918,-8.21202335835808,-9.12285093005358,-0.910827571695499,8.66743714420583,-3.65059789333129,-5.01683925087454
2.03980099502488,-3.13675036618156,-2.01195363489813,1.12479673128344,2.57435200053984,-2.1307735487325,-0.443578451807345
2.04196409258058,2.00635324992954,4.81687556576397,2.81052231583443,-3.41161440784675,-0.402084532952443,3.8136989407992
2.04412719013628,4.51341139803988,7.53566547499363,3.02225407695375,-6.02453843651675,0.745578660543063,5.27895977597369
2.04629028769198,2.98555123932497,4.4422141798519,1.45666294052693,-3.71388270958844,0.76444414939902,2.94943856018942
2.04845338524767,-1.87022249854322,-2.9607482828859,-1.09052578434269,2.41548539071456,-0.389848357100265,-2.02563703361429
2.05061648280337,-7.4749115807322,-10.6624347696098,-3.18752318887756,9.06867317517098,-2.14369419592732,-6.92497897924365
2.05277958035907,-10.7818202943448,-14.4669236451845,-3.6851033508397,12.6243719697647,-3.54835847175256,-9.07601349801211
2.05494267791477,-10.0678088349111,-12.4082167610505,-2.34040792613937,11.2380127979808,-3.86370045438586,-7.37431234359491
2.05710577547047,-5.87481597491074,-5.6835875727794,0.191228402131345,5.77920177384507,-3.03302218852104,-2.74617958532403
2.05926887302617,-0.569885989943924,2.11932146891068,2.68920745885461,-0.77471773948338,-1.62954672439927,2.40426446388265
2.06143197058187,2.98108747082892,6.87525019451892,3.89416272369,-4.92816883267392,-0.456537626430536,5.38470645910446
2.06359506813757,2.83923732463416,6.03847678075477,3.19923945612061,-4.43885705269447,-0.180001065743223,4.61885811843769
2.06575816569327,-1.0127184468351,0.0540911521627248,1.06680959899782,0.479313647336186,-1.03976402291646,0.560450375580274
2.06792126324897,-6.53717214974619,-7.78613500187499,-1.24896285212879,7.16165357581059,-2.6441046488087,-4.51754892700189
2.07008436080467,-10.6834353619726,-13.1604984651496,-2.47706310317703,11.9219669135611,-4.10318612939776,-7.8187807841633
2.07224745836037,-11.1694793476065,-13.1502130079922,-1.98073366038573,12.1598461777993,-4.59437284361037,-7.56547333418897
2.07441055591607,-7.79062645936679,-7.77612506701298,0.0145013923538144,7.78337576318988,-3.9025639258603,-3.88081183732958
2.07657365347177,-2.40492566209919,0.115515942616335,2.52044160471553,1.14470485974143,-2.46268363340736,1.31797877366593
2.07873675102747,2.15757147841359,6.37415541422943,4.21658393581584,-4.26586344632151,-1.02950622870112,5.29536967502264
2.08089984858317,3.5168378486009,7.67827013965966,4.16143229105876,-5.59755399413028,-0.322297221228926,5.91985121535921
2.08306294613887,0.945154156643789,3.31767344411001,2.37251928746622,-2.1314138003769,-0.713682565411217,2.84509636578812
2.08522604369457,-4.13234515139807,-4.30740587230834,-0.175060720910265,4.21987551185321,-1.9786422152439,-2.2412332966093
2.08738914125027,-8.8094277395897,-10.9596198496368,-2.15019211004711,9.88452379461325,-3.3296178147713,-6.55490597984196
2.08955223880597,-10.3872800526866,-13.0004980396213,-2.6132179869347,11.693889046154,-3.88703103287597,-7.80685801327802
2.09171533636167,-7.97881309505176,-9.41780691208329,-1.43899381703153,8.69831000356752,-3.26990963901011,-5.42840036455741
2.09387843391737,-2.89690508109213,-2.24152997753762,0.655375103554519,2.56921752931487,-1.77614009232333,-0.793077436991548
2.09604153147307,2.20714866471119,4.61861585724117,2.41146719252999,-3.41288226097618,-0.1021592639094,3.51504152488558
2.09820462902877,4.70852327982887,7.38065614098089,2.67213286115202,-6.04458971040488,1.01819520933843,5.02639450106645
2.10036772658447,3.29613470081755,4.38475721056238,1.08862250974483,-3.84044595568997,1.10375609553636,2.73668986015361
2.10253082414017,-1.24838477897374,-2.84560109244422,-1.59721631347048,2.04699293570898,0.174415767248371,-2.22140870295735
2.10469392169587,-6.32809953839957,-10.2709034535201,-3.94280391512048,8.29950149595982,-1.19264781163954,-7.10685368432027
2.10685701925157,-8.98162391377686,-13.6533246720286,-4.67170075825178,11.3174742929027,-2.15496157776254,-9.16251271514021
2.10902011680727,-7.63170627213677,-11.0166913000355,-3.38498502789877,9.32419878608616,-2.123360622119,-7.20083816396715
2.11118321436297,-2.91812381157284,-3.61901502430135,-0.700891212728507,3.26856941793709,-1.10861629942217,-2.15995311851493
2.11334631191867,2.76991446826479,4.82823236895264,2.05831790068785,-3.79907341860871,0.355798283788467,3.44327513482025
2.11550940947437,6.55681312298953,10.0670710902871,3.51025796729753,-8.3119421066383,1.523277577846,6.7886645287923
