t,ecgI,ecgII,leadIII_f,aVR_f,aVL_f,aVF_f
0,53.4202028262954,26.2523484547351,-27.1678543715604,-39.8362756405152,40.2940285989279,-0.457752958412648
0.00214822771213749,68.3079902387956,61.5010339108975,-6.80695632789801,-64.9045120748466,37.5574732833468,27.3470387914998
0.00429645542427497,82.2365094301557,94.7876199919628,12.551110561807,-88.5120647110592,34.8426994341743,53.6693652768849
0.00644468313641246,94.2643855182762,124.480305910913,30.2159203926369,-109.372345714595,32.0242325628197,77.348113151775
0.00859291084854995,103.659313391726,149.607763698296,45.9484503065707,-126.633538545011,28.8554315425774,97.7781070024335
0.0107411385606874,110.023685893377,169.969907239199,59.9462213458222,-139.996796566288,25.0387322737773,114.958064292511
0.0128893662728249,113.365476673366,186.045203053148,72.6797263797813,-149.705339863257,20.3428751467925,129.362464716465
0.0150375939849624,114.080710488175,198.73998218957,84.6592717013953,-156.410346338872,14.7107193933897,141.699626945483
0.0171858216970999,112.849378403653,209.076174721782,96.2267963181296,-160.962776562718,8.31129104276165,152.651485519956
0.0193340494092374,110.481107004656,217.926106776354,107.444999771697,-164.203606890505,1.51805361647941,162.685553274025
0.0214822771213749,107.761507133757,225.872024245892,118.110517112135,-166.816765689825,-5.17450498918902,171.991270679014
0.0236305048335124,105.338797256166,233.207456762158,127.868659505993,-169.273127009162,-11.2649311249135,180.538058134076
0.0257787325456498,103.66234158771,240.03501854252,136.37267695481,-171.848680065115,-16.3551676835495,188.203847748665
0.0279269602577873,102.959195180137,246.381176259947,143.421981079809,-174.670185720042,-20.2313929498361,194.901578669878
0.0300751879699248,103.226202279373,252.258983655379,149.032781376006,-177.742592967376,-22.9032895483166,200.645882515693
0.0322234156820623,104.225760353438,257.655346126477,153.429585773038,-180.940553239958,-24.6019127098001,205.542465949758
0.0343716433941998,105.494057836026,262.471546278656,156.97748844263,-183.982802057341,-25.7417153033023,209.724517360643
0.0365198711063373,106.385128553793,266.475128797719,160.090000243926,-186.430128675756,-26.8524358450664,213.282564520823
0.0386680988184748,106.16839927457,269.313480560545,163.145081285975,-187.740939917557,-28.4883410057023,216.22928092326
0.0408163265306122,104.172648646402,270.602213859525,166.429565213122,-187.387431252963,-31.12845828336,218.515889536323
0.0429645542427497,99.9423437558899,270.058816743124,170.116472987234,-185.000580249507,-35.087064615672,220.087644865179
0.0451127819548872,93.361883633322,267.628085455894,174.266201822572,-180.494984544608,-40.4521590946249,220.947143639233
0.0472610096670247,84.7149667331825,263.549647388068,178.834680654885,-174.132307060625,-47.0598569608513,221.192164021476
0.0494092373791622,74.6686061084759,258.341589863787,183.672983755311,-166.505097986131,-54.5021888234174,221.007286809549
0.0515574650912997,64.1872055213321,252.703860961188,188.516655439856,-158.44553324126,-62.1647249592618,220.610258200522
0.0537056928034372,54.3867136270882,247.370592395642,192.983878768554,-150.878653011365,-69.2985825707329,220.177235582098
0.0558539205155747,46.3420491800813,242.955455683922,196.61340650384,-144.648752432002,-75.1356786618795,219.784431093881
0.0580021482277121,40.8718472920263,239.833335689172,198.961488397146,-140.352591490599,-79.0448205525596,219.397412043159
0.0601503759398496,38.3407234734466,238.084951955868,199.744228482421,-138.212837714657,-80.7017525044873,218.914590219144
0.0622986036519871,38.5309996145554,237.507457223154,198.976457608598,-138.019228418855,-80.2227289970215,218.241957415876
0.0644468313641246,40.6322739389785,237.675250311397,197.042976372418,-139.153762125188,-78.20535121672,217.359113341908
0.0665950590762621,43.3715841030569,238.027066424736,194.655482321679,-140.699325263897,-75.6419491093112,216.341274373208
0.0687432867883996,45.2656050306521,237.956828335538,192.691223304886,-141.611216683095,-73.7128091371171,215.324025820212
0.0708915145005371,44.9375934814491,236.893819988426,191.956226506977,-140.915706734938,-73.5093165127641,214.425023247702
0.0730397422126745,41.4200591917982,234.36906244253,192.949003250732,-137.894560817164,-75.7644720294668,213.659032846631
0.075187969924812,34.3625462631052,230.072552026427,195.710005763322,-132.217549144766,-80.6737297501082,212.891278894874
0.0773361976369495,24.0831536926607,223.903005751868,199.819852059208,-123.993079722265,-87.8683491832735,211.861428905538
0.079484425349087,11.4457695035963,216.000286069745,204.554516566149,-113.723027786671,-96.5543735312765,210.277401317947
0.0816326530612245,-2.39335415855268,206.743436674069,209.136790832622,-102.175041257758,-105.765072495587,207.940113753345
0.083780880773362,-16.2726663922285,196.702972017784,212.975638410012,-90.2151528127776,-114.62415240112,204.839305213898
0.0859291084854995,-29.2390919500521,186.550189448991,215.789281399043,-78.6555487494695,-122.514186674548,201.169735424017
0.088077336197637,-40.6281320895568,176.939466835243,217.567598924799,-68.1556673728429,-129.097865507178,197.253532880021
0.0902255639097744,-50.026063505408,168.388617020489,218.414680525897,-59.1812767575403,-134.220372015652,193.401648773193
0.0923737916219119,-57.1869720401538,161.18767846173,218.374650501884,-52.0003532107883,-137.780811271019,189.781164481807
0.0945220193340494,-61.9842205099644,155.363374391685,217.34759490165,-46.6895769408604,-139.665907705807,186.355484646668
0.0966702470461869,-64.4401939354038,150.709224286882,215.149418222286,-43.1345151757393,-139.794806078845,182.929321254584
0.0988184747583244,-64.8265456603312,146.865179993967,211.691725654298,-41.0193171668178,-138.259135657315,179.278452824132
0.100966702470462,-63.779207786968,143.411189525333,207.190397312301,-39.8159908691826,-135.484802549635,175.300793418817
0.103114930182599,-62.3420155262674,139.938799926519,202.280815452786,-38.7983922001258,-132.311415489527,171.109807689653
0.105263157894737,-61.8596813435312,136.084499981767,197.944181325298,-37.1124093191178,-129.901931334415,167.014340653533
0.107411385606874,-63.6968050644733,131.53685033245,195.233655396924,-33.9200226339885,-129.465230230698,163.385252864687
0.109559613319012,-68.8440882328517,126.049077330253,194.893165563104,-28.6024945487004,-131.868626897978,160.471121446678
0.111707841031149,-77.5400674264886,119.486434519579,197.026501946068,-20.9731835465453,-137.283284686278,158.256468232824
0.113856068743287,-89.0501164230568,111.912739051341,200.962855474397,-11.431311314142,-145.006485948727,156.437797262869
0.116004296455424,-101.700147448035,103.684810051356,205.384957499391,-0.992331301660585,-153.542552473713,154.534883775373
0.118152524167562,-113.183251013075,95.4958164004944,208.67906741357,8.84371730629051,-160.931159213323,152.087441907032
0.120300751879699,-121.073956403587,88.307949112954,209.381905516541,16.3830036453165,-165.227930960064,148.844927314748
0.122448979591837,-123.420319467191,83.1511054282502,206.571424895441,20.1346070194702,-164.995872181316,144.861265161846
0.124597207303974,-119.253008895559,80.8283338927603,200.08134278832,19.2123375013996,-159.66717584194,140.45483834054
0.126745435016112,-108.862324576542,81.6312623191235,190.493586895665,13.6155311287093,-149.677955736104,136.062424607394
0.128893662728249,-93.7531706807533,85.1907328710949,178.943903551848,4.28121890482922,-136.348537116301,132.067318211472
0.131041890440387,-76.2858713198384,90.5445290427354,166.830400362574,-7.12932886144849,-121.558135841206,128.687464702655
0.133190118152524,-59.1150052431035,96.4090505887125,155.524055831816,-18.6470226728045,-107.31953053746,125.966553210264
0.135338345864662,-44.60133577846,101.54757134851,146.14890712697,-28.4731177850249,-95.3751214527149,123.84823923774
0.137486573576799,-34.3634399272038,105.089699505318,139.453139432522,-35.3631297890573,-86.9082896798629,122.27141946892
0.139634801288937,-29.0668779467466,106.690848067935,135.757726014681,-38.811985060594,-82.4123019807139,121.224287041308
0.141783029001074,-28.4587302383981,106.499454464032,134.95818470243,-39.0203621128171,-81.7084574704143,120.728819583231
0.143931256713212,-31.5832134306514,104.981537521996,136.564750952647,-36.6991620456723,-84.0739821916494,120.773144237322
0.146079484425349,-37.0829677049642,102.701786621019,139.784754325983,-32.8094094580274,-88.4338610154737,121.243270473501
0.148227712137487,-43.5012812745591,100.157477396684,143.658758671244,-28.3280980610626,-93.5800199729013,121.908118033964
0.150375939849624,-49.53263268089,97.7129401941767,147.245572875067,-24.0901537566433,-98.3891027779784,122.479256534622
0.152524167561762,-54.1967755821362,95.6215951465173,149.818370728654,-20.7124097821905,-102.007573155395,122.719982937585
0.154672395273899,-56.9253097887085,94.083393281801,151.00870307051,-18.5790417465462,-103.967006429609,122.546048176155
0.156820622986037,-57.558999515149,93.2798234106749,150.838822925824,-17.8604119477629,-104.198911220486,122.059323168249
0.158968850698174,-56.2708220727325,93.352286242371,149.623108315104,-18.5407320848192,-102.946965193918,121.487697278737
0.161117078410312,-53.4505328261623,94.3318434525238,147.782376278686,-20.4406553131808,-100.616454552424,121.057109865605
0.163265306122449,-49.59599330529,96.0678453507784,145.663838656068,-23.2359260227442,-97.6299159806791,120.865842003423
0.165413533834586,-45.2447544110776,98.2124578701539,143.457212281232,-26.4838517295382,-94.3509833461545,120.834835075693
0.167561761546724,-40.9521498068079,100.287758902964,141.239908709771,-29.6678045480778,-91.0960292582896,120.763833806367
0.169709989258861,-37.2951481026678,101.812336432,139.107484534668,-32.2585941646662,-88.2013163186679,120.459910483334
0.171858216970999,-34.8682368009368,102.428655328352,137.296892129288,-33.7802092637075,-86.0825644651127,119.86277372882
0.174006444683136,-34.2421739324844,101.971197217603,136.213371150087,-33.8645116425591,-85.2277725412857,119.092284183845
0.176154672395274,-35.873094083793,100.447977075494,136.321071159287,-32.2874414958506,-86.0970826215402,118.384524117391
0.178302900107411,-39.9717253617721,97.9585985744037,137.930323936176,-28.9934366063158,-88.9510246489739,117.94446125529
0.180451127819549,-46.364673218138,94.6129453064355,140.977618524573,-24.1241360441487,-93.6711458713557,117.795281915504
0.182599355531686,-54.3934588163741,90.5167451583897,144.910203974764,-18.0616431710078,-99.651831395569,117.713474566577
0.184747583243824,-62.8962059574131,85.8460202144022,148.742226171815,-11.4749071284945,-105.819216064614,117.294123193109
0.186895810955961,-70.304997066234,80.9678677055271,151.272864771761,-5.33143531964654,-110.788930918998,116.120366238644
0.189044038668099,-74.8736217869849,76.5212623096432,151.394884096628,-0.823820261329168,-113.134252941806,113.958073203136
0.191192266380236,-75.0202785199279,73.3757473615927,148.396025881521,0.822265579167571,-111.708152200724,110.885886621557
0.193340494092374,-69.722660850945,72.438481604634,142.161142455579,-1.35791037684452,-105.941901653262,107.299812030107
0.195488721804511,-58.8544900136648,74.359109208256,133.213599221921,-7.75230959729563,-96.0340446177928,103.786354215088
0.197636949516649,-43.3371994246486,79.2502338687517,122.5874332934,-17.9565172220515,-82.9623163590244,100.918833581076
0.199785177228786,-25.0233546986985,86.5578958041093,111.581250502808,-30.7672705527054,-68.3023026007531,99.0695731534585
0.201933404940924,-6.32101916603187,95.1607983853321,101.481817551364,-44.4198896096501,-53.9014183586979,98.3213079683481
0.204081632653061,10.3316787880662,103.673038467389,93.3413596793224,-57.0023586277274,-41.5048404456281,98.5071990733555
0.206229860365199,22.9765864339199,110.831817386748,87.8552309528276,-66.9042019103337,-32.4393222594539,99.3435241697876
0.208378088077336,30.4812023201825,115.819798632899,85.3385963127164,-73.1505004765407,-27.4286969962669,100.579197472808
0.210526315789474,32.6477084791918,118.410215798172,85.7625073189799,-75.5289621386818,-26.557399419894,102.086361558576
0.212674543501611,30.108153404238,118.904405929434,88.7962525251959,-74.506279666836,-29.3440495604789,103.850329227315
0.214822771213749,24.0929202568264,117.918195588403,93.8252753315765,-71.0055579226147,-34.866177537375,105.87173545999
0.216970998925886,16.1648209824646,116.129375550603,99.9645545681381,-66.1470982665336,-41.8998667928367,108.04696505937
0.219119226638024,7.96959564698863,114.096655852003,106.127060205014,-61.0331257494958,-49.0787322790128,110.111858028509
0.221267454350161,1.00877336551297,112.202888195744,111.194114830231,-56.6058307806286,-55.0926707323591,111.698501512988
0.223415682062299,-3.57039051562197,110.699868295319,114.270258810941,-53.5647388898487,-58.9203246632817,112.48506355313
0.225563909774436,-5.1497080653461,109.784790688739,114.934498754085,-52.3175413116964,-60.0421034097155,112.359644721412
0.227712137486574,-3.73180899692395,109.639557658219,113.371366655143,-52.9538743306475,-58.5515878260334,111.505462156681
0.229860365198711,0.103157493055761,110.40331719085,110.300159697794,-55.2532373419528,-55.0985011023691,110.351738444322
0.232008592910849,5.39299959741178,112.100673622813,106.707674025402,-58.7468366101125,-50.6573372139949,109.404173824107
0.234156820622986,11.095321964053,114.584269526334,103.488947562281,-62.8397957451936,-46.1968127991141,109.036608544308
0.236305048335124,16.3918891085487,117.547512778283,101.155623669734,-66.9697009434159,-42.3818672805928,109.351568224009
0.238453276047261,20.8765855317614,120.619255192445,99.7426696606834,-70.7479203621031,-39.433042064461,110.180962426564
0.240601503759398,24.554010107853,123.495974250215,98.9419641423625,-74.0249921790343,-37.1939770172547,111.218969196289
0.242749731471536,27.6664979056445,126.038981566476,98.3724836608312,-76.8527397360601,-35.3529928775934,112.205732613653
0.244897959183673,30.4542580156493,128.282419437508,97.8281614218584,-79.3683387265785,-33.6869517031046,113.055290429683
0.247046186895811,32.9791958132979,130.346366171655,97.3671703583567,-81.6627809924763,-32.1939872725294,113.856768265006
0.249194414607948,35.0877060284123,132.298629565183,97.2109235367702,-83.6931677967974,-31.0616087541789,114.754776550976
0.251342642320086,36.4929018276024,134.035975202539,97.5430733749367,-85.2644385150708,-30.5250857736671,115.789524288738
0.253490870032223,36.891416186572,135.247749123656,98.3563329370836,-86.0695826551138,-30.7324583752558,116.80204103037
0.255639097744361,36.0324131647885,135.483124877347,99.4507117125585,-85.7577690210677,-31.709149273885,117.466918294953
0.257787325456498,33.7123794051447,134.290830017645,100.5784506125,-84.0016047113948,-33.4330356036778,117.434640315073
0.259935553168636,29.7326701554193,131.369463589231,101.636793433812,-80.5510668723254,-35.9520616391964,116.503128511522
0.262083780880773,23.8845048380809,126.668977191144,102.784472353063,-75.2767410146124,-39.449983757491,114.726724772103
0.264232008592911,16.0033550568898,120.407198872761,104.403843815871,-68.2052769648251,-44.2002443794905,112.405521344316
0.266380236305048,6.08213975740404,112.99767472956,106.915534972156,-59.5399072434819,-50.4166976073758,109.956604850858
0.268528464017186,-5.61070670032564,104.922430367876,110.533137068202,-49.6558618337753,-58.0719218842638,107.727783718039
0.270676691729323,-18.4703485494887,96.611422327471,115.08177087696,-39.0705368889911,-66.7760597132242,105.846596602215
0.272824919441461,-31.5903116233921,88.3852304527626,119.975542076155,-28.3974594146852,-75.7829268497734,104.180386264459
0.274973147153598,-43.8975133333261,80.4735703500498,124.371083683376,-18.2880285083618,-84.134298508351,102.422327016713
0.277121374865736,-54.3646537193412,73.0694626354013,127.434116354743,-9.35240445803003,-90.8993850370419,100.251789495072
0.279269602577873,-62.2572793546039,66.3577894768618,128.615068831466,-2.05025506112892,-95.4361740930348,97.4864291541637
0.281417830290011,-67.3543659700137,60.4812411372708,127.835607107284,3.43656241637145,-97.5949865386491,94.1584241222776
0.283566058002148,-70.0643383625417,55.4568616475803,125.521200010122,7.30373835748068,-97.7927691863318,90.4890308288512
0.285714285714286,-71.360329374702,51.1000977829962,122.460427157698,10.1301157958529,-96.9103782662001,86.7802624703472
0.287862513426423,-72.5054114768766,47.0230067542438,119.52841823112,12.7412023613164,-96.0169148539985,83.2757124926821
0.290010741138561,-74.6317414509627,42.7390477104158,117.370789161378,15.9463468702735,-96.0012653061706,80.0549184358972
0.292158968850698,-78.3287465004747,37.8466170963264,116.175363596801,20.2410647020742,-97.2520550486379,77.0109903465637
0.294307196562836,-83.4175603747089,32.2151430908509,115.63270346556,25.601208641929,-99.5251319201343,73.9239232782053
0.296455424274973,-89.0166987402469,26.0894354806921,115.106134220939,31.4636316297774,-102.061416480593,70.5977848508156
0.298603651987111,-93.8757589675159,20.0587037298326,113.934462697348,36.9085276188417,-103.905110832432,66.9965832135905
0.300751879699248,-96.8390478297884,14.8866325687701,111.725680398559,40.9762076305092,-104.282364114173,63.3061564836643
0.302900107411386,-97.2545999571149,11.2520557297609,108.506655686876,43.001272113677,-102.880627821995,59.8793557083183
0.305048335123523,-95.1810689290952,9.49365181986106,104.674720748956,42.8437085546171,-99.9278948390258,57.0841862844087
0.307196562835661,-91.3385922420476,9.46551404091228,100.80410628296,40.9365391005677,-96.0713492625038,55.1348101619361
0.309344790547798,-86.8507067313323,10.5729905893806,97.4236973207128,38.1388580709759,-92.1372020260226,53.9983439550467
0.311493018259936,-82.8900528258923,11.9786629623561,94.8687157882484,35.4556949317681,-88.8793843070703,53.4236893753022
0.313641245972073,-80.3535791063655,12.8897387284163,93.2433178347817,33.7319201889746,-86.7984484705736,53.066528281599
0.315789473684211,-79.6622203255015,12.8045717854889,92.4667921109904,33.4288242700063,-86.064506218246,52.6356819482396
0.317937701396348,-80.7288603311478,11.6201060146909,92.3489663458387,34.5543771582284,-86.5389133384932,51.9845361802648
0.320085929108485,-83.0863784949992,9.5666439527595,92.6530224477587,36.7598672711198,-87.8697004713789,51.1098332002591
0.322234156820623,-86.1222955703904,7.01277098788637,93.1350665582767,39.554762291252,-89.6286810643335,50.0739187730815
0.32438238453276,-89.3342819278076,4.23887871082292,93.5731606386306,42.5477016084924,-91.4537212832191,48.9060196747267
0.326530612244898,-92.5163452046516,1.28465731642985,93.8010025210815,45.6158439441109,-93.1586738628666,47.5428299187557
0.328678839957035,-95.8186023965985,-2.06853400075211,93.7500683958464,48.9435681986753,-94.7843353962224,45.8407671975471
0.330827067669173,-99.6779161450882,-6.18674097952672,93.4911751655615,52.9323285623075,-96.5845456553249,43.6522170930174
0.33297529538131,-104.656734058775,-11.4032198695233,93.2535141892522,58.0299769641494,-98.9551241240138,40.9251471598645
0.335123523093448,-111.231432502258,-17.8461631585449,93.3852693437127,64.5387978304012,-102.308350922985,37.7695530925839
0.337271750805585,-119.551802706249,-25.3326342524937,94.2191684537556,72.4422184793715,-106.885485580002,34.443267100631
0.339419978517723,-129.182086461895,-33.3427258163558,95.8393606455397,81.2624061391256,-112.510723553718,31.248317414592
0.34156820622986,-138.852479719688,-41.0431119996367,97.8093677200512,89.9477958596622,-118.33092371987,28.3831278602073
0.343716433941998,-146.290807514808,-47.3140038118553,98.9768037029526,96.8024056633316,-122.63380560888,25.8313999455486
0.345864661654135,-148.234751657932,-50.7593700537867,97.4753816041449,99.4970608558591,-122.855066631038,23.3580057751791
0.348012889366273,-140.711374829467,-49.7261431792982,90.9852316501683,95.2187590043824,-115.848303239817,20.6295442354351
0.35016111707841,-119.605311284575,-42.3889083726694,77.2164029119058,80.9971098286223,-98.4108570982405,17.4137472696182
0.352309344790548,-81.446235129517,-26.9506938105104,54.4955413190066,54.1984644700137,-67.9708882242618,13.7724237542481
0.354457572502685,-24.267929183072,-1.96876198784903,22.299167195223,13.1183455854605,-23.2835481891475,10.165202603687
0.356605800214823,51.6467856713535,33.2453671343976,-18.4014185369559,-42.4460764028755,35.0241021041547,7.42197429872083
0.35875402792696,143.3067041999,78.2521709022195,-65.0545332976809,-110.77943755106,104.180618748791,6.59881880226931
0.360902255639098,244.95261774679,131.251882209403,-113.700735537387,-188.102249978097,179.326676642088,8.77557333600826
0.363050483351235,348.440920307114,189.08241479292,-159.358505514194,-268.761667550017,253.899712910654,14.8619546393629
0.365198711063373,444.053808132964,247.48213713658,-196.571670996384,-345.767972634772,320.312739564674,25.4552330700981
0.36734693877551,521.666698704172,301.589662719165,-220.077035985007,-411.628180711669,370.87186734459,40.7563133670792
0.369495166487648,572.14343632046,346.59560681289,-225.54782950757,-459.369521566675,398.845632914015,60.52388865266
0.371643394199785,588.763166197838,378.422001075002,-210.341165122836,-483.59258363642,399.552165660337,84.0404179760833
0.373791621911923,568.430291646546,394.297815536917,-174.132476109628,-481.364053591731,371.281383878087,110.082669713644
0.37593984962406,512.409515742195,393.129607162782,-119.279908579413,-452.769561452488,315.844712160804,136.924849291685
0.378088077336198,426.385099731314,375.622035148739,-50.7630645825757,-401.003567440027,238.574082156945,162.429485283082
0.380236305048335,319.770508691005,344.157641714404,24.387133023399,-331.964075202705,147.691687833803,184.272387368902
0.382384532760473,204.36137938375,302.47682719283,98.1154478090805,-253.41910328829,53.1229657873347,200.296137500955
0.38453276047261,92.5749657530089,255.204503859988,162.62953810698,-173.889734806499,-35.0272861769854,208.917020983484
0.386680988184748,-4.39569961756544,207.266491589792,211.662191207357,-101.435395986113,-108.028945412461,209.464341398575
0.388829215896885,-78.1778617441015,163.248367095839,241.42622883994,-42.5352526758686,-159.802045292021,202.337297967889
0.390977443609023,-124.287177810509,126.778212741734,251.065390552244,-1.2455174656123,-187.676284181376,188.921801646989
0.39312567132116,-142.493773645151,100.043196192909,242.53696983806,21.2252887261211,-192.515371741606,171.290083015485
0.395273899033298,-136.450658588173,83.5489640294534,219.999622617626,26.4508472793597,-178.225140602899,151.77429332354
0.397422126745435,-112.700478637176,76.1871996085177,188.887678245694,18.2566395143294,-150.794078441435,132.537438927106
0.399570354457572,-79.3032084765731,75.6018146988916,154.905023175465,1.85069688884075,-117.104115826019,115.253418937178
0.40171858216971,-44.3879324260548,78.7644366628344,123.152369088889,-17.1882521183898,-83.7701507574721,100.958402875862
0.403866809881847,-14.9064287272156,82.6142751185613,97.5207038457769,-33.8539231956729,-56.2135662864962,90.0674894821691
0.406015037593985,4.22785211546532,84.6078319864867,80.3799798710214,-44.417842050976,-38.076063877778,82.4939059287541
0.408163265306122,10.5494530321782,83.0648094722796,72.5153564401015,-46.8071312522289,-30.9829517039616,77.7900829561906
0.41031149301826,4.02935177711443,77.2716164034988,73.2422646263843,-40.6504840903066,-34.606456424635,75.2569405149416
0.412459720730397,-13.2750741334263,67.3815882270346,80.6566623604608,-27.0532570468042,-46.9658682469435,74.0191252937477
0.414607948442535,-37.8109786834453,54.1987152172396,92.0096939006849,-8.19386826689712,-64.9103362920651,73.1042045589622
0.416756176154672,-65.2650272267957,38.9327022483956,104.197729475191,13.1661624892001,-84.7313783509935,71.5652158617935
0.41890440386681,-91.3418250132275,22.9773865749918,114.319211588219,34.1822192191179,-102.830518300723,68.6482990816055
0.421052631578947,-112.474319761429,7.72167888512456,120.195998646554,52.3763204381523,-116.335159203991,63.9588387658392
0.423200859291085,-126.351708438749,-5.61933161205585,120.732376826693,65.9855200254026,-123.542042632721,57.5565226073188
0.425349087003222,-132.172669203595,-16.15783621592,116.014832987675,74.1652527097575,-124.093751095635,49.9284983858776
0.42749731471536,-130.584299027368,-23.4530176963542,107.131281331014,77.018658361861,-118.857790179191,41.8391318173298
0.429645542427497,-123.339839964024,-27.5619453450023,95.7778946190213,75.4508926545129,-109.558867291522,34.1079746370095
0.431793770139635,-112.778846024174,-28.9919690949222,83.7868769292515,70.885407559548,-98.2828614767126,27.3974539171647
0.433941997851772,-101.274528832505,-28.5541210561256,72.7204077763799,64.9143249443155,-86.9974683044427,22.0831433601272
0.43609022556391,-90.7879089906687,-27.1559812980585,63.6319276926102,58.9719451443636,-77.2099183416395,18.2379731972758
0.438238453276047,-82.6206653163568,-25.5993285245552,57.0213367918016,54.109996920456,-69.8210010540792,15.7110041336232
0.440386680988185,-77.3856035826617,-24.4465745552545,52.9390290274072,50.9160890689581,-65.1623163050344,14.2462272360763
0.442534908700322,-75.1397000460402,-23.9900501477776,51.1496498982626,49.5648750969089,-63.1446749721514,13.5797998752425
0.44468313641246,-75.5783474003598,-24.3144621669595,51.2638852334003,49.9464047836597,-63.4211163168801,13.4747115332204
0.446831364124597,-78.192455464092,-25.4053575197986,52.7870979442934,51.7989064919453,-65.4897767041927,13.6908702122474
0.448979591836735,-82.3400461920633,-27.2404702440702,55.0995759479931,54.7902582180667,-68.7198110700282,13.9295528519614
0.451127819548872,-87.2503619551461,-29.8127788186594,57.4375831364868,58.5315703869028,-72.3439725458165,13.8124021589137
0.45327604726101,-92.0202325233958,-33.0708075144278,58.949425008968,62.5455200189118,-75.4848287661819,12.9393087472701
0.455424274973147,-95.6573986310573,-36.8098786791657,58.8475199518916,66.2336386551115,-77.2524592914745,11.0188206363629
0.457572502685285,-97.1877816440154,-40.5850470661548,56.6027345778606,68.8864143550851,-76.895258110938,8.00884375585293
0.459720730397422,-95.8083075879466,-43.7188485849835,52.0894590029631,69.763578086465,-73.9488832954548,4.1853052089898
0.46186895810956,-91.0531196757643,-45.4372364020156,45.6158832737487,68.2451780388899,-68.3345014747565,0.0893234358665822
0.464017185821697,-82.9375329718891,-45.1027019294459,37.8348310424432,64.0201174506675,-60.3861820071662,-3.63393544350136
0.466165413533835,-72.0355150271811,-42.4567330789187,29.5787819482625,57.2461240530499,-50.8071484877218,-6.4389755653281
0.468313641245972,-59.4424710430536,-37.7637822285142,21.6786888145394,48.6031266357839,-40.5605799287965,-8.04254670698744
0.47046186895811,-46.5990319579697,-31.7807393226891,14.8182926352806,39.1898856403294,-30.7086622966252,-8.48122334370425
0.472610096670247,-35.0054204891473,-25.5501175914602,9.45530289768709,30.2777690403037,-22.2303616934172,-8.04740734688655
0.474758324382385,-25.9094981172646,-20.0950708340529,5.8144272832117,23.0022844756587,-15.8619627002381,-7.1403217754206
0.476906552094522,-20.0677514772486,-16.1360511093793,3.93170036786925,18.101901293314,-11.9997259225589,-6.10217537075504
0.47905477980666,-17.645949746517,-13.9327145033397,3.71323524317729,15.7893321249284,-10.6795924948472,-5.10973963008122
0.481203007518797,-18.2673028040093,-13.2954237525715,4.97187905143787,15.7813632782904,-11.6195909277236,-4.16177235056679
0.483351235230934,-21.1664420872403,-13.740453334386,7.42598875285427,17.4534477108131,-14.2962154200473,-3.15723229076587
0.485499462943072,-25.3889719976386,-14.7105205995853,10.6784513980533,20.0497462986119,-18.0337116978459,-2.01603460076599
0.487647690655209,-29.9846989308015,-15.7656174289223,14.2190815018792,22.8751581798619,-22.1018902163403,-0.773267963521576
0.489795918367347,-34.1597507388551,-16.6737751483422,17.4859755905129,25.4167629435987,-25.822863164684,0.40610022108531
0.491944146079484,-37.3650816108689,-17.384932603544,19.9801490073249,27.3750071072065,-28.6726153090969,1.29760820189047
0.494092373791622,-39.307061832374,-17.9253279949164,21.3817338374576,28.6161949136452,-30.3443978349158,1.72820292127058
0.496240601503759,-39.8806147459719,-18.2782621843024,21.6023525616695,29.0794384651372,-30.7414836538207,1.66204518868356
0.498388829215897,-39.0524424190888,-18.3109942948766,20.7414481242122,28.6817183569827,-29.8969452716505,1.21522691466776
0.500537056928034,-36.7507876999433,-17.7765649400551,18.9742227598882,27.2636763199992,-27.8625052299158,0.598828909916545
0.502685284640172,-32.8269720643081,-16.3818429205327,16.4451291437754,24.6044074924204,-24.6360506040417,0.031643111621328
0.504833512352309,-27.1256549008019,-13.8862011548615,13.2394537459404,20.5059280278317,-20.1825543233711,-0.323373704460529
0.506981740064447,-19.6395822691247,-10.1882449392226,9.45133732990213,14.9139136041737,-14.5454597995134,-0.368453804660231
0.509129967776584,-10.6631738977178,-5.36976187991127,5.29341201780651,8.01646788881453,-7.97829295776215,-0.0381749310523807
0.511278195488722,-0.844094677939014,0.31255622343594,1.15665090137495,0.265769227251537,-1.00037278965698,0.734603562405446
0.513426423200859,8.91577368906959,6.47628914875046,-2.43948454031912,-7.69603141891003,5.67762911469436,2.01840230421567
0.515574650912997,17.6713626748585,12.6790117331142,-4.9923509417443,-15.1751872039864,11.3318568083014,3.84333039568497
0.517722878625134,24.6604248157997,18.4763242154318,-6.18410060036791,-21.5683745156158,15.4222627080838,6.14611180753195
0.519871106337272,29.4556927364963,23.4632215975734,-5.99247113892292,-26.4594571670349,17.7240819377096,8.73537522932525
0.522019334049409,32.0116442669373,27.3113594368282,-4.70028483010905,-29.6615018518827,18.3559645485232,11.3055373033596
0.524167561761547,32.6314418789913,29.8230195655353,-2.80842231345606,-31.2272307222633,17.7199320962237,13.5072986260396
0.526315789473684,31.8991610743931,31.0050535899541,-0.894107484438997,-31.4521073321736,16.396634279416,15.0554730527575
0.528464017185822,30.6022636812692,31.1338414498724,0.531577768603228,-30.8680525655708,15.035342956333,15.8327096092378
0.530612244897959,29.636865324682,30.7619436821673,1.1250783574853,-30.1994045034246,14.2558934835983,15.9435110198263
0.532760472610097,29.8764072672596,30.6275786005645,0.751171333304875,-30.2519929339121,14.5626179669774,15.6893749669347
0.534908700322234,32.0044348636695,31.4683853499057,-0.5360495137638,-31.7364101067876,16.2702421887166,15.4661679180709
0.537056928034372,36.3468650853358,33.7929290306797,-2.55393605465615,-35.0698970580078,19.450400569996,15.6194964880118
0.539205155746509,42.7597600466047,37.6991703024821,-5.06058974412262,-40.2294651745434,23.9101748953636,16.3192902791797
0.541353383458647,50.6206162551722,42.8239588918062,-7.79665736336609,-46.7222875734892,29.2086368092692,17.51365076422
0.543501611170784,58.9419113966039,48.4569367411586,-10.4849746554453,-53.6994240688813,34.7134430260246,18.9859810428567
0.545649838882922,66.5910140483662,53.7799970139697,-12.8110170343965,-60.1855055311679,39.7010155413814,20.4844899897866
0.547798066595059,72.5708660319979,58.1399823420869,-14.430883689911,-65.3554241870424,43.5008748609545,21.8545493260879
0.549946294307197,76.2962965550077,61.2552574051246,-15.0410391498831,-68.7757769800661,45.6686678524454,23.1071091276208
0.552094522019334,77.7947596669964,63.2915639157317,-14.5031957512648,-70.543161791364,46.1489777091306,24.3941840822335
0.554242749731472,77.76746874154,64.7941955401304,-12.9732732014096,-71.2808321408352,45.3703709714748,25.9104611693604
0.556390977443609,77.4682468223378,66.510835741689,-10.9574110806488,-71.9895412820134,44.2128289514933,27.7767123305201
0.558539205155747,78.399484539157,69.1704980768122,-9.22898646234475,-73.7849913079846,43.8142355007509,29.9707558072337
0.560687432867884,81.8866160150672,73.2897315902114,-8.59688442485579,-77.5881738026393,45.2417502199615,32.3464235826778
0.562835660580021,88.652728890741,79.0552601867625,-9.59746870397846,-83.8539945387517,49.1250987973597,34.728895741392
0.564983888292159,98.5404660840086,86.2958464518915,-12.2446196321171,-92.41815626795,55.3925428580629,37.0256134098872
0.567132116004296,110.496374153617,94.5273879219599,-15.9689862316575,-102.511881037789,63.2326801926375,39.2792008451512
0.569280343716434,122.844745821986,103.045964074569,-19.7987817474171,-112.945354948277,71.3217637847015,41.6235911635759
0.571428571428571,133.766138642486,111.048593419333,-22.7175452231533,-122.407366030909,78.2418419328197,44.1655240980898
0.573576799140709,141.812761433821,117.768577666127,-24.0441837676933,-129.790669549974,82.928472600757,46.862196949217
0.575725026852846,146.279760853838,122.61257735983,-23.6671834940079,-134.446169106834,84.9734721739228,49.4726969329109
0.577873254564984,147.311643637479,125.27822979186,-22.0334138456191,-136.294936714669,84.6725287415489,51.6224079731203
0.580021482277121,145.726665212524,125.821708101776,-19.9049571107476,-135.77418665715,82.8158111616356,52.9583754955142
0.582169709989259,142.646195838788,124.646789518416,-17.9994063203719,-133.646492678602,80.3228010795802,53.3236915990222
0.584317937701396,139.081600687325,122.405662813969,-16.675937873356,-130.743631750647,77.8787692803404,52.8648624703064
0.586466165413534,135.633245862768,119.828617079513,-15.8046287832549,-127.73093147114,75.7189373230113,52.0119941481289
0.588614393125671,132.395827108062,117.52440114741,-14.8714259606521,-124.960114127736,73.6336265343571,51.326487593379
0.590762620837809,129.071951156115,115.810621267859,-13.261329888256,-122.441286211987,71.1666405221855,51.2746456898015
0.592910848549946,125.215893082114,114.637006405088,-10.5788866770259,-119.926449743601,67.8973898795698,52.0290598640309
0.595059076262084,120.492867116141,113.641053564972,-6.8518135511688,-117.066960340556,63.6723403336547,53.3946200069014
0.597207303974221,114.852239129611,112.324105026365,-2.5281341032459,-113.588172077988,58.6901866164284,54.8979854615595
0.599355531686359,108.563120134119,110.279888497498,1.71676836337883,-109.421504315808,53.42317588537,55.9983284304382
0.601503759398496,102.123245248971,107.38046433349,5.25721908451868,-104.75185479123,48.4330130822261,56.3188417090041
0.603651987110634,96.0967424843721,103.841427221934,7.74468473756204,-99.9690848531531,44.176028873405,55.7930559797481
0.605800214822771,90.9435704609965,100.137534826016,9.19396436501899,-95.540552643506,40.8748030479888,54.6657495955173
0.607948442534909,86.8811764481035,96.7993752579707,9.91819880986715,-91.8402758530371,38.4814888191182,53.3587870339189
0.610096670247046,83.7954510857393,94.1716444384369,10.3761933526976,-88.9835477620881,36.7096288665209,52.2739188955673
0.612244897959184,81.2129874524181,92.2356313749436,11.0226439225255,-86.7243094136809,35.0951717649463,51.6291376487346
0.614393125671321,78.3548820340992,90.5771256927286,12.2222436586293,-84.4660038634139,33.0663191877349,51.399684675679
0.616541353383459,74.2915482501327,88.5191277871914,14.2275795370586,-81.405338018662,30.031984356537,51.373353662125
0.618689581095596,68.1896618837773,85.3652598005336,17.1755979167563,-76.7774608421554,25.5070319835105,51.270428858645
0.620837808807734,59.5932298708399,80.6522901300049,21.059060259165,-70.1227600004224,19.2670848058375,50.855675194585
0.622986036519871,48.6439752052531,74.3109769368053,25.6670017315522,-61.4774760710292,11.4884867368505,49.9889893341787
0.625134264232009,36.1516573368661,66.6804301377177,30.5287728008516,-51.4160437372919,2.81144226800729,48.6046014692846
0.627282491944146,23.471170933858,58.387888320224,34.916717386366,-40.929529627041,-5.72277322625397,46.652302853295
0.629430719656284,12.2045522491025,50.1584109580456,37.9538587089431,-31.181481603574,-12.8746532299203,44.0561348334943
0.631578947368421,3.79962009965706,42.631522400506,38.831902300849,-23.2155712500816,-17.516141100596,40.7317123506775
0.633727175080559,-0.846117043596253,36.2368465360203,37.0829635796166,-17.695364746212,-18.9645403116064,36.6599050578184
0.635875402792696,-1.65506846248948,31.144977366113,32.8000458286025,-14.7449544518118,-17.227557145546,31.9725115973577
0.638023630504833,0.581235650345063,27.2835688050485,26.7023331547035,-13.9324022276968,-13.0605487521792,26.992950979876
0.640171858216971,4.39361379596733,24.3914388225417,19.9978250265744,-14.3925263092545,-7.80210561530352,22.194631924558
0.642320085929108,7.99628522620284,22.0757499519289,14.079464725726,-15.0360175890659,-3.0415897497616,18.0776073388275
0.644468313641246,9.69054303307378,19.8514473021847,10.1609042691109,-14.7709951676292,-0.235180618018578,15.0061757856478
0.646616541353383,8.19418743225813,17.1757852174658,8.98159778520764,-12.684986324862,-0.393705176474752,13.0786915013367
0.648764769065521,2.83728152517598,13.5125624704446,10.6752809452686,-8.17492199781029,-3.91899971004631,12.0939217078566
0.650912996777658,-6.37504602962876,8.4442687560004,14.8193147856292,-1.03461136318582,-10.597180407629,11.6317917708148
0.653061224489796,-18.8011392348714,1.80813893027016,20.6092781651415,8.4965001523006,-19.7052087000064,11.2087085477058
0.655209452201933,-33.2724108744219,-6.20057615147245,27.0718347229494,19.7364935129472,-30.1721227986857,10.4356292857385
0.657357679914071,-48.259782997419,-15.0162920867193,33.2434909106997,31.6380375420692,-40.7516369540594,9.11359941199021
0.659505907626208,-62.0939016548669,-23.811358162757,38.2825434921099,42.9526299088119,-50.1882225734884,7.23559266467643
0.661654135338346,-73.2326248151772,-31.7076616270718,41.5249631881054,52.4701432211245,-57.3787940016413,4.90865078051682
0.663802363050483,-80.5516901830427,-38.0265904594965,42.5250997235462,59.2891403212696,-61.5383949532944,2.24925463202482
0.665950590762621,-83.6076865844923,-42.4876496131224,41.1200369713698,63.0476680988073,-62.363861777931,-0.6838063208763
0.668098818474758,-82.7965733208158,-45.2814669587725,37.5151063620433,64.0390201397942,-60.1558398414296,-3.88318029836462
0.670247046186896,-79.3263287640982,-46.9920012869524,32.3343274771459,63.1591650255253,-55.8303281206221,-7.32883690490323
0.672395273899033,-74.9604088540263,-48.3995007531219,26.5609081009043,61.6799548035741,-50.7606584774653,-10.9192963261088
0.674543501611171,-71.5668520123824,-50.2358890337784,21.330962978604,60.9013705230804,-46.4489074954932,-14.4524630275872
0.676691729323308,-70.5903334803114,-52.9759620143744,17.614371465937,61.7831477473429,-44.1023524731242,-17.6807952742187
0.678839957035446,-72.6094424536774,-56.7280313242085,15.881411129469,64.6687368889429,-44.2454267915732,-20.4233100973697
0.680988184747583,-77.130104641192,-61.2436703083189,15.8864343328731,69.1868874747554,-46.5082694870325,-22.6786179877229
0.683136412459721,-82.7018330121013,-66.0200684594806,16.6817645526207,74.360950735791,-49.691798782361,-24.6691519534299
0.685284640171858,-87.3414597743159,-70.4445330198684,16.8969267544474,78.8929963970922,-52.1191932643817,-26.7738031327105
0.687432867883996,-89.1400934941881,-73.9349194141327,15.2051740800554,81.5375064541604,-52.1726337871218,-29.3648726670386
0.689581095596133,-86.8592638342227,-76.0494855496091,10.8097782846136,81.4543746919159,-48.8345210594181,-32.6198536324977
0.691729323308271,-80.3254588335867,-76.5596714222682,3.76578741131856,78.4425651279275,-42.0456231224526,-36.3969420054748
0.693877551020408,-70.5035217306928,-75.4903495658828,-4.98682783518991,72.9969356482878,-32.7583469477515,-40.2385887005363
0.696025778732546,-59.2335728686763,-73.1296081515636,-13.8960352828873,66.18159051012,-22.6687687928945,-43.5128217172255
0.698174006444683,-48.7172793711822,-69.997889915715,-21.2806105445328,59.3575846434486,-13.7183344133247,-45.6392502301239
0.700322234156821,-40.9129598616491,-66.7604235811788,-25.8474637195297,53.836691721414,-7.53274807105971,-46.3039436503542
0.702470461868958,-37.0261947551448,-64.0831681699055,-27.0569734147608,50.5546814625251,-4.98461067019199,-45.5700707923332
0.704618689581096,-37.2499944614563,-62.4655848269771,-25.2155903655208,49.8577896442167,-6.01720204796773,-43.840587596249
0.706766917293233,-40.8220061735282,-62.1085326630081,-21.2865264894798,51.4652694182681,-9.76773984202419,-41.6975295762439
0.708915145005371,-46.3572754550379,-62.8732081892453,-16.5159327342074,54.6152418221416,-14.9206713604152,-39.6945704617264
0.711063372717508,-52.325716264269,-64.3570500183378,-12.0313337540688,58.3413831413034,-20.1471912551001,-38.1941918862033
0.713211600429645,-57.5037993121511,-66.0650290471884,-8.56122973503732,61.7844141796698,-24.4712847885569,-37.3131293911129
0.715359828141783,-61.2499247436958,-67.6068524447315,-6.35692770103572,64.4283885942136,-27.44649852133,-36.9818900728836
0.717508055853921,-63.5251785111857,-68.8298100597907,-5.304631548605,66.1774942854882,-29.1102734812903,-37.0672208041978
0.719656283566058,-64.682367598226,-69.8245189756755,-5.14215137744952,67.2534432869508,-29.7701081103883,-37.4833351765625
0.721804511278195,-65.1377765394665,-70.8050943703554,-5.66731783088893,67.9714354549109,-29.7352293542888,-38.2362061006222
0.723952738990333,-65.0804229636268,-71.9266765083334,-6.84625354470661,68.5035497359801,-29.1170847094601,-39.38646502652
0.72610096670247,-64.3424462326678,-73.1296869189391,-8.78724068627133,68.7360665758034,-27.7776027731982,-40.9584638026052
0.728249194414608,-62.4691455203296,-74.0870723728142,-11.6179268524846,68.2781089465719,-25.4256093339225,-42.8524996126494
0.730397422126745,-58.934133109928,-74.2877034174981,-15.3535703075701,66.610918263713,-21.7902814011789,-44.8206368625341
0.732545649838883,-53.3898513434832,-73.2277158562877,-19.8378645128045,63.3087835998854,-16.7759934153393,-46.5327901845461
0.73469387755102,-45.8462327690722,-70.625007491481,-24.7787747224088,58.2356201302766,-10.5337290233317,-47.7018911069449
0.736842105263158,-36.7188694513028,-66.5553333736676,-29.8364639223648,51.6371014124852,-3.44120276446898,-48.1958986480162
0.738990332975295,-26.7520283721412,-61.4492073729648,-34.6971790008236,44.100617872553,3.97257531434118,-48.0731931868942
0.741138560687433,-16.8695247765616,-55.9622604089672,-39.0927356324056,36.4158925927644,11.111605427922,-47.5274980206864
0.74328678839957,-8.01823067663067,-50.7883470585771,-42.7701163819464,29.4032888676039,17.3759428526579,-46.7792317202618
0.745435016111708,-1.04421180589803,-46.4946284320355,-45.4504166261375,23.7694201189668,22.2031024101197,-45.9725225290865
0.747583243823845,3.39989490099613,-43.4291537352286,-46.8290486362247,20.0146294171162,25.1144717686104,-45.1291011857267
0.749731471535983,4.9434388278952,-41.7092487792603,-46.6526876071555,18.3829049756825,25.7980632175253,-44.1809681932079
0.75187969924812,3.59711999236946,-41.262822371442,-44.8599423638115,18.8328511895363,24.2285311780905,-43.0613823676267
0.754027926960258,-0.163177622342631,-41.8777879399664,-41.7146103176238,21.0204827811545,20.7757163476406,-41.7961991287951
0.756176154672395,-5.38770274813632,-43.2262874827456,-37.8385847346093,24.3069951154409,16.2254409932365,-40.5324361086774
0.758324382384533,-10.7730841447562,-44.8648894139053,-34.0918052691491,27.8189867793307,11.6593605621964,-39.4783473415272
0.76047261009667,-14.9208694801574,-46.2453320846716,-31.3244626045142,30.5831007824145,8.20179656217837,-38.7848973445929
0.762620837808808,-16.6832819344065,-46.7771288656103,-30.0938469312038,31.7302054000084,6.70528249839865,-38.435487898407
0.764769065520945,-15.4921756736735,-45.9563256443938,-30.4641499707202,30.7242506590337,7.48598714852336,-38.210237807557
0.766917293233083,-11.5448755542979,-43.5281835686433,-31.9833080143454,27.5365295614706,10.2192162300237,-37.7557457914944
0.76906552094522,-5.75202538849904,-39.6127080059985,-33.8606826174994,22.6823666972487,14.0543286145002,-36.7366953117489
0.771213748657358,0.560096954777357,-34.7182843645954,-35.2783813193728,17.079093704909,17.9192391370751,-34.9983328419841
0.773361976369495,6.09304799717698,-29.6105655106172,-35.7036135077941,11.7587587567201,20.8983307524856,-32.6570895092057
0.775510204081633,9.99621870724365,-25.0721675111023,-35.068386218346,7.53797440192933,22.5323024627948,-30.0702768647241
0.77765843179377,12.1025175698306,-21.6452787609939,-33.7477963308245,4.77138059558165,22.9251569503276,-27.6965375459092
0.779806659505908,12.8993751355583,-19.4632858789388,-32.3626610144972,3.28195537169026,22.6310180750277,-25.912973446718
0.781954887218045,13.2640933950718,-18.2430891118725,-31.5071825069443,2.48949785840036,22.385637951008,-24.8751358094084
0.784103114930183,14.0828774521638,-17.4417492638774,-31.5246267160411,1.6794359058568,22.8037520841024,-24.4831879899592
0.78625134264232,15.9111377606539,-16.506953278616,-32.4180910392699,0.297907758981062,24.1646143999619,-24.462522158943
0.788399570354458,18.8045378379291,-15.1058613702123,-33.9103992081414,-1.84933823385838,26.3574685230353,-24.5081302891769
0.790547798066595,22.367834712241,-13.228851875818,-35.5966865880591,-4.5694914182115,28.98226065015,-24.4127692319385
0.792696025778733,25.9721619424888,-11.1303871732219,-37.1025491157107,-7.42088738463348,31.5373555290998,-24.1164681444663
0.79484425349087,29.0277431992177,-9.15156200361728,-38.179305202835,-9.93809059780023,33.6035242010264,-23.6654336032261
0.796992481203007,31.1918033706304,-7.52311640624676,-38.7149197768772,-11.8343434821918,34.9533615737538,-23.119018091562
0.799140708915145,32.4338044925547,-6.25085196277865,-38.6846564553333,-13.091476264888,35.559230473944,-22.467754209056
0.801288936627283,32.948691240663,-5.14104304266108,-38.089734283324,-13.9038240990009,35.5192127619935,-21.6153886629926
0.80343716433942,32.976327788217,-3.95090427557927,-36.9272320637963,-14.5127117563189,34.9517799260066,-20.4390681696878
0.805585392051557,32.6246486158794,-2.58007684265388,-35.2047254585333,-15.0222858866128,33.9146870372063,-18.8924011505936
0.807733619763695,31.7862025642394,-1.19212845475657,-32.978331018996,-15.2970370547414,32.3822667916177,-17.0852297368763
0.809881847475832,30.1851846287574,-0.191638229481657,-30.376822858239,-14.9967731996379,30.2810037434982,-15.2842305438603
0.81203007518797,27.5225701555431,-0.0634398985787966,-27.5860100541219,-13.7295651284821,27.5542901048325,-13.8247249763503
0.814178302900107,23.6392779734705,-1.15631465696036,-24.7955926304309,-11.2414816582551,24.2174353019507,-12.9759536436956
0.816326530612245,18.6162272669353,-3.52027948772125,-22.1365067546565,-7.547973889607,20.3763670107959,-12.8283931211889
0.818474758324382,12.7705730584016,-6.87486896567694,-19.6454420240785,-2.94785204636233,16.2080075412401,-13.2601554948777
0.82062298603652,6.56019041676094,-10.7184247962507,-17.2786152130117,2.07911718974489,11.9194028148863,-13.9985200046312
0.822771213748657,0.44362231473178,-14.5224979995061,-14.9661203142379,7.03943784238716,7.70487131448483,-14.744309156872
0.824919441460795,-5.25066005562916,-17.9226344042231,-12.6719743485939,11.5866472299261,3.71065714648239,-15.2973043764085
0.827067669172932,-10.4048985352276,-20.8280081162275,-10.4231095809998,15.6164533257276,0.00910552288610411,-15.6255588486137
0.82921589688507,-15.1218381513748,-23.41489705813,-8.29305890675518,19.2683676047524,-3.41438962230982,-15.8539779824426
0.831364124597207,-19.6648132053366,-26.0194161270742,-6.35460292173762,22.8421146662054,-6.6551051417995,-16.1870095244059
0.833512352309345,-24.350829003131,-28.9835849215372,-4.63275591840617,26.6672069623341,-9.85903654236241,-16.8081704199717
0.835660580021482,-29.4343726038266,-32.5237678239936,-3.08939522016695,30.9790702139101,-13.1724886918298,-17.8065815220803
0.83780880773362,-35.0222150353351,-36.6764476182197,-1.65423258288464,35.8493313267774,-16.6839912262252,-19.1653401005522
0.839957035445757,-41.048185926446,-41.3365225390111,-0.288336612565033,41.1923542327286,-20.3799246569405,-20.8124295757881
0.842105263157895,-47.3133312649263,-46.3541874151944,0.95914384973193,46.8337593400604,-24.1362375573291,-22.6975217827312
0.844253490870032,-53.5673571259347,-51.6247712750321,1.94258585090259,52.5960642004834,-27.7549714884186,-24.8410927120648
0.84640171858217,-59.5870451444142,-57.113067058712,2.47397808570219,58.3500561015631,-31.0305116150582,-27.3195444865049
0.848549946294307,-65.212441764482,-62.7976184410318,2.41482332345024,64.0050301027569,-33.8136325439661,-30.1913975587908
0.850698174006445,-70.3321625806935,-68.5741184284571,1.75804415223634,69.4531405045753,-36.0451033664649,-33.4080371381104
0.852846401718582,-74.8442681951919,-74.186906481513,0.657361713678853,74.5155873383525,-37.7508149544354,-36.7647723839171
0.85499462943072,-78.6332974801117,-79.2460541687963,-0.612756688684655,78.939675824454,-39.0102703957135,-39.9294054287405
0.857142857142857,-81.5887709326489,-83.3421582155342,-1.75338728288524,82.4654645740916,-39.9176918248818,-42.5477727492097
0.859291084854995,-83.6594081684162,-86.2154930198556,-2.55608485143935,84.9374505941359,-40.5516616584884,-44.3857889356475
0.861439312567132,-84.9119448222422,-87.8981688929697,-2.98622407072754,86.405056857606,-40.9628603757573,-45.4421964818486
0.86358754027927,-85.5573242064441,-88.7492761589186,-3.19195195247445,87.1533001826813,-41.1826861269848,-45.9706140556965
0.865735767991407,-85.9209596141022,-89.3486840590071,-3.42772444490491,87.6348218365546,-41.2466175845986,-46.388204251956
0.867883995703545,-86.3597509642112,-90.2854334717856,-3.92568250757439,88.3225922179984,-41.2170342283184,-47.10555798968
0.870032223415682,-87.1545887407937,-91.9344346745124,-4.7798459337187,89.5445117076531,-41.1873714035375,-48.3571403041156
0.87218045112782,-88.4212700497015,-94.326849174659,-5.9055791249575,91.3740596121802,-41.257845462372,-50.1162141498082
0.874328678839957,-90.0788941917537,-97.1756035092596,-7.09670931750595,93.6272488505066,-41.4910924371239,-52.1361564133828
0.876476906552095,-91.8951192202488,-100.040990532389,-8.14587131214051,95.968054876319,-41.8746239540541,-54.0934309222649
0.878625134264232,-93.5999841411788,-102.555245407221,-8.9552612660422,98.0776147741998,-42.3223614375683,-55.7552533366316
0.880773361976369,-95.0343163918971,-104.603672187147,-9.56935579525023,99.8189942895222,-42.7324802983234,-57.0865139911988
0.882921589688507,-96.2840311795383,-106.388601217446,-10.1045700379079,101.336316198492,-43.0897305708152,-58.2465856276771
0.885069817400644,-97.7515162960893,-108.36058204742,-10.6090657513308,103.056049171755,-43.5712252723793,-59.4848238993754
0.887218045112782,-100.126636893508,-111.058278505493,-10.931641611985,105.592457699501,-44.5974976407616,-60.9949600587391
0.889366272824919,-104.237380434142,-114.928392852109,-10.6910124179664,109.582886643126,-46.773184008088,-62.8097026350376
0.891514500537057,-110.782180329503,-120.187741990282,-9.40556166077847,115.484961159892,-50.6883093343624,-64.7966518255301
0.893662728249194,-119.974667863519,-126.749556091951,-6.77488822843145,123.362111977735,-56.599889817544,-66.7622221601912
0.895810955961332,-131.167043622006,-134.191333828937,-3.0242902069316,132.679188725471,-64.071376707537,-68.6078120179344
0.897959183673469,-142.553329590089,-141.723126409525,0.83020318056316,142.138227999807,-71.6917663853259,-70.4464616144812
0.900107411385607,-151.073741879645,-148.138948092764,2.93479378688082,149.606344986205,-77.004267833263,-72.6020771529418
0.902255639097744,-152.626867908567,-151.785956100379,0.840911808188224,152.206412004473,-76.7338898583776,-75.4725221460952
0.904403866809882,-142.632466610341,-150.625725516761,-7.99325890642027,146.629096063551,-67.3196038519603,-79.3094922115907
0.906552094522019,-116.881136442553,-142.452500150558,-25.5713637080051,129.666818296555,-45.6548863672739,-84.0119319292815
0.908700322234157,-72.4960213553381,-125.273105958235,-52.7770846028972,98.8845636567867,-9.85946837622046,-89.0250952805663
0.910848549946294,-8.77190661720711,-97.7757783582685,-89.0038717410614,53.2738424877378,40.1159825619272,-93.389825049665
0.912996777658432,72.3160773016764,-59.7621040726078,-132.078181374284,-6.27698661453429,102.19712933798,-95.920142723446
0.915145005370569,166.04469633516,-12.4133500443069,-178.458046379467,-76.8156731454265,172.251371357313,-95.4356982118869
0.917293233082707,265.315948410894,41.6907220276924,-223.625226383202,-153.503335219293,244.470587397048,-90.9672521777546
0.919441460794844,361.399454869726,98.8106877206367,-262.588767149089,-230.105071295181,311.994111009407,-81.8890397142261
0.921589688506982,444.946728437777,154.491089113445,-290.455639324331,-299.718908775611,367.701183881054,-67.982275105443
0.923737916219119,507.171876639607,204.122042948072,-303.049833691536,-355.64695979384,405.110855165571,-49.4638953717319
0.925886143931257,541.068552634431,243.524412732535,-297.544139901896,-392.296482683483,419.306346268164,-27.0098635846807
0.928034371643394,542.490569395653,269.470789717783,-273.019779677871,-405.980679556718,407.755174536762,-1.77449498004398
0.930182599355532,510.896867465369,280.07149599595,-230.825371469419,-395.484181730659,370.861119467394,24.6230622632657
0.932330827067669,449.587205101453,274.983957518706,-174.603247582747,-362.285581310079,312.0952263421,50.1903549679793
0.934479054779807,365.341349516505,255.437280904982,-109.904068611524,-310.389315210744,237.622709064015,72.7666061467289
0.936627282491944,267.495006186781,224.084355231614,-43.4106509551673,-245.789680709197,155.452828570974,90.3368521382233
0.938775510204082,166.59868780833,184.694556870871,18.0958690625407,-175.6466223396,74.2514093728946,101.395212966706
0.940923737916219,72.883951369685,141.696626937693,68.8126755680084,-107.290289153689,2.03563790083827,105.254651252851
0.943071965628357,-5.19966018661344,99.59670330269,104.796363489303,-47.1985215580383,-54.9980118379584,102.196533395997
0.945220193340494,-62.1156558151262,62.337984075731,124.453639890857,-0.111164130302392,-93.2846478529917,93.3958119832941
0.947368421052632,-95.8331952608169,32.7175689449822,128.550764205799,31.5578131579173,-112.191979733308,80.6341665753907
0.949516648764769,-107.786311947039,11.9993295539547,119.785641500993,47.8934911965419,-113.785976724016,65.892485527474
0.951664876476907,-102.245477660609,-0.166384416812658,102.079093243796,51.2059310387106,-102.162285452202,50.9563544134916
0.953813104189044,-85.2697402985423,-5.4845778579348,79.7851624406075,45.3771590782385,-82.5274513695749,37.1502922913363
0.955961331901181,-63.4769277619027,-6.48917433732971,56.987753424573,34.9830510496162,-60.2323405932378,25.2492895436216
0.958109559613319,-42.8761831050598,-5.89907748459236,36.9771056204675,24.3876302948261,-39.9266443627636,15.5390140679376
0.960257787325457,-27.96234397104,-6.0314922387917,21.9308517322483,16.9969181049159,-24.9465978516442,7.94967974672831
0.962406015037594,-21.1994971480431,-8.40977255504014,12.7897245930029,14.8046348515416,-16.994610870523,2.1899760189814
0.964554242749731,-22.9436665482972,-13.6288282619607,9.31483828633651,18.2862474051289,-16.1292524173169,-2.15699498781208
0.966702470461869,-31.7758852319667,-21.4620267286291,10.3138585033376,26.6189559802979,-21.0448718676521,-5.57408411264576
0.968850698174006,-45.1348172918188,-31.1308914486648,14.003925843154,38.1328543702418,-29.5693715674864,-8.56348280275541
0.970998925886144,-60.0717492391227,-41.6254716917143,18.4462775474085,50.8486104654185,-39.2590133932656,-11.5895970721529
0.973147153598281,-73.9333903177801,-51.9694859492848,21.9639043684953,62.9514381335325,-47.9486473431377,-15.0027907903948
0.975295381310419,-84.8232913390014,-61.3709245251661,23.4523668138354,73.0971079320838,-54.1378290764184,-18.9592788556654
0.977443609022556,-91.782587513327,-69.2647343359852,22.5178531773419,80.5236609246561,-57.1502203453344,-23.3734405793217
0.979591836734694,-94.7278779789022,-75.303527877442,19.4243501014602,85.0157029281721,-57.0761140401812,-27.9395888879909
0.981740064446831,-94.2473382092149,-79.3579881783718,14.8893500308431,86.8026631937934,-54.568344120029,-32.2343190737644
0.983888292158969,-91.3593710680748,-81.550866530658,9.80850453741682,86.4551187993664,-50.5839378027458,-35.8711809966206
0.986036519871106,-87.2910008577174,-82.2943210299975,4.99667982771996,84.7926609438575,-46.1438403427187,-38.6488206011388
0.988184747583244,-83.2794716555682,-82.26842243927,1.01104921629826,82.7739470474191,-42.1452604359332,-40.6286866114859
0.990332975295381,-80.3822456953769,-82.2951851735538,-1.91293947817694,81.3387154344654,-39.2346531086,-42.1040623258654
0.992481203007519,-79.302648488776,-83.1221259796166,-3.8194774908406,81.2123872341963,-37.7415854989677,-43.4708017352286
0.994629430719656,-80.2690343190518,-85.1942188829501,-4.92518456389831,82.7316266010009,-37.6719248775767,-45.0597017234242
0.996777658431794,-83.010278930295,-88.5166847959413,-5.50640586564634,85.7634818631182,-38.7519365323243,-47.0115453307938
0.998925886143931,-86.8442100357358,-92.674648480706,-5.83043844497018,89.7594292582209,-40.5068857953828,-49.2525434628381
1.00107411385607,-90.8598965935842,-97.0028903552671,-6.14299376168296,93.9313934744256,-42.3584514159506,-51.572942058475
1.00322234156821,-94.1501320460612,-100.832800524361,-6.68266847830016,97.4914662852113,-43.7337317838805,-53.7577345013308
1.00537056928034,-96.0383154245411,-103.715601149482,-7.677285724941,99.8769582870116,-44.1805148498001,-55.6964434372116
1.00751879699248,-96.2373179564437,-105.537700266375,-9.30038230993115,100.887509111409,-43.4684678232563,-57.419041288153
1.00966702470462,-94.8814270203042,-106.491581163505,-11.6101541432013,100.686504091905,-41.6356364385515,-59.0508676533534
1.01181525241676,-92.4028717447945,-106.922444510988,-14.5195727661935,99.6626581278912,-38.9416494893005,-60.7210086385907
1.01396348012889,-89.2881999087704,-107.119850120661,-17.8316502118904,98.2040250147157,-35.72827484844,-62.4757501662757
1.01611170784103,-85.8201994122353,-107.149828557616,-21.3296291453803,96.4850139849255,-32.2452851334275,-64.239728851498
1.01825993555317,-81.9376631852657,-106.809779664608,-24.8721164793427,94.3737214249371,-28.5327733529615,-65.8409480719756
1.02040816326531,-77.296855493887,-105.731626952121,-28.4347714582339,91.514241223004,-24.4310420178265,-67.0831992051775
1.02255639097744,-71.5154103730947,-103.582244096725,-32.0668337236305,87.5488272349099,-19.7242883247321,-67.8245389101778
1.02470461868958,-64.4796867056119,-100.258283977145,-35.7785972715336,82.3689853413787,-14.3505447170392,-68.0184406243395
1.02685284640172,-56.5550090569204,-95.9775099622299,-39.4225009053095,76.2662595095752,-8.56625407580549,-67.7000054337697
1.02900107411386,-48.577282386977,-91.2250254832554,-42.6477430962784,69.9011539351162,-2.9647696453493,-66.9363842897669
1.03114930182599,-41.6085153824901,-86.5849105306879,-44.9763951481978,64.096712956589,1.68393988285386,-65.7806528394428
1.03329752953813,-36.5585210312393,-82.5396277139799,-45.9811066827406,59.5490743726096,4.71129282575067,-64.2603671983602
1.03544575725027,-33.8453956514749,-79.3299120730591,-45.4845164215842,56.587653862267,5.81956038505464,-62.4072142473217
1.03759398496241,-33.2460545098263,-76.9308966295341,-43.6848421197078,55.0884755696802,5.21939380494077,-60.307869374621
1.03974221267454,-33.9893727638123,-75.1331068400537,-41.1437340762414,54.561239801933,3.57718065621456,-58.1384204581475
1.04189044038668,-35.0300345905524,-73.6613323628612,-38.6312977723088,54.3456834767068,1.80063159087823,-56.146315067585
1.04403866809882,-35.374244061271,-72.2580358488857,-36.8837917876147,53.8161399550784,0.75477386317182,-54.5709138182502
1.04618689581096,-34.3339675795811,-70.7003563037398,-36.3663887241588,52.5171619416604,1.01621057228884,-53.5333725139493
1.04833512352309,-31.6447621271983,-68.774617857169,-37.1298557299707,50.2096899921836,2.74254680138618,-52.9522367935698
1.05048335123523,-27.4502536616427,-66.2618227320495,-38.8115690704068,46.8560381968461,5.68065770438203,-52.5366959012281
1.05263157894737,-22.1970134238725,-62.9768929857661,-40.7798795618936,42.5869532048193,9.29143306901052,-51.8783862738298
1.05477980665951,-16.4887664947761,-58.8614720880706,-42.3727055932945,37.6751192914233,12.9419695492592,-50.6170888406826
1.05692803437164,-10.9378001690605,-54.0809435808126,-43.1431434117521,32.5093718749365,16.1026716213458,-48.6120434962823
1.05907626208378,-6.04352427186362,-49.0558080971143,-43.0122838252507,27.549666184489,18.4843797766935,-46.0340459611825
1.06122448979592,-2.12075419676682,-44.3842241573673,-42.2634699606005,23.2524891770671,20.0713578819168,-43.3238470589839
1.06337271750806,0.718728473829724,-40.6686194987525,-41.3873479725822,19.9749455124614,21.053038223206,-41.0279837356674
1.06552094522019,2.5535916586587,-38.3072957440866,-40.8608874027453,17.8768520427139,21.707239530702,-39.5840915734159
1.06766917293233,3.64160485965473,-37.3296623700424,-40.9712672296971,16.8440287551938,22.3064360446759,-39.1504647998697
1.06981740064447,4.42088509303983,-37.3421427979947,-41.7630278910345,16.4606288524774,23.0919564920372,-39.5525853445146
1.07196562835661,5.49622104616351,-37.6163728764067,-43.1125939225702,16.0600759151216,24.3044074843669,-40.3644833994885
1.07411385606874,7.56130847476489,-37.2978940840193,-44.8592025587842,14.8682928046272,26.2102555167746,-41.0785483214018
1.07626208378088,11.2313808105367,-35.6623912339942,-46.8937720445309,12.2155052117287,29.0625764275338,-41.2780816392625
1.07841031149302,16.8222208615892,-32.3265912622438,-49.148812123833,7.75218520032733,32.9855164927111,-40.7377016930384
1.08055853920516,24.1685473409813,-27.3427427397613,-51.5112900807427,1.58709769939001,37.839918710862,-39.427016410252
1.08270676691729,32.582832298621,-21.153133915677,-53.7359662142981,-5.71484919147198,43.1593992564595,-37.4445500649876
1.08485499462943,41.003406438168,-14.4315801785802,-55.4349866167483,-13.2859131297939,48.2191965274582,-34.9332833976642
1.08700322234157,48.296949367603,-7.87668472516999,-56.173634092773,-20.2101323212165,52.235291730188,-32.0251594089715
1.08915145005371,53.6110120028027,-2.0339507480456,-55.6449627508483,-25.7885306273785,54.6279873768255,-28.8394567494469
1.09129967776584,56.6488585900712,2.79858042923762,-53.8502781608336,-29.7237195096544,55.2495683754524,-25.525848865798
1.09344790547798,57.765417541544,6.57275891606824,-51.1926586254757,-32.1690882288061,54.4790380835098,-22.3099498547037
1.09559613319012,57.8456128426929,9.43223686035951,-48.4133759823334,-33.6389248515262,53.1294944125132,-19.4905695609869
1.09774436090226,58.0044245627848,11.6366159710988,-46.3678085916861,-34.8205202669418,52.1861165772355,-17.3655963102937
1.09989258861439,59.2140235396199,13.497262693191,-45.7167608464289,-36.3556431164055,52.4653921930244,-16.109749076619
1.10204081632653,61.9891793269923,15.3322933948483,-46.6568859321439,-38.6607363609203,54.3230326295681,-15.6622962686478
1.10418904403867,66.2377600867831,17.4298265713902,-48.8079335153929,-41.8337933290867,57.522846801088,-15.6890534720014
1.10633727175081,71.3215884031523,20.002917949292,-51.3186704538603,-45.6622531762221,61.3201294285063,-15.6578762522841
1.10848549946294,76.2977225571432,23.1329294448231,-53.1647931123201,-49.7153260009832,64.7312578347317,-15.0159318337485
1.11063372717508,80.2463054830685,26.7230136566491,-53.5232918264194,-53.4846595698588,66.8847986547439,-13.4001390848851
1.11278195488722,82.5634643083135,30.4979367634525,-52.065527544861,-56.530700535883,67.3144959265873,-10.7837953907043
1.11493018259936,83.12166183669,34.0736555824331,-49.0480062542569,-58.5976587095615,66.0848340454735,-7.48717533591194
1.11707841031149,82.2649299643345,37.0857558064167,-45.1791741579178,-59.6753428853756,63.7220520611261,-4.04670917575051
1.11922663802363,80.676803305857,39.3325226325025,-41.3442806733545,-60.0046629691797,61.0105419896058,-1.00587902042602
1.12137486573577,79.1971150338752,40.8745793466926,-38.3225356871825,-60.0358471902839,58.7598253605288,1.27602182975507
1.12352309344791,78.65611885973,42.0439784912755,-36.6121403684545,-60.3500486755027,57.6341296140922,2.71591906141052
1.12567132116004,79.7548463246682,43.3483381414871,-36.4065081831812,-61.5515922330776,58.0806772539247,3.47091497915295
1.12781954887218,82.9792091883298,45.3001008684549,-37.6791083198749,-64.1396550283923,60.3291587541024,3.81049627428997
1.12996777658432,88.5212166688238,48.2376348772347,-40.2835817915891,-68.3794257730293,64.4023992302065,3.97702654282281
1.13211600429646,96.2035922953021,52.2126940873429,-43.9908982079592,-74.2081431913225,70.0972452516307,4.11089793969181
1.13426423200859,105.442814584167,56.9905245481229,-48.4522900360444,-81.216669566145,76.9475523101058,4.26911725603924
1.13641245972073,115.301143292473,62.1566408863199,-53.1445024061528,-88.7288920893963,84.2228228493127,4.50606924008353
1.13856068743287,124.64826650451,67.2734020723563,-57.3748644321537,-95.9608342884332,91.0115654683319,4.9492688201013
1.14070891514501,132.395055803905,72.0080877398693,-60.3869680640362,-102.201571771887,96.3910119339708,5.81055983791659
1.14285714285714,137.719069897114,76.1766178767095,-61.5424520204049,-106.947843886912,99.6307609587597,7.31708292815232
1.14500537056928,140.206374067563,79.7002824226861,-60.5060916448766,-109.953328245124,100.35623285622,9.59709538890478
1.14715359828142,139.880566906638,82.5229290751878,-57.3576378314499,-111.201747990913,98.6191023690438,12.5826456218689
1.14930182599356,137.140072216185,84.5531315000721,-52.5869407161124,-110.846601858128,94.8635064661485,15.9830953919798
1.15145005370569,132.645072456533,85.6731847347284,-46.9718877218051,-109.159128595631,89.8084800891693,19.3506485064616
1.15359828141783,127.182484776857,85.8104298194536,-41.3720549574035,-106.496457298155,84.2772698671303,22.219187431025
1.15574650912997,121.515346209672,85.023306660948,-36.4920395487237,-103.26932643531,79.0036928791977,24.2656335561121
1.15789473684211,116.220721227051,83.538850143194,-32.6818710838572,-99.8797856851226,74.4512961554542,25.4284895296684
1.16004296455424,111.544343765812,81.6999780878135,-29.8443656779985,-96.6221609268128,70.6943547219053,25.9278062049075
1.16219119226638,107.326401910508,79.830048875546,-27.496353034962,-93.578225393027,67.411377472735,26.166847920292
1.16433941997852,103.048398652378,78.0735840297953,-24.9748146225829,-90.5609913410868,64.0116066374806,26.5493847036062
1.16648764769066,98.0071539293607,76.2967335795695,-21.7104203497912,-87.1519437544651,59.858787139576,27.2931566148892
1.16863587540279,91.5639560572372,74.1111238312518,-17.4528322259855,-82.8375399442445,54.5083941416114,28.3291458026331
1.17078410311493,83.3814780225953,71.0268421329344,-12.3546358896609,-77.2041600777648,47.8680569561281,29.3361031216367
1.17293233082707,73.5656561945449,66.6746567355093,-6.89099945903554,-70.1201564650271,40.2283278267902,29.8918286382369
1.17508055853921,62.6652281783425,60.9981964907941,-1.66703168754845,-61.8317123345683,32.1661299329455,29.6655824016228
1.17722878625134,51.5298810650562,54.3233266329351,2.79344556787883,-52.9266038489957,24.3682177485887,28.558386100407
1.17937701396348,41.0734888785332,47.264765786471,6.19127690793779,-44.1691273325021,17.4411059852977,26.7280213472044
1.18152524167562,32.0188494303584,40.5077281668919,8.48887873653354,-36.2632887986252,11.7649853469124,24.4983034517127
1.18367346938776,24.7063061873309,34.5641487653947,9.85784257806386,-29.6352274763628,7.4242318046335,22.2109956717293
1.18582169709989,19.0284758049565,29.6123444139155,10.583868608959,-24.320410109436,4.22230359799873,20.0981065114373
1.18796992481203,14.5096200307938,25.4826126912108,10.9729926604171,-19.9961163610023,1.76831368518835,18.2278026758139
1.19011815252417,10.4926136688794,21.7790119002857,11.2863982314063,-16.1358127845825,-0.39689228126344,16.532705065846
1.19226638023631,6.35383596759716,18.0672955365297,11.7134595689325,-12.2105657520634,-2.67981180066769,14.8903775527311
1.19441460794844,1.66270275257471,14.0376525904459,12.3749498378712,-7.8501776715103,-5.35612354264823,13.2063012141585
1.19656283566058,-3.75873592285545,9.57622129233432,13.3349572151898,-2.90874268473944,-8.54684656902261,11.455589253762
1.19871106337272,-9.86696111967582,4.73479420680405,14.6017553264799,2.56608345643589,-12.2343582230778,9.66827476664196
1.20085929108486,-16.4757688803886,-0.359658316583933,16.1161105638047,8.41771359848627,-16.2959397220967,7.87822612361038
1.20300751879699,-23.3378910156297,-5.59297431868557,17.7449166969441,14.4654326671576,-20.5414038562869,6.07597118912927
1.20515574650913,-30.2026230151295,-10.9023283348131,19.3002946803164,20.5524756749713,-24.7514588477229,4.19898317275162
1.20730397422127,-36.8430791262121,-16.2561902688853,20.5868888573268,26.5496346975487,-28.7149839917695,2.16534929422077
1.2094522019334,-43.0624859626844,-21.6038648351763,21.4586211275081,32.3331753989304,-32.2605535450962,-0.0726218538341286
1.21160042964554,-48.697743125894,-26.8399165991981,21.8578265266959,37.7688298625461,-35.277784826295,-2.49104503625113
1.21374865735768,-53.6362495739478,-31.817897242767,21.8183523311808,42.7270734083574,-37.7273009525643,-4.99977245579309
1.21589688506982,-57.8484357738931,-36.415590882278,21.4328448916151,47.1320133280856,-39.6406403327541,-7.49137299533147
1.21804511278195,-61.4219682177138,-40.6180600845905,20.8039081331233,51.0200141511522,-41.1129381754186,-9.90707597573358
1.22019334049409,-64.5737940826685,-44.5652063450402,20.0085877376283,54.5695002138544,-42.2911909101484,-12.2783093037059
1.22234156820623,-67.6173395052686,-48.5212179992543,19.0961215060142,58.0692787522615,-43.3567305056414,-14.71254824662
1.22448979591837,-70.8768722426543,-52.7635493147978,18.1133229278565,61.8202107787261,-44.4950975852554,-17.3251131934707
1.2266380236305,-74.5679878506593,-57.4385864091354,17.1294014415239,66.0032871298973,-45.8486946460916,-20.1545924838058
1.22878625134264,-78.6878120997685,-62.4580956250264,16.2297164747421,70.5729538623974,-47.4587642872553,-23.1141895751421
1.23093447905478,-82.9613011157768,-67.4946842773147,15.4666168384621,75.2279926965458,-49.2139589771195,-26.0140337194263
1.23308270676692,-86.86850265515,-72.0836667870306,14.7848358681194,79.4760847210903,-50.8266692616347,-28.6494154594556
1.23523093447905,-89.7481941079051,-75.7829615136385,13.9652325942667,82.7655778107718,-51.8567133510859,-30.9088644596859
1.23737916219119,-90.9508303281628,-78.3143898883038,12.636440439859,84.6326101082333,-51.7936353840109,-32.8389747242224
1.23952738990333,-90.0003831434889,-79.6238193492191,10.3765637942698,84.812101246354,-50.1884734688794,-34.6236277774747
1.24167561761547,-86.7186785186611,-79.8420452678434,6.87663325081765,83.2803618932523,-46.7976558847394,-36.4827060085129
1.2438238453276,-81.2718670737902,-79.1758591258442,2.09600794794606,80.2238630998172,-41.6839375108681,-38.5399255889491
1.24597207303974,-74.1235904280478,-77.7880253284183,-3.66443490037049,75.955807878233,-35.2295777638386,-40.7262301143944
1.24812030075188,-65.9186450095609,-75.7279573816284,-9.80931237206747,70.8233011955946,-28.0546663187467,-42.7686348768479
1.25026852846402,-57.3525566913341,-72.9512952658987,-15.5987385745645,65.1519259786164,-20.8769090583848,-44.2750169202316
1.25241675617615,-49.0816642086277,-69.4222820400792,-20.3406178314515,59.2519731243534,-14.3705231885881,-44.8814499357653
1.25456498388829,-41.6928028106268,-65.2456363594827,-23.5528335488559,53.4692195850548,-9.06998463088544,-44.3992349541693
1.25671321160043,-35.7084033976262,-60.7513777487844,-25.0429743511582,48.2298905732053,-5.33271452323404,-42.8971760499713
1.25886143931257,-31.5835034796221,-56.475145606706,-24.8916421270839,44.029324543164,-3.34593067626908,-40.6833938668949
1.2610096670247,-29.6648612623876,-53.0300384216599,-23.3651771592723,41.3474498420237,-3.14984205155766,-38.1976077904661
1.26315789473684,-30.1140023825766,-50.9226380653385,-20.8086356827619,40.5183202239575,-4.65268334990731,-35.8656368740502
1.26530612244898,-32.8245435601553,-50.3941124992889,-17.5695689391336,41.6093280297221,-7.62748731051082,-33.9818407192113
1.26745435016112,-37.3766294371309,-51.3547992856691,-13.9781698485382,44.3657143614,-11.6992297942963,-32.6664845671036
1.26960257787325,-43.0632754714828,-53.4359648980986,-10.3726894266158,48.2496201847907,-16.3452930224335,-31.9043271623572
1.27175080558539,-48.9962451786975,-56.1273515461703,-7.13110636747276,52.5617983624339,-20.9325694056124,-31.6292289568215
1.27389903329753,-54.265392649253,-58.9318355192665,-4.6664428700135,56.5986140842598,-24.7994748896198,-31.79913919464
1.27604726100967,-58.1067536312127,-61.4707217247176,-3.36396809350493,59.7887376779652,-27.3713927688539,-32.4173449091113
1.2781954887218,-60.0405936129323,-63.5118077651042,-3.47121415217188,61.7762006890182,-28.2846897303802,-33.491510958638
1.28034371643394,-59.9563473391647,-64.9382354821763,-4.98188814301162,62.4472914106705,-27.4872295980765,-34.960061812594
1.28249194414608,-58.1283433844408,-65.6996306978025,-7.57128731336172,61.9139870411216,-25.2785280355395,-36.6354590055821
1.28464017185822,-55.1477214394975,-65.7813046569949,-10.6335832174974,60.4645130482462,-22.257069111,-38.2074439372462
1.28678839957035,-51.7701543871121,-65.2045099973432,-13.434355610231,58.4873321922276,-19.1678993884405,-39.3194328037871
1.28893662728249,-48.7102592447769,-64.0461335219911,-15.3358742772142,56.378196383384,-16.6871924837814,-39.6910038996026
1.29108485499463,-46.443791822328,-62.4515458116243,-16.0077539892962,54.4476688169762,-15.2180189165159,-39.2296499004602
1.29323308270677,-45.0866013757852,-60.6168600679224,-15.5302586921373,52.8517307218538,-14.778171341824,-38.0735593800298
1.2953813104189,-44.3979042200664,-58.7360180850263,-14.33811386496,51.5669611525463,-15.0298951775532,-36.5370659749931
1.29752953813104,-43.9118953088787,-56.9339855233733,-13.0220902144946,50.422940416126,-15.4449025471921,-34.9780378689339
1.29967776584318,-43.1519293783728,-55.2243554855403,-12.0724261071675,49.1881424319566,-15.5397516356026,-33.6483907963539
1.30182599355532,-41.8459834415363,-53.5247385887755,-11.6787551472391,47.6853610151559,-15.0836141471486,-32.6017468680073
1.30397422126745,-40.0580415452043,-51.734653449891,-11.6766119046867,45.8963474975477,-14.1907148202588,-31.7056326772889
1.30612244897959,-38.1809786980564,-49.8413551407195,-11.6603764426631,44.011166919388,-13.2603011276966,-30.7508657916913
1.30827067669173,-36.7889403205246,-47.9919976722558,-11.2030573517312,42.3904689963902,-12.7929414843967,-29.5975275119935
1.31041890440387,-36.3981712679282,-46.4759053744918,-10.0777341065635,41.43703832121,-13.1602185806823,-28.2768197405276
1.312567132116,-37.2161350671696,-45.6025416364424,-8.38640656927272,41.409338351806,-14.4148642489485,-26.9944741028575
1.31471535982814,-38.9645754746243,-45.5204379878948,-6.55586251327053,42.2425067312596,-16.2043564806769,-26.0381502505827
1.31686358754028,-40.8476935879306,-46.0661877958813,-5.21849420795077,43.4569406919059,-17.8145996899899,-25.642341001916
1.31901181525242,-41.7046582427076,-46.7324639238151,-5.02780568110743,44.2185610832614,-18.3384262808001,-25.8801348024613
1.32116004296455,-40.3340101782956,-46.79631871329,-6.46230853499436,43.5651644457928,-16.9358508216506,-26.6293136241422
1.32330827067669,-35.9101730434713,-45.5751896553198,-9.66501661184856,40.7426813493955,-13.1225782158113,-27.6201031335842
1.32545649838883,-28.3523735811152,-42.7113269668528,-14.3589533857376,35.531850273984,-6.99671009768882,-28.5351401762952
1.32760472610097,-18.492490184179,-38.3592479401345,-19.8667577559554,28.4258690621568,0.687133785888193,-29.1130028480449
1.3297529538131,-7.94729336756225,-33.1851413973935,-25.2378480298312,20.5662173824779,8.64527733113447,-29.2114947136123
1.33190118152524,1.28434453731565,-28.1697369692785,-29.4540815065941,13.4426962159814,15.3692130219549,-28.8119092379363
1.33404940923738,7.36559431189031,-24.2933852261821,-31.6589795380724,8.46389545714588,19.5122869249813,-27.9761823821272
1.33619763694952,9.12314412451392,-22.2287803433217,-31.3519244678357,6.55281810940391,20.2375342961748,-26.7903524055787
1.33834586466165,6.35513359513113,-22.1549922478746,-28.5101258430057,7.89992932637173,17.4326297190684,-25.3325590454402
1.34049409237379,-0.118733938262823,-23.7476410875457,-23.6289071492828,11.9331875129042,11.75508660551,-23.6882741184142
1.34264232008593,-8.64235009473698,-26.3228573069133,-17.6805072121763,17.4826037008251,4.51907855871965,-22.0016822595448
1.34479054779807,-17.0702238339905,-29.0531578401673,-11.9829340061768,23.0616908370789,-2.54364491390683,-20.5180459231721
1.3469387755102,-23.1908308745524,-31.1606437928345,-7.96981291828216,27.1757373336935,-7.61050897813511,-19.5652283555584
1.34908700322234,-25.150488574995,-32.0302105074883,-6.8797219324933,28.5903495412416,-9.13538332125084,-19.4549662199908
1.35123523093448,-21.8162819467913,-31.2446729042456,-9.42839095745421,26.5304774255184,-6.19394549466857,-20.3365319308499
1.35338345864662,-13.0250802405744,-28.5848833286394,-15.559803088065,20.8049817846069,1.26736142374532,-22.0723432083522
1.35553168635875,0.331886051294686,-24.0392495693129,-24.3711356206076,11.8536817590091,12.3515108359511,-24.2051925949603
1.35767991407089,16.4297821503588,-17.8371054149196,-34.2668875652784,0.70366163228039,25.3483348578186,-26.051996490099
1.35982814178303,32.8429130161996,-10.4835433834929,-43.3264563996925,-11.1796848163534,38.084684707946,-26.9049998915927
1.36197636949517,47.036424361381,-2.751432292737,-49.787856654118,-22.142496034322,48.4121405077495,-26.2696444734275
1.3641245972073,56.902411773258,4.40763960937689,-52.4947721638811,-30.6550256913174,54.6985919685695,-24.0435662772521
1.36627282491944,61.1960135783696,10.0379535782568,-51.1580600001128,-35.6169835783132,56.1770367892412,-20.560053210928
1.36842105263158,59.7495961824539,13.3991533340687,-46.3504428483851,-36.5743747582613,53.0500195154195,-16.4756447571582
1.37056928034372,53.4124612086908,14.1576588858325,-39.2548023228583,-33.7850600472616,46.3336317657745,-12.5485717185129
1.37271750805585,43.7514473445493,12.47450960335,-31.2769377411993,-28.1129784739497,37.5141925428743,-9.40121406892463
1.37486573576799,32.619781765404,8.9456901179651,-23.6740916474389,-20.7827359416845,28.1469367064214,-7.36420076473688
1.37701396348013,21.7313909987087,4.40768940433805,-17.3237015943707,-13.0695402015234,19.5275462965397,-6.45800609501632
1.37916219119227,12.356534377903,-0.319631805943108,-12.6761661838461,-6.01845128597994,12.5163502808745,-6.4978989948946
1.3813104189044,5.19381655423818,-4.65033257735927,-9.84414913159745,-0.271741988439455,7.51898284291781,-7.24724085447836
1.38345864661654,0.402808988564706,-8.32819565343188,-8.73100464199658,3.96269333243359,4.56690681528064,-8.52960014771423
1.38560687432868,-2.265147796723,-11.3824936449805,-9.11734584825749,6.82382072085174,3.42609902576725,-10.249919746619
1.38775510204082,-3.30584580538503,-13.9911853199338,-10.6853395145488,8.64851556265943,3.68974685458188,-12.3382624172413
1.38990332975295,-3.31600492532717,-16.3316706693211,-13.015665743994,9.82383779732415,4.8498304093334,-14.6736682066576
1.39205155746509,-2.88278191645746,-18.4907451624111,-15.6079632459537,10.6867635394343,6.36259066474811,-17.0493542041824
1.39419978517723,-2.51636819451933,-20.4671487812132,-17.9507805866939,11.4917584878663,7.71720619608729,-19.2089646839536
1.39634801288937,-2.62579032923783,-22.2483224304194,-19.6225321011816,12.4370563798286,8.49837088597188,-20.9354272658005
1.3984962406015,-3.52944381396375,-23.9019205150386,-20.3724767010748,13.7156821645012,8.42151644355554,-22.1371986080567
1.40064446831364,-5.48101631526146,-25.6185307740972,-20.1375144588357,15.5497735446793,7.32824907178713,-22.8780226164665
1.40279269602578,-8.6843440090127,-27.6773501851172,-18.9930061761046,18.180847097065,5.15433108354593,-23.3351781806109
1.40494092373792,-13.2754336127582,-30.3530502038727,-17.0776165911145,21.8142419083155,1.90109148917815,-23.7153333974936
1.40708915145005,-19.2689911426583,-33.8098485434147,-14.5408574007564,26.5394198430365,-2.36406687095098,-24.1753529720855
1.40923737916219,-26.4935111103861,-38.0309609064134,-11.5374497960273,32.2622360083998,-7.4780306571794,-24.7842053512204
1.41138560687433,-34.5583362061574,-42.8157184209764,-8.25738221481898,38.6870273135669,-13.1504769956692,-25.5365503178977
1.41353383458647,-42.8919799298972,-47.8483548575231,-4.95637492762587,45.3701673937101,-18.9678025011357,-26.4023648925745
1.4156820622986,-50.8581907635773,-52.8083729067149,-1.95018214313762,51.8332818351461,-24.4540043102198,-27.3792775249263
1.41783029001074,-57.9101968725683,-57.4691466049123,0.441050267656024,57.6896717387403,-29.1756235701122,-28.5140481686281
1.41997851772288,-63.7161684598251,-61.7377455341728,1.97842292565235,62.7269569969989,-32.8472956927387,-29.8796613042602
1.42212674543502,-68.204975110418,-65.6253182212119,2.57965688920616,66.9151466658149,-35.3923159998121,-31.5228306660029
1.42427497314715,-71.5320316445817,-69.1797464083625,2.35228523621913,70.3558890264721,-36.9421584404004,-33.4137305860717
1.42642320085929,-74.0086400153576,-72.4319377439982,1.57670227135939,73.2202888796779,-37.7926711433585,-35.4276177363194
1.42857142857143,-76.0377658241862,-75.3934276290308,0.644338195155456,75.7155967266085,-38.3410520096708,-37.3745447169376
1.43071965628357,-78.0629855998169,-78.1057577661287,-0.0427721663118916,78.0843716829728,-39.0101067167525,-39.0742649662203
1.4328678839957,-80.510023025309,-80.7027477680833,-0.192724742774317,80.6063853966961,-40.1586491412673,-40.4477362554288
1.43501611170784,-83.7085863024676,-83.4304828339352,0.278103468532422,83.5695345682014,-41.9933448855,-41.5761896827014
1.43716433941998,-87.8084685324881,-86.5910129159954,1.21745561649264,87.1997407242417,-44.5129620744904,-42.6867786497514
1.43931256713212,-92.719343309638,-90.4223387339812,2.29700457565686,91.5708410218096,-47.5081739426474,-44.0626670791622
1.44146079484425,-98.1020226674226,-94.9688493517222,3.13317331570047,96.5354360095724,-50.6175979915616,-45.9178380180108
1.44360902255639,-103.427059689816,-100.010018528272,3.41704116154355,101.718539109044,-53.4220504256797,-48.2964886833643
1.44575725026853,-108.097652195773,-105.095906582869,3.00174561290366,106.596779389321,-55.5496989043382,-51.0470804849827
1.44790547798067,-111.610125527999,-109.69153460301,1.91859092498933,110.650830065504,-56.7643582264942,-53.8864718390102
1.4500537056928,-113.703648124232,-113.374414343165,0.329233781066151,113.539031233699,-57.0164409526489,-56.5225902810497
1.45220193340494,-114.441795611466,-115.991654718668,-1.54985910720205,115.216725165067,-56.4459682521318,-58.7707569129349
1.45435016111708,-114.184376999061,-117.696090794443,-3.51171379538114,115.940233896752,-55.3363316018402,-60.6039022949119
1.45649838882922,-113.452489288455,-118.844206794422,-5.39171750596648,116.148348041438,-54.0303858912443,-62.117962150194
1.45864661654135,-112.743871467551,-119.813106150036,-7.06923468248448,116.278488808794,-52.8373183925335,-63.4411704162602
1.46079484425349,-112.38003498516,-120.831868230441,-8.45183324528081,116.605951607801,-51.9641008699398,-64.641850737861
1.46294307196563,-112.432506901787,-121.902248683061,-9.46974178127391,117.167377792424,-51.4813825602567,-65.6859952321676
1.46509129967777,-112.700248116728,-122.819280448118,-10.1190323313898,117.759764282423,-51.2906078926692,-66.4691563897539
1.4672395273899,-112.656822115412,-123.235635467639,-10.5788133522276,117.946228791525,-51.039004381592,-66.9072244099334
1.46938775510204,-111.309454463472,-122.689267543969,-11.379813080497,116.99936100372,-49.9648206914873,-67.0345403122328
1.47153598281418,-107.005160880285,-120.549228678652,-13.5440677983667,113.777194779468,-46.7305465409591,-67.0466482385092
1.47368421052632,-97.3157404894111,-115.906207068478,-18.5904665790671,106.610973778945,-39.362636955172,-67.2483368237726
1.47583243823845,-79.1640141801715,-107.494681651195,-28.3306674710233,93.3293479156831,-25.4166733545741,-67.9126745611091
1.47798066595059,-49.2913586076577,-93.7451428313197,-44.453784223662,71.5182507194887,-2.41878719199785,-69.0994635274909
1.48012889366273,-5.03614647992277,-73.0236888151607,-67.9875423352379,39.0299176475417,31.4756979276576,-70.5056155751993
1.48227712137487,54.7463051101181,-44.0456161544262,-98.7919212645442,-5.35034447784593,76.7691131873311,-71.4187687094852
1.484425349087,128.875306543381,-6.37630841592205,-135.251614959303,-61.2494990637294,132.063460751342,-70.8139616876125
1.48657357679914,213.396978666937,39.1232355337402,-174.273743133196,-126.260107100338,193.835360900066,-67.575253799728
1.48872180451128,301.669120747965,90.0680093510575,-211.601111396907,-195.868565049511,256.635116072436,-60.7665510229249
1.49087003222342,385.036463081662,142.662082650862,-242.3743804308,-263.849272866262,313.705421756231,-49.8561488899692
1.49301825993555,454.026021496446,192.181698398375,-261.844323098071,-323.103859947411,357.935172297259,-34.8313123498477
1.49516648764769,499.864497537843,233.734926865989,-266.129570671854,-366.799712201916,382.997034104848,-16.1973219029328
1.49731471535983,516.019631354261,263.109130300295,-252.910501053966,-389.564380827278,384.465066204113,5.09931462316473
1.49946294307197,499.435139221059,277.489712321817,-221.945426899242,-388.462425771438,360.69028306015,27.7721427112877
1.5016111707841,451.185692526307,275.882492701248,-175.30319982506,-363.534092613778,313.244446175684,50.2896464380939
1.50375939849624,376.406985332043,259.175005624748,-117.231979707295,-317.790995478395,246.819482519669,70.9715129587263
1.50590762620838,283.514791933355,229.882048510001,-53.6327434233545,-256.698420221678,168.573767678355,88.1246525433231
1.50805585392052,182.875795093591,191.68759110333,8.81179600973871,-187.281693098461,87.0319995419263,100.249693556534
1.51020408163265,85.2001205036417,148.899195260154,63.6990747565124,-117.049657881898,10.7505228735647,106.299135008333
1.51235230934479,-0.0353201350275509,105.895056156758,105.930376291786,-52.9298680108653,-52.9828482134066,105.912716224272
1.51450053705693,-65.8616992382543,66.6058571803502,132.467556418605,-0.372078971047912,-99.1646278284294,99.5367067994773
1.51664876476907,-108.611610161924,34.0586391758612,142.670249337785,37.2764854930315,-125.640929749855,88.3644442568233
1.5187969924812,-128.150517159386,10.0226786165718,138.173195775958,59.0639192714071,-133.161856467672,74.0979371962648
1.52094522019334,-127.547178417157,-5.17685345378819,122.370324963369,66.3620159354726,-124.958751690263,58.5967357547903
1.52309344790548,-112.256563430107,-12.6059298312148,99.6506335988922,62.4312466306609,-105.9535985145,43.5223518838387
1.52524167561762,-88.9681268495207,-14.4009365044629,74.5671903450577,51.6845316769918,-81.7676585972892,30.0831269202974
1.52738990332975,-64.3430707441959,-13.2344257438671,51.1086450003288,38.7887482440315,-57.7258578722623,18.9371096282308
1.52953813104189,-43.8900912531353,-11.6986867717631,32.1914044813722,27.7943890124492,-38.0407478672538,10.2463588548046
1.53168635875403,-31.1908159258525,-11.7692910456588,19.4215248801938,21.4800534857556,-25.3061704030231,3.82611691726749
1.53383458646617,-27.5958122714802,-14.4855668234917,13.1102454479884,21.0406895474859,-20.3530288597343,-0.68766068775165
1.5359828141783,-32.3975813505275,-19.915505132984,12.4820762175435,26.1565432417558,-22.4398287840355,-3.71671445772022
1.53813104189044,-43.3783666795207,-27.3802294810923,15.9981371984284,35.3792980803065,-29.6882519389746,-5.69104614133195
1.54027926960258,-57.5559964220784,-35.8293705486926,21.7266258733858,46.6926834853855,-39.6413111477321,-7.05137233765337
1.54242749731472,-71.9302112741973,-44.2193339161624,27.7108773580348,58.0747725951798,-49.8205443161161,-8.25422827906379
1.54457572502685,-84.0687210844278,-51.7706723993788,32.2980486850491,67.9196967419033,-58.1833848847385,-9.73631185716487
1.54672395273899,-92.4488097548373,-58.0535678140563,34.395241940781,75.2511887844468,-63.4220258478092,-11.8291629366376
1.54887218045113,-96.5512149320121,-62.9314672063583,33.6197477256537,79.7413410691852,-65.0854813288329,-14.6558597403523
1.55102040816327,-96.7564966162693,-66.4446746816362,30.3118219346331,81.6005856489528,-63.5341592754512,-18.0664263735016
1.5531686358754,-94.1132277375777,-68.7205138894077,25.39271384817,81.4168708134927,-59.7529707928738,-21.6639000206189
1.55531686358754,-90.0441196279079,-69.9563747777321,20.0877448501758,80.00024720282,-55.0659322390419,-24.9343149637781
1.55746509129968,-86.0424431364703,-70.4585314093018,15.5839117271685,78.2504872728861,-50.8131774318194,-27.4373098410666
1.55961331901182,-83.3938306206142,-70.6720170719742,12.72181354864,77.0329238462942,-48.0578220846271,-28.9751017616671
1.56176154672395,-82.9454765232387,-71.1367641602629,11.8087123629758,77.0411203417508,-47.3770944431073,-29.6640258986435
1.56390977443609,-84.9427734542877,-72.351169262378,12.5916041919097,78.6469713583328,-48.7671888230987,-29.8797825352341
1.56605800214823,-88.9607143420717,-74.5854519590065,14.3752623830652,81.7730831505391,-51.6679883625685,-30.1050947879706
1.56820622986037,-93.9615806083614,-77.7291776647146,16.2324029436468,85.845379136538,-55.0969917760041,-30.7483873605339
1.5703544575725,-98.4977711545978,-81.2589227564667,17.238848398131,89.8783469555322,-57.8683097763644,-32.0100371791679
1.57250268528464,-101.044391792814,-84.3682351590017,16.6761566338126,92.7063134759079,-58.8602742133134,-33.8460392625946
1.57465091299678,-100.396665792535,-86.2275868079136,14.1690789846211,93.3121263002241,-57.2828723885779,-36.0292539116463
1.57679914070892,-96.0197540024733,-86.2732612668305,9.74649273564275,91.1465076346519,-52.883123369058,-38.2633842655939
1.57894736842105,-88.2232891032243,-84.4014321879416,3.82185691528272,86.312360645583,-46.0225730092535,-40.2897876363294
1.58109559613319,-78.0778114866469,-80.9826552833445,-2.90484379669762,79.5302333849957,-37.5864838449746,-41.9437495400211
1.58324382384533,-67.0893091017437,-76.6928317864828,-9.60352268473908,71.8910704441132,-28.7428932085023,-43.1481772356109
1.58539205155747,-56.7505344573391,-72.239107961457,-15.4885735041178,64.4948212093981,-20.6309804766107,-43.8638407327874
1.5875402792696,-48.1333985254757,-68.1039105475072,-19.9705120220315,58.1186545364914,-14.0814432517221,-44.0372112847693
1.58968850698174,-41.6549179995471,-64.4159944489426,-22.7610764493956,53.0354562242448,-9.44692077507575,-43.5885354491691
1.59183673469388,-37.0706488540233,-60.9917999980153,-23.921151143992,49.0312244260193,-6.57474885501562,-42.4564755710037
1.59398496240601,-33.6702038537093,-57.5086535886129,-23.8384497349036,45.5894287211611,-4.91587705940283,-40.6735516617583
1.59613319011815,-30.5929759611017,-53.7151627465712,-23.1221867854696,42.1540693538364,-3.73539458781606,-38.4186747660204
1.59828141783029,-27.1521637338606,-49.5774753476429,-22.4253116137823,38.3648195407518,-2.36342606003916,-36.0013934807126
1.60042964554243,-23.0574602514465,-45.3003978379191,-22.2429375864726,34.1789290446828,-0.407261332486947,-33.7716677121958
1.60257787325457,-18.469502321595,-41.2279684378559,-22.7584661162609,29.8487353797254,2.14448189733298,-31.9932172770584
1.6047261009667,-13.8906147511755,-37.6876189846386,-23.7970042334631,25.789116867907,4.95319474114382,-30.7423116090508
1.60687432867884,-9.95933202813337,-34.8649833325565,-24.9056513044231,22.4121576803449,7.47315963814487,-29.8853173184898
1.60902255639098,-7.23782820058158,-32.7695928842179,-25.5317646836364,20.0037105423998,9.1469682415274,-29.1506787839272
1.61117078410311,-6.06202528821443,-31.2923091309348,-25.2302838427204,18.6771672095746,9.58412927725298,-28.2612964868276
1.61331901181525,-6.48677360729648,-30.3021838034553,-23.8154101961588,18.3944787053759,8.66431829443118,-27.0587969998071
1.61546723952739,-8.32060970602578,-29.7158675892392,-21.3952578832135,19.0182386476325,6.53732408859385,-25.5555627362264
1.61761546723953,-11.2128523674374,-29.4998034564144,-18.286951088977,20.3563279119259,3.53704936076982,-23.8933772726957
1.61976369495166,-14.7391877440762,-29.6111587945525,-14.8719710504763,22.1751732693143,0.0663916532000837,-22.2415649225144
1.6219119226638,-18.4431629855145,-29.9199426640578,-11.4767796785433,24.1815528247862,-3.48319165348562,-20.6983611713006
1.62406015037594,-21.829801902884,-30.1653172963004,-8.33551539341634,25.9975595995922,-6.74714325473385,-19.2504163448584
1.62620837808808,-24.3495249836815,-29.9810633879214,-5.63153840423994,27.1652941858015,-9.35899328972077,-17.8063008960807
1.62835660580021,-25.4236139283135,-28.9884402485411,-3.56482632022759,27.2060270884273,-10.9293938040429,-16.2766332843843
1.63050483351235,-24.5360320277227,-26.9178334654318,-2.38180143770915,25.7269327465773,-11.0771152950068,-14.6498174515705
1.63265306122449,-21.3700329150409,-23.7021695966126,-2.33213668157162,22.5361012558267,-9.51894811673466,-13.0171531390921
1.63480128893663,-15.932356130476,-19.495699798876,-3.56334366839999,17.714027964676,-6.18450623103799,-11.529521733638
1.63694951664876,-8.60267308756593,-14.6088425582399,-6.00616947067397,11.6057578229029,-1.29825180844598,-10.3075060144569
1.6390977443609,-0.072894777376082,-9.39432287998918,-9.3214281026131,4.73360882868263,4.62426666261851,-9.35787549130114
1.64124597207304,8.81338911603073,-4.14366050923538,-12.9570496252661,-2.33486430339767,10.8852193706484,-8.55035506725075
1.64339419978518,17.2682067495546,0.959557404687331,-16.3086493448673,-9.11388207712097,16.7884280472109,-7.67454597008998
1.64554242749731,24.739455469409,5.82078077328358,-18.9186746961254,-15.2801181213463,21.8290650827672,-6.54894696142089
1.64769065520945,31.0007725758992,10.3774609609318,-20.6233116149675,-20.6891167684155,25.8120420954334,-5.12292532701783
1.64983888292159,36.1249900899682,14.5477508153847,-21.5772392745835,-25.3363704526765,28.8511146822759,-3.51474422959939
1.65198711063373,40.3623632945062,18.2204440915815,-22.1419192029247,-29.2914036930438,31.2521412487155,-1.96073755567163
1.65413533834586,43.9796588966109,21.2934873365086,-22.6861715601023,-32.6365731165598,33.3329152283566,-0.696342111796824
1.656283566058,47.1251722243813,23.7355149131735,-23.3896573112078,-35.4303435687774,35.2574147677945,0.172928800982827
1.65843179377014,49.7687536491748,25.627961206509,-24.1407924426658,-37.6983574278419,36.9547730459203,0.743584381921622
1.66058002148228,51.7356305144872,27.1557545201794,-24.5798759943079,-39.4456925173333,38.1577532543975,1.28793926293576
1.66272824919441,52.8216389387616,28.5463794629405,-24.2752594758211,-40.684009200851,38.5484492072913,2.13555999355971
1.66487647690655,52.9533873603458,29.9923488111755,-22.9610385491702,-41.4728680857607,37.957212954758,3.51565513100265
1.66702470461869,52.3401491339167,31.6085950492715,-20.7315540846452,-41.9743720915941,36.535851609281,5.43852048231314
1.66917293233083,51.5565503114277,33.4578597100363,-18.0986906013914,-42.507205010732,34.8276204564096,7.67958455432242
1.67132116004296,51.5040736517838,35.6304824992473,-15.8735911525365,-43.5672780755156,33.6888324021602,9.87844567335539
1.6734693877551,53.2313946842069,38.3220002956876,-14.9093943885194,-45.7766974899473,34.0703945363632,11.7063029535841
1.67561761546724,57.6453106614002,41.8457177709384,-15.7995928904618,-49.7455142161693,36.722451775931,13.0230624402383
1.67776584317938,65.1985859470626,46.5535625567013,-18.6450233903613,-55.8760742518819,41.9218046687119,13.95426958317
1.67991407089151,75.6703568547942,52.691318651094,-22.9790382037002,-64.1808377529441,49.3246975292472,14.8561402236969
1.68206229860365,88.1352392614442,60.2504977010594,-27.8847415603848,-74.1928684812518,58.0099904109145,16.1828780703373
1.68421052631579,101.150136604449,68.8839573918852,-32.2661792125635,-85.0170469981669,66.7081579085061,18.3088890896609
1.68635875402793,113.10292063104,77.930713649444,-35.1722069815962,-95.5168171402421,74.1375638063182,21.3792533339239
1.68850698174006,122.606114652257,86.5565869452645,-36.0495277069927,-104.581350798761,79.327821179625,25.2535296191359
1.6906552094522,128.809763033211,93.9717154044682,-34.8380476287426,-111.390739218839,81.8239053309767,29.5668338878628
1.69280343716434,131.549270081919,99.6501179741683,-31.8991521077512,-115.599694028044,81.7242110948353,33.8754829332085
1.69495166487648,131.307226758725,103.467999578279,-27.8392271804458,-117.387613168502,79.5732269695852,37.8143861989166
1.69709989258861,129.021070613842,105.70344682026,-23.3176237935819,-117.362258717051,76.1693472037121,41.1929115133392
1.69924812030075,125.800157866106,106.893643943048,-18.9065139230573,-116.346900904577,72.3533358945814,43.9935650099955
1.70139634801289,122.632786442497,107.607915177239,-15.0248712652589,-115.120350809868,68.8288288538782,46.2915219559898
1.70354457572503,120.165800265891,108.237349799972,-11.9284504659187,-114.201575032931,66.0471253659047,48.1544496670266
1.70569280343716,118.61745018629,108.896967502571,-9.72048268371816,-113.757208844431,64.1689664350039,49.5882424094267
1.7078410311493,117.839520955619,109.479214029708,-8.36030692591038,-113.659367492664,63.0999139407645,50.559453551899
1.70998925886144,117.493590016105,109.817462527355,-7.67612748875061,-113.65552627173,62.584858752428,51.0706675193021
1.71213748657358,117.26608230683,109.861596459994,-7.40448584683644,-113.563839383412,62.3352840768333,51.2285553065786
1.71428571428571,117.032060257561,109.765613148335,-7.26644710922578,-113.398836702948,62.1492536833933,51.2495830195547
1.71643394199785,116.899952566071,109.838702095275,-7.06125047079631,-113.369327330673,61.9806015184337,51.3887258122392
1.71858216970999,117.124264617782,110.38855368758,-6.7357109302024,-113.756409152681,61.9299877739923,51.8264213786887
1.72073039742213,117.934005728086,111.546780672163,-6.3872250559226,-114.740393200125,62.1606153920042,52.5797778081203
1.72287862513426,119.359223300715,113.175657378489,-6.18356592222544,-116.267440339602,62.7713946114701,53.496045728132
1.7250268528464,121.131936397714,114.907465694697,-6.22447070301743,-118.019701046205,63.6782035503658,54.3414974958396
1.72717508055854,122.700190359934,116.293124723746,-6.40706563618755,-119.49665754184,64.5536279980606,54.9430295437792
1.72932330827068,123.348184328021,116.980061396904,-6.36812293111622,-120.164122862462,64.8581536295684,55.305969232894
1.73147153598281,122.381581679267,116.829866020721,-5.55171565854661,-119.605723849994,63.966648668907,55.6390751810871
1.73361976369495,119.321956761073,115.924691975099,-3.39726478597395,-117.623324368086,61.3596107735232,56.2637135945623
1.73576799140709,114.054351749928,114.473265585303,0.418913835375136,-114.263808667615,56.8177189572762,57.4460897103389
1.73791621911923,106.882259396776,112.67778560916,5.79552621238376,-109.780022502968,50.5433665921963,59.2366559107719
1.74006444683136,98.4650405662779,110.634941118184,12.1699005519064,-104.549990842231,43.1475700071858,61.4024208350453
1.7422126745435,89.6462987393742,108.314494643644,18.6681959042703,-98.9803966915093,35.4890514175519,63.4913452739574
1.74436090225564,81.2212558454053,105.609572825949,24.3883169805442,-93.4154143356774,28.4164694324306,64.9989449032468
1.74650912996778,73.71722305636,102.415212561808,28.697989505448,-88.066217809084,22.509616775456,65.556601033628
1.74865735767991,67.2578967935343,98.683821682339,31.4259248888047,-82.9708592379366,17.9159859523648,65.0548732855718
1.75080558539205,61.5509062540357,94.425091922071,32.8741856680353,-77.9879990880533,14.3383602930002,63.6496387950531
1.75295381310419,55.9932219445914,89.6507290662657,33.6575071216743,-72.8219755054286,11.1678574114586,61.65411809397
1.75510204081633,49.8501222653086,84.2986298043099,34.4485075390013,-67.0743760348093,7.70080736315362,59.3735686716556
1.75725026852846,42.4489108840834,78.1917017159404,35.742790831857,-60.3203063000119,3.35306002611322,56.9672462738987
1.7593984962406,33.3429175039492,71.07687739458,37.7339598906308,-52.2098974492646,-2.19552119334084,54.4054186426054
1.76154672395274,22.4268377656555,62.7482535677233,40.3214158020678,-42.5875456666894,-8.94728901820612,51.5348346848955
1.76369495166488,9.99766831531511,53.2063490436307,43.2086807283156,-31.6020086794729,-16.6055062065002,48.2075148859731
1.76584317937701,-3.24851824188368,42.7738879631535,46.0224062050372,-19.7626848606349,-24.6354622234605,44.3981470840954
1.76799140708915,-16.3001424698303,32.0965641810447,48.3967066508749,-7.89821085560718,-32.3484245603526,40.2466354159598
1.77013963480129,-28.0032535076249,22.00409614074,50.007349648365,2.99957868344247,-39.005301577995,36.0057228945525
1.77228786251343,-37.3079791526912,13.2723176087535,50.5802967614447,12.0178307719689,-43.944137957068,31.9263071850991
1.77443609022556,-43.5350228973878,6.37846541549752,49.9134883128853,18.5782787409451,-46.7242556051366,28.1459768641914
1.7765843179377,-46.5798170859401,1.35071091525051,47.9305280011906,22.6145530853448,-47.2551725435654,24.6406194582206
1.77873254564984,-46.974310456175,-2.22626579112859,44.7480446650464,24.6002881236518,-45.8611775606107,21.2608894369589
1.78088077336198,-45.7678149401038,-5.05393672139052,40.7138782187133,25.4108758307472,-43.2408465794086,17.8299707486614
1.78302900107411,-44.2500487488497,-7.87509730172668,36.374951447123,26.0625730252882,-40.3125000979864,14.2499270726982
1.78517722878625,-43.5917538993983,-11.2349777705214,32.3567761288769,27.4133658349599,-37.9742650141376,10.5608991791778
1.78732545649839,-44.5037716928881,-15.3320756768954,29.1716960159926,29.9179236848917,-36.8377338544403,6.9198101695486
1.78947368421053,-47.014029402641,-20.0005095575154,27.0135198451256,33.5072694800782,-37.0137746238833,3.50650514380508
1.79162191192266,-50.4376367236221,-24.809591319558,25.6280454040641,37.6236140215901,-38.0328410638431,0.409227042253026
1.7937701396348,-53.5683250700432,-29.2238109702547,24.3445140997885,41.396068020149,-38.9564195849159,-2.43964843523312
1.79591836734694,-55.0530260247077,-32.7600640028833,22.2929620218244,43.9065450137955,-38.6729940232661,-5.23355099052944
1.79806659505908,-53.8437294188142,-35.1047115350173,18.7390178837969,44.4742204769158,-36.2913736513055,-8.18284682561023
1.80021482277121,-49.5833316367112,-36.1833463681925,13.3999852685187,42.8833390024518,-31.4916584526149,-11.3916805498369
1.80236305048335,-42.7985685288136,-36.1892623871889,6.60930614162478,39.4939154580013,-24.7039373352192,-14.789978122782
1.80451127819549,-34.8369913720912,-35.5735810457397,-0.736589673648503,35.2052862089154,-17.0502008492213,-18.1550853596941
1.80665950590763,-27.5643794952601,-34.992492074416,-7.42811257915588,31.2784357848381,-10.0681334580521,-21.2103023267859
1.80880773361976,-22.9044723557565,-35.2038735058134,-12.2994011500569,29.0541729307849,-5.3025356028498,-23.7516373279351
1.8109559613319,-22.3425531143379,-36.9128960885385,-14.5703429742006,29.6277246014382,-3.88610507006863,-25.7416195313696
1.81310418904404,-26.524241268726,-40.5871727605314,-14.0629314918053,33.5557070146287,-6.23065488846033,-27.3250521261683
1.81525241675618,-35.0574272928205,-46.2882522645703,-11.2308249717498,40.6728397786954,-11.9133011605353,-28.7595386181601
1.81740064446831,-46.5724191160296,-53.5796269860056,-7.0072078699761,50.0760230510176,-19.7826056230267,-30.2934174279909
1.81954887218045,-59.0278195251111,-61.5602146621275,-2.53239513701642,60.2940170936193,-28.2477121940473,-32.046304899572
1.82169709989259,-70.1858969089905,-69.0393330818153,1.14656382717521,69.6126149954029,-35.6662303680829,-33.94638462732
1.82384532760473,-78.1345884253275,-74.8228604319987,3.31172799332883,76.4787244286631,-40.7231582093282,-35.7555662193349
1.82599355531686,-81.7127131288907,-78.0303705299101,3.68234259898063,79.8715418294004,-42.6975278639357,-37.1740139654647
1.828141783029,-80.7137542036577,-78.3309763947055,2.38277780895213,79.5223652991816,-41.5482660063049,-37.9740992928767
1.83029001074114,-75.8139777075157,-76.001851285381,-0.18787357786529,75.9079144964484,-37.8130520648252,-38.0948624316232
1.83243823845328,-68.2769915122524,-71.7866700193478,-3.50967850709537,70.0318307658001,-32.3836565025785,-37.6481742632216
1.83458646616541,-59.5745942013266,-66.6247507193153,-7.0501565179887,63.0996724603209,-26.2622188416689,-36.837453618652
1.83673469387755,-51.0758068246988,-61.3761961147171,-10.3003892900182,56.2260014697079,-20.3877087673403,-35.8382927023676
1.83888292158969,-43.8843946089459,-56.652196028189,-12.7678014192431,50.2682953185674,-15.5582965948514,-34.709998723716
1.84103114930183,-38.8025747464969,-52.7904072329384,-13.9878324864414,45.7964909897177,-12.4073711300278,-33.3891198596899
1.84317937701396,-36.336529801503,-49.9374015319954,-13.6008717304924,43.1369656667492,-11.3678290355053,-31.7691366312439
1.8453276047261,-36.6728245960999,-48.1539846966132,-11.4811601005133,42.4134046463565,-12.5958322477933,-29.8175723985632
1.84747583243824,-39.6203607215926,-47.4657811930069,-7.84542047141428,43.5430709572997,-15.8874701250892,-27.6556008322106
1.84962406015038,-44.5736347776672,-47.8335175397751,-3.25988276210789,46.2035761587211,-20.6568760077796,-25.5467001509415
1.85177228786251,-50.5655952043974,-49.0789539828421,1.48664122155534,49.8222745936198,-26.0261182129764,-23.7961563806434
1.85392051557465,-56.4373944327582,-50.8338189445797,5.60357548817852,53.635606688669,-31.0204849604684,-22.6151217282006
1.85606874328679,-61.0888872223031,-52.5676533596365,8.52123386266653,56.8282702909698,-34.8050605424848,-22.023209748485
1.85821697099893,-63.7303116040392,-53.7100435549743,10.020268049065,58.7201775795068,-36.8752898265521,-21.8448877529546
1.86036519871106,-64.0553266180368,-53.8331787063038,10.2221479117331,58.9442526621703,-37.138737264885,-21.8055153972854
1.8625134264232,-62.2888576303159,-52.8204607515175,9.46839687879836,57.5546591909167,-35.8786272545571,-21.6760319363596
1.86466165413534,-59.103252058524,-50.9364994939615,8.16675256456247,55.0198757762427,-33.6350023115432,-21.3848734646995
1.86680988184748,-55.424686313931,-48.7468903275266,6.67779598640436,52.0857883207288,-31.0512411501677,-21.0345471705611
1.86895810955961,-52.1704417165116,-46.9024070480122,5.26803466849945,49.5364243822619,-28.7192381925055,-20.8171861897564
1.87110633727175,-49.9786821114936,-45.8688517853409,4.10983032615266,47.9237669484173,-27.0442562188231,-20.8795107295941
1.87325456498389,-49.0140140790749,-45.7179986112643,3.29601546781054,47.3660063451696,-26.1550147734427,-21.2109915717269
1.87540279269603,-48.930104750463,-46.0799071555892,2.85019759487381,47.5050059530261,-25.8901511726684,-21.6148547803577
1.87755102040816,-49.0235071646415,-46.2926391669322,2.73086799770928,47.6580731657868,-25.8771875811754,-21.7808855846115
1.8796992481203,-48.5323194713394,-45.6940692648562,2.83825020648317,47.1131943680978,-25.6852848389113,-21.4279095291865
1.88184747583244,-46.9619787561223,-43.9266754949178,3.03530326120453,45.44432712552,-24.9986410086634,-20.4456861168566
1.88399570354458,-44.3008501450646,-41.1136177635583,3.18723238150626,42.7072339543115,-23.7440412632854,-18.963192691026
1.88614393125671,-41.0326343225295,-37.8230418163754,3.20959250615409,39.4278380694524,-22.1211134143418,-17.3067246551107
1.88829215896885,-37.9375721885754,-34.8359721535019,3.10160003507342,36.3867721710386,-20.5195861118244,-15.8671860592143
1.89044038668099,-35.7603942423508,-32.8210834807101,2.93931076164073,34.2907388615304,-19.3498525019958,-14.9408863595347
1.89258861439313,-34.8760858376389,-32.0572505044743,2.81883533316464,33.4666681710566,-18.8474605854018,-14.6192075856548
1.89473684210526,-35.0856487438981,-32.3184735033767,2.7671752405214,33.7020611236374,-18.9264119922098,-14.7756491314277
1.8968850698174,-35.6230650831675,-32.9601178358926,2.66294724727491,34.29159145953,-19.1430061652212,-15.1485852943088
1.89903329752954,-35.3739986013125,-33.157376483928,2.21662211738457,34.2656875426202,-18.7953103593486,-15.4703771832717
1.90118152524168,-33.2315377099563,-32.1890278315511,1.04250987840527,32.7102827707537,-17.1370237941808,-15.5732589765729
1.90332975295381,-28.4711462034728,-29.6558847553644,-1.18473855189162,29.0635154794186,-13.6432038257906,-15.420311653628
1.90547798066595,-21.0231666306129,-25.5670061137621,-4.54383948314919,23.2950863721875,-8.23966357373185,-15.0554227984556
1.90762620837809,-11.5528112617636,-20.2892201299542,-8.73640886819061,15.9210156958589,-1.4082011967865,-14.5128144990724
1.90977443609023,-1.31800139650916,-14.4064669158904,-13.0884655193812,7.86223415619977,5.88523206143602,-13.7474662176358
1.91192266380236,8.15073445038486,-8.55730732196116,-16.708041772346,0.203286435788153,12.4293881113654,-12.6326745471536
1.9140708915145,15.4459734345497,-3.30787585595275,-18.7538492905024,-6.06904878929846,17.0999113625261,-11.0308625732276
1.91621911922664,19.6368121940208,0.918413178660522,-18.7183990153603,-10.2776126863407,19.1776056046906,-8.8999929183499
1.91836734693878,20.4902182738384,3.87190639046517,-16.6183118833732,-12.1810623321518,18.5542650786058,-6.37320274645403
1.92051557465091,18.5185048561036,5.50050625774504,-13.0179985983585,-12.0095055569243,15.7682517272311,-3.75874617030675
1.92266380236305,14.8545313032248,5.9793800167712,-8.87515128645362,-10.416955659998,11.8648412948392,-1.44788563484121
1.92481203007519,10.9880057654965,5.7263298959179,-5.26167586957862,-8.35716783070722,8.12484081753758,0.23232701316964
1.92696025778733,8.42063935146012,5.36398144669928,-3.05665790476085,-6.8923103990797,5.73864862811048,1.15366177096922
1.92910848549946,8.31597364549012,5.60246393630984,-2.71350970918029,-6.95921879089998,5.51474167733521,1.44447711356477
1.9312567132116,11.224698481372,7.05445794983849,-4.17024053153347,-9.13957821560523,7.69746950645272,1.44210870915251
1.93340494092374,16.9509203967615,10.0373939059375,-6.91352649082393,-13.4941571513495,11.9322234437927,1.56193370755679
1.93555316863588,24.5903882834541,14.4398647776315,-10.1505235058226,-19.5151265305428,17.3704558946383,2.14467063590445
1.93770139634801,32.7283528497406,19.714855997154,-13.0134968525865,-26.2216044234473,22.8709248511635,3.35067957228375
1.93984962406015,39.7460738102751,25.0156911747327,-14.7303826355424,-32.3808824925039,27.2382282229087,5.14265426959516
1.94199785177229,44.1631117249436,29.4337162280179,-14.7293954969257,-36.7984139764808,29.4462536109347,7.35216036554614
1.94414607948443,44.9422962701543,32.2547648511556,-12.6875314189987,-38.5985305606549,28.8149138445765,9.78361671607844
1.94629430719656,41.6992765240828,33.142700936645,-8.55657558743779,-37.4209887303639,25.1279260557603,12.2930626746036
1.9484425349087,34.7793944686936,32.1895383223887,-2.5898561463049,-33.4844663955411,18.6846253074992,14.7998410880419
1.95059076262084,25.1890214477965,29.8302492864913,4.64122783869482,-27.5096353671439,10.2738968045508,17.2357385625931
1.95273899033298,14.3963916953097,26.6752564352732,12.2788647399636,-20.5358240652915,1.05876347767305,19.4770605876184
1.95488721804511,4.04226833333269,23.3353390961699,19.2930707628372,-13.6888037147513,-7.62540121475226,21.3142049295036
1.95703544575725,-4.38289123350203,20.2971920471312,24.6800832806332,-7.95715040681456,-14.5314872570676,22.4886376638822
1.95918367346939,-9.83117548285454,17.8712943089889,27.7024697918434,-4.02005941306716,-18.766822637349,22.7868820504161
1.96133190118153,-11.8960744050507,16.1984892717171,28.0945636767678,-2.15120743333321,-19.9953190409092,22.1465264742424
1.96348012889366,-10.8710635582853,15.280632397206,26.1516959554913,-2.20478441946037,-18.5113797568883,20.7161641763487
1.9656283566058,-7.65568452021308,15.000629264429,22.6563137846421,-3.67247237210795,-15.1559991524276,18.8284715245355
1.96777658431794,-3.54065238999249,15.1188037510154,18.6594561410079,-5.78907568051145,-11.1000542655002,16.8891299460116
1.96992481203008,0.0654158267769102,15.2637694996077,15.1983536728308,-7.66459266319229,-7.56646892302693,15.2310615862192
1.97207303974221,1.90226044984827,14.9542877395104,13.0520272896621,-8.42827409467933,-5.57488341990693,14.0031575145863
1.97422126745435,1.07116376255424,13.6783158724854,12.6071521099312,-7.37473981751984,-5.76799417368849,13.1427339912083
1.97636949516649,-2.83003786374247,11.0227354897162,13.8527733534587,-4.09634881298688,-8.34140560860059,12.4377544215875
1.97851772287863,-9.66508782611612,6.812985490711,16.4780733168271,1.42605116770256,-13.0715805714716,11.6455294037691
1.98066595059076,-18.8188730587529,1.2036497914249,20.0225228501778,8.807611633664,-19.4206979544653,10.6130863208013
1.9828141783029,-29.3490283695943,-5.3313103366016,24.0177180329927,17.340169353098,-26.6833732012935,9.34320384819555
1.98496240601504,-40.1929186034193,-12.122813529319,28.0701050741003,26.1578660663692,-34.1315118387598,7.97364577239063
1.98711063372718,-50.3749195530926,-18.5048121197718,31.8701074333208,34.4398658364322,-41.1225134932067,6.68264765677452
1.98925886143931,-59.1627586221243,-24.0052417240533,35.157516898071,41.5840001730888,-47.1601377600977,5.57613758700885
1.99140708915145,-66.1433601835415,-28.4507222559127,37.6926379276288,47.2970412197271,-51.9179990555851,4.62095783585801
1.99355531686359,-71.215097347377,-31.949089607702,39.2660077396749,51.5820934775395,-55.2405525435259,3.65845906598643
1.99570354457572,-74.5151747989595,-34.7712294065984,39.7439453923611,54.643202102779,-57.1295600956603,2.48635799288135
1.99785177228786,-76.3151710772704,-37.1970321796662,39.1181388976042,56.7561016284683,-57.7166549874373,0.960553358969008
2,-76.9240208311049,-39.4017740523807,37.5222467787242,58.1628974417428,-57.2231338049145,-0.939763636828253
2.00214822771214,-76.6334149459126,-41.4332753529465,35.200139592966,59.0333451494296,-55.9167772694393,-3.11656787999026
2.00429645542427,-75.7222340726303,-43.2788588924923,32.4433751801381,59.5005464825613,-54.0828046263842,-5.4177418561771
2.00644468313641,-74.5056160114588,-44.9719448905049,29.5336711209539,59.7387804509818,-52.0196435662063,-7.71913688477549
2.00859291084855,-73.3830520390937,-46.6667437887372,26.7163082503565,60.0248979139155,-50.0496801447251,-9.97521776919037
2.01074113856069,-72.8301348240874,-48.6259068527851,24.2042279713023,60.7280208384363,-48.5171813976948,-12.2108394407414
2.01288936627282,-73.3052730858874,-51.113188532726,22.1920845531614,62.2092308093067,-47.7486788195244,-14.4605519897823
2.01503759398496,-75.0964610901526,-54.2396537185083,20.8568073716443,64.6680574043305,-47.9766342308984,-16.691423173432
2.0171858216971,-78.1815009211365,-57.8482916073472,20.3332093137893,68.0148962642419,-49.2573551174629,-18.757541146779
2.01933404940924,-82.1845716630102,-61.5147113374648,20.6698603255454,71.8496415002375,-51.4272159942778,-20.4224255059597
2.02148227712137,-86.4723496289097,-64.6880207180724,21.7843289108373,75.580185173491,-54.1283392698735,-21.4518459036175
2.02363050483351,-90.3642965868946,-66.9207390035067,23.4435575833879,78.6425177952007,-56.9039270851413,-21.7385907100594
2.02577873254565,-93.3736390981725,-68.0826836681475,25.290955430025,80.72816138316,-59.3322972640987,-21.3958641190612
2.02792696025779,-95.3815843802426,-68.4549475115229,26.9266368687197,81.9182659458827,-61.1541106244811,-20.7641553214016
2.03007518796993,-96.6820425917934,-68.6564974852675,28.025545106526,82.6692700385304,-62.3537938491597,-20.3154761893707
2.03222341568206,-97.8919392055415,-69.4354121606213,28.4565270449202,83.6636756830814,-63.1742331252308,-20.4894425578506
2.0343716433942,-99.7695621828188,-71.4172232763921,28.3523389064267,85.5933927296055,-64.0609505446228,-21.5324421849827
2.03651987110634,-103.000511656227,-74.9151416706891,28.0853699855382,88.9578266634582,-65.5429408208828,-23.4148858425754
2.03866809881847,-107.996554344139,-79.865655204296,28.1308991398431,93.9311047742176,-68.0637267419911,-25.8673780322265
2.04081632653061,-114.719936890233,-85.8785531997142,28.8413836905185,100.299245044973,-71.7806602903756,-28.5185847545979
2.04296455424275,-122.51750875517,-92.3256555811089,30.1918531740612,107.42158216814,-76.3546809646157,-31.0669012035239
2.04511278195489,-129.951926411808,-98.3807120539642,31.5712143578441,114.166319232886,-80.7615703848262,-33.4047488480601
2.04726100966702,-134.66328235923,-102.973730445005,31.6895519142247,118.818506402118,-83.1764171367275,-35.6420892653904
2.04940923737916,-133.360201448665,-104.701953431741,28.6582480169246,119.031077440203,-81.009224732795,-38.021852707408
2.0515574650913,-122.070810889989,-101.79613401771,20.2746768722784,111.93347245385,-71.1727438811337,-40.760728572716
2.05370569280344,-96.7364491379146,-92.2423529355606,4.49409620235397,94.4894010367376,-50.6152726701343,-43.8741283666033
2.05585392051557,-54.1091010474923,-74.1044274000723,-19.99532635258,64.1067642237823,-17.0568873474561,-47.0498768763261
2.05800214822771,7.22751045144325,-46.0036207193162,-53.2311311707595,19.3880551339365,30.2293208111014,-49.6173759450378
2.06015037593985,85.9839784968792,-7.63100333134865,-93.6149818282279,-39.1764875827653,89.7994801625536,-50.6229925797883
2.06229860365199,177.708229359558,39.8677935551987,-137.840435804359,-108.788011457378,157.774332581958,-48.9863211245802
2.06444683136412,274.927931719787,93.7708536169198,-181.157078102867,-184.349392668353,228.042504911327,-43.6931122429735
2.06659505907626,367.939141802454,149.986298383444,-217.95284341901,-258.962720092949,292.945992610732,-33.9832725177828
2.0687432867884,446.145344046436,203.564253482837,-242.581090563599,-324.854798764637,344.363217305017,-19.5084185403807
2.07089151450054,499.727176127532,249.413995089912,-250.31318103762,-374.570585608722,375.020178582576,-0.449592973853839
2.07303974221267,521.333949176853,283.076861721281,-238.257087455572,-402.205405449067,379.795518316213,22.4098871328544
2.07518796992481,507.451904944866,301.397869399553,-206.054035545313,-404.42488717221,356.75297024509,47.6719169271202
2.07733619763695,459.142267184228,302.972973366261,-156.169293817967,-381.057620275245,307.655780501098,73.4018397741472
2.07948442534909,381.963750479963,288.309170130003,-93.6545803499607,-335.136460304983,237.809165414962,97.327294890021
2.08163265306122,285.077894867592,259.696241059182,-25.3816538084101,-272.387067963387,155.229774338001,117.157293625386
2.08378088077336,179.727645911102,220.833288896492,41.1056429853899,-200.280467403797,69.311001462856,130.969465940941
2.0859291084855,77.4168685359902,176.277538523333,98.8606699873427,-126.847203529662,-10.7219007256762,137.569104255338
2.08807733619764,-11.8395000741326,130.795006249557,142.634506323689,-59.4777530877121,-77.237003198911,136.714756286623
2.09022556390977,-80.8773412579859,88.7008360255261,169.578177283512,-3.9117473837701,-125.227759270749,129.139506654519
2.09237379162191,-126.151601239687,53.2846482295262,179.436249469213,36.4334765050805,-152.79392535445,116.36044884937
2.09452201933405,-147.834587954131,26.4186678722977,174.253255826429,60.7079600409168,-161.04392189028,100.335961849363
2.09667024704619,-149.29082009075,8.43056673180536,157.721386822556,70.4301266794724,-153.506103456653,83.0759767771804
2.09881847475832,-136.079823084601,-1.72421913293144,134.35560395167,68.9020211087664,-135.217713518136,66.3156924093693
2.10096670247046,-114.710721637322,-6.03101994872378,108.679701688598,60.370870793023,-111.69521166296,51.3243408699373
2.1031149301826,-91.3986111276707,-6.84181438171833,84.5567967459524,49.1202127546945,-87.9777039368115,38.857491182117
2.10526315789474,-71.0531607592534,-6.31644046127742,64.7367202979759,38.6848006102654,-67.8949405286147,29.2101399183493
2.10741138560687,-56.6729655204169,-6.02354804563391,50.649417474783,31.3482567830254,-53.6611914975999,22.3129347145745
2.10955961331901,-49.2272874477904,-6.78405950318518,42.4432279446053,28.0056734754878,-45.8352576961979,17.82958422071
