t,leadI,leadII,leadIII,aVR,aVL,aVF
0,76.493076008016,-181.716335245294,-258.20941125331,52.6116296186387,167.351243630663,-219.962873249302
0.00214822771213749,78.9027055177062,-167.258558187153,-246.161263704859,44.1779263347232,162.531984611282,-206.709910946006
0.00429645542427497,84.7145370464961,-147.302492269834,-232.01702931633,31.2939776116691,158.365783181413,-189.659760793082
0.00644468313641246,94.1641464843748,-127.985989484667,-222.150135969042,16.9109215001462,158.157141226708,-175.068062726855
0.00859291084854995,103.233232323484,-110.672279640215,-213.905511963699,3.7195236583654,158.569372143591,-162.288895801957
0.0107411385606874,108.48646383875,-93.1287226005011,-201.615186439251,-7.67887061912454,155.050825139001,-147.371954519876
0.0128893662728249,114.918519929554,-79.430489122061,-194.349009051615,-17.7440154037466,154.633764490585,-136.889749086838
0.0150375939849624,118.240792838282,-67.3298411932555,-185.570634031537,-25.4554758225131,151.905713434909,-126.450237612396
0.0171858216970999,120.110337285166,-56.9901375333459,-177.100474818512,-31.56009987591,148.605406051839,-117.045306175929
0.0193340494092374,120.895783920289,-48.6086350129176,-169.504418933207,-36.1435744536859,145.200101426748,-109.056526973062
0.0214822771213749,122.959432903877,-37.4479040573387,-160.407336961216,-42.7557644232693,141.683384932547,-98.9276205092773
0.0236305048335124,122.608761299679,-26.7395058488671,-149.348267148546,-47.9346277254058,135.978514224112,-88.0438864987064
0.0257787325456498,123.672189385002,-14.9876295288041,-138.659818913806,-54.3422799280991,131.166004149404,-76.8237242213052
0.0279269602577873,124.575725027239,-4.33201456345849,-128.907739590698,-60.1218552318903,126.741732308968,-66.619877077078
0.0300751879699248,124.683493177335,5.43423217442921,-119.249261002906,-65.058862675882,121.96637709012,-56.9075144142382
0.0322234156820623,124.116849218536,12.4922382101261,-111.624611008409,-68.3045437143308,117.870730113473,-49.5661863991417
0.0343716433941998,124.284733261539,19.219321343474,-105.065411918065,-71.7520273025064,114.675072589802,-42.9230452872953
0.0365198711063373,124.429486567459,25.0195600399895,-99.4099265274698,-74.7245233037244,111.919706547464,-37.1951832437401
0.0386680988184748,125.204960415233,31.9805744787015,-93.2243859365311,-78.5927674469671,109.214673175882,-30.6219057289148
0.0408163265306122,125.875600593235,38.649424613998,-87.2261759792371,-82.2625126036165,106.550888286236,-24.2883756826195
0.0429645542427497,125.808458770094,45.7177036980119,-80.090755072082,-85.7630812340529,102.949606921088,-17.1865256870351
0.0451127819548872,123.163136441838,51.1940681623011,-71.9690682795369,-87.1786023020696,97.5661023606875,-10.3875000586179
0.0472610096670247,121.516383354048,56.5868985654903,-64.9294847885575,-89.051640959769,93.2229340713026,-4.17129311153357
0.0494092373791622,118.15161707985,59.3263210191708,-58.825296060679,-88.7389690495103,88.4884565702644,0.250512479245906
0.0515574650912997,115.878263510425,59.7667999762635,-56.1114635341613,-87.8225317433442,85.994863522293,1.82766822105113
0.0537056928034372,109.391326970457,58.8590802180241,-50.5322467524329,-84.1252035942405,79.9617868614449,4.16341673279559
0.0558539205155747,105.051710462573,58.0714032376187,-46.9803072249543,-81.5615568500959,76.0160088437637,5.5455480063322
0.0580021482277121,98.7072520649556,58.0323614535533,-40.6748906114023,-78.3698067592545,69.691071338179,8.67873542107551
0.0601503759398496,91.2672251012451,58.6429108683633,-32.6243142328818,-74.9550679848042,61.9457696670635,13.0092983177408
0.0622986036519871,86.7421376894827,59.8172251800444,-26.9249125094383,-73.2796814347636,56.8335250994605,16.4461563353031
0.0644468313641246,83.4583042149968,60.8366158504716,-22.6216883645252,-72.1474600327342,53.039996289761,19.1074637429732
0.0665950590762621,81.2517939318657,61.7215597269227,-19.530234204943,-71.4866768293942,50.3910140684044,21.0956627609898
0.0687432867883996,79.9804171913692,61.8456332394713,-18.1347839518979,-70.9130252154202,49.0576005716335,21.8554246437867
0.0708915145005371,78.2325077179002,60.0208967153104,-18.2116110025898,-69.1267022166053,48.222059360245,20.9046428563603
0.0730397422126745,77.3591422649842,59.0808318367785,-18.2783104282058,-68.2199870508813,47.818726346595,20.4012607042863
0.075187969924812,76.6008964837831,59.5529006301904,-17.0479958535926,-68.0768985569867,46.8244461686878,21.2524523882989
0.0773361976369495,72.0779996222892,59.3186513195178,-12.7593483027714,-65.6983254709035,42.4186739625303,23.2796515083732
0.079484425349087,66.2189346106285,59.1152750258757,-7.10365958475275,-62.6671048182521,36.6612970976906,26.0058077205615
0.0816326530612245,57.2675499811999,56.362376493225,-0.905173487974906,-56.8149632372125,29.0863617345874,27.7286015026251
0.083780880773362,48.851760721755,53.3281968608375,4.47643613908254,-51.0899787912963,22.1876622913362,28.90231649996
0.0859291084854995,42.1891052977689,48.7616570082832,6.5725517105143,-45.4753811530261,17.8082767936273,27.6671043593988
0.088077336197637,35.7603945557815,42.8646959472802,7.10430139149866,-39.3125452515309,14.3280465821414,24.9844986693894
0.0902255639097744,27.6025919547495,35.812635464607,8.2100435098575,-31.7076137096783,9.696274222446,22.0113394872323
0.0923737916219119,19.2316821688894,30.3339482075818,11.1022660386925,-24.7828151882356,4.06470806509846,20.7181071231371
0.0945220193340494,11.9638689823578,26.221291113545,14.2574221311872,-19.0925800479514,-1.14677657441471,20.2393566223661
0.0966702470461869,5.65378399294389,22.0065241874704,16.3527401945266,-13.8301540902072,-5.34947810079134,19.1796321909985
0.0988184747583244,-1.75696638995456,18.9912242332572,20.7481906232117,-8.61712892165131,-11.2525785065832,19.8697074282345
0.100966702470462,-10.1233420484692,15.0851461103508,25.20848815882,-2.48090203094079,-17.6659151036446,20.1468171345854
0.103114930182599,-15.4550541909519,9.7616121041734,25.2166662951253,2.84672104338924,-20.3358602430386,17.4891391996493
0.105263157894737,-18.7960590449114,4.49552775756699,23.2915868024783,7.15026564367219,-21.0438229236949,13.8935572800227
0.107411385606874,-21.6968029715252,-0.720678043231986,20.9761249282932,11.2087405073786,-21.3364639499092,10.1277234425306
0.109559613319012,-22.9271826303713,-5.24951899182185,17.6776636385495,14.0883508110966,-20.3024231344604,6.21407232336382
0.111707841031149,-26.5716669468865,-9.18157295334035,17.3900939935462,17.8766199501134,-21.9808804702163,4.1042605201029
0.113856068743287,-31.0240190618748,-11.9514223824618,19.072596679413,21.4877207221683,-25.0483078706439,3.56058714847563
0.116004296455424,-36.1777825328438,-15.0003351259115,21.1774474069323,25.5890588293777,-28.6776149698881,3.08855614051043
0.118152524167562,-43.8727067401006,-18.935596955601,24.9371097844996,31.4041518478508,-34.4049082623001,3.00075641444931
0.120300751879699,-51.841753892545,-23.6404096121721,28.2013442803729,37.7410817523585,-40.021549086459,2.28046733410042
0.122448979591837,-60.0488016824539,-30.9455431880795,29.1032584943744,45.4971724352667,-44.5760300884142,-0.921142346852516
0.124597207303974,-69.1065468485697,-38.5761643913334,30.5303824572362,53.8413556199515,-49.8184646529029,-4.0228909670486
0.126745435016112,-73.7504168445582,-45.2012642181502,28.5491526264079,59.4758405313542,-51.149784735483,-8.32605579587115
0.128893662728249,-73.2739299691161,-48.3771086975452,24.896821271571,60.8255193333306,-49.0853756203435,-11.7401437129871
0.131041890440387,-68.3518187643149,-45.9819857153874,22.3698330489275,57.1669022398512,-45.3608259066212,-11.80607633323
0.133190118152524,-62.7901982124139,-44.5465378475645,18.2436603648494,53.6683680299892,-40.5169292886316,-13.1514387413575
0.135338345864662,-55.3852213046111,-43.3002453794857,12.0849759251254,49.3427333420484,-33.7350986148682,-15.6076347271802
0.137486573576799,-49.6000903726198,-40.9300644488717,8.6700259237481,45.2650774107457,-29.1350581481839,-16.1300192625618
0.139634801288937,-44.5772920406915,-40.8043898638235,3.77290217686797,42.6908409522575,-24.1750971087797,-18.5157438434778
0.141783029001074,-42.1485473062026,-41.9833939719983,0.165153334204341,42.0659706391004,-21.1568503202035,-20.909120318897
0.143931256713212,-38.7517311427858,-43.0070354349511,-4.25530429216528,40.8793832888684,-17.2482134253103,-23.6311698635582
0.146079484425349,-35.802528636098,-41.9636101088858,-6.16108147278781,38.8830693724919,-14.8207235816551,-24.0623457908368
0.148227712137487,-33.886014721155,-40.4136226127496,-6.52760789159462,37.1498186669523,-13.6792034147802,-23.4706152521721
0.150375939849624,-32.8661074027469,-40.3560018781954,-7.48989447544852,36.6110546404711,-12.6881064636492,-23.922948176822
0.152524167561762,-33.9127747985403,-39.6619150961891,-5.74914029764881,36.7873449473647,-14.0818172504458,-22.705527696919
0.154672395273899,-34.8215181531389,-38.4152322431839,-3.59371409004498,36.6183751981614,-15.613902031547,-21.0044731666144
0.156820622986037,-34.3223943574664,-38.6209483386065,-4.29855398114015,36.4716713480364,-15.0119201881631,-21.4597511598733
0.158968850698174,-35.1771603112976,-40.0876742808762,-4.91051396957857,37.6324172960869,-15.1333231708595,-22.4990941252274
0.161117078410312,-33.9871129716129,-41.3611231905759,-7.37401021896305,37.6741180810944,-13.3065513763249,-24.3675667047695
0.163265306122449,-33.5979424760729,-41.1786460708016,-7.58070359472874,37.3882942734372,-13.0086194406721,-24.3796748327652
0.165413533834586,-32.615995728355,-39.0880378138093,-6.47204208545425,35.8520167710822,-13.0719768214504,-22.7800399496318
0.167561761546724,-31.119385504381,-37.2729183497344,-6.15353284535339,34.1961519270577,-12.4829263295138,-21.7132255975439
0.169709989258861,-29.1759313104351,-35.0529263016529,-5.87699499121776,32.114428806044,-11.6494681596087,-20.4649606464353
0.171858216970999,-27.4885747607256,-32.481413539279,-4.99283877855338,29.9849941500023,-11.2478679910861,-18.7371261589162
0.174006444683136,-27.3116866988497,-30.8928194927126,-3.58113279386283,29.1022530957811,-11.8652769524934,-17.2369761432877
0.176154672395274,-25.8699899927328,-32.0897975321335,-6.21980753940076,28.9798937624331,-9.825091226666,-19.1548025357671
0.178302900107411,-24.6182721042859,-33.1290444262023,-8.51077232191647,28.8736582652441,-8.05374989118469,-20.8199083740594
0.180451127819549,-25.4636756375521,-33.3872861255467,-7.92361048799466,29.4254808815494,-8.7700325747787,-20.6554483067707
0.182599355531686,-26.1976765692881,-32.9674391748646,-6.76976260557651,29.5825578720763,-9.71395698185578,-19.8686008902205
0.184747583243824,-27.4790139054002,-31.958858345829,-4.47984444042875,29.7189361256146,-11.4995847324857,-18.2193513931289
0.186895810955961,-27.9474447074356,-31.7272417070376,-3.77979699960198,29.8373432072366,-12.0838238539168,-17.7535193533198
0.189044038668099,-30.9303842383551,-31.526146227788,-0.595761989432916,31.2282652330716,-15.1673111244611,-16.0609541086105
0.191192266380236,-35.4524254588677,-32.6396679729816,2.81275748588607,34.0460467159246,-19.1325914723769,-14.9134552435478
0.193340494092374,-40.0226360869227,-34.8945739561932,5.1280621307295,37.4586050215579,-22.5753491088261,-14.8832559127318
0.195488721804511,-43.3465506499571,-40.0726358374826,3.27391481247449,41.7095932437199,-23.3102327312158,-18.3993605125041
0.197636949516649,-42.368104213719,-41.3480664288124,1.02003778490656,41.8580853212657,-21.6940709993128,-20.1640143219529
0.199785177228786,-36.3661201389718,-40.5232508697841,-4.15713073081238,38.4446855043779,-16.1044947040797,-22.3401908002983
0.201933404940924,-27.2906904039513,-35.9427710194889,-8.65208061553766,31.6167307117201,-9.31930489420682,-22.2974258175133
0.204081632653061,-17.4789936395952,-30.6777634937983,-13.1987698542031,24.0783785666968,-2.14011189269608,-21.9382666740007
0.206229860365199,-7.67211002981234,-26.1065495379745,-18.4344395081622,16.8893297838934,5.38116473917493,-22.2704945230684
0.208378088077336,-0.445641272644823,-20.2055279111994,-19.7598866385546,10.3255845919221,9.6571226829549,-19.982707274877
0.210526315789474,3.25232745390182,-15.7261692618332,-18.978496715735,6.2369209039657,11.1154120848184,-17.3523329887841
0.212674543501611,7.75111629037738,-15.0573706551601,-22.8084869455374,3.65312718239134,15.2798016179574,-18.9329288003488
0.214822771213749,12.3011386049692,-13.8326436423753,-26.1337822473445,0.765752518703021,19.2174604261569,-19.9832129448599
0.216970998925886,16.8956431333148,-12.1252453938784,-29.0208885271932,-2.38519886971819,22.958265830254,-20.5730669605358
0.219119226638024,20.2406502808625,-8.71066168089078,-28.9513119617533,-5.76499429998588,24.5959811213079,-18.830986821322
0.221267454350161,19.924575952292,-6.39009191004519,-26.3146678623372,-6.76724202112341,23.1196219073146,-16.3523798861912
0.223415682062299,19.0060931632345,-3.73125500080584,-22.7373481640404,-7.63741908121435,20.8717206636375,-13.2343015824231
0.225563909774436,16.2764659941006,-1.42278491287457,-17.6992509069752,-7.42684054061304,16.9878584505379,-9.56101790992489
0.227712137486574,13.262475007936,-0.0625712317242835,-13.3250462396603,-6.59995188810588,13.2937606237982,-6.6938087356923
0.229860365198711,13.2218870318305,-0.169716960308528,-13.3916039921391,-6.52608503576101,13.3067455119848,-6.7806604762238
0.232008592910849,16.4069424508736,-0.906802604657344,-17.313745055531,-7.75006992310814,16.8603437532023,-9.11027383009416
0.234156820622986,19.8163478712448,-0.258641205307906,-20.0749890765527,-9.77885333296846,19.9456684738988,-10.1668151409303
0.236305048335124,25.3527166523914,3.52440400611162,-21.8283126462798,-14.4385603292515,23.5905146493356,-9.15195432008409
0.238453276047261,29.5154743911586,6.80894044439688,-22.7065339467617,-18.1622074177777,26.1110041689602,-7.94879675118243
0.240601503759398,27.9772150423557,10.3047178255452,-17.6724972168105,-19.1409664339504,22.8248561295831,-3.68388969563264
0.242749731471536,26.6416590020987,12.6957820120614,-13.9458769900373,-19.6687205070801,20.293767996068,-0.625047488987935
0.244897959183673,27.4142721112775,16.0598829600256,-11.3543891512518,-21.7370775356516,19.3843306312647,2.3527469043869
0.247046186895811,31.3053694745737,17.6925633181609,-13.6128061564128,-24.4989663963673,22.4590878154933,2.03987858087405
0.249194414607948,35.971837524284,17.8219801149398,-18.1498574093441,-26.8969088196119,27.060847466814,-0.163938647202148
0.251342642320086,41.3115022000926,19.8665200437657,-21.4449821563268,-30.5890111219292,31.3782421782097,-0.789231056280546
0.253490870032223,43.3712994508164,24.2178777584819,-19.1534216923345,-33.7945886046491,31.2623605715755,2.53222803307368
0.255639097744361,45.159668013016,26.7077196473734,-18.4519483656426,-35.9336938301947,31.8058081893293,4.12788564086543
0.257787325456498,42.8480213345459,28.8694639439912,-13.9785573905547,-35.8587426392686,28.4132893625503,7.44545327671827
0.259935553168636,42.129108643619,30.7463455342677,-11.3827631093513,-36.4377270889433,26.7559358764851,9.68179121245817
0.262083780880773,42.1489892778751,33.6640200244713,-8.48496925340377,-37.9065046511732,25.3169792656394,12.5895253855338
0.264232008592911,41.5221911648814,33.6209835597071,-7.90120760517433,-37.5715873622943,24.7116993850279,12.8598879772664
0.266380236305048,40.9779890402645,31.0073822532994,-9.97060678696514,-35.992685646782,25.4742979136148,10.5183877331671
0.268528464017186,37.2852039253743,26.8060099089714,-10.4791940164029,-32.0456069171728,23.8821989708886,8.16340794628426
0.270676691729323,32.7909156328823,23.8023301607276,-8.98858547215464,-28.2966228968049,20.8897505525184,7.40687234428649
0.272824919441461,26.9566828310169,22.4825766901798,-4.4741061408371,-24.7196297605983,15.715394485927,9.00423527467135
0.274973147153598,19.9590759957057,20.0486150576808,0.0895390619751346,-20.0038455266933,9.93476846686529,10.069077059828
0.277121374865736,12.5954571094389,16.6472694518907,4.05181234245181,-14.6213632806648,4.27182238349352,10.3495408971712
0.279269602577873,5.55811620303243,13.6941343564664,8.13601815343401,-9.62612527974943,-1.28895097520079,10.9150762549502
0.281417830290011,-4.41623676714459,7.90985213334188,12.3260889004865,-1.74680768309864,-8.37116283381553,10.1179705169142
0.283566058002148,-15.0084016348714,1.59967265302385,16.6080742878953,6.70436449092378,-15.8082379613833,9.10387347045956
0.285714285714286,-19.6963766932221,-4.52304526555255,15.1733314276696,12.1097109793873,-17.4348540604459,5.32514308105852
0.287862513426423,-22.4784783541062,-7.90676832117766,14.5717100329285,15.1926233376419,-18.5250941935173,3.33247085587541
0.290010741138561,-22.9617930848194,-10.8446030686235,12.1171900161959,16.9031980767215,-17.5394915505077,0.636293473786219
0.292158968850698,-25.957655222562,-13.395306202839,12.5623490197231,19.6764807127005,-19.2600021211425,-0.416478591557956
0.294307196562836,-30.4909161802375,-17.5420687482031,12.9488474320344,24.0164924642203,-21.7198818061359,-2.29661065808435
0.296455424274973,-37.003045032266,-20.498334874732,16.504710157534,28.750689953499,-26.7538775949,-1.99681235859904
0.298603651987111,-45.2332775130685,-23.7090995900745,21.524177922994,34.4711885515715,-33.3787277180312,-1.09246083354027
0.300751879699248,-51.7349164934834,-29.0730034395771,22.6619130539063,40.4039599665302,-37.1984147736948,-3.20554519283539
0.302900107411386,-56.0916874765424,-36.3063176576101,19.7853698189323,46.1990025670762,-37.9385286477373,-8.26047391933887
0.305048335123523,-59.2302882904481,-42.5864657369881,16.6438225534599,50.9083770137181,-37.937055421954,-12.9713215917641
0.307196562835661,-60.0231246876704,-46.1068736776041,13.9162510100663,53.0649991826372,-36.9696878488683,-16.0953113337689
0.309344790547798,-60.0674265025817,-46.5871457830036,13.4802807195781,53.3272861427926,-36.7738536110799,-16.5534325317127
0.311493018259936,-60.7499494565983,-47.0041302868405,13.7458191697578,53.8770398717194,-37.247884313178,-16.6291555585414
0.313641245972073,-60.6984743236825,-47.3661668791917,13.3323074444907,54.0323206014371,-37.0153908840866,-17.0169297173505
0.315789473684211,-60.0097233118308,-45.7483193302095,14.2614039816213,52.8790213210202,-37.1355636467261,-15.7434576742941
0.317937701396348,-59.4117320986929,-47.5639577187315,11.8477743799614,53.4878449087122,-35.6297532393271,-17.8580916693851
0.320085929108485,-60.8247178217005,-50.4284592975588,10.3962585241417,55.6265885596297,-35.6104881729211,-20.0161003867086
0.322234156820623,-63.983685063349,-54.2036106769581,9.78007438639093,59.0936478701536,-36.88187972487,-22.2117681452836
0.32438238453276,-66.726381074812,-56.1931755142812,10.5332055605308,61.4597782945466,-38.6297933176714,-22.8299849768752
0.326530612244898,-67.1754828146239,-57.2765075148161,9.89897529980781,62.22599516472,-38.5372290572159,-23.6887661075042
0.328678839957035,-68.2094633984721,-58.2170840164599,9.9923793820122,63.213273707466,-39.1009213902422,-24.1123523172239
0.330827067669173,-69.107191740147,-59.0337165492455,10.0734751909015,64.0704541446963,-39.5903334655243,-24.480120679172
0.33297529538131,-72.4628583554084,-59.0986787765971,13.3641795788114,65.7807685660028,-42.9135189671099,-22.8672495988929
0.335123523093448,-76.0203927722471,-61.0872576026428,14.9331351696043,68.553825187445,-45.4767639709257,-23.0770612165193
0.337271750805585,-81.0413119428081,-66.034087446402,15.0072244964061,73.537699694605,-48.0242682196071,-25.513431474998
0.339419978517723,-85.400602156843,-71.6171693897804,13.7834327670626,78.5088857733117,-49.5920174619528,-28.9168683113589
0.34156820622986,-88.541390231401,-76.4645436758726,12.0768465555284,82.5029669536368,-50.3091183934647,-32.1938485601721
0.343716433941998,-91.2683026258598,-80.0290988031688,11.2392038226909,85.6487007145143,-51.2537532242753,-34.394947490239
0.345864661654135,-96.2121135370347,-83.1239365721016,13.0881769649331,89.6680250545682,-54.6501452509839,-35.0178798035842
0.348012889366273,-99.2163384171402,-85.1668947508179,14.0494436663223,92.1916165839791,-56.6328910417313,-35.5587255422478
0.35016111707841,-98.6043882233936,-85.008466239084,13.5959219843096,91.8064272312388,-56.1001551038516,-35.7062721273872
0.352309344790548,-96.7849594668892,-84.8709145603246,11.9140449065646,90.8279370136069,-54.3495021867269,-36.47843482688
0.354457572502685,-86.8325181342598,-82.1752527320383,4.65726540222144,84.503885433149,-45.7448917682406,-38.7589936649084
0.356605800214823,-66.5984927012089,-75.970456385816,-9.37196368460712,71.2844745435125,-28.6132645083009,-42.6712100352116
0.35875402792696,-36.7936744636329,-63.4986449225051,-26.7049704588721,50.146159693069,-5.0443520023804,-45.1018076906886
0.360902255639098,0.676691453544315,-46.2297099172751,-46.9064013708194,22.7765092318654,23.7915464121819,-46.5680556440472
0.363050483351235,47.3787175258038,-22.8636128148761,-70.24233034068,-12.2575523554638,58.8105239332419,-46.5529715777781
0.365198711063373,100.163729678487,5.15213710099397,-95.0115925774935,-52.6579333897407,97.5876611279905,-44.9297277382498
0.36734693877551,157.586086664973,38.4929522752566,-119.093134389717,-98.039519470115,138.339610527345,-40.3000910572302
0.369495166487648,215.170350909813,73.8808891133015,-141.289461796512,-144.525620011557,178.229906353163,-33.7042863416052
0.371643394199785,268.386774259424,108.469953296414,-159.91682096301,-188.428363777919,214.151797611217,-25.7234338332978
0.373791621911923,314.590631691365,140.433238882632,-174.157392808732,-227.511935286998,244.374012250048,-16.8620769630499
0.37593984962406,345.689174533032,166.252402528326,-179.436772004706,-255.970788530679,262.562973268869,-6.5921847381899
0.378088077336198,359.80854366704,187.381141625606,-172.427402041434,-273.594842646323,266.117972854237,7.47686979208603
0.380236305048335,355.321806765778,201.21723944157,-154.104567324208,-278.269523103674,254.713187044993,23.5563360586808
0.382384532760473,336.612950529943,209.365738894352,-127.247211635591,-272.989344712148,231.930081082767,41.0592636293809
0.38453276047261,305.556087179882,211.288002262476,-94.2680849174061,-258.422044721179,199.912086048644,58.509958672535
0.386680988184748,264.42242778089,204.584193562385,-59.8382342185046,-234.503310671638,162.130330999697,72.3729796719403
0.388829215896885,218.404190702784,192.323185820287,-26.0810048824971,-205.363688261535,122.24259779264,83.1210904688948
0.390977443609023,172.653451485102,175.88133497512,3.22788349001758,-174.267393230111,84.7127839975422,89.5546092325686
0.39312567132116,130.999314662774,159.029864342033,28.0305496792582,-145.014589502404,51.4843824917581,93.5302070106454
0.395273899033298,98.6984835164037,141.178692363752,42.4802088473487,-119.938587940078,28.1091373345275,91.8294506055506
0.397422126745435,75.1624901463641,127.61202605184,52.4495359054763,-101.387258099102,11.3564771204439,90.0307809786584
0.399570354457572,59.880411697902,115.833099986399,55.952688288497,-87.8567558421505,1.9638617047025,85.892894137448
0.40171858216971,49.8324159551139,107.538512607814,57.7060966527001,-78.6854642814639,-3.93684034879308,82.622304630257
0.403866809881847,44.3287844498694,100.980999062086,56.6522146122163,-72.6548917559775,-6.16171508117346,78.816606837151
0.406015037593985,40.8385090370942,94.6435393931815,53.8050303560874,-67.7410242151378,-6.4832606594966,74.2242848746344
0.408163265306122,37.8081628127597,87.8530771311468,50.044914318387,-62.8306199719533,-6.11837575281365,68.9489957247669
0.41031149301826,35.821197839611,80.0252474648191,44.2040496252081,-57.923222652215,-4.19142589279853,62.1146485450136
0.412459720730397,30.8757691841406,71.9408079200682,41.0650387359276,-51.4082885521044,-5.09463477589347,56.5029233279979
0.414607948442535,25.2939037882086,64.2776321145406,38.983728326332,-44.7857679513746,-6.8449122690617,51.6306802204363
0.416756176154672,14.6510548545852,56.9802082427807,42.3291533881955,-35.815631548683,-13.8390492668051,49.6546808154881
0.41890440386681,1.54630776218711,48.712221563545,47.1659138013579,-25.1292646628661,-22.8098030195854,47.9390676824515
0.421052631578947,-11.7637452052094,38.9575084879822,50.7212536931915,-13.5968816413864,-31.2424994492005,44.8393810905869
0.423200859291085,-27.1842269366821,29.2000995716637,56.3843265083458,-1.00793631749082,-41.7842767225139,42.7922130400047
0.425349087003222,-40.5726828795414,17.5081730958785,58.0808559754198,11.5322548918315,-49.3267694274806,37.7945145356491
0.42749731471536,-49.6206462037182,6.71288503331168,56.3335312370299,21.4538805852033,-52.9770887203741,31.5232081351708
0.429645542427497,-56.8322599800106,-2.65985967940147,54.1724003006092,29.7460598297061,-55.5023301403099,25.7562703106038
0.431793770139635,-61.1613902201362,-10.7975159365153,50.363874283621,35.9794530783258,-55.7626322518786,19.7831791735528
0.433941997851772,-62.3438156736308,-15.9306599014773,46.4131557721535,39.137237787554,-54.3784857228921,15.2412479353381
0.43609022556391,-62.7263686538786,-20.3873865472463,42.3389821066323,41.5568776005624,-52.5326753802555,10.975797779693
0.438238453276047,-63.0585109183712,-24.2568304067376,38.8016805116335,43.6576706625544,-50.9300957150024,7.27242505244797
0.440386680988185,-64.6350032868614,-27.6163803571411,37.0186229297203,46.1256918220013,-50.8268131082909,4.7011212862896
0.442534908700322,-66.0037542109463,-31.1772863846964,34.8264678262498,48.5905202978213,-50.415111018598,1.82459072077669
0.44468313641246,-67.1921387091073,-34.9130148992997,32.2791238098076,51.0525768042035,-49.7356312594574,-1.31694554474609
0.446831364124597,-66.291747509613,-38.1564697733566,28.1352777362565,52.2241086414848,-47.2135126229348,-5.01059601855005
0.448979591836735,-64.8659458949016,-41.6165790915796,23.249366803322,53.2412624932406,-44.0576563491118,-9.18360614412884
0.451127819548872,-64.2720875177968,-43.9766753552154,20.2954121625815,54.1243814365061,-42.2837498401891,-11.840631596317
0.45327604726101,-66.3327204617963,-44.7376532129598,21.5950672488365,55.5351868373781,-43.9638938553164,-11.5712929820616
0.455424274973147,-69.4099325686972,-44.7542946305093,24.6556379381879,57.0821135996033,-47.0327852534426,-10.0493283461607
0.457572502685285,-70.1494697231699,-46.700920095796,23.4485496273738,58.425194909483,-46.7990096752719,-11.6261852342111
0.459720730397422,-70.7915547619632,-48.3910300244662,22.400524737497,59.5912923932147,-46.5960397497301,-12.9952526434846
0.46186895810956,-71.9930883730847,-51.790603576788,20.2024847962967,61.8918459749363,-46.0977865846907,-15.7940593902457
0.464017185821697,-73.6803495181017,-55.3862591173798,18.2940904007219,64.5333043177408,-45.9872199594118,-18.546084358329
0.466165413533835,-73.2130957603336,-59.7962170336302,13.4168787267034,66.5046563969819,-43.3149872435185,-23.1896691534634
0.468313641245972,-70.231178169358,-60.4047601519333,9.82641801742476,65.3179691606456,-40.0287980933914,-25.2891710672543
0.47046186895811,-63.1337882742807,-58.3568768751614,4.77691139911933,60.745332574721,-33.9553498367,-26.789982738021
0.472610096670247,-56.3275941751739,-55.2907343548619,1.03685982031202,55.8091642650179,-28.682226997743,-27.1269372672749
0.474758324382385,-48.4861057262474,-51.3405131619388,-2.85440743569138,49.9133094440931,-22.815849145278,-27.0974602988151
0.476906552094522,-43.6101022138768,-48.5548892555381,-4.9447870416613,46.0824957347074,-19.3326575861077,-26.7498381485997
0.47905477980666,-39.3766314741552,-46.1363394596453,-6.75970798549015,42.7564854669003,-16.3084617443325,-26.4480237225677
0.481203007518797,-35.0569651050566,-44.0364927783427,-8.97952767328606,39.5467289416996,-13.0387187158853,-26.5080102258144
0.483351235230934,-31.9505794643171,-44.7895882269303,-12.8390087626132,38.3700838456237,-9.55578535085197,-28.8142984947717
0.485499462943072,-28.6094771540038,-44.1553269483708,-15.5458497943669,36.3824020511873,-6.53181367981847,-29.8505883713688
0.487647690655209,-26.3527058130286,-42.9605861256344,-16.6078803126058,34.6566459693315,-4.87241275021143,-29.7842332191201
0.489795918367347,-26.3254962783802,-41.2792226529214,-14.9537263745412,33.8023594656508,-5.68588495191947,-28.1164745137313
0.491944146079484,-26.9459312529375,-39.1753609714324,-12.2294297184949,33.060646112185,-7.35825076722131,-25.7023953449637
0.494092373791622,-27.4846087383053,-37.3487345454242,-9.86412580711886,32.4166716418648,-8.81024146559324,-23.6064301762715
0.496240601503759,-27.3082432969594,-36.4068698336081,-9.0986265366487,31.8575565652838,-9.10480838015536,-22.7527481851284
0.498388829215897,-25.8670003434962,-35.5891188438614,-9.72211850036516,30.7280595936788,-8.07244092156553,-22.6556186721133
0.500537056928034,-23.3275584401563,-35.5231855436206,-12.1956271034642,29.4253719918885,-5.56596566834605,-23.8594063235424
0.502685284640172,-21.122750144646,-35.4659405689944,-14.3431904243484,28.2943453568202,-3.38977986014877,-24.9045654966714
0.504833512352309,-21.1406562527497,-34.1281210460273,-12.9874647932776,27.6343886493885,-4.07659572973602,-23.5577929196525
0.506981740064447,-23.0883797546646,-32.9665919800328,-9.87821222536817,28.0274858673487,-6.60508376464822,-21.4224021027005
0.509129967776584,-20.9150891033802,-30.6700048152279,-9.75491571184765,25.7925469593041,-5.5800866957663,-20.2124602635378
0.511278195488722,-16.4519467242636,-28.031990216858,-11.5800434925944,22.2419684705608,-2.43595161583464,-19.8060168547262
0.513426423200859,-8.71257863788904,-23.8094216291475,-15.0968429912584,16.2610001335182,3.19213217668468,-19.4531323102029
0.515574650912997,-2.63712065707957,-19.49922078677,-16.8621001296905,11.0681707219248,7.11248973630544,-18.1806604582302
0.517722878625134,3.28180606289905,-16.4010533579962,-19.6828594208953,6.55962364754858,11.4823327418972,-18.0419563894457
0.519871106337272,7.77671037132832,-13.7111452963641,-21.4878556676924,2.96721746251787,14.6322830195103,-17.5995004820282
0.522019334049409,11.6793010522633,-10.0875804661778,-21.7668815184411,-0.795860293042773,16.7230912853522,-15.9272309923094
0.524167561761547,15.7116889065543,-5.00933200491194,-20.7210209114663,-5.35117845082119,18.2163549090103,-12.8651764581891
0.526315789473684,20.5008289678638,-0.60026703700075,-21.1010960048645,-9.95028096543151,20.8009624863641,-10.8506815209326
0.528464017185822,24.6588826416449,3.87185472414559,-20.7870279174993,-14.2653686828952,22.7229552795721,-8.45758659667684
0.530612244897959,26.9808930269101,8.39872400309506,-18.582169023815,-17.6898085150026,22.7815310253626,-5.09172251035998
0.532760472610097,28.9969217271377,9.7528315386139,-19.2440901885238,-19.3748766328758,24.1205059578308,-4.74562932495497
0.534908700322234,29.4591713418693,11.5725612601901,-17.8866100816792,-20.5158663010297,23.6728907117742,-3.15702441074457
0.537056928034372,32.4367442080985,11.2203201026738,-21.2164241054247,-21.8285321553862,26.8265841567616,-4.99805200137541
0.539205155746509,35.6660079788357,12.8466722982692,-22.8193356805665,-24.2563401385524,29.2426718297011,-4.98633169114868
0.541353383458647,38.469737231609,16.1908897589231,-22.2788474726859,-27.330313495266,30.3742923521474,-3.04397885688141
0.543501611170784,42.8361835131686,22.314719676347,-20.5214638368216,-32.5754515947578,31.6788236749951,0.896627919762718
0.545649838882922,47.9153616299493,26.3434671849938,-21.5718944449555,-37.1294144074715,34.7436280374524,2.38578637001914
0.547798066595059,52.3252337485137,31.1294466052725,-21.1957871432412,-41.7273401768931,36.7605104458775,4.96682973101562
0.549946294307197,56.7980562984648,35.2847561298157,-21.5133001686491,-46.0414062141402,39.1556782335569,6.8857279805833
0.552094522019334,63.2577109818412,39.5365609363458,-23.7211500454954,-51.3971359590935,43.4894305136683,7.90770544542522
0.554242749731472,69.510207087996,41.9399684486438,-27.5702386393522,-55.7250877683199,48.5402228636741,7.18486490464581
0.556390977443609,72.3625478922396,44.0266682127287,-28.3358796795109,-58.1946080524841,50.3492137858753,7.84539426660886
0.558539205155747,75.4830819894345,46.4824532111137,-29.0006287783208,-60.9827676002741,52.2418553838776,8.74091221639642
0.560687432867884,75.6161734147117,50.5468054075746,-25.069368007137,-63.0814894111432,50.3427707109244,12.7387187002188
0.562835660580021,75.7317267881228,54.7196387396129,-21.0120880485099,-65.2256827638679,48.3719074183164,16.8537753455515
0.564983888292159,77.1201711515992,58.9866581632143,-18.1335129883849,-68.0534146574068,47.6268420699921,20.4265725874147
0.567132116004296,83.4781258944899,63.9795113434275,-19.4986145510624,-73.7288186189587,51.4883702227762,22.2404483961825
0.569280343716434,92.2185594647186,69.6025519225468,-22.6160075421717,-80.9105556936327,57.4172835034451,23.4932721901876
0.571428571428571,101.739404005952,74.4846193163817,-27.2547846895702,-88.1120116611668,64.497094347761,23.6149173134058
0.573576799140709,111.93782127705,80.6555318345036,-31.2822894425462,-96.2966765557767,71.610055359798,24.6866211959787
0.575725026852846,118.86017056808,87.3013936080784,-31.5587769600016,-103.080782088079,75.2094737640408,27.8713083240384
0.577873254564984,124.870330958523,93.7155594640363,-31.1547714944863,-109.292945211279,78.0125512265045,31.280393984775
0.580021482277121,126.868210720029,98.6404430343784,-28.2277676856503,-112.754326877204,77.5479892028395,35.2063376743641
0.582169709989259,127.314702962798,102.272293701166,-25.0424092616313,-114.793498331982,76.1785561122146,38.6149422197675
0.584317937701396,128.990476901921,106.713677150086,-22.2767997518355,-117.852077026004,75.6336383268784,42.2184386991251
0.586466165413534,131.08948560764,109.281681679879,-21.8078039277616,-120.185583643759,76.4486447677009,43.7369388760585
0.588614393125671,134.200016530646,109.579111815219,-24.6209047154264,-121.889564172933,79.4104606230361,42.4791035498965
0.590762620837809,136.256599906393,109.837348252474,-26.4192516539193,-123.046974079434,81.3379257801563,41.7090482992774
0.592910848549946,138.042178100284,110.061555720388,-27.9806223798964,-124.051866910336,83.0114002400904,41.0404666702458
0.595059076262084,138.304344701734,112.832454317246,-25.4718903844881,-125.56839950949,81.8881175431109,43.6802819663787
0.597207303974221,136.599787476848,114.594160236206,-22.005627240642,-125.596973856527,79.3027073587452,46.2942664977822
0.599355531686359,131.899552438633,116.123718293536,-15.7758341450963,-124.011635366084,73.8376932918645,50.17394207422
0.601503759398496,129.106806350218,116.80766066315,-12.2991456870674,-122.957233506684,70.7029760186425,52.2542574880414
0.603651987110634,127.326131881294,117.401476890327,-9.92465499096669,-122.36380438581,68.6253934361302,53.7384109496801
0.605800214822771,124.491986870133,116.628925325147,-7.8630615449857,-120.56045609764,66.1775242075591,54.3829318900806
0.607948442534909,122.675368799516,113.381940383153,-9.29342841636264,-118.028654591334,65.9843986079392,52.0442559833953
0.610096670247046,118.521898661218,109.91876616982,-8.60313249139784,-114.220332415519,63.562515576308,50.6578168392113
0.612244897959184,112.983572882325,108.200067873231,-4.78350500909369,-110.591820377778,58.8835389457094,51.7082814320689
0.614393125671321,107.530998053687,106.707850131682,-0.823147922005035,-107.119424092684,54.1770729878459,52.9423511048383
0.616541353383459,104.729110338311,107.344445552035,2.61533521372338,-106.036777945173,51.056887562294,54.979890382879
0.618689581095596,103.584557862695,107.253094961807,3.66853709911145,-105.418826412251,49.9580103817918,55.460816030459
0.620837808807734,100.658651219858,107.173782047079,6.51513082722113,-103.916216633469,47.0717601963184,56.8444564371501
0.622986036519871,96.8301863961397,105.172743587863,8.34255719172353,-101.001464992001,44.2438146022081,56.7576503897934
0.625134264232009,90.9299795419125,100.215095972476,9.28511643056366,-95.5725377571944,40.8224315556744,54.7501062015199
0.627282491944146,83.8750923499433,94.6226217635797,10.7475294136364,-89.2488570567615,36.5637814681535,52.685075588608
0.629430719656284,75.8176822083574,91.0552108472318,15.2375286388745,-83.4364465277946,30.2900767847415,53.1463697430531
0.631578947368421,66.2457970590564,86.6697756348696,20.4239785758133,-76.457786346963,22.9109092416215,53.5468771053414
0.633727175080559,54.7149470544424,80.2859928690925,25.5710458146502,-67.5004699617674,14.5719506198961,52.9285193418714
0.635875402792696,47.2798046327819,75.3874886733626,28.1076840405807,-61.3336466530722,9.58606029610059,51.7475863569716
0.638023630504833,44.6887780774851,73.0666592275733,28.3778811500883,-58.8777186525292,8.15544846369841,50.7222701888308
0.640171858216971,43.0832416573586,71.0516558491495,27.968414191791,-57.0674487532541,7.55741373278381,49.5100350204703
0.642320085929108,41.6892739461134,64.7937655599018,23.1044916137884,-53.2415197530076,9.29239116616248,43.9491285868451
0.644468313641246,39.1908776150614,59.3605054392506,20.1696278241892,-49.275691527156,9.51062489543611,39.7650666317199
0.646616541353383,35.0895291716599,54.6432102847829,19.553681113123,-44.8663697282214,7.76792402926848,37.0984456989529
0.648764769065521,31.5286337407005,51.8356521678726,20.3070184271721,-41.6821429542865,5.61080765676418,36.0713352975223
0.650912996777658,27.1488554391007,48.7539995431768,21.6051441040761,-37.9514274911387,2.77185566751228,35.1795718236265
0.653061224489796,23.3462200966016,45.4343710688566,22.088150972255,-34.3902955827291,0.629034562173263,33.7612610205558
0.655209452201933,18.1124980446584,42.552184873312,24.4396868286536,-30.3323414589852,-3.16359439199759,33.4959358509828
0.657357679914071,11.6362699741972,38.7616792581691,27.1254092839719,-25.1989746161832,-7.74456965488732,32.9435442710705
0.659505907626208,4.0812664557736,32.2503705707402,28.1691041149666,-18.1658185132569,-12.0439188295965,30.2097373428534
0.661654135338346,-4.41035744901619,24.6649091650144,29.0752666140306,-10.1272758579991,-16.7428120315234,26.8700878895225
0.663802363050483,-13.0711200990715,16.7908999320737,29.8620200311453,-1.85988991650111,-21.4665700651084,23.3264599816095
0.665950590762621,-24.4549692750099,11.2426020574954,35.6975713325053,6.60618360875724,-30.0762703037576,23.4700866950004
0.668098818474758,-33.050599798568,5.78136920078337,38.8319689993513,13.6346152988923,-35.9412843989597,22.3066691000674
0.670247046186896,-37.9373097270636,1.68384638992137,39.621156116985,18.1267316685711,-38.7792329220243,20.6525012534532
0.672395273899033,-40.2478990889181,-1.22966854196275,39.0182305469553,20.7387838154404,-39.6330648179367,18.8942810024963
0.674543501611171,-41.6099527777964,-2.47113861693002,39.1388141608663,22.0405456973632,-40.3743834693314,18.3338377719682
0.676691729323308,-42.7925225653626,-6.76930956841064,36.0232129969519,24.7809160668866,-39.4078677811572,14.6269517142706
0.678839957035446,-42.5311418729048,-11.1451503132333,31.3859915596716,26.8381460930691,-36.9585667162882,10.1204206232192
0.680988184747583,-44.2363814440418,-16.232484942871,28.0038965011708,30.2344331934564,-36.1201389726063,5.88570577914992
0.683136412459721,-48.2931499254628,-20.005379766912,28.2877701585509,34.1492648461874,-38.2904600420069,4.14119519581947
0.685284640171858,-55.0356348314083,-24.5692213541867,30.4664134772216,39.8024280927975,-42.7510241543149,2.94859606151747
0.687432867883996,-58.9574554088698,-27.887606153436,31.0698492554338,43.4225307811529,-45.0136523321518,1.59112155099887
0.689581095596133,-63.0065391502877,-30.7687125585315,32.2378265917562,46.8876258544096,-47.6221828710219,0.734557016612317
0.691729323308271,-64.5898800709091,-32.6261037103435,31.9637763605656,48.6079918906263,-48.2768282157374,-0.331163674888948
0.693877551020408,-65.3205180955745,-35.5268561042579,29.7936619913166,50.4236870999162,-47.5570900434455,-2.86659705647062
0.696025778732546,-63.3786407337373,-39.333481366843,24.0451593668943,51.3560610502901,-43.7119000503158,-7.64416099997433
0.698174006444683,-58.472358293549,-41.994431620346,16.477926673203,50.2333949569475,-37.475142483376,-12.7582524735715
0.700322234156821,-52.2804216539436,-41.0844416315657,11.195980022378,46.6824316427546,-31.7382008381608,-14.9442308045938
0.702470461868958,-46.9044241757886,-40.9384240773904,5.96600009839817,43.9214241265895,-26.4352121370934,-17.4862119894961
0.704618689581096,-43.524963883984,-39.5235299343872,4.00143394959677,41.5242469091856,-23.7631989167904,-17.7610479923952
0.706766917293233,-41.2348891641521,-38.2950827154688,2.93980644868331,39.7649859398105,-22.0873478064177,-17.6776381333928
0.708915145005371,-42.4668827601678,-35.9403955017939,6.52648725837395,39.2036391309809,-24.4966850092709,-14.70695412171
0.711063372717508,-44.1805900417505,-37.7603498682513,6.42024017349919,40.9704699550009,-25.3004151076248,-15.670054847376
0.713211600429645,-48.2447104055714,-40.6285986893142,7.61611171625715,44.4366545474428,-27.9304110609143,-16.5062434865285
0.715359828141783,-49.8411065056663,-43.118885545631,6.7222209600353,46.4799960256487,-28.2816637328508,-18.1983322927979
0.717508055853921,-49.9390203832335,-43.3488392126333,6.59018117060028,46.6439297979334,-28.2646007769169,-18.3793290210165
0.719656283566058,-47.4477957626712,-42.2603728828574,5.18742287981376,44.8540843227643,-26.3176093212425,-18.5364750015218
0.721804511278195,-45.9289099303455,-42.6034565999441,3.32545333040143,44.2661832651448,-24.6271816303735,-19.6390016347713
0.723952738990333,-45.2542334589551,-41.6132126679988,3.64102079095625,43.4337230634769,-24.4476271249557,-18.9860959385213
0.72610096670247,-47.2446980701119,-40.1093986169242,7.13529945318764,43.6770483435181,-27.1899987616498,-16.4870495818683
0.728249194414608,-49.6169292517246,-40.0918668380484,9.52506241367616,44.8543980448865,-29.5709958327004,-15.2834022121861
0.730397422126745,-51.6765609295389,-42.6528812489471,9.02367968059181,47.164721089243,-30.3501203050654,-16.8146007841777
0.732545649838883,-52.1766677626481,-46.1645373207554,6.01213044189266,49.1706025417018,-29.0943991022704,-20.0762034394314
0.73469387755102,-50.034637334561,-47.9253288046734,2.10930852988759,48.9799830696172,-26.0719729322243,-22.9080101373929
0.736842105263158,-46.2426948665672,-45.589739002763,0.652955863804209,45.9162169346651,-23.4478253651857,-22.4683915694794
0.738990332975295,-40.3741976540402,-42.9178613190735,-2.54366366503336,41.6460294865568,-18.9152669945034,-22.7307624920534
0.741138560687433,-34.6349595570436,-39.954009910586,-5.31905035354235,37.2944847338148,-14.6579546017506,-22.6365301320642
0.74328678839957,-30.2960654987558,-37.3807184470172,-7.08465294826139,33.8383919728865,-11.6057062752472,-22.2326856976393
0.745435016111708,-27.172985887356,-33.8584031246327,-6.68541723727667,30.5156945059944,-10.2437843250397,-20.2719101809547
0.747583243823845,-24.4614484327298,-32.0883570072209,-7.62690857449112,28.2749027199753,-8.41726992911933,-19.857632790856
0.749731471535983,-18.8869274496267,-30.5515577766605,-11.6646303270339,24.7192426131436,-3.61114856129642,-21.1080940518472
0.75187969924812,-12.7588680333541,-30.5053874228036,-17.7465193894495,21.6321277280788,2.49382567804769,-24.1259534061265
0.754027926960258,-8.72644836582266,-27.245006206642,-18.5185578408193,17.9857272862323,4.89605473749834,-22.8817820237307
0.756176154672395,-5.86945764514033,-25.0583189805167,-19.1888613353764,15.4638883128285,6.65970184511802,-22.1235901579465
0.758324382384533,-4.03300434623852,-22.5157223147871,-18.4827179685485,13.2743633305128,7.22485681115501,-20.4992201416678
0.76047261009667,-3.72666667971582,-20.308174974025,-16.5815082943092,12.0174208268704,6.42742080729669,-18.4448416341671
0.762620837808808,-7.96910940708973,-19.6796439858785,-11.7105345787887,13.8243766964841,1.8707125858495,-15.6950892823336
0.764769065520945,-10.3643885232391,-20.4220553092746,-10.0576667860355,15.3932219162568,-0.153360868601801,-15.239861047655
0.766917293233083,-11.7999720190283,-21.7106947621399,-9.91072274311153,16.7553333905841,-0.944624637958396,-15.8107087526257
0.76906552094522,-9.82608732610189,-22.1854654484135,-12.3593781223116,16.0057763872577,1.26664539810487,-17.2724217853626
0.771213748657358,-3.60389732941282,-19.3773785435497,-15.7734812141369,11.4906379364813,6.08479194236206,-17.5754298788433
0.773361976369495,1.79836688576717,-15.6512078244206,-17.4495747101878,6.92642046932672,9.62397079797748,-16.5503912673042
0.775510204081633,4.55657364204698,-11.771992285185,-16.328565927232,3.607709321569,10.4425697846395,-14.0502791062085
0.77765843179377,8.8834961299064,-7.11584033848153,-15.9993364683879,-0.883827895712438,12.4414162991472,-11.5575884034347
0.779806659505908,8.77588678205373,-3.07325034114916,-11.8491371232029,-2.85131822045228,10.3125119526283,-7.46119373217603
0.781954887218045,8.68245759885092,-1.49554745493594,-10.1780050537869,-3.59345507195749,9.43023132631889,-5.8367762543614
0.784103114930183,7.31322202217079,-1.41386350292123,-8.72708552509202,-2.94967925962478,8.02015377363141,-5.07047451400662
0.78625134264232,8.700652685179,-1.98700239752329,-10.6876550827023,-3.35682514382786,9.69415388394065,-6.33732874011279
0.788399570354458,11.8374323712844,-0.552439257052965,-12.3898716283374,-5.64249655711572,12.1136519998109,-6.47115544269517
0.790547798066595,15.8489825550127,2.62526204933433,-13.2237205056784,-9.23712230217353,14.5363515303456,-5.29922922817203
0.792696025778733,19.3319128442655,6.02828244133842,-13.3036304029271,-12.680097642802,16.3177716235963,-3.63767398079435
0.79484425349087,22.9999408320595,8.98287162891287,-14.0170692031466,-15.9914062304862,18.508505017603,-2.51709878711686
0.796992481203007,26.1846163802639,13.4802983575039,-12.70431802276,-19.8324573688839,19.4444672015119,0.387990167371937
0.799140708915145,27.6615150253797,16.0969610935606,-11.5645539318191,-21.8792380594702,19.6130344785994,2.26620358087075
0.801288936627283,28.2997371488508,16.4366375258825,-11.8630996229682,-22.3681873373666,20.0814183859095,2.28676895145713
0.80343716433942,28.2097989038014,15.4434353023124,-12.766363601489,-21.8266171030569,20.4880812526452,1.33853585041173
0.805585392051557,28.7757712104486,15.2251707613835,-13.5506004490651,-22.000470985916,21.1631858297569,0.837285156159167
0.807733619763695,30.5552807915021,16.9678448760853,-13.5874359154168,-23.7615628337937,22.0713583534594,1.69020448033427
0.809881847475832,32.7443554300414,20.4130559967471,-12.3312994332942,-26.5787057133942,22.5378274316678,4.04087828172645
0.81203007518797,34.6449659209508,23.4042762521227,-11.2406896688281,-29.0246210865367,22.9428277948894,6.0817932916473
0.814178302900107,34.3629475123538,26.0013300473195,-8.36161746503432,-30.1821387798366,21.3622824886941,8.81985629114258
0.816326530612245,33.4740329425065,27.6120994710099,-5.86193347149657,-30.5430662067582,19.6679832070015,10.8750829997567
0.818474758324382,30.7700776562036,26.434374660628,-4.33570299557563,-28.6022261584158,17.5528903258896,11.0493358325262
0.82062298603652,29.0664936286102,24.7677849242805,-4.29870870432971,-26.9171392764454,16.68260116647,10.2345381099754
0.822771213748657,26.2992805068248,23.3208091651271,-2.97847134169776,-24.810044835976,14.6388759242613,10.1711689117147
0.824919441460795,22.6085974497216,21.420448880753,-1.18814856896859,-22.0145231652373,11.8983730093451,10.1161501558922
0.827067669172932,18.1161342174683,19.7705075633574,1.65437334588902,-18.9433208904128,8.23088043578966,10.7124404546232
0.82921589688507,15.5037809156561,18.9820453738237,3.47826445816765,-17.2429131447399,6.01275822874422,11.2301549159957
0.831364124597207,11.3034921207809,17.6534233832435,6.34993126246251,-14.4784577520122,2.47678042915922,12.001677322853
0.833512352309345,8.30075313783646,17.7879978241545,9.48724468631806,-13.0443754809955,-0.593245774240803,13.6376212552363
0.835660580021482,5.04963950204566,16.616720815139,11.5670813130933,-10.8331801585923,-3.25872090552384,14.0919010641162
0.83780880773362,2.22693963857925,14.3116702373265,12.0847305987472,-8.26930493795287,-4.92889548008399,13.1982004180369
0.839957035445757,-2.80003639875836,9.73413052600744,12.5341669247658,-3.46704706362454,-7.66710166176208,11.1341487253866
0.842105263157895,-8.45270331363105,5.75979367850152,14.2124969921326,1.34645481756477,-11.3326001528818,9.98614533531705
0.844253490870032,-15.292670010258,1.02105498339546,16.3137249936534,7.13580751343126,-15.8031975019557,8.66738998852444
0.84640171858217,-20.5872447416806,-1.16106197574517,19.4261827659354,10.8741533587129,-20.006713753808,9.13256039509513
0.848549946294307,-24.5400707131823,-3.69969061899423,20.8403800941881,14.1198806660883,-22.6902254036852,8.57034473759691
0.850698174006445,-28.6160741293112,-6.54785180856179,22.0682223207494,17.5819629689365,-25.3421482250303,7.7601852560938
0.852846401718582,-32.7990233477349,-9.66475705758425,23.1342662901506,21.2318902026596,-27.9666448189428,6.73475461628319
0.85499462943072,-37.7188846293985,-13.6590517476187,24.0598328817798,25.6889681885086,-30.8893587555892,5.20039056708058
0.857142857142857,-43.2785517786255,-19.7032363256191,23.5753154530064,31.4908940521223,-33.426933615816,1.93603956369369
0.859291084854995,-48.1055967426273,-25.5950106788309,22.5105860637964,36.8503037107291,-35.3080914032119,-1.54221230751725
0.861439312567132,-52.9406194079156,-31.3544585836636,21.5861608242521,42.1475389957896,-37.2633901160839,-4.88414887970575
0.86358754027927,-57.1385095299097,-34.4227813386325,22.7157281912772,45.7806454342711,-39.9271188605934,-5.85352657367764
0.865735767991407,-58.8510479493546,-36.4427185052649,22.4083294440897,47.6468832273098,-40.6296886967222,-7.01719453058763
0.867883995703545,-61.626035502762,-36.2643025630855,25.3617329396766,48.9451690329237,-43.4938842212193,-5.45128481170443
0.870032223415682,-62.7472325709639,-36.7534562741415,25.9937762968225,49.7503444225527,-44.3705044338932,-5.37983998865949
0.87218045112782,-65.0088024655604,-39.7543879636938,25.2544145018666,52.3815952146271,-45.1316084837135,-7.24998673091363
0.874328678839957,-66.9723551886705,-43.6479914484508,23.3243637402197,55.3101733185607,-45.1483594644451,-10.1618138541155
0.876476906552095,-69.9652797692195,-47.672576389566,22.2927033796535,58.8189280793927,-46.1289915744365,-12.6899365049562
0.878625134264232,-72.5638133030453,-52.4549417624384,20.108871540607,62.5093775327419,-46.3363424218262,-16.1730351109157
0.880773361976369,-74.8199264608246,-54.6749365170577,20.1449899437669,64.7474314889411,-47.4824582022957,-17.2649732866454
0.882921589688507,-76.7787415057128,-57.2464516294074,19.5322898763054,67.0125965675601,-48.1555156910091,-18.857080876551
0.885069817400644,-78.4794347386077,-57.5469297421533,20.9325049964544,68.0131822403805,-49.7059698675311,-18.3072123728494
0.887218045112782,-81.2441379986305,-58.4518714984414,22.7922665001891,69.8480047485359,-52.0182022494098,-17.8298024991262
0.889366272824919,-84.28858294244,-60.525683009974,23.7628999324659,72.407132976207,-54.025741437453,-18.3813915387541
0.891514500537057,-87.5759067582575,-64.2583960729036,23.3175106853539,75.9171514155806,-55.4467087218057,-20.4704426937749
0.893662728249194,-91.7181631989761,-69.4314098165239,22.2867533824522,80.57478650775,-57.0024582907141,-23.5723282170358
0.895810955961332,-95.314575997637,-75.8549293837425,19.4596466138945,85.5847526906898,-57.3871113057658,-28.197641384924
0.897959183673469,-97.793014422982,-79.4998161105495,18.2931983124325,88.6464152667658,-58.0431063677073,-30.6033088990585
0.900107411385607,-101.232975915868,-81.3762818506775,19.8566940651901,91.3046288832725,-60.5448349905288,-30.7597938927437
0.902255639097744,-104.219638310378,-84.2935952891652,19.9260430212132,94.2566167997718,-62.0728406657958,-32.183776133976
0.904403866809882,-109.388970803331,-86.8264812990093,22.5624895043218,98.1077260511702,-65.9757301538264,-32.1319958973437
0.906552094522019,-113.233058265807,-89.0255976004067,24.2074606654002,101.129327933107,-68.7202594656036,-32.4090684675032
0.908700322234157,-110.130003272626,-90.9349265193853,19.195076753241,100.532464896006,-64.6625400129337,-35.8699248830722
0.910848549946294,-97.1309079070858,-88.7283007109354,8.40260719615034,92.9296043090106,-52.766757551618,-40.1628467573925
0.912996777658432,-73.6076406706586,-82.304038935586,-8.69639826492738,77.9558398031223,-32.4556212028656,-45.5002186002567
0.915145005370569,-39.658900746597,-68.3535640090252,-28.6946632624282,54.0062323778111,-5.48211874208442,-48.5241136357267
0.917293233082707,1.40932377813183,-48.5126976584677,-49.9220214365995,23.5516869401679,25.6656726073657,-49.2173595475336
0.919441460794844,48.0148076150022,-24.201702071993,-72.2165096869952,-11.9065527715046,60.1156586509987,-48.2091058794941
0.921589688506982,99.4278813596176,3.99037384492406,-95.4375075146935,-51.7091276022708,97.4326944371555,-45.7235668348847
0.923737916219119,154.370968418505,35.5521027934175,-118.818865625087,-94.9615356059611,136.594917021796,-41.6333814158348
0.925886143931257,207.22643126451,68.7513325607898,-138.47509870372,-137.98888191265,172.850764984115,-34.8618830714651
0.928034371643394,255.049070533156,100.796046397568,-154.253024135588,-177.922558465362,204.651047334372,-26.7284888690102
0.930182599355532,292.705552992766,127.974026103823,-164.731526888944,-210.339789548294,228.718539940855,-18.3787503925606
0.932330827067669,314.450869696916,151.570641971566,-162.88022772535,-233.010755834241,238.665548711133,-5.65479287689206
0.934479054779807,323.025765048055,170.125649356459,-152.900115691596,-246.575707202257,237.962940369825,8.61276683243136
0.936627282491944,316.945469387524,183.015285563699,-133.930183823825,-249.980377475612,225.437826605675,24.5425508699373
0.938775510204082,297.497103738638,189.697983896245,-107.799119842393,-243.597543817441,202.648111790515,40.9494320269263
0.940923737916219,266.442238422825,189.059483333636,-77.3827550891889,-227.750860878231,171.912496756007,55.8383641222237
0.943071965628357,226.598431742642,181.420471983938,-45.1779597587037,-204.00945186329,135.888195750673,68.1212561126173
0.945220193340494,187.496608611594,168.347497424594,-19.1491111870006,-177.922053018094,103.322859899298,74.5991931187965
0.947368421052632,150.327112516108,153.132853219891,2.80574070378236,-151.729982868,73.760685906163,77.9692969618366
0.949516648764769,117.411548036476,136.702815736897,19.2912677004212,-127.057181886686,49.0601401680272,77.997041718659
0.951664876476907,90.1215325554527,123.081896702616,32.9603641471632,-106.601714629034,28.5805842041448,78.0211304248895
0.953813104189044,70.2919982910359,112.543985012939,42.2519867219033,-91.4179916519875,14.0200057845663,77.3979858674212
0.955961331901181,54.3636083450807,103.3947010383,49.0310926932192,-78.8791546916903,2.66625782593077,76.2128968657595
0.958109559613319,41.1782325101268,94.8070001119739,53.6287676018471,-67.9926163110503,-6.22526754586016,74.2178838569105
0.960257787325457,34.882824469441,87.3509389133211,52.4681144438801,-61.116881691381,-8.79264498721954,69.9095266786006
0.962406015037594,30.7051084535808,79.5892782439053,48.8841697903245,-55.147193348743,-9.08953066837189,64.2367240171149
0.964554242749731,25.1457317847612,72.8504062861112,47.7046745013501,-48.9980690354362,-11.2794713582944,60.2775403937306
0.966702470461869,17.0986440871075,63.7792506646252,46.6806065775176,-40.4389473758663,-14.7909812452051,55.2299286210714
0.968850698174006,8.17978013440453,53.9712647947552,45.7914846603506,-31.0755224645798,-18.805852262973,49.8813747275529
0.970998925886144,-2.1400412076686,44.8116620655318,46.9517032732004,-21.3358104289316,-24.5458722404345,45.8816826693661
0.973147153598281,-13.6762095233336,36.8590611202571,50.5352706435907,-11.5914257984618,-32.1057400834621,43.6971658819239
0.975295381310419,-22.4040874128946,29.310350952794,51.7144383656886,-3.4531317699497,-37.0592628892916,40.5123946592413
0.977443609022556,-29.3377948426843,22.7563680576797,52.094162900364,3.29071339250228,-40.7159788715242,37.4252654790219
0.979591836734694,-34.7137576719534,15.7779148025489,50.4916724745023,9.46792143470225,-42.6027150732278,33.1347936385256
0.981740064446831,-41.3134828168685,7.14280756914561,48.4562903860141,17.0853376238614,-44.8848866014413,27.7995489775799
0.983888292158969,-48.3316506611315,-0.998471982883741,47.3331786782478,24.6650613220076,-47.8324146696896,23.167353347682
0.986036519871106,-53.7809441786232,-9.35505672115638,44.4258874574668,31.5680004498898,-49.103415818045,17.5354153681552
0.988184747583244,-57.8681009503482,-15.9663979574332,41.901702992915,36.9172494538907,-49.8849019716316,12.9676525177409
0.990332975295381,-58.8404388607013,-17.8421792909368,40.9982595697645,38.3413090758191,-49.9193492152329,11.5780401394138
0.992481203007519,-60.3287064466672,-20.1148395228879,40.2138669237792,40.2217729847776,-50.2712866852232,10.0495137004457
0.994629430719656,-62.2649173493102,-22.7320801472706,39.5328372020396,42.4984987482904,-50.8988772756749,8.40037852738451
0.996777658431794,-64.5900440760283,-26.2925532531491,38.2974908228792,45.4412986645887,-51.4437674494538,6.00246878486507
0.998925886143931,-65.9647194762378,-30.6719648813311,35.2927545949067,48.3183421787844,-50.6287370355722,2.31039485678777
1.00107411385607,-67.8023067430608,-36.406458830302,31.3958479127588,52.1043827866814,-49.5990773279098,-2.50530545877159
1.00322234156821,-70.6858648984106,-41.3852928853817,29.3005720130289,56.0355788918961,-49.9932184557198,-6.04236043617639
1.00537056928034,-74.4775616840842,-45.0639847404402,29.413576943644,59.7707732122622,-51.9455693138641,-7.82520389839807
1.00751879699248,-80.3458455889483,-50.1900958921598,30.1557496967885,65.2679707405541,-55.2507976428684,-10.0171730976856
1.00966702470462,-83.5086625378596,-53.3525984954524,30.1560640424072,68.430630516656,-56.8323632901334,-11.5982672265226
1.01181525241676,-82.3903470400664,-54.1661870364621,28.2241600036043,68.2782670382642,-55.3072535218353,-12.9710135164289
1.01396348012889,-79.4872200112371,-54.8725653796685,24.6146546315685,67.1798926954528,-52.0509373214028,-15.12895537405
1.01611170784103,-76.322592017223,-54.8418021047043,21.4807899125187,65.5821970609637,-48.9016909648708,-16.6805060960928
1.01825993555317,-75.5071581577252,-57.391328592883,18.1158295648422,66.4492433753041,-46.8114938612837,-19.6377495140204
1.02040816326531,-76.0872956363572,-61.5370695441167,14.5502260922405,68.812182590237,-45.3187608642988,-23.4934217259381
1.02255639097744,-77.2350447941503,-64.4924486965392,12.7425960976111,70.8637467453447,-44.9888204458807,-25.874926299464
1.02470461868958,-78.8756089036054,-65.1262073693906,13.7494015342148,72.000908136498,-46.3125052189101,-25.6884029175879
1.02685284640172,-78.3678115873303,-65.6764528297875,12.6913587575429,72.0221322085589,-45.5295851724366,-26.4925470361223
1.02900107411386,-72.7744570948067,-64.2220130252431,8.55244406956361,68.4982350600249,-40.6634505821851,-27.8347844778397
1.03114930182599,-64.6978689831181,-60.3829953043998,4.31487367871836,62.5404321437589,-34.5063713309182,-28.0340608128407
1.03329752953813,-56.3974510050003,-56.4058031171551,-0.00835211215485288,56.4016270610777,-28.1945494464227,-28.207077614655
1.03544575725027,-51.76705214559,-54.8848802793455,-3.11782813375542,53.3259662124677,-24.3246120059173,-29.0013542065504
1.03759398496241,-49.0349396106163,-55.4965532022497,-6.46161359163343,52.265746406433,-21.2866630094914,-30.9790833969416
1.03974221267454,-49.2390857025329,-55.383564263435,-6.14447856090212,52.3113249829839,-21.5473035708154,-30.7640214121686
1.04189044038668,-48.7722715644005,-53.9973464075483,-5.22507484314778,51.3848089859744,-21.7735983606264,-29.611210625348
1.04403866809882,-47.7229126241115,-51.5056786987818,-3.78276607467028,49.6142956614467,-21.9700732747206,-27.6442223867261
1.04618689581096,-44.8796554390519,-49.3423491787332,-4.46269373968128,47.1110023088926,-20.2084808496853,-26.9025214592072
1.04833512352309,-40.4788899974853,-45.5319142953068,-5.05302429782147,43.005402146396,-17.7129328498319,-25.2924692965641
1.05048335123523,-38.5902100459346,-42.2235974444935,-3.63338739855896,40.4069037452141,-17.4784113236878,-22.9284924215262
1.05263157894737,-36.3063509044776,-41.9274682382034,-5.62111733372583,39.1169095713405,-15.3426167853759,-23.7742927859646
1.05477980665951,-33.0353281137087,-41.6703613007647,-8.63503318705607,37.3528447072367,-12.2001474633263,-25.1526972439104
1.05692803437164,-28.2631656518907,-40.803075506197,-12.5399098543064,34.5331205790439,-7.86162789879215,-26.6714926802517
1.05907626208378,-25.4079703379099,-36.8297809003377,-11.4218105624278,31.1188756191238,-6.99307988774104,-24.1257957313827
1.06122448979592,-21.6408988952506,-33.380065080502,-11.7391661852514,27.5104819878763,-4.95086635499958,-22.5596156328767
1.06337271750806,-20.3024082525273,-30.3849337302933,-10.082525477766,25.3436709914103,-5.10994138738061,-20.2337296040297
1.06552094522019,-17.2081195415312,-25.8523072610126,-8.64418771948139,21.5302134012719,-4.28196591102492,-17.248247490247
1.06766917293233,-13.233461107239,-20.6288472624708,-7.39538615523183,16.9311541848549,-2.91903747600358,-14.0121167088513
1.06981740064447,-8.49444320227455,-18.0258828921647,-9.53143968989018,13.2601630472196,0.518498243807812,-13.7786612910275
1.07196562835661,-3.73584787708006,-17.6980997307234,-13.9622518536434,10.7169738039017,5.11320198828165,-15.8301757921834
1.07411385606874,-2.18054987196438,-17.4135100212585,-15.2329601492941,9.79702994661145,6.52620513866489,-16.3232350852763
1.07626208378088,-2.11831840974232,-16.5223629823492,-14.4040445726069,9.32034069604578,6.14286308143229,-15.4632037774781
1.07841031149302,-0.776169490933329,-15.1045873838723,-14.3284178929389,7.94037843740279,6.7761242010028,-14.7165026384056
1.08055853920516,0.389118467065789,-13.229579424513,-13.6186978915788,6.42023047872361,7.0039081793223,-13.4241386580459
1.08270676691729,5.90926413403596,-10.3135316685077,-16.2227958025437,2.20213376723586,11.0660299682898,-13.2681637355257
1.08485499462943,12.6341724998058,-3.91739063311979,-16.5515631329256,-4.358390933343,14.5928678163657,-10.2344768830227
1.08700322234157,17.8288506507996,0.991843327807874,-16.8370073229917,-9.41034698930373,17.3329289868957,-7.92258199759192
1.08915145005371,24.91523879685,3.96604761691723,-20.9491911799328,-14.4406432068836,22.9322149883914,-8.49157178150777
1.09129967776584,31.067821909332,7.19238670299502,-23.875435206337,-19.1301043061635,27.4716285578345,-8.34152425167099
1.09344790547798,35.1215336760322,10.6376356571079,-24.4838980189243,-22.87958466657,29.8027158474782,-6.92313118090821
1.09559613319012,37.9970107408259,14.2729477476831,-23.7240629931428,-26.1349792442545,30.8605368669843,-4.72555762272982
1.09774436090226,39.2054553684324,17.4292185186458,-21.7762368497867,-28.3173369435391,30.4908461091096,-2.17350916557046
1.09989258861439,42.1868348088716,20.8136323726466,-21.373202436225,-31.5002335907591,31.7800186225483,-0.279785031789217
1.10204081632653,43.4872265828296,26.3283028378054,-17.1589237450242,-34.9077647103175,30.3230751639269,4.58468954639061
1.10418904403867,45.9043778960216,29.1841035701847,-16.7202743258369,-37.5442407331031,31.3123261109293,6.23191462217386
1.10633727175081,49.9351873406333,32.307641665323,-17.6275456753102,-41.1214145029782,33.7813665079718,7.34004799500641
1.10848549946294,55.367015973592,33.0874002255421,-22.2796157480499,-44.227208099567,38.8233158608209,5.40389223874612
1.11063372717508,60.727127261129,35.0525244901689,-25.6746027709601,-47.8898258756489,43.2008650160445,4.68896085960438
1.11278195488722,65.3809127311085,38.6908725104175,-26.6900402206909,-52.035892620763,46.0354764758997,6.00041614486331
1.11493018259936,66.8452121440038,41.8497791530336,-24.9954329909702,-54.3474956485187,45.920322567487,8.42717308103172
1.11707841031149,69.404672254082,45.8805405253325,-23.5241317287495,-57.6426063897073,46.4644019914157,11.1782043982915
1.11922663802363,69.694683906077,50.0242094462188,-19.6704744598581,-59.8594466761479,44.6825791829676,15.1768674931803
1.12137486573577,70.5905384139197,54.2659075834553,-16.3246308304644,-62.4282229986875,43.457584622192,18.9706383764955
1.12352309344791,72.6564601443436,56.6605402274371,-15.9959199169065,-64.6585001858903,44.326190030625,20.3323101552653
1.12567132116004,75.0942051234157,57.4515034523536,-17.6427016710621,-66.2728542878846,46.3684533972389,19.9044008906457
1.12781954887218,77.8547765400626,58.7822969057078,-19.0724796343548,-68.3185367228852,48.4636280872087,19.8549086356765
1.12996777658432,78.3193981630359,59.2936667714487,-19.0257313915872,-68.8065324672423,48.6725647773116,20.1339676899307
1.13211600429646,79.3668535056863,61.6698281064723,-17.697025399214,-70.5183408060793,48.5319394524502,21.9864013536292
1.13426423200859,82.208457938675,65.0209900182827,-17.1874679203922,-73.6147239784788,49.6979629295336,23.9167610489453
1.13641245972073,86.6077884186968,71.150849285501,-15.4569391331958,-78.8793188520989,51.0323637759463,27.8469550761526
1.13856068743287,94.2917533850821,75.1848316295759,-19.1069217555062,-84.738292507329,56.6993375702942,28.0389549370348
1.14070891514501,100.96316794984,79.3312970803933,-21.6318708694463,-90.1472325151165,61.297519409643,28.8497131054735
1.14285714285714,105.467342429801,80.9991872873886,-24.4681551424128,-93.233264858595,64.9677487861071,28.2655160724879
1.14500537056928,110.022040697571,83.7354101228242,-26.2866305747471,-96.8787254101977,68.1543356361591,28.7243897740385
1.14715359828142,113.332487033386,85.4670096604042,-27.8654773729822,-99.3997483468953,70.5989822031843,28.800766143711
1.14930182599356,116.20670106185,88.9026055504615,-27.3040955113882,-102.554653306156,71.755398286619,30.7992550195367
1.15145005370569,120.634344025225,92.5295366043693,-28.1048074208559,-106.581940314797,74.3695757230406,32.2123645917567
1.15359828141783,123.190418714658,96.9666487197824,-26.2237699948753,-110.07853371722,74.7070943547665,35.3714393624535
1.15574650912997,122.833432070783,100.175003756004,-22.6584283147782,-111.504217913393,72.7459301927804,38.7582877206131
1.15789473684211,121.235369177805,102.316520524415,-18.9188486533905,-111.77594485111,70.0771089155979,41.6988359355121
1.16004296455424,117.271654224713,102.887722083805,-14.3839321409079,-110.079688154259,65.8277931828104,44.2518949714485
1.16219119226638,115.762432665684,101.451476899441,-14.3109557662431,-108.606954782563,65.0366942159637,43.5702605665991
1.16433941997852,115.096146963111,99.5604331740642,-15.5357137890469,-107.328290068588,65.315930376079,42.0123596925086
1.16648764769066,115.161719692287,99.8507576927475,-15.3109619995393,-107.506238692517,65.236340845913,42.2698978466041
1.16863587540279,111.998356673751,100.102824852205,-11.8955318215453,-106.050590762978,61.9469442476479,44.10364651533
1.17078410311493,110.539962111027,100.321675995627,-10.2182861154006,-105.430819053327,60.379124113214,45.051694940113
1.17293233082707,106.053451780932,101.799806120343,-4.25364566058846,-103.926628950638,55.1535487207601,48.7730802298774
1.17508055853921,99.5819130173684,101.795038458613,2.21312544124504,-100.688475737991,48.6843937880617,52.0040819499292
1.17722878625134,93.9631578366117,99.2146631040491,5.25150526743731,-96.5889104703304,44.3558262845872,52.2330841857432
1.17937701396348,85.8645161988889,93.1099614177156,7.24544521882665,-89.4872388083023,39.3095354900311,50.1777033182711
1.18152524167562,78.833068760878,88.4537625404369,9.62069377955889,-83.6434156506575,34.6061874906596,49.0372281599979
1.18367346938776,70.1519506248925,83.1230138223178,12.9710631974253,-76.6374822236051,28.5904437137336,48.0470385098716
1.18582169709989,63.9029001942218,79.1387806720005,15.2358804777787,-71.5208404331111,24.3335098582216,47.1873305748896
1.18796992481203,58.4773150644795,75.6795677285921,17.2022526641125,-67.0784413965358,20.6375312001835,46.4409101963523
1.19011815252417,54.4107425203024,73.9643087076876,19.5535661873851,-64.187525613995,17.4285881664586,46.7589374475364
1.19226638023631,48.3038044639941,71.1869590586327,22.8831545946386,-59.7453817613134,12.7103249346778,47.0350568266356
1.19441460794844,41.7134869515114,66.8434162225247,25.1299292710134,-54.2784515870181,8.291778840249,45.9866727467691
1.19656283566058,35.3475460411459,61.7841234618379,26.4365774206919,-48.5658347514919,4.45548431022701,44.1103504412649
1.19871106337272,29.820473612577,56.7474573298998,26.9269837173227,-43.2839654712384,1.44674494762715,41.8372205236113
1.20085929108486,24.3776692300017,51.0863772274951,26.7087079974934,-37.7320232287484,-1.16551938374585,38.8975426124942
1.20300751879699,17.7199105419602,46.8153419355802,29.09543139362,-32.2676262387702,-5.6877604258299,37.9553866646001
1.20515574650913,11.2954154811197,42.4630610631989,31.1676455820792,-26.8792382721593,-9.93611505047972,36.8153533226391
1.20730397422127,5.07344585691837,38.68429969079,33.6108538338716,-21.8788727738542,-14.2687039884766,36.1475767623308
1.2094522019334,-0.328627025241421,34.7594236036737,35.0880506289151,-17.2153982892161,-17.7083388270783,34.9237371162944
1.21160042964554,-6.95102158469752,30.0636280035311,37.0146495882286,-11.5563032094168,-21.9828355864631,33.5391387958799
1.21374865735768,-12.7007536189795,24.6985003996692,37.3992540186488,-5.99887339034484,-25.0500038188141,31.048877209159
1.21589688506982,-17.6928177687731,19.3963006485522,37.0891184173254,-0.851741439889562,-27.3909680930492,28.2427095329388
1.21804511278195,-23.3151732915373,12.2165595041181,35.5317327956553,5.5493068937096,-29.4234530435963,23.8741461498867
1.22019334049409,-30.7728818508805,7.27104290948716,38.0439247603677,11.7509194706967,-34.4084033056241,22.6574838349274
1.22234156820623,-35.3156778647491,2.9772191369939,38.292897001743,16.1692293638776,-36.804287433246,20.6350580693684
1.22448979591837,-39.2598493470797,0.537329685651536,39.7971790327313,19.3612598307141,-39.5285141899055,20.1672543591914
1.2266380236305,-43.3283387147507,-3.51322159103447,39.8151171237163,23.4207801528926,-41.5717279192335,18.1509477663409
1.22878625134264,-47.5047640444605,-7.03001362493832,40.4747504195222,27.2673888346994,-43.9897572319914,16.7223683972919
1.23093447905478,-51.7749021321484,-12.6596182056644,39.115283926484,32.2172601689064,-45.4450930293162,13.2278328604098
1.23308270676692,-55.4823450416816,-19.4795615949758,36.0027834467058,37.4809533183287,-45.7425642441937,8.26161092586499
1.23523093447905,-59.3453006184824,-24.7567515797678,34.5885490387145,42.0510260991251,-46.9669248285985,4.91589872947335
1.23737916219119,-63.9873352506633,-29.3385426576227,34.6487925930406,46.662938954143,-49.3180639218519,2.65512496770891
1.23952738990333,-68.6617272223266,-33.3165706500977,35.345156572229,50.9891489362122,-52.0034418972778,1.01429296106566
1.24167561761547,-72.7201536750191,-36.7703961170421,35.949757557977,54.7452748960306,-54.3349556164981,-0.41031927953253
1.2438238453276,-74.3116061760999,-38.4809775933318,35.8306285827681,56.3962918847158,-55.071117379434,-1.32517450528182
1.24597207303974,-72.4730509330923,-39.9661481042655,32.5069028288268,56.2195995186789,-52.4899768809595,-3.72962263771937
1.24812030075188,-68.9445933688739,-40.6115520728304,28.3330412960435,54.7780727208521,-48.6388173324587,-6.13925538839347
1.25026852846402,-67.169214400283,-42.4600262507474,24.7091881495356,54.8146203255152,-45.9392012749093,-8.87541905060589
1.25241675617615,-64.9837260649433,-45.353036700265,19.6306893646783,55.1683813826041,-42.3072077148108,-12.8611736677933
1.25456498388829,-63.0862292940344,-46.5767042601373,16.5095250338971,54.8314667770859,-39.7978771639658,-15.0335896131201
1.25671321160043,-60.7947151649066,-46.9950646901033,13.7996504748033,53.894889927505,-37.297182819855,-16.59770710765
1.25886143931257,-56.8729871311692,-44.7820599477225,12.0909271834467,50.8275235394459,-34.4819571573079,-16.3455663821379
1.2610096670247,-53.4680427258069,-42.8606727296934,10.6073699961135,48.1643577277501,-32.0377063609602,-16.12665136679
1.26315789473684,-49.8677240734808,-39.9043573171921,9.96336675628869,44.8860406953365,-29.9155454148848,-14.9704952804517
1.26530612244898,-45.4537175245679,-37.3376087977418,8.11610872682616,41.3956631611549,-26.784913125697,-14.6107500354578
1.26745435016112,-42.9094823183261,-36.3972101754164,6.51227214290964,39.6533462468712,-24.7108772306178,-14.9424690162534
1.26960257787325,-43.9208072910152,-37.5129090436912,6.40789824732393,40.7168581673532,-25.1643527691696,-15.5525053981837
1.27175080558539,-46.0869834271197,-39.7697052607354,6.31727816638433,42.9283443439275,-26.202130796752,-16.7262135471755
1.27389903329753,-47.3236538663572,-39.796936393422,7.52671747293515,43.5602951298896,-27.4251856696462,-16.1351094602434
1.27604726100967,-48.3973627153988,-39.8205791580644,8.57678355733443,44.1089709367316,-28.4870731363666,-15.621897800365
1.2781954887218,-49.3295841512255,-40.4851653971869,8.84441875403857,44.9073747742062,-29.087001452632,-15.8203733215742
1.28034371643394,-52.0711395642484,-40.418117150454,11.6530224137944,46.2446283573512,-31.8620809890214,-14.3825473683298
1.28249194414608,-53.1633099946054,-41.003963138049,12.1593468565564,47.0836365663272,-32.6613284255809,-14.4223081407463
1.28464017185822,-52.8234422722134,-41.5126095818373,11.3108326903761,47.1680259270253,-32.0671374812948,-15.1008884457306
1.28678839957035,-52.5283604383977,-43.2423473851578,9.28601305323988,47.8853539117778,-30.9071867458188,-16.978167165959
1.28893662728249,-51.6281038692504,-44.1000909210725,7.5280129481779,47.8640973951614,-29.5780584087141,-18.2860389864473
1.29108485499463,-50.2024191440434,-45.4888647454175,4.71355439862585,47.8456419447305,-27.4579867713346,-20.3876551733958
1.29323308270677,-48.9646032661591,-45.4065156623303,3.5580876038288,47.1855594642447,-26.261345434994,-20.9242140292508
1.2953813104189,-47.8898999180399,-44.0469001114589,3.84299980658096,45.9684000147494,-25.8664498623104,-20.101950152439
1.29752953813104,-47.6008740199548,-42.8664471775589,4.73442684239591,45.2336605987569,-26.1676504311754,-19.0660101675815
1.29967776584318,-47.9939933432874,-40.5534298274892,7.44056351579815,44.2737115853883,-27.7172784295428,-16.5564331558455
1.30182599355532,-47.6912505893861,-40.4773860717161,7.21386451766997,44.0843183305511,-27.452557553528,-16.6317607770231
1.30397422126745,-48.072460588291,-40.4113629414646,7.66109764682637,44.2419117648778,-27.8667791175587,-16.3751326473191
1.30612244897959,-46.471259880399,-41.6421579485928,4.82910193180616,44.0567089144959,-25.6501809061026,-18.4065280083933
1.30827067669173,-45.7251155324433,-42.0667066102387,3.65840892220456,43.895911071341,-24.6917622273239,-19.2041488440171
1.31041890440387,-44.4332349723468,-41.1471926230586,3.28604234928811,42.7902137977027,-23.8596386608174,-18.9305751368853
1.312567132116,-42.6675322995624,-37.7726111541557,4.89492114540667,40.220071726859,-23.7812267224845,-16.4388450043745
1.31471535982814,-39.8463861840578,-35.4867723529294,4.35961383112841,37.6665792684936,-22.1030000075931,-15.5635792609005
1.31686358754028,-38.6851130737592,-32.8580897582372,5.82702331552197,35.7716014159982,-22.2560681946406,-13.5155332213576
1.31901181525242,-36.3887481362243,-31.8639183905349,4.52482974568946,34.1263332633796,-20.4567889409569,-13.6695443224227
1.32116004296455,-39.547457366328,-31.6448124139269,7.90264495240118,35.5961348901274,-23.7250511593646,-11.8710837307628
1.32330827067669,-42.2899293655804,-35.3189329343839,6.97099643119647,38.8044311499822,-24.6304628983884,-14.1739682515937
1.32545649838883,-44.6710135739665,-36.5767212133016,8.09429236066494,40.623867393634,-26.3826529673157,-14.2412144263183
1.32760472610097,-42.2299187650331,-36.3806471354544,5.84927162957862,39.3052829502438,-24.0395951973058,-15.2656877529379
1.3297529538131,-36.2461440044176,-32.9901156789008,3.25602832551674,34.6181298416592,-19.7510861649672,-14.867043676692
1.33190118152524,-27.8305830480689,-29.4023107167106,-1.5717276686417,28.6164468823897,-13.1294276897136,-15.4870191926761
1.33404940923738,-20.5239781662925,-24.9991688730632,-4.47519070677073,22.7615735196779,-8.02439372976088,-14.737179789917
1.33619763694952,-16.7564332103792,-20.5321897196273,-3.77575650924812,18.6443114650032,-6.49033835056554,-12.1539731144377
1.33834586466165,-14.1294134768962,-19.2300803201469,-5.10066684325061,16.6797468985216,-4.51437331682282,-12.1653735816987
1.34049409237379,-13.7807448349822,-19.3876736695494,-5.60692883456718,16.5842092522658,-4.08690800020751,-12.4973012520583
1.34264232008593,-13.4780218181393,-20.8126182135131,-7.3345963953738,17.1453200158262,-3.07171271138273,-14.0736073044434
1.34479054779807,-14.5033079404937,-22.0497914471442,-7.54648350665047,18.2765496938189,-3.47841221692162,-14.7981374768973
1.3469387755102,-15.3934875287196,-20.5477008861891,-5.15421335746946,17.9705942074544,-5.11963708562508,-12.8509571218293
1.34908700322234,-14.8782462001184,-19.2435475109747,-4.36530131085629,17.0608968555465,-5.25647244463105,-11.8044244109155
1.35123523093448,-16.3630774855857,-18.1112482539967,-1.748170768411,17.2371628697912,-7.30745335858734,-9.92970951120384
1.35338345864662,-17.6522459171713,-17.7722161173471,-0.119970200175747,17.7122310172592,-8.7661378584978,-8.94609315876142
1.35553168635875,-17.483416889044,-16.1897417859433,1.29367510310068,16.8365793374936,-9.38854599607232,-7.44803334142131
1.35767991407089,-14.7605992674877,-16.7479741306249,-1.98737486313716,15.7542866990563,-6.38661220217529,-9.36767449688103
1.35982814178303,-8.53222556822814,-15.9445277301629,-7.41230216193477,12.2383766491955,-0.559961703146686,-11.6784149460488
1.36197636949517,0.739761418790382,-13.3147780906264,-14.0545395094168,6.28750833591801,7.39715046410358,-13.6846588000216
1.3641245972073,10.7221142076839,-9.74344433842101,-20.4655585461049,-0.489334934631443,15.5938363768944,-15.104501442263
1.36627282491944,18.7449887733392,-4.71054423258094,-23.4555330059201,-7.01722227037913,21.1002608896297,-14.0830386192505
1.36842105263158,25.7106533049559,0.303207122582675,-25.4074461823732,-13.0069302137693,25.5590497436646,-12.5521195298953
1.37056928034372,27.894067169777,5.30033304351817,-22.5937341262588,-16.5972001066476,25.2439006480179,-8.64670054137031
1.37271750805585,27.8575858707231,8.35084737629462,-19.5067384944285,-18.1042166235088,23.6821621825758,-5.57794555906692
1.37486573576799,26.5377939010096,9.71126382887743,-16.8265300721322,-18.1245288649435,21.6821619865709,-3.55763312162736
1.37701396348013,23.4597398553205,7.67211718993343,-15.7876226653871,-15.565928522627,19.6236812603538,-4.05775273772682
1.37916219119227,22.7194717080962,5.25761902888469,-17.4618526792116,-13.9885453684905,20.0906621936539,-6.10211682516343
1.3813104189044,22.7208109899644,5.73752602932299,-16.9832849606414,-14.2291685096437,19.8520479753029,-5.6228794656592
1.38345864661654,20.1457378397496,6.1541935397111,-13.9915443000385,-13.1499656897303,17.068641069894,-3.91867538016368
1.38560687432868,16.6218756115303,5.22783693579364,-11.3940386757367,-10.924856273662,14.0079571436335,-3.08310086997151
1.38775510204082,14.2064274437468,5.06760946849683,-9.13881797524998,-9.63701845612182,11.6726227094984,-2.03560425337658
1.38990332975295,10.8211557006938,4.92849589058824,-5.89265981010556,-7.87482579564102,8.35690775539968,-0.482081959758659
1.39205155746509,8.52603533051476,3.51959595604656,-5.00643937446819,-6.02281564328066,6.76623735249148,-0.743421709210815
1.39419978517723,7.82147120238274,-0.923941874203854,-8.74541307658659,-3.44876466408944,8.28344213948467,-4.83467747539522
1.39634801288937,5.92163266349897,-4.13787588010395,-10.0595085436029,-0.891878391697511,7.99057060355095,-7.09869221185344
1.3984962406015,4.91620332609035,-5.6401774651951,-10.5563807912854,0.361987069552376,7.73629205868789,-8.09827912824027
1.40064446831364,3.39920491829062,-6.30045506972056,-9.69965998801118,1.45062507571497,6.5494324531509,-8.00005752886587
1.40279269602578,0.149931208135617,-8.16184291812047,-8.31177412625609,4.00595585499243,4.23085266719585,-8.23680852218828
1.40494092373792,-1.38305321045514,-9.77794737158983,-8.39489416113469,5.58050029102249,3.50592047533978,-9.08642076636226
1.40708915145005,-4.64620638332116,-11.181090519198,-6.53488413587687,7.91364845125959,0.944338876277854,-8.85798732753745
1.40923737916219,-6.19124130579713,-13.0433942111288,-6.85215290533166,9.61731775846296,0.330455799767265,-9.94777355823022
1.41138560687433,-8.8207980465687,-15.9484117977974,-7.12761375122865,12.384604922183,-0.846592147670023,-11.538012774513
1.41353383458647,-13.6800822936046,-20.4027991968588,-6.72271690325423,17.0414407452317,-3.47868269517517,-13.5627580500565
1.4156820622986,-19.8312139019941,-25.558330037098,-5.72711613510384,22.694771969546,-7.05204888344514,-15.6427230861009
1.41783029001074,-27.1039603719404,-28.7463755650835,-1.64241519314314,27.9251679685119,-12.7307725893986,-15.1943953791133
1.41997851772288,-32.1302265647196,-31.5143180871481,0.615908477571427,31.8222723259339,-16.3730675211455,-15.4492048047884
1.42212674543502,-35.2060412254972,-34.5615754409647,0.644465784532478,34.883808333231,-17.9252535050148,-16.9585548282161
1.42427497314715,-38.5206010304934,-37.8513410629546,0.669259967538729,38.185971046724,-19.5949304990161,-18.591040547708
1.42642320085929,-45.9067993885425,-40.0635405804396,5.84325880810284,42.9851699844911,-25.8750290983227,-17.1101408861684
1.42857142857143,-51.6756263943684,-45.2045236178137,6.47110277655467,48.4400750060911,-29.0733645854615,-19.3667104206295
1.43071965628357,-54.1080333370479,-50.3121153336235,3.79591800342445,52.2100743353357,-28.9519756702362,-23.2580986650995
1.4328678839957,-56.8639701342122,-54.7466568642986,2.11731326991365,55.8053134992554,-29.4906417020629,-26.3146717971925
1.43501611170784,-61.1889217856127,-57.3087210659894,3.88020071962337,59.248821425801,-32.5345612526181,-26.714260173183
1.43716433941998,-64.2998962433864,-60.1772296057342,4.12266663765217,62.2385629245603,-34.2112814405193,-28.027281484041
1.43931256713212,-68.2890416690384,-63.3118009436732,4.97724072536521,65.8004213063558,-36.6331411972018,-29.167280109154
1.44146079484425,-72.3965785625402,-65.3892568214469,7.00732174109336,68.8929176919935,-39.7019501518168,-29.1909675401768
1.44360902255639,-77.2509649383386,-67.8370160417289,9.41394889660975,72.5439904900337,-43.3324569174742,-29.2115335725596
1.44575725026853,-80.1775491537134,-71.894400052733,8.28314910098038,76.0359746032232,-44.2303491273469,-31.8056254758763
1.44790547798067,-85.9387792249028,-78.6374193771777,7.30135984772512,82.2880993010403,-46.620069536314,-35.6680297647263
1.4500537056928,-90.9408262638983,-85.1359398993509,5.80488636454736,88.0383830816246,-48.3728563142228,-39.6655267674018
1.45220193340494,-95.2837312114796,-88.8459443701149,6.43778684136478,92.0648377907973,-50.8607590264222,-41.204078764375
1.45435016111708,-98.410293179367,-92.0670649725443,6.34322820682264,95.2386790759556,-52.3767606930948,-42.8619183828608
1.45649838882922,-97.9045591686466,-93.5756061442248,4.32895302442186,95.7400826564357,-51.1167560965343,-44.6233265599015
1.45864661654135,-97.4654679885368,-94.2413011171313,3.22416687140553,95.8533845528341,-50.3448174299712,-45.5085671228629
1.46079484425349,-100.948591738825,-96.7514514503032,4.19714028852148,98.8500215945639,-52.5728660136731,-46.2771555808908
1.46294307196563,-105.904905668892,-100.863005018439,5.04190065045248,103.383955343665,-55.473403159672,-47.9105521839933
1.46509129967777,-109.564044976448,-105.076819786474,4.48722518997408,107.320432381461,-57.025635083211,-50.2947972982499
1.4672395273899,-110.808826183837,-109.379420339113,1.42940584472348,110.094123261475,-56.1191160142801,-53.9750072471948
1.46938775510204,-109.313341059939,-110.538812040597,-1.22547098065834,109.926076550268,-54.0439350396401,-55.8821415106277
1.47153598281418,-106.726804719359,-110.257307542038,-3.53050282267897,108.492056130698,-51.59815094834,-56.8939051823584
1.47368421052632,-103.192989856596,-109.368839162006,-6.17584930541044,106.280914509301,-48.5085702755926,-57.7723442337083
1.47583243823845,-97.5486056212405,-107.953389243556,-10.4047836223156,102.750997432398,-43.5719109994625,-59.1790864329358
1.47798066595059,-93.2920661073638,-104.79228252451,-11.5002164171467,99.0421743159371,-40.8959248451085,-58.1462494708286
1.48012889366273,-83.7998989417174,-99.4714930152217,-15.6715940735043,91.6356959784696,-34.0641524341066,-57.571543544363
1.48227712137487,-67.1857902279567,-91.6315527808922,-24.4457625529355,79.4086715044244,-21.3700138375106,-58.0386576669138
1.484425349087,-43.1001120558573,-82.2484805573415,-39.1483685014842,62.6742963065994,-1.97587177718657,-60.6984245294128
1.48657357679914,-11.2393085473383,-69.5934447810238,-58.3541362336854,40.4163766641811,23.5574138431735,-63.9737905073546
1.48872180451128,25.439880324942,-50.8773117748393,-76.3171920997814,12.7187157249486,50.8785362123617,-63.5972519373103
1.49087003222342,71.4549862871129,-25.6106614320606,-97.0656477191735,-22.9221624275262,84.2603170031432,-61.338154575617
1.49301825993555,122.355478887851,4.05519733053582,-118.300281557315,-63.2053381091935,120.327880222583,-57.1225421133898
1.49516648764769,174.921352949111,36.2524431858794,-138.668909763232,-105.586898067495,156.795131356172,-51.2082332886764
1.49731471535983,223.136622828521,70.0034449572961,-153.133177871225,-146.570033892908,188.134900349873,-41.5648664569643
1.49946294307197,261.778056195963,99.3069263992357,-162.471129796728,-180.542491297599,212.124592996345,-31.5821016987459
1.5016111707841,288.886945335905,121.528662204379,-167.358283131526,-205.207803770142,228.122614233715,-22.9148104635731
1.50375939849624,301.474572227073,137.601845642104,-163.872726584968,-219.538208934588,232.67364940602,-13.135440471432
1.50590762620838,296.946055577803,149.624816908903,-147.3212386689,-223.285436243353,222.133647123351,1.15178912000169
1.50805585392052,278.20092509806,153.622877651456,-124.578047446605,-215.911901374758,201.389486272333,14.5224151024254
1.51020408163265,249.68880347224,153.87380112732,-95.8150023449202,-201.78130229978,172.75190290858,29.0293993911998
1.51235230934479,215.917025706427,147.65106942313,-68.265956283297,-181.784047564779,142.091490994862,39.6925565699166
1.51450053705693,179.510857156169,139.02803994751,-40.4828172086593,-159.26944855184,109.996837182414,49.2726113694253
1.51664876476907,139.529325293202,125.100715728063,-14.4286095651387,-132.315020510633,76.9789674291705,55.3360530814623
1.5187969924812,101.596043616633,105.92400839972,4.32796478308633,-103.760026008177,48.6340394167735,55.125986591403
1.52094522019334,69.9495179568272,89.2743014926633,19.3247835358361,-79.6119097247452,25.3123672104955,54.2995425142497
1.52309344790548,46.3375503282038,75.4626598559847,29.1251095277809,-60.9001050920943,8.60622040021143,52.2938846918828
1.52524167561762,29.7013911142611,63.4710399590638,33.7696488448027,-46.5862155366625,-2.03412886527077,48.6203444019333
1.52738990332975,17.8336888923276,54.3477273784254,36.5140384860978,-36.0907081353765,-9.34017479688507,45.4308829322616
1.52953813104189,12.6823187242711,47.0706934539152,34.3883747296441,-29.8765060890931,-10.8530280026865,40.7295340917796
1.53168635875403,8.20976762363837,42.0407047836196,33.8309371599812,-25.125236203629,-12.8105847681714,37.9358209718004
1.53383458646617,3.68252558118526,35.0973042494335,31.4147786682483,-19.3899149153094,-13.8661265435315,33.2560414588409
1.5359828141783,-1.53625952051392,27.7807486577561,29.31700817827,-13.1222445686211,-15.426633849392,28.548878418013
1.53813104189044,-9.93169591110956,16.9199153819057,26.8516112930153,-3.49410973539809,-18.3916536020624,21.8857633374605
1.54027926960258,-19.7970640800208,7.49026264157104,27.2873267215919,6.15340071922489,-23.5421954008063,17.3887946815814
1.54242749731472,-28.3624285990799,-0.696802618054726,27.6656259810252,14.5296156085673,-28.0140272900525,13.4844116814852
1.54457572502685,-35.1550377714364,-7.80502170216407,27.3500160692724,21.4800297368003,-31.2525269203544,9.77249718355415
1.54672395273899,-43.6287904273503,-14.6206179796707,29.0081724476796,29.1247042035105,-36.318481437515,7.19377723400442
1.54887218045113,-49.6978008539307,-18.6059157165437,31.091885137387,34.1518582852372,-40.3948429956589,6.24298471042167
1.55102040816327,-55.6111296427137,-23.354170935643,32.2569587070708,39.4826502891784,-43.9340441748922,4.45139388571389
1.5531686358754,-60.7452326715886,-30.0529632945039,30.6922693770847,45.3990979830462,-45.7187510243367,0.319653041290415
1.55531686358754,-65.2027920011328,-37.8012028104523,27.4015891906805,51.5019974057925,-46.3021905959066,-5.19980680988591
1.55746509129968,-69.7170178051687,-44.5284221801477,25.188595625021,57.1227199926582,-47.4528067150949,-9.66991327756332
1.55961331901182,-72.9923249146591,-49.7251068037524,23.2672181109067,61.3587158592057,-48.1297715127829,-13.2289443464228
1.56176154672395,-74.5479121952171,-52.9488830971619,21.5990290980552,63.7483976461895,-48.0734706466361,-15.6749269995534
1.56390977443609,-75.2544538009952,-55.7478479820173,19.5066058189779,65.5011508915063,-47.3805298099865,-18.1206210815197
1.56605800214823,-75.8678912619956,-56.2458037943212,19.6220874676744,66.0568475281584,-47.744989364835,-18.3118581633234
1.56820622986037,-77.6886113019014,-57.3222007312106,20.3664105706908,67.505406016556,-49.0275109362961,-18.4778950802599
1.5703544575725,-79.2694069257378,-60.1889329952315,19.0804739305063,69.7291699604847,-49.174940428122,-20.5542295323626
1.57250268528464,-83.2181299949076,-65.8981980741627,17.3199319207449,74.5581640345351,-50.2690309578263,-24.2891330767089
1.57465091299678,-90.5108661026377,-71.4991867673818,19.0116793352559,81.0050264350098,-54.7612727189468,-26.2437537160629
1.57679914070892,-94.2663698348374,-76.3621081508667,17.9042616839707,85.3142389928521,-56.0853157594041,-29.228923233448
1.57894736842105,-96.2388760832336,-79.296102677824,16.9427734054096,87.7674893805288,-56.5908247443216,-31.1766646362072
1.58109559613319,-91.5108664962516,-79.9112946728712,11.5995718233804,85.7110805845614,-51.555219159816,-34.1558614247454
1.58324382384533,-85.473710899322,-77.8691841206424,7.60452677867963,81.6714475099822,-46.5391188390008,-35.1323286709814
1.58539205155747,-80.8761572613973,-75.4521126144075,5.42404464698987,78.1641349379024,-43.1501009541936,-35.0140339837088
1.5875402792696,-76.8844438118326,-73.9976084091598,2.88683540267277,75.4410261104962,-39.8856396072527,-35.5553865032435
1.58968850698174,-72.7746772944049,-74.0228886973711,-1.24821140296621,73.398782995888,-35.7632329457193,-37.6355500501687
1.59183673469388,-68.5624140894207,-74.6888966762641,-6.12648258684345,71.6256553828424,-31.2179657512886,-40.4076896315538
1.59398496240601,-65.5492786178982,-74.6230828202986,-9.0738042024004,70.0861807190984,-28.2377372077489,-41.8484435113495
1.59613319011815,-62.9331974725207,-74.5659415502419,-11.6327440777212,68.7495695113813,-25.6502266973998,-43.0993428139815
1.59828141783029,-61.305908017612,-72.584153078998,-11.278245061386,66.945030548305,-25.013831478113,-41.931199070192
1.60042964554243,-55.3846408555666,-68.9313367691069,-13.5466959135403,62.1579888123368,-20.9189724710132,-41.2390163413236
1.60257787325457,-49.5995865411176,-63.8276914263357,-14.2281048852181,56.7136389837266,-17.6857408279497,-39.0278981557769
1.6047261009667,-45.2209136730938,-60.0406352247199,-14.819721551626,52.6307744489068,-15.2005960607339,-37.4301783881729
1.60687432867884,-41.4192380962485,-57.3966753295722,-15.9774372333237,49.4079567129104,-12.7209004314624,-36.687056281448
1.60902255639098,-37.4744673118132,-57.0332988067981,-19.5588314949849,47.2538830593056,-8.95781790841414,-38.2960651508915
1.61117078410311,-33.405457614754,-56.0737470450508,-22.6682894302968,44.7396023299024,-5.36858409222858,-39.3710182376738
1.61331901181525,-29.8726395090162,-53.9525217325188,-24.0798822235025,41.9125806207675,-2.89637864275685,-39.0162019780106
1.61546723952739,-28.0934746069484,-52.1108197587244,-24.0173451517761,40.1021471828364,-2.03806472758615,-38.0640824552502
1.61761546723953,-27.8368761891991,-49.2236891097287,-21.3868129205296,38.5302826494639,-3.22503163433475,-35.3052510151292
1.61976369495166,-26.970031904409,-46.7170085683248,-19.7469766639159,36.8435202363669,-3.61152762024656,-33.2319926161203
1.6219119226638,-25.573356577537,-44.5406445236845,-18.9672879461475,35.0570005506108,-3.30303431569473,-31.753966234916
1.62406015037594,-25.0047863871639,-43.9391876693783,-18.9344012822144,34.4719870282711,-3.03519255247475,-31.4367944757963
1.62620837808808,-25.1551982188272,-43.4169874725468,-18.2617892537196,34.286092845687,-3.44670448255378,-30.8393883631332
1.62835660580021,-25.9298485985053,-43.6076589164852,-17.6778103179799,34.7687537574952,-4.12601914026267,-30.6427346172326
1.63050483351235,-26.6024198359052,-43.7732047321856,-17.1707848962805,35.1878122840454,-4.71581746981236,-30.471994814233
1.63265306122449,-26.5423043685433,-43.2728768487306,-16.7305724801872,34.907590608637,-4.90586594417805,-30.0017246644589
1.63480128893663,-27.1341695721906,-40.2622434574111,-13.1280738852206,33.6982065148009,-7.00304784348501,-26.6951586713158
1.63694951664876,-25.0718061041071,-36.3602167074839,-11.2884106033767,30.7160114057955,-6.89169775036518,-23.8243136554303
1.6390977443609,-22.6371504992457,-33.6164364469547,-10.979285947709,28.1267934731002,-5.82893227576831,-22.2978611973319
1.64124597207304,-19.879261356164,-31.2342163727266,-11.3549550165627,25.5567388644453,-4.26215316980066,-21.2945856946447
1.64339419978518,-13.6204376664975,-28.5218530960835,-14.901415429586,21.0711453812905,0.640488881544233,-21.7116342628348
1.64554242749731,-8.83042613100355,-25.5228510621474,-16.6924249311439,17.1766385965755,3.93099940007016,-21.1076379966456
1.64769065520945,-4.02755683385409,-23.5630999153577,-19.5355430815036,13.7953283746059,7.75399312382475,-21.5493214984306
1.64983888292159,1.43053488747045,-19.9294169731973,-21.3599518606678,9.24944104286343,11.3952433740691,-20.6446844169325
1.65198711063373,5.52533048439201,-15.4864426960195,-21.0117731804115,4.98055610581373,13.2685518324018,-18.2491079382155
1.65413533834586,8.43647757950396,-10.9848800068221,-19.421357586326,1.27420121365906,13.928917582915,-15.203118796574
1.656283566058,12.8961867742897,-7.72056733693919,-20.6167541112289,-2.58780971867526,16.7564704427593,-14.168660724084
1.65843179377014,16.1241611717539,-3.59828976062356,-19.7224509323775,-6.26293570556519,17.9233060520657,-11.6603703465005
1.66058002148228,18.9267709577324,-1.307341096585,-20.2341120543174,-8.8097149305737,19.5804415060249,-10.7707265754512
1.66272824919441,23.2922452896394,-0.606398950232858,-23.8986442398723,-11.3429231697033,23.5954447647558,-12.2525215950526
1.66487647690655,27.7265205476851,0.646235904364467,-27.0802846433206,-14.1863782260248,27.4034025955029,-13.2170243694781
1.66702470461869,31.5764715391439,3.66598242810712,-27.9104891110368,-17.6212269836255,29.7434803250904,-12.1222533414648
1.66917293233083,35.5631562710766,6.93186244504201,-28.6312938260346,-21.2475093580593,32.0972250485556,-10.8497156904963
1.67132116004296,37.7363797657722,11.699559819316,-26.0368199464562,-24.7179697925441,31.8865998561142,-7.16863006357006
1.6734693877551,38.3351099144344,13.9068194430605,-24.428290471374,-26.1209646787475,31.3817001929042,-5.26073551415675
1.67561761546724,37.5668247413465,15.1791596151782,-22.3876651261683,-26.3729921782623,29.9772449337574,-3.60425275549509
1.67776584317938,38.1878979132827,17.5719558114611,-20.6159421018217,-27.8799268623719,29.4019200075522,-1.5219931451803
1.67991407089151,41.3033654468351,20.2935015472934,-21.0098638995417,-30.7984334970643,31.1566146731884,-0.358181176124127
1.68206229860365,47.2285888372865,23.3004760267369,-23.9281128105495,-35.2645324320117,35.578350823918,-0.313818391906302
1.68421052631579,55.5933139991712,26.5552670287255,-29.0380469704457,-41.0742905139484,42.3156804848084,-1.24138997086007
1.68635875402793,64.7879589079892,31.9573956243388,-32.8305632836504,-48.372677266164,48.8092610958198,-0.436583829655842
1.68850698174006,72.1269253810257,37.935779568406,-34.1911458126197,-55.0313524747159,53.1590355968227,1.87231687789313
1.6906552094522,77.8547444583964,44.4144831184987,-33.4402613398977,-61.1346137884476,55.6475028991471,5.48711088930049
1.69280343716434,83.4718422067668,51.3275769243089,-32.1442652824579,-67.3997095655379,57.8080537446124,9.59165582092547
1.69495166487648,90.2809268449125,57.9737604534113,-32.3071663915012,-74.1273436491619,61.2940466182069,12.833297030955
1.69709989258861,94.9046299974738,63.1000876912699,-31.8045423062038,-79.0023588443719,63.3545861518388,15.647772692533
1.69924812030075,96.9868701615801,66.2627779060653,-30.7240922555148,-81.6248240338227,63.8554812085475,17.7693428252753
1.70139634801289,99.4387832214047,67.0765293361717,-32.3622538852331,-83.2576562787882,65.9005185533189,17.3571377254693
1.70354457572503,101.567596740258,69.7152260655453,-31.8523706747124,-85.6414114029015,66.709983707485,18.9314276954165
1.70569280343716,100.83965103959,73.2943279095774,-27.5453231300123,-87.0669894745835,64.192487084801,22.8745023897825
1.7078410311493,102.139806958628,77.045854496607,-25.0939524620211,-89.5928307276176,63.6168797103246,25.975951017293
1.70998925886144,104.556753496557,81.5911436349515,-22.9656098616058,-93.0739485657544,63.7611816790816,29.3127668866728
1.71213748657358,107.299267175595,85.5374797116047,-21.7617874639899,-96.4183734435996,64.5305273197922,31.8878461238074
1.71428571428571,109.036328584202,87.6756714736365,-21.3606571105659,-98.3560000289194,65.1984928473841,33.1575071815353
1.71643394199785,109.900430661208,87.5999271903659,-22.3005034708421,-98.7501789257869,66.100467066025,32.6497118597619
1.71858216970999,109.362548171575,86.2460460953238,-23.1165020762509,-97.8042971334493,66.2395251239128,31.5647720095365
1.72073039742213,108.251485874052,87.0027489240772,-21.2487369499743,-97.6271173990644,64.7501114120129,32.8770059870514
1.72287862513426,107.930892207806,87.6597376395415,-20.2711545682644,-97.7953149236737,64.1010233880351,33.6942915356386
1.7250268528464,108.296603588858,90.8063879649524,-17.4902156239056,-99.5514957769052,62.8934096063818,36.6580861705234
1.72717508055854,108.614123546942,93.5383901152719,-15.0757334316705,-101.076256831107,61.8449284893065,39.2313283418007
1.72932330827068,110.821979442915,96.5544431207382,-14.2675363221773,-103.688211281827,62.5447578825464,41.1434533992804
1.73147153598281,112.094837313806,97.8849393691108,-14.2098979446948,-104.989888341458,63.1523676292502,41.837520712208
1.73361976369495,113.199965014917,97.7519922066671,-15.44797280825,-105.475978610792,64.3239689115836,41.1520096992086
1.73576799140709,114.159465100272,96.3484461114682,-17.8110189888041,-105.25395560587,65.9852420445381,39.2687135613321
1.73791621911923,113.704409597115,95.7739105446145,-17.9304990525004,-104.739160070865,65.8174543248076,38.921705746057
1.74006444683136,108.800905880534,95.2750840968825,-13.5258217836515,-102.037994988708,61.1633638320927,40.8746311566155
1.7422126745435,104.543558761403,96.1301082137807,-8.41345054762274,-100.336833487592,56.4785046545131,43.858328833079
1.74436090225564,99.5591033228776,95.584344007411,-3.97475931546659,-97.5717236651443,51.7669313191721,45.8047923459722
1.74650912996778,94.5874128647273,95.1104975894189,0.523084724691685,-94.8489552270731,47.0321640700178,47.8167911570553
1.74865735767991,90.2708642756759,95.3431510186762,5.07228674300029,-92.8070076471761,42.5992887663378,50.2077188808383
1.75080558539205,87.1671855711742,93.6129697041868,6.44578413301264,-90.3900776376805,40.3607007190808,50.0293769185997
1.75295381310419,83.8284334920139,89.5345461643942,5.70611267238029,-86.6814898282041,39.0611604098168,47.6203294183872
1.75510204081633,78.3534077455722,85.3494957328169,6.99608798724479,-81.8514517391945,35.6786598791637,46.1727918600309
1.75725026852846,71.0236146595398,81.0718691114784,10.0482544519386,-76.0477418855091,30.4876801038006,45.5600617817085
1.7593984962406,64.0156421765107,78.00198345307,13.9863412765593,-71.0088128147903,25.0146504499757,45.9941623648147
1.76154672395274,58.5752005319422,74.6925713593054,16.1173708273631,-66.6338859456238,21.2289148522896,45.4049710933342
1.76369495166488,51.2754342461304,71.8192552861957,20.5438210400654,-61.5473447661631,15.3658066030325,46.1815381631306
1.76584317937701,45.5816497721364,68.0364509378158,22.4548011656794,-56.8090503549761,11.5634243032285,45.2456260517476
1.76799140708915,38.0619247736677,61.5318286868132,23.4699039131455,-49.7968767302404,7.29601043026108,42.5008662999794
1.77013963480129,28.9568715933746,53.308113628674,24.3512420352994,-41.1324926110243,2.30281477903757,38.8296778319867
1.77228786251343,17.8313370230394,43.5918383048553,25.7605012818159,-30.7115876639474,-3.96458212938821,34.6761697933356
1.77443609022556,5.5956279117618,35.1559200004266,29.5602920886648,-20.3757739560942,-11.9823320884515,32.3581060445457
1.7765843179377,-3.09555016944321,27.8316403492995,30.9271905187427,-12.3680450899281,-17.011370344093,29.3794154340211
1.77873254564984,-9.99739388862763,22.1165727456828,32.1139666343105,-6.0595894285276,-21.055680261469,27.1152696899966
1.78088077336198,-14.7016328435985,17.7986641268494,32.5002969704479,-1.54851564162547,-23.6009649070232,25.1494805486487
1.78302900107411,-18.1419142219967,13.4056866353045,31.5476008573012,2.36811379334607,-24.844757539649,22.4766437463029
1.78517722878625,-21.7729133365082,10.2356504063353,32.0085637428436,5.76863146508644,-26.8907385396759,21.1221070745895
1.78732545649839,-24.2813804843053,4.90710806854966,29.1884885528549,9.6871362078778,-26.7349345185801,17.0477983107023
1.78947368421053,-27.1033546934618,-2.93956336942,24.1637913240418,15.0214590314409,-25.6335730087518,10.6121139773109
1.79162191192266,-30.8415827247377,-9.10818485966899,21.7333978650687,19.9748837922033,-26.2874902949032,6.31260650269985
1.7937701396348,-34.7312667302169,-13.8198805426572,20.9113861875597,24.275573636437,-27.8213264588883,3.54575282245122
1.79591836734694,-40.6846256410488,-17.9106950299309,22.7739306111178,29.2976603354899,-31.7292781260833,2.43161779059345
1.79806659505908,-44.5653658694409,-22.1065035984672,22.4588622709737,33.335934733954,-33.5121140702073,0.176179336253234
1.80021482277121,-45.3584876668077,-25.7494117217502,19.6090759450575,35.553949694279,-32.4837818059326,-3.07016788834635
1.80236305048335,-46.6911552478743,-28.9122775622457,17.7788776856286,37.80171640506,-32.2350164667515,-5.56669993830852
1.80451127819549,-46.5600932919123,-32.302417423995,14.2576758679173,39.4312553579537,-30.4088845799148,-9.02237077803889
1.80665950590763,-45.8022429683439,-36.5339413808099,9.26830158753396,41.1680921745769,-27.5352722779389,-13.632819896638
1.80880773361976,-42.5680220196579,-39.563799528822,3.00422249083588,41.06591077424,-22.7861222552469,-18.2797885189931
1.8109559613319,-40.4040478056582,-40.906281754415,-0.502233948756746,40.6551647800366,-19.9509069284507,-20.7042578515859
1.81310418904404,-37.2371121697153,-42.0718590978737,-4.8347469281584,39.6544856337945,-16.2011826207784,-23.453303013016
1.81525241675618,-36.4196747565778,-44.3719610805304,-7.95228632395255,40.3958179185541,-14.2336942163126,-26.1621237022415
1.81740064446831,-38.28619067325,-46.3689683462653,-8.08277767301531,42.3275795097576,-15.1017065001173,-27.2258730096403
1.81954887218045,-40.5508064337506,-49.3909390148561,-8.84013258110553,44.9708727243034,-15.8553369263225,-29.1155357979808
1.82169709989259,-47.0254165660242,-53.3028090783649,-6.27739251234066,50.1641128221946,-20.3740120268418,-29.7901007953528
1.82384532760473,-55.8671333236687,-61.2076074529097,-5.34047412924105,58.5373703882892,-25.2633295972138,-33.2740407910754
1.82599355531686,-64.1877965396359,-69.3588731952392,-5.17107665560334,66.7733348674375,-29.5083599420163,-37.2649749254213
1.828141783029,-67.5476548569692,-74.5038332627321,-6.95617840576283,71.0257440598506,-30.2957382256032,-40.7300058342474
1.83029001074114,-66.6004157059451,-75.7505240142399,-9.15010830829485,71.1754698600925,-28.7251536988251,-42.4503161612674
1.83243823845328,-63.2017625419357,-74.9007557925308,-11.6989932505951,69.0512591672332,-25.7513846456703,-43.2998745215629
1.83458646616541,-61.53908306767,-74.1629653268299,-12.6238822591599,67.8510241972499,-24.457600404255,-43.3934237929949
1.83673469387755,-62.0276792595843,-74.1664557950548,-12.1387765354705,68.0970675273196,-24.9444513620569,-43.1526161652627
1.83888292158969,-63.7400089223207,-73.5254273214521,-9.78541839913142,68.6327181218864,-26.9772952615946,-41.6554228602917
1.84103114930183,-64.5826382661291,-75.5451059833623,-10.9624677172331,70.0638721247457,-26.810085274448,-43.2537868502977
1.84317937701396,-61.449876652383,-77.2986425624777,-15.8487659100946,69.3742596074304,-22.8005553711442,-46.5737042362861
1.8453276047261,-58.7299330361265,-76.2448718414543,-17.5149388053278,67.4874024387904,-20.6074971153993,-46.879905323391
1.84747583243824,-53.792172596108,-73.3977842357229,-19.605611639615,63.5949784159155,-17.0932804782465,-46.501697937669
1.84962406015038,-51.437259876768,-71.5699290740601,-20.1326691972922,61.503594475414,-15.6522953397379,-45.8512991356762
1.85177228786251,-52.6129594662179,-69.9829385553461,-17.3699790891282,61.297949010782,-17.6214901885449,-43.6764588222371
1.85392051557465,-55.565908828509,-68.6050728692065,-13.0391640406975,62.0854908488577,-21.2633723939058,-40.822118454952
1.85606874328679,-58.7737938444591,-68.6968926763817,-9.92309883192255,63.7353432604204,-24.4253475062683,-39.3099957541521
1.85821697099893,-61.5589615165008,-69.4206719644738,-7.86171044797297,65.4898167404873,-26.8486255342639,-38.6411912062234
1.86036519871106,-63.3330562108433,-72.6253115702843,-9.29225535944104,67.9791838905638,-27.0204004257011,-40.9587834648627
1.8625134264232,-62.9411935575652,-74.1195435199204,-11.1783499623552,68.5303685387428,-25.881421797605,-42.6489467411378
1.86466165413534,-64.5331453589553,-73.4846968864531,-8.95155152749783,69.0089211227042,-27.7907969157287,-41.2181242069755
1.86680988184748,-64.6272005829186,-72.289447843641,-7.66224726072238,68.4583242132798,-28.4824766610981,-39.9758475521817
1.86895810955961,-62.1326257807812,-70.6076431212827,-8.47501734050151,66.3701344510319,-26.8288042201398,-39.5413302308921
1.87110633727175,-59.9667722480463,-67.2152803611229,-7.24850811307661,63.5910263045846,-26.3591320674849,-37.2318942370998
1.87325456498389,-58.0863229140593,-64.269944401618,-6.1836214875587,61.1781336578386,-25.9513507132503,-35.2267829445883
1.87540279269603,-57.7417867666035,-64.9330234597356,-7.1912366931321,61.3374051131695,-25.2752750367357,-36.0621300764338
1.87755102040816,-59.3748286486515,-66.1527846144371,-6.77795596578564,62.7638066315443,-26.2984363414329,-36.4653702901114
1.8796992481203,-60.7926773041847,-69.1439893526248,-8.35131204844011,64.9683333284048,-26.2206826278723,-38.7476507005325
1.88184747583244,-60.7355717318508,-69.8088527137083,-9.07328098185751,65.2722122227795,-25.8311453749966,-39.4410668477829
1.88399570354458,-60.0419322287444,-69.0979860841055,-9.05605385536114,64.5699591564249,-25.4929391866916,-39.0770199697333
1.88614393125671,-58.7956377154583,-66.5486165653028,-7.75297884984442,62.6721271403805,-25.521329432807,-37.1507977075736
1.88829215896885,-56.4254550251503,-63.6911298733519,-7.26567484820162,60.0582924492511,-24.5798900884743,-35.4784023607768
1.89044038668099,-53.079483925324,-59.2780100106058,-6.19852608528179,56.1787469679649,-23.4404789200211,-32.7382680479438
1.89258861439313,-50.8184853769875,-57.3786036351636,-6.56011825817617,54.0985445060755,-22.1291835594056,-31.9693609466699
1.89473684210526,-48.8554287112874,-57.0176085003202,-8.16217978903278,52.9365186058038,-20.3466244611273,-32.5898941446765
1.8968850698174,-48.4391707693731,-57.3482422948373,-8.90907152546419,52.8937065321052,-19.7650496219545,-33.1286569101507
1.89903329752954,-46.78964702217,-58.2793659839502,-11.4897189617802,52.5345065030601,-17.6499640301949,-34.8845424728652
1.90118152524168,-46.6456063649702,-58.4437323563232,-11.798125991353,52.5446693606467,-17.4237401868086,-35.1209291738381
1.90332975295381,-47.1646055760883,-56.6542624755954,-9.48965689950714,51.9094340258419,-18.8374743382906,-33.0719596875513
1.90547798066595,-46.9711549546286,-55.7446580250436,-8.77350307041498,51.3579064898361,-19.0988259421068,-32.2590805477293
1.90762620837809,-44.8710192243536,-53.0227392560753,-8.15172003172164,48.9468792402145,-18.359649596316,-30.5872296438985
1.90977443609023,-38.5392148536965,-48.727322925276,-10.1881080715795,43.6332688894863,-14.1755533910585,-29.4577154984278
1.91192266380236,-32.3977216532181,-45.6419917869209,-13.2442701337028,39.0198567200695,-9.57672575975762,-29.4431309603119
1.9140708915145,-25.7774024823321,-43.6072875075879,-17.8298850252558,34.69234499496,-3.97375872853813,-30.7185862664218
1.91621911922664,-20.0294723533938,-41.1966463165722,-21.1671739631784,30.613059334983,0.568850804892325,-31.1819101398753
1.91836734693878,-15.0389726638244,-38.4596071007085,-23.4206344368841,26.7492898822665,4.19083088652981,-30.9401207687963
1.92051557465091,-11.3501524070642,-34.7951217991029,-23.4449693920386,23.0726371030835,6.04740849248719,-29.1200455955707
1.92266380236305,-9.43554245455461,-30.9694631142646,-21.53392065971,20.2025027844096,6.04918910257771,-26.2516918869873
1.92481203007519,-8.41728819870391,-28.2919875576151,-19.8746993589112,18.3546378781595,5.72870558010366,-24.0833434582632
1.92696025778733,-8.82133183097175,-25.3232759329033,-16.5019441019315,17.0723038819375,3.84030613547988,-20.9126100174174
1.92910848549946,-7.88401485376737,-24.0338826799845,-16.1498678262171,15.9589487668759,4.13292648622486,-20.0918752531008
1.9312567132116,-6.42615333608811,-24.2025165124904,-17.7763631764023,15.3143349242893,5.67510492015711,-20.9894398444464
1.93340494092374,-4.51634175823532,-23.0608107368352,-18.5444689785999,13.7885762475353,7.01406361018227,-20.8026398577175
1.93555316863588,-1.57007661207532,-21.4254936460471,-19.8554170339717,11.4977851290612,9.14267021094821,-20.6404553400094
1.93770139634801,2.92012297123678,-19.3616106089652,-22.281733580202,8.22074381886423,12.6009282757194,-20.8216720945836
1.93984962406015,5.5305109152446,-15.6375177010399,-21.1680286162845,5.05350339289763,13.3492697657645,-18.4027731586622
1.94199785177229,9.08503434906441,-11.1160471833088,-20.2010815323732,1.01550641712219,14.6430579407188,-15.658564357841
1.94414607948443,13.4592803200628,-5.90227306672732,-19.3615533867901,-3.77850362666772,16.4104168534264,-12.6319132267587
1.94629430719656,17.2571123518866,-3.30771822643149,-20.5648305783181,-6.97469706272755,18.9109714651023,-11.9362744023748
1.9484425349087,19.2663691107093,-1.69911845918744,-20.9654875698967,-8.78362532576091,20.115928340303,-11.3323030145421
1.95059076262084,19.0786801657855,-1.59060904622693,-20.6692892120125,-8.74403555977929,19.873984688899,-11.1299491291197
1.95273899033298,18.2716648446448,-0.208280429054617,-18.4799452736995,-9.03169220779511,18.3758050591722,-9.34411285137704
1.95488721804511,14.3506986025931,-0.940284392794745,-15.2909829953878,-6.70520710489917,14.8208407989905,-8.11563369409129
1.95703544575725,9.65829762975861,-0.931769935831051,-10.5900675655897,-4.36326384696378,10.1241825976741,-5.76091875071036
1.95918367346939,4.29611732799458,-0.924377466910762,-5.22049479490534,-1.68586993054191,4.75830606144996,-3.07243613090805
1.96133190118153,-0.359464512961284,-0.273900149423909,0.0855643635373755,0.316682331192596,-0.22251443824933,-0.0941678929432666
1.96348012889366,-1.82532358100183,0.290860865092746,2.11618444609458,0.767231357954543,-1.9707540135482,1.20352265559366
1.9656283566058,-1.80990187457075,-0.506917177533595,1.30298469703716,1.15840952605217,-1.55644328580395,0.398033759751781
1.96777658431794,-2.44057134254399,-2.48768641684559,-0.0471150743015958,2.46412887969479,-1.1967281341212,-1.26740074557359
1.96992481203008,-2.98813467639451,-3.5633818546249,-0.575247178230388,3.2757582655097,-1.20644374908206,-2.06931451642764
1.97207303974221,-4.75166111726245,-3.85326911028206,0.898392006980397,4.30246511377225,-2.82502656212142,-1.47743855165083
1.97422126745435,-6.28279979819217,-4.74901561404827,1.53378418414391,5.51590770612022,-3.90829199116804,-1.60761571495218
1.97636949516649,-5.03593754387601,-5.52672559811236,-0.49078805423635,5.28133157099418,-2.27257474481983,-3.00875682617435
1.97851772287863,-6.52961584969989,-4.26977630046091,2.25983954923899,5.3996960750804,-4.39472769946944,-1.00496837561096
1.98066595059076,-9.11458346469744,-4.46657880326353,4.64800466143391,6.79058113398048,-6.88129406306567,0.0907129290851891
1.9828141783029,-12.6470363198587,-7.21368370972953,5.43335261012919,9.93036001479413,-9.04019446499396,-0.890165549800169
1.98496240601504,-17.6461790382087,-12.1750262753685,5.47115276284017,14.9106026567886,-11.5586659005244,-3.35193675626415
1.98711063372718,-23.9187393421494,-17.1266495471787,6.79208979497071,20.5226944446641,-15.3554145685601,-5.16727987610401
1.98925886143931,-30.0087953313319,-21.42577529271,8.58302003862196,25.7172853120209,-19.2959076849769,-6.421377627044
1.99140708915145,-37.228514389348,-25.8024450141044,11.4260693752436,31.5154797017262,-24.3272918822958,-7.1881878194304
1.99355531686359,-42.8527998164668,-29.6023814079034,13.2504184085635,36.2275906121851,-28.0516091125152,-8.17598149966996
1.99570354457572,-47.7359480191174,-30.3253472530567,17.4106007660607,39.030647636087,-32.5732743925891,-6.45737324349796
1.99785177228786,-51.3315629741211,-32.885221619708,18.4463413544131,42.1083922969146,-34.8889521642671,-7.21944013264746
2,-54.4533676784645,-35.7518288887625,18.701538789702,45.1025982836135,-36.5774532340833,-8.52514504953024
2.00214822771214,-57.1637982262345,-39.5288084821779,17.6349897440567,48.3463033542062,-37.3993939851456,-10.9469093690606
2.00429645542427,-62.0932991773128,-43.4521375832809,18.6411615940318,52.7727183802969,-40.3672303856723,-12.4054879946246
2.00644468313641,-67.0172767464064,-48.790649037902,18.2266277085044,57.9039628921542,-42.6219522274554,-15.2820106646988
2.00859291084855,-71.2923997870107,-52.1375630070109,19.1548367799999,61.7149813970108,-45.2236182835053,-16.4913631135055
2.01074113856069,-73.0719937982432,-54.3993801785311,18.6726136197121,63.7356869883872,-45.8723037089777,-17.8633832794095
2.01288936627282,-72.6849057922933,-55.7190886065481,16.9658171857452,64.2019971994207,-44.8253614890192,-19.3766357104014
2.01503759398496,-71.7047671154699,-55.5767751830455,16.1279919324244,63.6407711492577,-43.9163795239471,-19.7243916253106
2.0171858216971,-71.4978446793546,-56.0972740225579,15.4005706567967,63.7975593509562,-43.4492076680757,-20.3483516828806
2.01933404940924,-73.2503662990334,-60.4135383273783,12.836827971655,66.8319523132058,-43.0435971353442,-23.7883551778617
2.02148227712137,-78.6363042366296,-64.8050881835159,13.8312160531137,71.7206962100727,-46.2337601448716,-25.4869360652011
2.02363050483351,-83.3125130635762,-70.5501208519014,12.7623922116748,76.9313169577388,-48.0374526376255,-28.8938643201133
2.02577873254565,-87.3725169564121,-74.8940459050116,12.4784710514005,81.1332814307119,-49.9254940039063,-31.2077874268055
2.02792696025779,-89.609398018531,-76.0893165928689,13.5200814256621,82.8493573056999,-51.5647397220965,-31.2846175836034
2.03007518796993,-90.9074562797166,-77.771140108008,13.1363161717086,84.3392981938623,-52.0218862257126,-32.3174119681497
2.03222341568206,-91.3904046158475,-76.6551062739189,14.7352983419287,84.0227554448832,-53.0628514788881,-30.9599039659951
2.0343716433942,-92.4537716787646,-76.3301961926974,16.1235754860671,84.391983935731,-54.2886735824158,-30.1033103533151
2.03651987110634,-94.6651320863026,-77.9802779265273,16.6848541597753,86.322705006415,-55.6749931230389,-30.647711883376
2.03866809881847,-98.5172686125341,-83.2772749398152,15.239993672719,90.8972717761747,-56.8786311426265,-34.0186406335481
2.04081632653061,-105.726145817714,-89.1643809599708,16.561764857743,97.4452633888422,-61.1439553377284,-36.3013080511139
2.04296455424275,-110.696959084163,-93.6316577243926,17.0653013597702,102.164308404278,-63.8811302219665,-38.2831781823112
2.04511278195489,-113.72462809852,-96.8662024790241,16.8584256194959,105.295415288772,-65.291526859008,-40.0038884297641
2.04726100966702,-113.77709168792,-99.0304578296128,14.7466338583068,106.403774758766,-64.2618627731132,-42.141911985653
2.04940923737916,-113.178582928464,-100.265460593825,12.9131223346383,106.722021761145,-63.045852631551,-43.6761691295936
2.0515574650913,-113.303001330081,-100.693662537601,12.6093387924802,106.998331933841,-62.9561700612808,-44.0421618725605
2.05370569280344,-112.766965575687,-101.065438397702,11.7015271779849,106.916201986694,-62.2342463768359,-44.6819556098586
2.05585392051557,-109.081270711921,-102.032282678562,7.04898803335949,105.556776695241,-58.0651293726403,-47.4916473226011
2.05800214822771,-98.796607471394,-99.0073676445213,-0.210760173127312,98.9019875579576,-49.2929236491333,-49.6090639088243
2.06015037593985,-77.6300795086467,-91.2285872843666,-13.59850777572,84.4293333965066,-32.0157858664634,-52.4135475300433
2.06229860365199,-47.0156387668681,-78.6783206889025,-31.6626819220344,62.8469797278853,-7.67647842241683,-55.1705013054685
2.06444683136412,-6.91016095920331,-58.7650329859563,-51.8548720267529,32.8375969725798,22.4723555337748,-55.3099525063546
2.06659505907626,40.7916185595158,-34.3911593323327,-75.1827778918485,-3.20022961359152,57.9871982256822,-54.7869686120906
2.0687432867884,93.1565242048701,-4.85637309770069,-98.0128973025708,-44.1500755535847,95.5847107537204,-51.4346352001357
2.07089151450054,146.993839059707,27.8711312296553,-119.122707830051,-87.4324851446809,133.058273444879,-45.625788300198
2.07303974221267,198.88924224645,59.5062809956885,-139.382961250761,-129.197761621069,169.136101748606,-39.9383401275364
2.07518796992481,242.013979284048,89.5489616552136,-152.465017628835,-165.781470469631,197.239498456441,-31.4580279868105
2.07733619763695,272.371328147366,114.344666055412,-158.026662091954,-193.357997101389,215.19899511966,-21.8409980182711
2.07948442534909,286.491232733021,135.228870692828,-151.262362040192,-210.860051712924,218.876797386606,-8.01674567368198
2.08163265306122,283.937137686244,148.852657447477,-135.084480238766,-216.39489756686,209.510808962505,6.88408860435555
2.08378088077336,266.262191463931,156.172764029036,-110.089427434895,-211.217477746484,188.175809449413,23.0416682970708
2.0859291084855,238.035172146281,156.087677582026,-81.9474945642551,-197.061424864154,159.991333355268,37.0700915088856
2.08807733619764,201.934691534504,150.861331458519,-51.0733600759841,-176.398011496511,126.504025805244,49.8939856912676
2.09022556390977,161.574506757077,138.594976472359,-22.9795302847182,-150.084741614718,92.2770185208977,57.8077230938204
2.09237379162191,119.448115029317,123.436600987839,3.98848595852135,-121.442358008578,57.729814535398,63.71254347318
2.09452201933405,83.516965180652,105.123240482621,21.6062753019692,-94.3201028316366,30.9553449393414,63.3647578922952
2.09667024704619,52.964682503453,89.2231133296942,36.2584308262411,-71.0938979165736,8.35312583860597,62.7407720779676
2.09881847475832,27.7265286207531,74.7741579987675,47.0476293780144,-51.2503433097603,-9.66055037863064,60.9108936883909
2.10096670247046,8.39035500805133,63.5173240555722,55.1269690475209,-35.9538395318118,-23.3683070197348,59.3221465515466
2.1031149301826,-3.24533270059974,53.0997944382399,56.3451271388397,-24.9272308688201,-29.7952299197197,54.7224607885398
2.10526315789474,-10.7714978935389,44.0550292523105,54.8265271458494,-16.6417656793858,-32.7990125196942,49.4407781990799
