t,leadI,leadII,leadIII,aVR,aVL,aVF
0,669.581978573287,811.710429830456,142.128451257169,-740.646204201872,263.726763658059,476.919440543813
0.00216262975778547,669.905308020223,810.900044801928,140.994736781705,-740.402676411076,264.455285619259,475.947390791817
0.00432525951557093,669.745635443673,810.159233457035,140.413598013362,-739.952434450354,264.666018715155,475.286415735199
0.0064878892733564,670.798608315989,811.043867506986,140.245259190997,-740.921237911487,265.276674562496,475.644563348992
0.00865051903114187,672.114085488801,811.112763271484,138.998677782683,-741.613424380142,266.557703853059,475.055720527084
0.0108131487889273,673.3671332279,811.115506858342,137.748373630441,-742.241320043121,267.80937979873,474.431940244391
0.0129757785467128,673.473014999818,811.050094438576,137.577079438757,-742.261554719197,267.947967780531,474.313586938666
0.0151384083044983,673.948494094068,810.957964907609,137.00947081354,-742.453229500839,268.469511640264,473.983717860575
0.0173010380622837,672.605840990758,811.691481847259,139.085640856502,-742.148661419008,266.760100067128,475.38856135188
0.0194636678200692,670.583701349635,810.906305718874,140.322604369239,-740.745003534255,265.130548490198,475.614455044057
0.0216262975778547,670.541090750141,810.187472958789,139.646382208648,-740.364281854465,265.447354270747,474.916927583718
0.0237889273356401,670.918753567021,811.871316373276,140.952562806255,-741.395034970148,264.983095380383,476.411939589766
0.0259515570934256,669.892052926125,811.130118569525,141.238065643399,-740.511085747825,264.326993641363,476.184092106462
0.0281141868512111,671.079312127753,812.694355820114,141.615043692361,-741.886833973934,264.732134217696,477.154699756238
0.0302768166089965,671.053024864466,811.812214829329,140.759189964863,-741.432619846898,265.146917449801,476.285702397096
0.032439446366782,670.620925522564,812.511273447498,141.890347924934,-741.566099485031,264.365288798815,477.200810686216
0.0346020761245675,670.054560071105,810.088572683884,140.034012612778,-740.071566377495,265.010273729164,475.061292648331
0.0367647058823529,668.918439486709,811.720747446833,142.802307960125,-740.319593466771,263.058065763292,477.261527703479
0.0389273356401384,669.019680629165,811.818554881251,142.798874252086,-740.419117755208,263.110403188539,477.308714566669
0.0410899653979239,669.501223045478,811.112047712645,141.610824667167,-740.306635379062,263.945199189156,476.361436189906
0.0432525951557093,669.264163802705,812.721591273999,143.457427471294,-740.992877538352,262.903368165706,478.089509372647
0.0454152249134948,668.750306964851,812.660745613488,143.910438648637,-740.705526289169,262.419934158107,478.285592131062
0.0475778546712803,669.36979632265,810.176058212086,140.806261889435,-739.772927267368,264.281767216607,475.49116005076
0.0497404844290657,668.84804966006,809.309200883252,140.461151223192,-739.078625271656,264.193449218434,474.885176053222
0.0519031141868512,666.721197956876,810.901012556652,144.179814599775,-738.811105256764,261.270691678551,477.540413578214
0.0540657439446367,666.509863530649,810.97219998431,144.462336453661,-738.74103175748,261.023763538494,477.717268218986
0.0562283737024221,666.759701897804,810.2676869997,143.507985101895,-738.513694448752,261.625858397955,476.887836050797
0.0583910034602076,666.516569745004,811.11339566047,144.596825915466,-738.814982702737,260.959871914769,477.855110787968
0.0605536332179931,667.018503862416,810.302081753493,143.283577891077,-738.660292807955,261.86746298567,476.792829822285
0.0627162629757786,666.358452533657,812.613636740524,146.255184206867,-739.48604463709,260.051634163395,479.434410473696
0.064878892733564,665.247565069185,810.946417224304,145.698852155119,-738.096991146744,259.774356457033,478.322634689711
0.0670415224913495,666.271166159496,811.706328070372,145.435161910876,-738.988747114934,260.41800212431,478.570744990624
0.069204152249135,664.227252900148,810.942601095595,146.715348195448,-737.584926997871,258.75595235235,478.828974645521
0.0713667820069204,664.170651540611,811.809519942999,147.638868402388,-737.990085741805,258.265891569112,479.724194172694
0.0735294117647059,665.340652000855,810.286473313703,144.945821312849,-737.813562657279,260.197415344003,477.616147313276
0.0756920415224914,665.112083928582,811.891328945597,146.779245017015,-738.501706437089,259.166419455783,479.335286981306
0.0778546712802768,667.095990604252,811.848183726592,144.752193122341,-739.472087165422,261.171898740955,478.300188424467
0.0800173010380623,665.483607094899,810.188006769507,144.704399674608,-737.835806932203,260.389603710145,477.446203222057
0.0821799307958478,663.475163092931,810.932792787306,147.457629694375,-737.203977940119,258.008766699278,479.19521124084
0.0843425605536332,662.138995731486,811.730800859586,149.5918051281,-736.934898295536,256.273595301693,480.661302993843
0.0865051903114187,661.81816315658,811.781103182385,149.962940025806,-736.799633169482,255.927611565387,480.872021604096
0.0886678200692042,662.70622145266,812.636276941057,149.930055488398,-737.671249196859,256.388082982131,481.283166214727
0.0908304498269896,663.93614774098,811.079515329515,147.143367588536,-737.507831535248,258.396390076222,479.111441459025
0.0929930795847751,665.224314733619,811.065717573999,145.841402840381,-738.145016153809,259.691455946619,478.45356020719
0.0951557093425606,665.467961064605,812.606452742908,147.138491678304,-739.037206903756,259.164734693151,479.872472210606
0.097318339100346,666.116130288101,811.760807184553,145.644676896451,-738.938468736327,260.235726695825,478.702742040502
0.0994809688581315,664.894946430704,811.739084681941,146.844138251237,-738.317015556322,259.025404089733,479.291611466589
0.101643598615917,664.466148836522,812.553814589534,148.087665753012,-738.509981713028,258.189241541755,480.320740171273
0.103806228373702,663.50632569331,812.600255569748,149.093929876438,-738.053290631529,257.206197908436,480.847092723093
0.105968858131488,664.484097170791,811.847849029365,147.363751858573,-738.165973100078,258.560172656109,479.605800443969
0.108131487889273,664.879146318755,812.654224163078,147.775077844323,-738.766685240916,258.552034237216,480.2146510037
0.110294117647059,664.433100964367,811.042501558382,146.609400594015,-737.737801261375,258.911850185176,478.825951076199
0.112456747404844,663.731648993984,811.795868145903,148.064219151918,-737.763758569944,257.833714921033,479.93004364891
0.11461937716263,662.740786383881,811.762662240558,149.021875856677,-737.25172431222,256.859455263602,480.392269048618
0.116782006920415,662.401084562992,810.961776888605,148.560692325613,-736.681430725798,256.920196118689,479.761234607109
0.118944636678201,660.54981959476,810.190398606291,149.640579011531,-735.370109100526,255.454620291614,479.915488808911
0.121107266435986,660.515112592352,812.608726462999,152.093613870647,-736.561919527676,254.210749360852,482.351170166823
0.123269896193772,662.288838304998,811.837050999386,149.548212694388,-737.062944652192,256.370312805305,480.692631846887
0.125432525951557,661.756307601228,811.041159698225,149.284852096996,-736.398733649727,256.235727752116,480.16300589761
0.127595155709343,661.927207413756,812.610265623219,150.683058209463,-737.268736518487,255.622074602147,481.646661916341
0.129757785467128,663.510474712552,810.999443929891,147.488969217339,-737.254959321221,258.010752747607,479.244206573615
0.131920415224913,664.159599121333,812.577646605567,148.418047484234,-738.36862286345,257.87077581855,480.4978470449
0.134083044982699,666.3733793461,812.581373486505,146.207994140405,-739.477376416302,260.082692602847,479.394683813455
0.136245674740484,669.462470326208,811.004074555838,141.54160422963,-740.233272441023,263.960433048289,476.272839392734
0.13840830449827,673.4538068684,811.015164908995,137.561358040595,-742.234485888698,267.946224413903,474.288261474795
0.140570934256055,675.914996390234,811.019332882184,135.10433649195,-743.467164636209,270.405329949142,473.061834687067
0.142733564013841,678.365180279284,811.015272573695,132.650092294411,-744.690226426489,272.857543992436,471.832682434053
0.144896193771626,682.359666511961,811.008115458892,128.64844894693,-746.683890985427,276.855608782516,469.828282202911
0.147058823529412,690.297021381504,812.592331997828,122.295310616324,-751.444676689666,284.00085538259,467.443821307076
0.149221453287197,704.591948521099,811.798728095525,107.206779574426,-758.195338308312,298.692584473337,459.502753834976
0.151384083044983,714.930212443717,811.804173456626,96.8739610129099,-763.367192950172,309.028125715403,454.339067234768
0.153546712802768,721.299846014212,812.604021648797,91.3041756345856,-766.951933831504,314.997835189813,451.954098641691
0.155709342560554,717.328909794393,811.015741335995,93.6868315416017,-764.172325565194,311.821039126396,452.351286438798
0.157871972318339,706.192718738028,810.217222085038,104.024503347011,-758.204970411533,301.084107695509,457.120862716024
0.160034602076125,692.670382204973,810.212173870956,117.541791665983,-751.441278037964,287.564295269495,463.876982768469
0.16219723183391,682.330653673214,811.796489895189,129.465836221975,-747.063571784201,276.43240872562,470.631163058582
0.164359861591696,676.753868728718,812.58717062243,135.833301893712,-744.670519675574,270.460283417503,474.210236258071
0.166522491349481,674.338451427549,812.586701832717,138.248250405168,-743.462576630133,268.045100511191,475.417476118942
0.168685121107266,670.326805812486,811.799686377111,141.472880564626,-741.063246094798,264.42696262393,476.636283470868
0.170847750865052,662.374386605246,812.608638596715,150.234251991469,-737.49151260098,256.070067306888,481.421445294092
0.173010380622837,656.872122691537,812.621231573387,155.74910888185,-734.746677132462,250.561506904843,484.185170227618
0.175173010380623,652.217689303076,812.620577565367,160.402888262291,-732.419133434221,245.907400520392,486.511732913829
0.177335640138408,650.722216391035,811.015651456817,160.293435065782,-730.868933923926,245.214390662627,485.654543261299
0.179498269896194,650.714025662018,810.199298796532,159.485273134513,-730.456662229275,245.614376263752,484.842285965523
0.181660899653979,652.168408673184,811.773458188889,159.605049515705,-731.970933431037,246.28167957874,485.689253852297
0.183823529411765,655.154509286461,812.568004903504,157.413495617043,-733.861257094982,248.870506834709,484.990750260273
0.18598615916955,657.418874989677,810.201925343867,152.783050354191,-733.810400166772,252.317912317743,481.492487849029
0.188148788927336,659.065349953946,811.024852444022,151.959502490076,-735.045101198984,253.552923731935,481.492177467049
0.190311418685121,660.088595186659,810.255030837166,150.166435650507,-735.171813011912,254.961079768076,480.210733243836
0.192474048442907,659.564038260402,811.051819203985,151.487780943584,-735.307928732193,254.038128658409,481.269800073785
0.194636678200692,658.899608835676,811.025639410755,152.126030575079,-734.962624123216,253.386789130299,481.575834992917
0.196799307958478,658.778711313495,811.777376517168,152.998665203673,-735.278043915331,252.890023054911,482.38802086042
0.198961937716263,656.072105242567,810.951078388516,154.878973145949,-733.511591815541,250.596566048309,482.915025767233
0.201124567474048,654.946688003083,811.748658997271,156.801970994188,-733.347673500177,249.072358504448,484.275314995729
0.203287197231834,655.623213707472,810.202191843485,154.578978136013,-732.912702775479,250.52211778573,482.390584989749
0.205449826989619,655.021932443367,812.642064497078,157.620132053711,-733.831998470223,248.700900194828,485.131098275395
0.207612456747405,654.63178586502,811.879920291407,157.248134426386,-733.255853078213,248.691825719317,484.564027358896
0.20977508650519,654.998982376722,810.274695453382,155.275713076659,-732.636838915052,249.861634650031,482.775204265021
0.211937716262976,654.29082234948,810.218363772234,155.927541422754,-732.254593060857,249.181640463363,483.072952597494
0.214100346020761,654.019574372311,810.95016161825,156.93058724594,-732.484867995281,248.544493563185,483.940374432095
0.216262975778547,652.750516493671,811.714006429428,158.963489935757,-732.232261461549,246.893513278957,485.338748182592
0.218425605536332,652.369801410831,811.736958633254,159.367157222423,-732.053380022043,246.501322094204,485.552057927838
0.220588235294118,654.717566608872,811.009977967764,156.292411358892,-732.863772288318,249.21257762499,483.651194663328
0.222750865051903,657.447875766882,812.671606658344,155.223730891461,-735.059741212613,251.112072437711,483.947668774902
0.224913494809689,657.970580492954,810.320814294313,152.350233801359,-734.145697393634,252.810173345798,481.335524047836
0.227076124567474,659.137770021393,809.495881726273,150.358111704881,-734.316825873833,254.389829158256,479.926996715577
0.22923875432526,658.325742257823,811.005266869421,152.679524611599,-734.665504563622,252.823108823112,481.84239574051
0.231401384083045,657.917185142473,810.126302034866,152.209116892393,-734.021743588669,252.85403412504,481.16770946363
0.23356401384083,658.158456402166,810.089059559467,151.930603157301,-734.123757980816,253.113926622432,481.009831358384
0.235726643598616,657.804506031822,811.715640332993,153.91113430117,-734.760073182407,251.946685865326,482.813387317081
0.237889273356401,658.671202414773,810.222484981265,151.551282566492,-734.446843698019,253.559959924141,480.886883773878
0.240051903114187,659.133976023721,811.909708007341,152.775731983619,-735.521842015531,253.179122020051,482.34271999548
0.242214532871972,659.705015334043,810.361067468228,150.656052134185,-735.033041401135,254.524481599929,480.508559801206
0.244377162629758,659.234673346596,811.901100150652,152.666426804056,-735.567886748624,253.28412327127,482.283763477354
0.246539792387543,660.69247871671,810.198807507977,149.506328791267,-735.445643112343,255.593074962721,479.852568149622
0.248702422145329,660.179552309253,810.088103749301,149.908551440048,-735.133828029277,255.135500434603,479.998327594675
0.250865051903114,658.012303465198,810.051115815718,152.038812350519,-734.031709640458,252.98674555734,481.044964083118
0.2530276816609,659.320394107241,810.908979836191,151.58858572895,-735.114686971716,253.865904189145,481.248782782571
0.255190311418685,660.310165827884,811.037576658237,150.727410830353,-735.67387124306,254.791377498766,480.882493744295
0.257352941176471,660.068476014135,812.741516795874,152.673040781739,-736.404996405005,253.697717616198,482.707278788807
0.259515570934256,661.43078117694,812.76992807795,151.33914690101,-737.100354627445,255.045817137965,482.05453748948
0.261678200692042,662.453320706847,811.897381549991,149.444060843144,-737.175351128419,256.504629931852,480.670721196568
0.263840830449827,662.990652429963,812.554209872592,149.563557442629,-737.772431151277,256.713547493667,481.05888365761
0.266003460207612,663.201074337952,810.05990324068,146.858828902728,-736.630488789316,258.171122717612,478.459366071704
0.268166089965398,661.86118901362,809.252316459191,147.391127445571,-735.556752736406,257.235030784025,478.321721952381
0.270328719723183,663.285102007347,812.521869996082,149.236767988736,-737.903486001715,257.024167009305,480.879318992409
0.272491349480969,664.397478295498,811.069172013059,146.671693717562,-737.733325154278,258.862892288968,478.87043286531
0.274653979238754,665.791708349843,811.958134794571,146.166426444729,-738.874921572207,259.812640952557,479.06228061965
0.27681660899654,665.504535365231,811.954939586637,146.450404221406,-738.729737475934,259.527065571912,479.202671904021
0.278979238754325,664.811513604483,811.858791626974,147.04727802249,-738.335152615728,258.882117790997,479.453034824732
0.281141868512111,665.241666877377,810.144528956233,144.902862078856,-737.693097916805,260.16940239926,477.523695517545
0.283304498269896,665.433322401561,811.657017503137,146.223695101576,-738.545169952349,259.604813649992,478.940356302357
0.285467128027682,665.75912158885,810.879166911749,145.120045322898,-738.3191442503,260.319538132976,477.999606117324
0.287629757785467,664.919553740478,812.5610216617,147.641467921223,-738.740287701089,258.639042909628,480.101244791462
0.289792387543253,664.530978536927,811.875385775668,147.344407238741,-738.203182156297,258.593285649093,479.609896507204
0.291955017301038,665.13559082932,810.346436537872,145.210845708553,-737.741013683596,259.962372560383,477.778641123212
0.294117647058824,665.562814492518,811.121029663604,145.558215171086,-738.341922078061,260.002299660716,478.339622417345
0.296280276816609,665.547555659868,811.831261158734,146.283705498866,-738.689408409301,259.631925080501,479.0574833288
0.298442906574394,665.895056890667,811.733843293904,145.838786403237,-738.814450092286,260.028135243715,478.786314848571
0.30060553633218,665.295762666009,810.88723617665,145.591473510641,-738.091499421329,259.852144577684,478.239354843645
0.302768166089965,665.711228743207,811.70418205354,145.992953310333,-738.707705398373,259.859137716437,478.848567681936
0.304930795847751,664.993055904625,811.784356885084,146.791300980459,-738.388706394855,259.100877462083,479.287828932771
0.307093425605536,665.475511927606,809.489839000299,144.014327072692,-737.482675463952,260.730592427457,476.752083036495
0.309256055363322,665.268826049599,811.917736565225,146.648910515626,-738.593281307412,259.309957766987,479.283323540425
0.311418685121107,667.977667970285,811.891691420431,143.914023450146,-739.934679695358,262.03182226007,477.902857435288
0.313581314878893,667.044232014185,810.223819500337,143.179587486153,-738.634025757261,261.932322264016,476.701703493245
0.315743944636678,667.324313354626,811.731550978823,144.407237624197,-739.527932166725,261.458537865215,478.06939430151
0.317906574394464,668.346693497953,811.697186316927,143.350492818974,-740.02193990744,262.498100339489,477.523839567951
0.320069204152249,668.080758933365,812.521334662119,144.440575728754,-740.301046797742,261.820091602305,478.480955195436
0.322231833910035,668.27957993871,811.800688304038,143.521108365328,-740.040134121374,262.379235786691,477.660898334683
0.32439446366782,667.229816391993,811.873695426951,144.643879034958,-739.551755909472,261.292968678518,478.258787230955
0.326557093425606,666.184905377764,811.109472827215,144.924567449451,-738.64718910249,260.630168964157,478.017020138333
0.328719723183391,666.394804837656,812.668414759523,146.273609921868,-739.53160979859,260.060597457894,479.471012340695
0.330882352941176,666.93182824392,810.214771791941,143.28294354802,-738.57330001793,261.82444234795,476.748857669981
0.333044982698962,666.364874353872,811.735463693618,145.370589339746,-739.050169023745,260.497142507063,478.553026516682
0.335207612456747,666.635700464006,810.915229617165,144.279529153158,-738.775465040585,261.178085655424,477.597379385162
0.337370242214533,665.690135130599,811.738442115116,146.048306984517,-738.714288622857,259.820914073041,478.893374549816
0.339532871972318,666.803333554761,811.802807601182,144.999474046421,-739.303070577971,260.90192975417,478.401140823801
0.341695501730104,668.189020028052,811.07037320468,142.881353176628,-739.629696616366,262.653833425712,476.975863190654
0.343858131487889,669.476978350458,811.096154786558,141.6191764361,-740.286566568508,263.928900957179,476.357665611329
0.346020761245675,670.357470137522,811.073091603071,140.715621465549,-740.715280870297,264.820924335986,475.89435653431
0.34818339100346,672.363319920051,811.809108386495,139.445788466444,-742.086214153273,266.458765726803,475.627448426469
0.350346020761246,670.963467599057,812.541723118713,141.578255519656,-741.752595358885,264.692606039701,477.059989319184
0.352508650519031,669.717064438851,810.128918630263,140.411854191412,-739.922991534557,264.65260512372,475.270386410837
0.354671280276817,670.498568697449,810.944368744301,140.445800046852,-740.721468720875,265.026384325299,475.695084395576
0.356833910034602,670.931727237486,811.00365076727,140.071923529784,-740.967689002378,265.429901853851,475.537787148527
0.358996539792388,671.536903060765,811.858672138733,140.321769077968,-741.697787599749,265.607566991399,476.09022060835
0.361159169550173,672.727399842894,811.090666223049,138.363266380154,-741.909033032972,267.18206673137,474.726966301602
0.363321799307958,671.078367306082,811.069458590423,139.99109128434,-741.073912948252,265.543638010871,475.530274937381
0.365484429065744,669.809041715391,811.015362940494,141.206321225103,-740.412202327943,264.301360245144,476.110842082799
0.367647058823529,669.219680551136,811.753983940436,142.5343033893,-740.486832245786,263.342688580918,477.144143664868
0.369809688581315,668.882979209252,810.933029413422,142.05005020417,-739.908004311337,263.416464502541,476.491539808796
0.3719723183391,669.798904188234,812.537526719465,142.738622531231,-741.168215453849,263.530140828502,477.638074625348
0.374134948096886,670.298252612015,810.203146660401,139.904894048387,-740.250699636208,265.196679281814,475.054020354394
0.376297577854671,670.863165883845,811.053164858226,140.18999897438,-740.958165371036,265.336583454733,475.621581916303
0.378460207612457,671.939116869888,811.085192787027,139.146075917139,-741.512154828457,266.396520476375,475.115634352083
0.380622837370242,672.560668119465,812.662198936666,140.101530817201,-742.611433528065,266.229568651132,476.381864876933
0.382785467128028,672.04466993955,812.611451554173,140.566781614623,-742.328060746861,265.738944162464,476.589116584398
0.384948096885813,670.714163424642,811.75699379136,141.042830366719,-741.235578608001,264.835666528961,476.39991207904
0.387110726643599,670.489754295641,810.930949491285,140.441195195644,-740.710351893463,265.024279549998,475.686072343465
0.389273356401384,670.711115056957,811.741607999414,141.030492942457,-741.226361528185,264.84031105725,476.386050470936
0.39143598615917,672.028656694392,812.588315368056,140.559658673664,-742.308486031224,265.734499010364,476.57398702086
0.393598615916955,673.320041028451,810.261908346874,136.941867318423,-741.790974687663,268.189086855014,473.601887832649
0.395761245674741,672.691772642807,811.87967890871,139.187906265903,-742.285725775758,266.751933188452,475.533792587306
0.397923875432526,672.432860629793,811.86396448674,139.431103856947,-742.148412558266,266.500878386423,475.647534171843
0.400086505190311,672.710457583358,811.018118507182,138.307660923825,-741.86428804527,267.201398329767,474.662889715503
0.402249134948097,669.873984592684,811.756105717761,141.882121125077,-740.815045155223,263.995931733804,476.819113421419
0.404411764705882,668.966717556745,810.933315701313,141.966598144568,-739.950016629029,263.500059706089,476.44995692294
0.406574394463668,667.668012411234,810.949274128206,143.281261716972,-739.30864326972,262.193375347131,477.115267922589
0.408737024221453,668.967231691306,811.794042614127,142.82681092282,-740.380637152716,263.070210384243,477.310426768473
0.410899653979239,668.576535516832,811.054674243527,142.478138726694,-739.815604880179,263.049198395069,476.76640648511
0.413062283737024,668.634022239303,811.083520652264,142.449498412962,-739.858771445783,263.09226191317,476.766509532613
0.41522491349481,668.319973994722,811.864585849449,143.544611854726,-740.092279922085,262.387681069998,477.704598852088
0.417387543252595,667.043017297325,812.609706000995,145.56668870367,-739.82636164916,260.738164296828,479.088197352332
0.419550173010381,665.104542277453,810.963859113755,145.859316836301,-738.034200695604,259.622612720576,478.411587975028
0.421712802768166,662.716603844647,810.139718734149,147.423114889502,-736.428161289398,257.646744477573,478.781416811825
0.423875432525952,659.873774775319,810.949698091581,151.075923316262,-735.41173643345,254.398925729528,481.012810703921
0.426038062283737,659.537661209464,810.999461665828,151.461800456364,-735.268561437646,254.03793037655,481.230631061096
0.428200692041523,659.036160940855,811.846665647165,152.81050470631,-735.44141329401,253.112828117272,482.328585176737
0.430363321799308,660.571681131631,812.665744245383,152.094063113752,-736.618712688507,254.238809008939,482.379903679568
0.432525951557093,659.4187395361,811.061954259336,151.643214723235,-735.240346897718,253.887762406433,481.352584491286
0.434688581314879,658.988375987426,812.608065279222,153.619689291796,-735.798220633324,252.684343347815,483.113877285509
0.436851211072664,657.172692556761,812.562461436258,155.389768879498,-734.86757699651,250.891461838632,483.976115157878
0.43901384083045,655.701024268709,811.74375695188,156.042732683172,-733.722390610294,249.829145792768,483.893244817526
0.441176470588235,656.079931640004,811.753413489645,155.673481849641,-733.916672564825,250.203224895182,483.713447669643
0.443339100346021,656.47124226595,810.202596956121,153.731354690171,-733.336919611036,251.36994378789,481.966975823146
0.445501730103806,655.829294482975,811.041720028284,155.212425545309,-733.435507255629,250.308434468833,483.127072786797
0.447664359861592,655.651881330267,811.067193769462,155.415312439195,-733.359537549864,250.118284445536,483.241253104329
0.449826989619377,656.060967836871,812.645853375816,156.584885538945,-734.353410606344,249.738041148963,484.61536945738
0.451989619377163,655.719195355694,811.811459728096,156.092264372402,-733.765327541895,249.813465491646,483.951862050249
0.454152249134948,655.639104549261,810.972846014029,155.333741464768,-733.305975281645,250.152681542247,483.153293739399
0.456314878892734,656.660409954966,811.746843333087,155.086433378121,-734.203626644027,250.786988288423,483.416638355604
0.458477508650519,656.247465242939,810.17360368728,153.92613844434,-733.210534465109,251.160663399299,482.04987106581
0.460640138408305,655.74213756633,811.008929992413,155.266792426083,-733.375533779371,250.237672570123,483.137861209248
0.46280276816609,653.375044520054,810.254940914846,156.879896394792,-731.81499271745,248.247574062631,483.567418654819
0.464965397923875,654.702401150255,811.857246311464,157.154845161209,-733.27982373086,248.773777994523,484.506045736337
0.467128027681661,653.538898285114,811.041134258637,157.502235973523,-732.290016271875,248.018331155795,484.27168511608
0.469290657439446,654.090993738753,811.793123698897,157.702129960144,-732.942058718825,248.194431889304,484.747626829521
0.471453287197232,652.539334497317,812.551865989745,160.012531492427,-732.545600243531,246.263401502445,486.282198741086
0.473615916955017,653.623436213773,810.957528876209,157.334092662436,-732.290482544991,248.144671775669,484.145810769322
0.475778546712803,654.77197434752,810.193499742966,155.421525395446,-732.482737045243,249.675224476037,482.807512569206
0.477941176470588,654.169509508486,811.828870002367,157.65936049388,-732.999189755426,248.255074507303,484.744115248123
0.480103806228374,654.081019251834,811.064218484936,156.983199233102,-732.572618868385,248.548910009366,484.023708859019
0.482266435986159,652.980204203342,811.849782215587,158.869578012245,-732.414993209464,247.055313095549,485.359680113916
0.484429065743945,653.448250284881,811.807731886286,158.359481601405,-732.627991085583,247.544384341738,485.083606743845
0.48659169550173,654.101315994148,810.967070233092,156.865754238945,-732.53419311362,248.617780877601,483.916412236019
0.488754325259516,655.022592409937,810.949883475998,155.927291066061,-732.986237942968,249.547650671938,483.43858727103
0.490916955017301,656.125812493504,811.768468446457,155.642655952953,-733.94714046998,250.241578270276,483.705562199705
0.493079584775087,656.419812830463,811.816834879765,155.397022049302,-734.118323855114,250.511395390581,483.606928464533
0.495242214532872,655.72376164576,811.062297210203,155.338535564444,-733.393029427981,250.192613040658,483.200416387323
0.497404844290657,655.572350451465,812.655175144624,157.08282469316,-734.113762798044,249.244762879153,484.868999918892
0.499567474048443,654.477918404818,812.619198848275,158.141280443457,-733.548558626547,248.16831898068,485.380239645866
0.501730103806228,653.423973938947,810.979002868732,157.555028929785,-732.20148840384,247.934472504581,484.267015899259
0.503892733564014,652.568407927041,812.537108473123,159.968700546082,-732.552758200082,246.299853690479,486.252904509603
0.506055363321799,654.322760466796,810.959833804346,156.63707333755,-732.641297135571,248.842843564623,483.798453570948
0.508217993079585,653.808519106772,810.212398633056,156.403879526284,-732.010458869914,248.702319790244,483.30813907967
0.51038062283737,654.821754922897,812.645283368267,157.82352844537,-733.733519145582,248.499113238764,485.234405906818
0.512543252595156,656.438396062791,812.660083878837,156.221687816046,-734.549239970814,250.108354123372,484.440885847442
0.514705882352941,655.474538725274,811.834274801303,156.359736076029,-733.654406763289,249.557401324623,484.097005438666
0.516868512110727,656.0176132107,810.987030307614,154.969417096914,-733.502321759157,250.524098056893,482.978223702264
0.519031141868512,655.048782935602,810.952257805952,155.90347487035,-733.000520370777,249.572654032626,483.427866338151
0.521193771626298,656.639646052994,810.960076268867,154.320430215873,-733.799861160931,251.15960791856,482.64025324237
0.523356401384083,655.214852151151,812.590981789309,157.376129638158,-733.90291697023,248.919361256497,484.983555713734
0.525519031141868,656.22358363622,811.046898048935,154.823314412715,-733.635240842578,250.700134611753,482.935106230825
0.527681660899654,655.561178827203,811.063399172552,155.502220345349,-733.312288999878,250.029479240927,483.28280975895
0.529844290657439,653.950850772381,810.248012051633,156.297161279252,-732.099431412007,248.826844746564,483.272586665443
0.532006920415225,655.391630930888,811.792956692162,156.401325761273,-733.592293811525,249.495152584808,484.097141226717
0.53416955017301,654.4213743415,811.75545209957,157.334077758069,-733.088413220535,248.543648291716,484.544764928819
0.536332179930796,654.323535315982,810.162157100511,155.838621784529,-732.242846208246,249.242456765726,483.00038944252
0.538494809688581,651.972076722528,810.990438325631,159.018361603102,-731.481257524079,246.476857559713,485.004399964366
0.540657439446367,650.514614580543,810.245648195693,159.731033615149,-730.380131388118,245.391790482697,484.988340905421
0.542820069204152,651.451081888488,812.657041221534,161.205959333046,-732.054061555011,245.122561277721,486.93150027729
0.544982698961938,651.514453399239,811.846651189873,160.332197790634,-731.680552294556,245.591127804302,486.089424490254
0.547145328719723,653.055496373831,811.002874120586,157.947377746755,-732.029185247208,247.554059313538,484.47512593367
0.549307958477509,656.114298924012,809.369828173697,153.255529249685,-732.742063548855,251.429384837164,481.312678711691
0.551470588235294,656.80100697553,810.952821521245,154.151814545716,-733.876914248387,251.324596214907,482.552318033481
0.55363321799308,656.775322865103,812.576221561452,155.800898696349,-734.675772213278,250.487212084377,484.1885601289
0.555795847750865,655.256946596381,811.829705330354,156.572758733973,-733.543325963368,249.342093931204,484.201232032163
0.557958477508651,656.164311055542,811.857695608654,155.693384553112,-734.011003332098,250.235463251215,483.775540080883
0.560121107266436,653.06099613976,812.641750508406,159.580754368646,-732.851373324083,246.740120885557,486.111252438526
0.562283737024222,653.045051774508,810.218856366632,157.173804592124,-731.63195407057,247.935623591192,483.696330479378
0.564446366782007,652.951490806062,811.767427806848,158.815937000786,-732.359459306455,247.067776902638,485.291682403817
0.566608996539792,654.434204391527,810.165691350561,155.731486959034,-732.299947871044,249.351358716247,482.948589154798
0.568771626297578,654.390873079856,811.775374630969,157.384501551113,-733.083123855412,248.503185764372,484.579938091041
0.570934256055363,655.237878576608,812.607114324354,157.369235747745,-733.922496450481,248.934321414432,484.988175036049
0.573096885813149,654.559151570443,811.839373026204,157.280221455761,-733.199262298323,248.639465057341,484.559797240982
0.575259515570934,653.864727011839,811.045852118329,157.18112510649,-732.455289565084,248.341800952675,484.11348861241
0.57742214532872,651.495504632725,811.024493727857,159.528989095133,-731.259999180291,245.983257768796,485.276741411495
0.579584775086505,651.408917047483,810.203024560493,158.79410751301,-730.805970803988,246.307404767236,484.498566036752
0.581747404844291,650.480692975855,810.981515551136,160.500822575281,-730.731104263496,244.989935200287,485.741169063209
0.583910034602076,651.975788496516,810.983633484163,159.007844987647,-731.47971099034,246.483971754435,484.995739235905
0.586072664359862,653.575600132516,810.204989967643,156.629389835127,-731.89029505008,248.473105148694,483.417189901385
0.588235294117647,655.277789201307,811.017791048276,155.740001846969,-733.147790124791,249.768893677169,483.378896447622
0.590397923875433,656.218903329616,811.821536429173,155.602633099558,-734.020219879395,250.308135115029,483.712084764366
0.592560553633218,655.511914691259,811.023590156582,155.511675465323,-733.267752423921,250.000119612968,483.267632810953
0.594723183391003,655.482217676686,811.807342822943,156.325125146257,-733.644780249814,249.578546265214,484.0662339846
0.596885813148789,654.555599225507,811.004476209219,156.448876983712,-732.780037717363,249.053361120898,483.726676596465
0.599048442906574,653.606965278397,811.003348421702,157.396383143304,-732.30515685005,248.105291067546,484.199865782503
0.60121107266436,652.734244555476,812.595325956997,159.861081401521,-732.664785256237,246.436581576978,486.228203679259
0.603373702422145,652.783751799836,812.595537396538,159.811785596702,-732.689644598187,246.485983101567,486.20366149662
0.605536332179931,652.931836027256,811.797197199567,158.865361172311,-732.364516613412,247.033237427473,485.331279185939
0.607698961937716,653.085136562288,810.207803799646,157.122667237358,-731.646470180967,247.981234662465,483.665235518502
0.609861591695502,652.351543313711,811.804254470026,159.452711156315,-732.077898891868,246.449416078698,485.62848281317
0.612024221453287,653.073938788488,811.021448603389,157.947509814901,-732.047693695939,247.563214486794,484.484479209145
0.614186851211073,652.119044865929,811.027253920168,158.908209054238,-731.573149393049,246.605417905846,484.967731487203
0.616349480968858,651.178696253196,811.814542033905,160.635845780708,-731.49661914355,245.271425236244,486.225193907307
0.618512110726644,651.936799269007,811.795674290725,159.858875021717,-731.866236779866,246.038962123645,485.827274656221
0.620674740484429,654.41545867361,811.77715008738,157.36169141377,-733.096304380495,248.52688362992,484.569420750575
0.622837370242215,655.373270997485,810.980552241153,155.607281243668,-733.176911619319,249.882994876908,483.29391674241
0.625,654.706109759067,811.794735910863,157.088626151796,-733.250422834965,248.808741803635,484.441681031329
0.627162629757785,653.925635178141,811.824958996521,157.89932381838,-732.875297087331,248.01315567988,484.86214140745
0.629325259515571,653.02692335774,811.844003598482,158.817080240742,-732.435463478111,247.104921558499,485.330541919612
0.631487889273356,652.871265116823,810.248529695165,157.377264578342,-731.559897405994,247.74700026924,483.812897136754
0.633650519031142,651.966340438245,811.012476698601,159.046136260356,-731.489408568423,246.460102088944,485.029306479479
0.635813148788927,651.173589853829,811.769683456586,160.596093602757,-731.471636655207,245.288748125536,486.182888529671
0.637975778546713,653.665250947766,810.955203830094,157.289952882328,-732.31022738893,248.187649032719,484.122578356211
0.640138408304498,653.808019088158,810.969336028906,157.161316940748,-732.388677558532,248.323351073705,484.065326484827
0.642301038062284,655.483476416992,810.219405668392,154.7359292514,-732.851441042692,250.373773582796,482.477667459896
0.644463667820069,655.464508251814,812.649081440577,157.184573188762,-734.056794846195,249.139967531526,484.916827314669
0.646626297577855,656.153262153777,812.663222732961,156.509960579185,-734.408242443369,249.821650787296,484.586591656073
0.64878892733564,656.826976696862,811.043747662824,154.216770965962,-733.935362179843,251.30510286545,482.630259314393
0.650951557093426,657.561197309748,811.782520758645,154.221323448897,-734.671859034196,251.669936930425,483.001922103771
0.653114186851211,656.800840631129,810.944788204653,154.143947573525,-733.872814417891,251.328446528802,482.544367889089
0.655276816608997,656.108253187,809.355986225878,153.247733038878,-732.732119706439,251.430260074061,481.301859632378
0.657439446366782,656.209289645905,810.196202129628,153.986912483724,-733.202745887766,251.11118858109,482.091557306676
0.659602076124568,655.449324960615,811.050353776828,155.601028816212,-733.249839368722,249.924148072201,483.32569129652
0.661764705882353,654.603338506347,812.668322395045,158.064983888698,-733.635830450696,248.269177308825,485.366653141872
0.663927335640138,654.503623610649,810.262929031275,155.759305420626,-732.383276320962,249.372159095011,483.011117225951
0.666089965397924,656.010986730339,812.589042775454,156.578056045115,-734.300014752896,249.716465342612,484.583549410284
0.668252595155709,656.793443650897,809.362073554938,152.568629904041,-733.077758602918,252.112406873428,480.965351729489
0.670415224913495,659.238284917526,811.739450714068,152.501165796541,-735.488867815797,253.368559560493,482.120308255304
0.67257785467128,660.918984785959,812.574626479232,151.655641693273,-736.746805632596,254.631671546343,482.115134086252
0.674740484429066,661.775504194005,812.630354858032,150.854850664027,-737.202929526019,255.460326764989,481.74260276103
0.676903114186851,660.977902721198,811.867753317516,150.889850596318,-736.422828019357,255.04402606244,481.378801956917
0.679065743944637,660.917921339031,811.854541304648,150.936619965617,-736.386231321839,254.990650686707,481.395580635132
0.681228373702422,660.049280109019,810.218091646972,150.168811537953,-735.133685877995,254.940234285533,480.193451592462
0.683391003460208,657.625373216494,810.16979540884,152.544422192346,-733.897584312668,252.540475512074,481.357108800593
0.685553633217993,657.639844485012,810.153653122185,152.513808637173,-733.896748803598,252.563017923919,481.333730879679
0.687716262975779,658.485195221214,810.972904834124,152.487709612911,-734.729050027669,252.998742804151,481.730307223518
0.689878892733564,657.737302700886,811.020112136049,153.282809435163,-734.378707418467,252.227246632861,482.151460785606
0.69204152249135,657.749421015578,811.057604322537,153.30818330696,-734.403512669058,252.220618854309,482.182893814749
0.694204152249135,655.345441992612,811.061484838139,155.716042845527,-733.203463415376,249.814699573543,483.388763841833
0.69636678200692,655.316965768641,811.030609186228,155.713643417587,-733.173787477434,249.801661175527,483.372126301907
0.698529411764706,655.305068147758,810.192771392647,154.887703244889,-732.748919770202,250.208682451434,482.540237318768
0.700692041522491,656.10727511158,810.166674412403,154.059399300823,-733.136974761992,251.023937905379,482.113036856613
0.702854671280277,655.325468444901,812.556190368298,157.230721923396,-733.940829406599,249.047373260752,484.893456145847
0.705017301038062,653.738079028988,810.999283487204,157.261204458216,-732.368681258096,248.238437285386,484.13024397271
0.707179930795848,652.137532925819,811.036168527029,158.89863560121,-731.586850726424,246.619448662304,484.96740206412
0.709342560553633,652.917797683739,809.468239574203,156.550441890464,-731.193018628971,248.183677896637,483.009340732333
0.711505190311419,652.914990541581,812.636220218639,159.721229677058,-732.77560538011,246.596880432261,486.178724947849
0.713667820069204,652.930169107653,811.010923987898,158.080754880244,-731.970546547775,247.424707113705,484.545839434071
0.71583044982699,652.957185732047,810.176810281224,157.219624549177,-731.566998006636,247.868780591435,483.698217415201
0.717993079584775,650.59676941398,812.544401111079,161.947631697099,-731.57058526253,244.324568858441,487.246016404089
0.720155709342561,649.804282002118,810.975021722746,161.170739720628,-730.389651862432,244.316771140745,486.072880721687
0.722318339100346,649.777562640499,811.812847137375,162.035284496876,-730.795204888937,243.871139071811,486.924065817125
0.724480968858132,647.34936767593,811.853247366639,164.503879690709,-729.601307521285,241.422743992611,488.178563528674
0.726643598615917,644.931455904785,811.862763732815,166.931307828029,-728.3971098188,239.000074038378,489.397035780422
0.728806228373702,645.727557922082,811.039059653713,165.311501731632,-728.383308787897,240.208028095225,488.175280692672
0.730968858131488,644.974113451232,811.782277078422,166.80816362719,-728.378195264827,239.082974912021,489.295220352806
0.733131487889273,645.825118623413,810.153365230502,164.328246607088,-727.989241926957,240.748436008162,487.240805918795
0.735294117647059,647.449825790729,809.358602261407,161.908776470678,-728.404214026068,242.770524660025,485.633689366042
0.737456747404844,649.027156930619,810.195357602471,161.168200671852,-729.611257266545,243.929478129383,485.681779137162
0.73961937716263,649.766902537443,811.840275823411,162.073373285968,-730.803589180427,243.846764625737,486.95682455469
0.741782006920415,648.910932789385,810.282995604569,161.372062815184,-729.596964196977,243.7694349871,485.827529209877
0.743944636678201,650.474345251844,812.651213264315,162.176868012471,-731.56277925808,244.148738619686,487.414040638393
0.746107266435986,648.916425827149,810.216782904682,161.300357077533,-729.566604365915,243.808034374808,485.758569991107
0.748269896193772,648.191860829551,810.164829152132,161.972968322582,-729.178344990842,243.109446253484,486.068898737357
0.750432525951557,649.048678572862,810.148425272828,161.099746699966,-729.598551922845,243.974465936448,485.624085986397
0.752595155709343,649.056860517657,810.971342581222,161.914482063565,-730.014101549439,243.571189227046,486.442912322393
0.754757785467128,647.411576022147,811.817714140877,164.40613811873,-729.614645081512,241.502718951709,488.111926129803
0.756920415224913,647.326644275134,811.857291129995,164.53064685486,-729.591967702564,241.397998710137,488.193968992428
0.759083044982699,648.064939749947,812.653253257555,164.588313507608,-730.359096503751,241.738313121169,488.620783382582
0.761245674740484,649.665140038187,810.236088994388,160.570948956201,-729.950614516287,244.547095540993,485.403518975295
0.76340830449827,649.739867707776,812.574512657958,162.834644950182,-731.157190182867,243.452611378797,487.70457880407
0.765570934256055,649.039263683104,810.165568358451,161.126304675347,-729.602416020777,243.956479503879,485.645936516899
0.767733564013841,648.299559910238,810.96840654049,162.668846630251,-729.633983225364,242.815356639994,486.818626585371
0.769896193771626,647.483232755521,810.209308100294,162.726075344773,-728.846270427907,242.378578705374,486.467691722534
0.772058823529412,647.392338525015,811.039615855858,163.647277330843,-729.215977190436,241.872530597086,487.34344659335
0.774221453287197,647.284180972454,811.051195276589,163.767014304135,-729.167688124522,241.75858333416,487.409104790362
0.776384083044983,647.225940964457,811.031719643764,163.805778679307,-729.128830304111,241.710081142575,487.418749161536
0.778546712802768,645.671461198952,812.584879101605,166.913417902652,-729.128170150278,239.37902164815,489.749148502128
0.780709342560554,644.197649734705,810.970751278163,166.773101543458,-727.584200506434,238.712274095624,488.87192641081
0.782871972318339,642.738601735524,810.181901989722,167.443300254199,-726.460251862623,237.647650740662,488.812601121961
0.785034602076125,643.592133848731,812.597678623191,169.005544774459,-728.094906235961,237.293294537136,490.801611698825
0.78719723183391,642.737541772866,812.630135270275,169.892593497409,-727.68383852157,236.422474137728,491.261364383842
0.789359861591696,643.379091463235,811.842341586441,168.463250123206,-727.610716524838,237.457920670015,490.152795854823
0.791522491349481,644.814644796584,810.231402076014,165.416757279431,-727.523023436299,239.698943758577,487.824079677722
0.793685121107267,644.763769253282,810.198603331966,165.434834078684,-727.481186292624,239.664467587299,487.816718705325
0.795847750865052,648.831208660035,810.972464590753,162.141255930718,-729.901836625394,243.344976364658,486.556860260736
0.798010380622837,652.992747287643,811.770366491052,158.777619203409,-732.381556889347,247.107564042117,485.273992847231
0.800173010380623,660.303556539118,810.206292222906,149.902735683788,-735.254924381012,255.200410427665,480.054513953347
0.802335640138408,665.885759534634,811.03142547318,145.145665938546,-738.458592503907,260.370046798044,478.088545705863
0.804498269896194,673.687606072255,809.460699107428,135.773093035173,-741.574152589842,268.957256518541,472.616896071301
0.806660899653979,675.061064555007,811.836123141954,136.775058586947,-743.44859384848,269.14300298403,474.30559086445
0.808823529411765,676.511272451476,811.010786671018,134.499514219542,-743.761029561247,271.005879115967,472.75515044528
0.81098615916955,680.524748293216,811.769632473573,131.244884180357,-746.147190383394,274.639932056429,471.507258326965
0.813148788927336,683.900265482226,810.166293411061,126.266027928835,-747.033279446644,278.817118776695,468.216160669948
0.815311418685121,690.471218703449,811.773518552112,121.302299848663,-751.122368627781,284.584459427393,466.537909200388
0.817474048442907,692.138779444504,809.43222368378,117.293444239277,-750.785501564142,287.422667602614,463.362833961528
0.819636678200692,689.641185027648,812.646598062353,123.005413034706,-751.143891545,283.317885996471,467.826005548529
0.821799307958478,683.065313241978,812.650119741932,129.584806499954,-747.857716491955,276.740253371012,471.117463120943
0.823961937716263,678.134025911348,811.026865902507,132.892839991159,-744.580445906927,272.620592960095,471.959852946833
0.826124567474048,675.756078881168,811.773500631146,136.017421749978,-743.764789756157,269.869328565595,473.895461190562
0.828287197231834,672.739455755575,810.157983596669,137.418527841094,-741.448719676122,267.66046395724,473.788255718882
0.830449826989619,663.402822514489,810.9658257383,147.563003223811,-737.184324126394,257.919909645339,479.264414481055
0.832612456747405,649.997143931894,812.597684971841,162.600541039947,-731.297414451867,243.698301445973,487.599113005894
0.83477508650519,640.406869573293,811.844416586131,171.437547012838,-726.125643079712,234.484661280228,491.640981799484
0.836937716262976,634.670718763473,810.268498438689,175.597779675215,-722.469608601081,229.536469544129,492.933139056952
0.839100346020761,631.30735984237,811.83529802877,180.5279381864,-721.57132893557,225.389710827985,496.181618107585
0.841262975778547,629.635912298369,811.792422374057,182.156510075688,-720.714167336213,223.73970111134,496.974466224872
0.843425605536332,632.090497778644,810.962096118197,178.871598339552,-721.526296948421,226.609449719546,494.916847228875
0.845588235294118,633.862593494781,810.164199226537,176.301605731756,-722.013396360659,228.780493881512,493.232902479147
0.847750865051903,638.020296064997,810.990291147776,172.969995082779,-724.505293606386,232.525150491109,491.980143115277
0.849913494809689,639.687992608875,811.828266442195,172.14027383332,-725.758129525535,233.773859387778,491.984270137757
0.852076124567474,642.792918258988,811.852339792965,169.059421533977,-727.322629025976,236.866748362506,490.455880663471
0.85423875432526,641.822027949914,811.841102254172,170.019074304258,-726.831565102043,235.901476822828,490.930088279215
0.856401384083045,643.239161999651,811.010497823927,167.771335824276,-727.124829911789,237.733913087687,489.390916824102
0.85856401384083,642.381009081163,810.976560092901,168.595551011738,-726.678784587032,236.892729034713,489.78605555232
0.860726643598616,641.665858770475,811.762290079,170.096431308525,-726.714074424737,235.784713730975,490.929360693762
0.862889273356401,641.835880995441,811.782157504042,169.946276508601,-726.809019249742,235.94480224342,490.864217006322
0.865051903114187,642.782693025734,811.814606899018,169.031913873284,-727.298649962376,236.875389576225,490.423260386151
0.867214532871972,641.234500647386,812.630628311636,171.39612766425,-726.932564479511,234.919186491568,492.013377987943
0.869377162629758,640.348597142819,810.24521620318,169.896619060361,-725.296906673,235.225989041229,490.07091763177
0.871539792387543,638.599521150806,810.224486609766,171.624965458959,-724.412003880286,233.487277845924,490.924726034363
0.873702422145329,639.266430048182,810.99513206261,171.728702014428,-725.130781055396,233.768864016877,491.361917038519
0.875865051903114,640.041042522014,811.775731768762,171.734689246748,-725.908387145388,234.153176637633,491.755210507755
0.8780276816609,640.134256834163,811.778015973428,171.643759139265,-725.956136403795,234.245248847449,491.710887556346
0.880190311418685,640.278702644297,811.794258330146,171.515555685849,-726.036480487221,234.381573479224,491.654907007998
0.882352941176471,639.591571176301,811.021539108272,171.429967931971,-725.306555142287,234.080801622165,491.225753520122
0.884515570934256,639.59973455082,811.831024354058,172.231289803238,-725.715379452439,233.684222373791,492.031157078648
0.886678200692042,637.920756740313,811.036150220006,173.115393479693,-724.47845348016,232.40268163031,492.07577184985
0.888840830449827,639.379238477545,811.019880973717,171.640642496172,-725.199559725631,233.869297990687,491.330261734945
0.891003460207612,641.668522033738,811.790828580152,170.122306546414,-726.729675306945,235.773107743662,490.956567563283
0.893166089965398,642.45665922809,812.56666339761,170.11000416952,-727.51166131285,236.173327529285,491.338333783565
0.895328719723183,643.333884912311,810.976386066205,167.642501153895,-727.155135489258,237.845691879208,489.30944361005
0.897491349480969,641.076283854646,810.996737257751,169.920453403105,-726.036510556198,235.577915225771,490.458595330428
0.899653979238754,640.380428910305,811.822790957885,171.442362047579,-726.101609934095,234.469033431363,491.632576502732
0.90181660899654,641.981837145897,812.638114791912,170.656277646015,-727.309975968904,235.662779749941,491.647196218964
0.903979238754325,642.688531625898,811.838083669433,169.149552043535,-727.263307647665,236.769489791181,490.493817856484
0.906141868512111,642.547375417256,811.014849989538,168.467474572282,-726.781112703397,237.039950422487,489.74116228091
0.908304498269896,643.232450825963,810.188438958154,166.955988132191,-726.710444892058,238.138231346886,488.572213545173
0.910467128027682,644.020240197202,811.762355141932,167.74211494473,-727.891297669567,238.139062626236,489.752235043331
0.912629757785467,645.714429468634,810.978525587792,165.264096119158,-728.346477528213,240.225166674738,488.121310853475
0.914792387543253,645.871152489186,812.595401132905,166.724248643719,-729.233276811046,239.573451922734,489.659824888312
0.916955017301038,646.777803710097,812.62303631594,165.845232605842,-729.700420013018,240.466285552128,489.234134460891
0.919117647058824,645.185694676587,811.839855584781,166.654160908194,-728.512775130684,239.265766884197,489.247008246487
0.921280276816609,645.065185532388,811.03675300898,165.971567476592,-728.050969270684,239.546809027898,488.504160242786
0.923442906574395,644.898000070391,812.602933657226,167.704933586835,-728.750466863809,238.596533241778,490.153933622031
0.92560553633218,643.991168489126,811.783667595543,167.792499106417,-727.887418042335,238.099334691355,489.78808335098
0.927768166089965,645.592704024728,810.182103012451,164.589398987723,-727.887403518589,240.501652518503,487.385751000087
0.929930795847751,645.725073145945,810.98390559394,165.258832447994,-728.354489369943,240.233120348975,488.121369020967
0.932093425605536,646.692084959875,811.799333628622,165.107248668747,-729.245709294249,240.792418145564,488.453291148684
0.934256055363322,647.594104376078,811.025131648885,163.431027272807,-729.309618012481,242.081538551636,487.228079460846
0.936418685121107,647.569859445512,811.827551779453,164.257692333941,-729.698705612482,241.656083555785,488.042622056697
0.938581314878893,646.63435767587,811.820687238967,165.186329563097,-729.227522457418,240.724014056386,488.503508401032
0.940743944636678,647.257669870641,812.59910552012,165.341435649479,-729.92838769538,240.958117110581,488.970270584799
0.942906574394464,646.366966774959,810.20332397501,163.836357200051,-728.285145374984,241.265304787454,487.019840587531
0.945069204152249,646.403906127537,812.585122409333,166.181216281796,-729.494514268435,240.11134492287,489.383169345564
0.947231833910035,647.34419487667,811.004036955762,163.659842079092,-729.174115916216,241.842176398789,487.331939517427
0.94939446366782,646.713242073628,810.218544003352,163.505301929724,-728.46589303849,241.603970071952,486.861922966538
0.951557093425606,646.794163189105,810.222262240841,163.428099051737,-728.508212714973,241.683032068684,486.825180646289
0.953719723183391,647.538810331592,809.423845855155,161.885035523563,-728.481328093373,242.826887404014,485.654440689359
0.955882352941177,648.18448681067,811.003692069825,162.819205259155,-729.594089440248,242.682640775758,486.91144866449
0.958044982698962,648.823627890054,811.790372798976,162.966744908922,-730.307000344515,242.928441490566,487.378558853949
0.960207612456747,649.552285574574,810.996919495674,161.4446339211,-730.274602535124,244.053825826737,486.220776708387
0.962370242214533,651.204084190257,812.598046950703,161.393962760446,-731.90106557048,244.905060714905,486.996004855575
0.964532871972318,650.561354319801,812.614560974747,162.053206654946,-731.587957647274,244.254073832427,487.333883814847
0.966695501730104,649.914693623895,811.828843881733,161.914150257838,-730.871768752814,244.000271683028,486.871497069786
0.968858131487889,649.969086203967,811.822027587695,161.852941383728,-730.895556895831,244.05807241012,486.837484485711
0.971020761245675,649.896401594963,812.594700132775,162.698298537812,-731.245550863869,243.599051528575,487.646499335294
0.97318339100346,651.32788765689,812.569088776103,161.241201119213,-731.948488216497,245.043343268839,486.905144947658
0.975346020761246,651.974710279692,810.175755932721,158.201045653029,-731.075233106207,246.886832313332,484.188400792875
0.977508650519031,652.721759443864,812.57586112258,159.854101678715,-732.648810283222,246.433828882575,486.214981400647
0.979671280276817,653.600491903946,811.817081579759,158.216589675813,-732.708786741852,247.691951114066,485.016835627786
0.981833910034602,653.76782652592,812.641856732193,158.874030206273,-733.204841629057,247.446898159823,485.757943469233
0.983996539792388,653.123811842881,812.644927172594,159.521115329713,-732.884369507737,246.801348256584,486.083021251153
0.986159169550173,653.959226678339,811.821133448864,157.861906770525,-732.890180063602,248.048659953907,484.841520109694
0.988321799307958,653.862087853549,810.189274872009,156.32718701846,-732.025681362779,248.767450417545,483.258230945234
0.990484429065744,656.063795870615,809.368092239456,153.304296368841,-732.715944055035,251.379749750887,481.336194304149
0.992647058823529,654.318539607514,812.551918395035,158.233378787521,-733.435229001274,248.042580409997,485.392648591278
0.994809688581315,654.287015345341,810.996867030612,156.709851685271,-732.641941187977,248.788581830035,483.853359357942
0.9969723183391,653.612115742472,811.831817169476,158.219701427004,-732.721966455974,247.696207157734,485.02575929824
0.999134948096886,653.01844539503,811.855800084883,158.837354689853,-732.437122739957,247.090545352588,485.346577387368
1.00129757785467,653.969575035979,810.260703932698,156.291128896719,-732.115139484339,248.83922306963,483.275916414708
1.00346020761246,653.979448042543,809.434871378909,155.455423336366,-731.707159710726,249.262012353088,482.445147357638
1.00562283737024,655.418333352698,811.777925065875,156.359591713177,-733.598129209286,249.52937081976,484.068758389526
1.00778546712803,655.992918252297,810.160649089562,154.167730837264,-733.076783670929,250.912593707516,482.164189963413
1.00994809688581,657.43054589629,809.367364262252,151.936818365962,-733.398955079271,252.746863765164,480.652091314107
1.0121107266436,659.036720339455,812.577203718243,153.540483378788,-735.806962028849,252.748118480333,483.058843548516
1.01427335640138,660.806435035235,812.621179627863,151.814744592628,-736.713807331549,254.495845221304,482.217962110245
1.01643598615917,661.042144094951,811.857749878485,150.815605783534,-736.449946986718,255.113269155708,481.336677831009
1.01859861591696,659.598688586109,811.860316620244,152.261628034135,-735.729502603176,253.668530275987,482.06097232719
1.02076124567474,658.766798203637,811.832682200329,153.065883996692,-735.299740201983,252.850457103473,482.44928309851
1.02292387543253,657.769054023772,810.994076159098,153.225022135326,-734.381565091435,252.272015944223,482.109549147212
1.02508650519031,655.136724507452,809.369069389677,154.232344882225,-732.252896948565,250.452189812613,481.800707135951
1.0272491349481,654.993650407455,810.155855184096,155.162204776641,-732.574752795776,249.915722815407,482.659029980369
1.02941176470588,655.045844471281,810.974268189025,155.928423717744,-733.010056330153,249.558710376768,483.451345953385
1.03157439446367,654.470414528478,811.809237280048,157.33882275157,-733.139825904263,248.565795888454,484.574030015809
1.03373702422145,657.902294277907,811.844592491186,153.942298213279,-734.873443384546,251.979998032314,482.893445352232
1.03589965397924,658.830495797803,812.651680131681,153.821184333878,-735.741087964742,252.504655731962,483.236432232779
1.03806228373702,660.34970568158,811.842630833824,151.492925152244,-736.096168257702,254.428390264668,481.667777993034
1.04022491349481,660.120356480245,811.809782290148,151.689425809903,-735.965069385197,254.215465335171,481.749604050026
1.0423875432526,659.873082324688,810.188007093512,150.314924768825,-735.0305447091,254.779078777931,480.251465931169
1.04455017301038,658.965886997738,810.171082077068,151.20519507933,-734.568484537403,253.880345959204,480.688138578199
1.04671280276817,657.467545847853,812.557770066754,155.090224218901,-735.012657957303,251.188660814476,483.823997142828
1.04887543252595,657.703630626905,811.781550024033,154.077919397128,-734.742590325469,251.812855614889,482.929734710581
1.05103806228374,658.730670457435,810.219542099653,151.488871642218,-734.475106278544,253.620899407609,480.854206870935
1.05320069204152,660.401835559937,810.24847123519,149.846635675253,-735.325153397563,255.277599942342,480.047553455221
1.05536332179931,661.078074520684,812.648676855758,151.570602335074,-736.863375688221,254.753736092805,482.109639595416
1.05752595155709,660.043997944946,811.8454658394,151.801467894454,-735.944731892173,254.121265025246,481.823466866927
1.05968858131488,659.044522753393,810.223258701531,151.178735948137,-734.633890727462,253.932893402628,480.700997324834
1.06185121107266,658.209797419499,811.77070434415,153.560906924651,-734.990250881825,252.324445247424,482.6658056344
1.06401384083045,658.354211729397,810.948908099229,152.594696369832,-734.651559914313,252.879757679782,481.771802234531
1.06617647058824,656.996297459506,812.540288651556,155.54399119205,-734.768293055531,250.726153133728,484.042139921803
1.06833910034602,655.576282079717,810.987106134417,155.4108240547,-733.281694107067,250.082729012508,483.198965094559
1.07050173010381,656.372503799847,812.628427043396,156.255923243549,-734.500465421622,250.058290278149,484.442175143472
1.07266435986159,654.621994100956,811.081169487416,156.459175386459,-732.851581794186,249.081409357249,483.770172436938
1.07482698961938,655.197934986471,811.879868292074,156.681933305603,-733.538901639272,249.258000840434,484.280900798839
1.07698961937716,654.268392947454,811.839237533994,157.570844586539,-733.053815240724,248.348774180457,484.705041060267
1.07915224913495,651.1241278667,811.771623333233,160.647495466533,-731.447875599966,245.238316200083,486.209559399883
1.08131487889273,651.302520237103,810.921404469752,159.61888423265,-731.111962353427,245.841818002227,485.270144351201
1.08347750865052,650.713297015572,810.91410198305,160.200804967478,-730.813699499311,245.256246024047,485.557453475264
1.0856401384083,650.016442705006,810.171350360763,160.154907655757,-730.093896532885,244.930767524625,485.16312900826
1.08780276816609,649.945170143773,811.049431578322,161.10426143455,-730.497300861047,244.420454354611,486.076846506436
1.08996539792388,649.754401446472,811.114506526423,161.36010507995,-730.434453986448,244.197148183261,486.237305803186
1.09212802768166,647.982371161389,812.705454988581,164.723083827192,-730.343913074985,241.629643667099,488.714269407886
1.09429065743945,647.926904349327,811.843930972861,163.917026623534,-729.885417661094,242.004938862897,487.880478798197
1.09645328719723,648.032430396818,812.54063884676,164.508208449942,-730.286534621789,241.762110973438,488.524423648351
1.09861591695502,645.049811360181,811.679949171158,166.630137810976,-728.36488026567,239.209836774603,489.155043491067
1.1007785467128,645.206931811093,810.896309768895,165.689377957802,-728.051620789994,239.758776926645,488.292843863348
1.10294117647059,643.635999729862,810.982194284199,167.346194554337,-727.30909700703,238.144902587763,489.164194419268
1.10510380622837,643.503362619786,812.678239992209,169.174877372423,-728.090801305998,237.164242623682,490.926558682316
1.10726643598616,644.10057492709,811.941880544661,167.841305617571,-728.021227735876,238.12963465476,489.891593081116
1.10942906574394,643.171870999782,812.705246052607,169.533375052824,-727.938558526194,236.819247973479,491.119310552715
1.11159169550173,642.394543205695,811.01527845542,168.620735249725,-726.704910830557,236.886903977985,489.818006852572
1.11375432525952,641.759875477679,810.909072095524,169.149196617845,-726.334473786602,236.305339429917,490.029134356685
1.1159169550173,641.959268188615,810.866549546053,168.907281357438,-726.412908867334,236.525993415588,489.886915451746
1.11807958477509,641.273660760341,811.708565244341,170.434904484001,-726.491113002341,235.41937813817,491.071734864171
1.12024221453287,642.013542972556,811.815441468943,169.801898496387,-726.914492220749,236.105822238084,490.808669982665
1.12240484429066,640.241243886871,811.91413612386,171.672892236989,-726.077690005366,234.284175824941,491.793514180425
1.12456747404844,638.460547778529,811.149568667534,172.689020889006,-724.805058223031,232.885763444761,491.91929477827
1.12673010380623,639.180431767511,811.886953445112,172.706521677601,-725.533692606312,233.236955044955,492.296737561356
1.12889273356401,639.269660882681,810.984204273447,171.714543390767,-725.126932578064,233.777558745957,491.349373832107
1.1310553633218,639.462297097661,810.097802560011,170.63550546235,-724.780049828836,234.413395817655,490.366654011181
1.13321799307958,640.427437949037,810.873436497212,170.445998548176,-725.650437223124,234.990719700431,490.659717522694
1.13538062283737,641.261297364538,810.937653929582,169.676356565044,-726.09947564706,235.792470399747,490.307005247313
1.13754325259516,642.734768468905,811.043743485661,168.308975016756,-726.889255977283,237.212896726075,489.676359251209
1.13970588235294,643.33591135456,811.126839142522,167.790927787962,-727.231375248541,237.772491783299,489.458883465242
1.14186851211073,643.191706310118,811.13737874908,167.945672438962,-727.164542529599,237.623016935578,489.541525594021
1.14403114186851,643.190548256899,812.658206677864,169.467658420965,-727.924377467381,236.861444917967,491.062932549415
1.1461937716263,644.125103332126,812.553021366297,168.427918034171,-728.339062349212,237.848592648978,490.490469700234
1.14835640138408,641.136239394123,810.093922006129,168.957682612006,-725.615080700126,236.089278391059,489.525802309068
1.15051903114187,641.251335388203,810.890648426146,169.639313037943,-726.070991907175,235.80601117513,490.264980732044
1.15268166089965,641.217937886927,811.761983948013,170.544046061085,-726.48996091747,235.336945912921,491.153015004549
1.15484429065744,641.849733281891,810.273638375926,168.423905094034,-726.061685828909,236.712914093929,489.34877173498
1.15700692041522,640.868597643291,811.922730097791,171.0541324545,-726.395663870541,234.907232594396,491.488431276145
1.15916955017301,642.368520376325,811.905577164986,169.537056788661,-727.137048770656,236.415731793832,490.721316976823
1.1613321799308,642.436439409245,810.235823856383,167.799384447138,-726.336131632814,237.318527481053,489.017604151761
1.16349480968858,643.412537242008,812.527876244347,169.115339002338,-727.970206743178,237.148599119835,490.821607623343
1.16565743944637,644.385570677326,810.895119358683,166.509548681357,-727.640345018005,238.938010997985,488.70233402002
1.16782006920415,644.445742873144,810.924698842883,166.47895596974,-727.685220858013,238.983393451702,488.701827406311
1.16998269896194,645.936822101153,811.801580146218,165.864758045065,-728.869201123685,240.036032028044,488.833169095641
1.17214532871972,646.537371086366,812.675604339985,166.138233253619,-729.606487713175,240.199568916373,489.406918796802
1.17430795847751,643.990474687166,811.907128196021,167.916653508855,-727.948801441594,238.036910589155,489.911890852438
1.17647058823529,643.965679639092,811.866538229931,167.900858590839,-727.916108934511,238.032410524126,489.883698410385
1.17863321799308,644.095776925575,810.995605967618,166.899829042043,-727.545691446597,238.597973941766,488.94771750483
1.18079584775087,644.292636293584,811.727590434355,167.434954140771,-728.010113363969,238.428841076406,489.581272287563
1.18295847750865,646.013077678007,812.510069470455,166.496991792449,-729.261573574231,239.758042942779,489.503530631452
1.18512110726644,644.404877839763,811.757122480905,167.352244641142,-728.081000160334,238.52631659931,489.554683561024
1.18728373702422,644.251813490415,809.442128079104,165.19031458869,-726.84697078476,239.530749450862,487.316221333897
1.18944636678201,644.070390505991,811.877948804595,167.807558298604,-727.974169655293,238.131416103694,489.842753551599
1.19160899653979,644.773940873658,811.087132237993,166.313191364335,-727.930536555825,239.230374754662,488.700161801164
1.19377162629758,645.623180909684,811.04020031555,165.417019405866,-728.331690612617,240.103080751909,488.228609860708
1.19593425605536,644.988495875628,812.562958803263,167.574462927635,-728.775727339446,238.707016473997,490.068710865449
1.19809688581315,645.146810730213,811.725860517637,166.579049787424,-728.436335623925,239.283880471394,489.15245515253
1.20025951557093,643.614110715485,810.940620037279,167.326509321794,-727.277365376382,238.143800696846,489.133564679536
1.20242214532872,645.123727207089,810.996735243058,165.873008035969,-728.060231225073,239.62535958556,488.434871639513
1.20458477508651,645.756890758489,812.649704306593,166.892813548104,-729.203297532541,239.432038605193,489.771258927349
1.20674740484429,646.412341584772,811.08879687338,164.676455288608,-728.750569229076,240.867943148082,487.882626080994
1.20891003460208,646.38567792365,811.062566077224,164.676888153574,-728.724122000437,240.854394885038,487.869727115399
1.21107266435986,646.488156970299,811.795162629348,165.307005659049,-729.141659799823,240.590575655625,488.551084144198
1.21323529411765,647.446239244904,811.738516953169,164.292277708265,-729.592378099036,241.576980768319,488.015397330717
1.21539792387543,647.563161888827,809.343437740293,161.780275851467,-728.45329981456,242.89144301868,485.56185679588
1.21756055363322,648.351301169237,811.768525376898,163.417224207661,-730.059913273068,242.467038480788,487.592874792279
1.219723183391,647.433709250522,812.627716689944,165.194007439422,-730.030712970233,241.11985090555,488.910862064683
1.22188581314879,647.277115488943,811.080848564787,163.803733075844,-729.178982026865,241.73669120655,487.442290820315
1.22404844290657,646.397018586881,811.867560188363,165.470541601482,-729.132289387622,240.463238492699,488.669050894922
1.22621107266436,647.230555394135,811.023120119779,163.792564725644,-729.126837756957,241.718995334245,487.407842422711
1.22837370242215,645.776237433511,810.965549832823,165.189312399311,-728.370893633167,240.2934625171,488.077431116067
1.23053633217993,645.120991993429,810.93950608762,165.818514094191,-728.030249040524,239.651238949619,488.379010090906
1.23269896193772,645.173263787228,810.961181438365,165.787917651137,-728.067222612796,239.692673068045,488.374549544751
1.2348615916955,646.692773974248,811.014325052803,164.321551078555,-728.853549513525,241.185611447846,487.667938065679
1.23702422145329,645.754787659711,811.062008113605,165.307220453893,-728.408397886658,240.223783602909,488.184614283749
1.23918685121107,646.429628525124,812.659675116531,166.230046591407,-729.544651820828,240.099790966859,489.444860853969
1.24134948096886,647.210062421117,809.448062826275,162.238000405157,-728.329062623696,242.48603100798,485.843031615716
1.24351211072664,646.516546162598,809.398686357654,162.882140195056,-727.957616260126,241.817202983771,486.140413276355
1.24567474048443,645.870266388555,812.54503189562,166.674765507065,-729.207649142087,239.597750440745,489.609898701342
1.24783737024221,647.552783068341,810.960024930517,163.407241862176,-729.256403999429,242.072770603083,487.183633396346
1.25,646.731103323776,810.994827928406,164.263724604629,-728.862965626091,241.233689359573,487.629276266518
1.25216262975779,646.59988070587,811.83235888335,165.232478177481,-729.21611979461,240.683701264194,488.532418530415
1.25432525951557,648.042917765031,811.854723934711,163.81180616968,-729.948820849871,242.115555797675,487.833265052196
1.25648788927336,647.982823840002,812.635952404546,164.653128564545,-730.309388122274,241.664847637728,488.644540484546
1.25865051903114,648.846473924645,810.215453265348,161.368979340703,-729.530963594997,243.738747291971,485.792216303026
1.26081314878893,649.001267757789,811.769846076235,162.768578318446,-730.385556917012,243.116344719672,487.26921219734
1.26297577854671,647.549738378111,812.554223689233,165.004485311122,-730.051981033672,241.272626533494,488.779354500178
1.2651384083045,646.78163973225,810.190034908743,163.408395176493,-728.485837320497,241.686622277879,486.799215042618
1.26730103806228,645.880759843526,811.813750293041,165.932990449516,-728.847255068283,239.973884697005,488.873370371278
1.26946366782007,644.119735905923,811.046082970122,166.926347064198,-727.582909438022,238.596694420862,488.98621501716
1.27162629757785,643.995425545407,811.839841887036,167.844416341629,-727.917633716222,238.075504601889,489.842129114332
1.27378892733564,646.38483541576,811.018819352121,164.633983936361,-728.701827383941,240.875425739699,487.826401644241
1.27595155709343,645.724937636421,810.192150877864,164.467213241443,-727.958544257142,240.628862197489,487.329682059653
1.27811418685121,646.697501495784,811.766188652373,165.068687156589,-729.231845074078,240.814407169597,488.417437904481
1.280276816609,648.393234519976,812.571444444156,164.17820992418,-730.482339482066,242.107512297898,488.374827184168
1.28243944636678,649.151082642603,811.804676191149,162.653593548547,-730.477879416876,243.248744547028,487.229134869848
1.28460207612457,648.19885057481,812.625257218791,164.426406643981,-730.412053896801,241.886221965415,488.525831931386
1.28676470588235,646.43587089616,812.632809002165,166.196938106005,-729.534339949162,240.119466395077,489.414873554085
1.28892733564014,647.155359818078,810.235173014035,163.079813195957,-728.695266416057,242.037773311061,486.657493104996
1.29108996539792,647.227337097689,810.210666085529,162.983328987839,-728.719001591609,242.122004054925,486.596997536684
1.29325259515571,646.602195212959,812.573080413463,165.970885200504,-729.587637813211,240.315655006227,489.271982806983
1.29541522491349,646.756661055805,812.564181614836,165.807520559031,-729.66042133532,240.474570248387,489.185851086933
1.29757785467128,647.58841225758,810.189899170363,162.601486912783,-728.889155713972,242.493462672398,486.395693041573
1.29974048442907,645.896253200516,812.597851619361,166.701598418846,-729.247052409938,239.597327390835,489.649725019103
1.30190311418685,647.311121953691,811.83037752184,164.519255568149,-729.570749737765,241.395933192771,488.174816544994
1.30406574394464,647.182601006897,811.842656075168,164.660055068272,-729.512628541032,241.261272969313,488.25135557172
1.30622837370242,649.566143476033,810.244646676207,160.678503200173,-729.90539507612,244.44382013793,485.46157493819
1.30839100346021,651.281626722691,810.218672009532,158.937045286842,-730.750149366112,246.172290717925,484.577858648187
1.31055363321799,653.037873927164,809.395420073593,156.357546146429,-731.216647000379,248.340163890368,482.876483110011
1.31271626297578,652.343318868614,810.966785607423,158.623466738809,-731.655052238019,246.859926064902,484.795126173116
1.31487889273356,651.52065179698,810.969738519776,159.449086722797,-731.245195158378,246.035782537092,485.209412621287
1.31704152249135,650.59311969797,810.199564819515,159.606445121545,-730.396342258743,245.493337288213,484.90300497053
1.31920415224914,650.442202662053,810.236175770606,159.793973108553,-730.33918921633,245.32411477675,485.01507443958
1.32136678200692,649.573476558083,812.647730132964,163.074253574881,-731.110603345523,243.249611491601,487.860991853923
1.32352941176471,648.82454024876,811.853456309761,163.028916061001,-730.33899827926,242.897812093879,487.441186185381
1.32569204152249,648.956211531404,811.82248093475,162.866269403346,-730.389346233077,243.044971064029,487.344375169048
1.32785467128028,649.086823204725,810.190562373495,161.10373916877,-729.63869278911,243.991542017978,485.647150771132
1.33001730103806,649.133427136501,811.750046213187,162.616619076686,-730.441736674844,243.258404029907,487.183332644937
1.33217993079585,649.864688282047,811.751454406944,161.886766124897,-730.808071344495,243.988961078575,486.81911026592
1.33434256055363,651.325442305642,812.576501523007,161.251059217365,-731.950971914325,245.037191544139,486.913780370186
1.33650519031142,653.599313690073,811.825503091346,158.226189401273,-732.71240839071,247.6865621444,485.02584624631
1.3386678200692,655.960241885496,811.858076993462,155.897835107966,-733.909159439479,250.031203388765,483.877956050714
1.34083044982699,656.831439256313,811.861176602745,155.029737346432,-734.346307929529,250.900850954941,483.445456974589
1.34299307958478,657.751963961978,811.831035686411,154.079071724433,-734.791499824195,251.836446118772,482.955053705422
1.34515570934256,657.053922748164,810.989131212496,153.935208464333,-734.02152698033,251.559357141915,482.462169838415
1.34731833910035,656.266950849927,810.951609704902,154.684658854975,-733.609280277415,250.791145997476,482.818134279939
1.34948096885813,654.59387025211,810.946551682701,156.35268143059,-732.770210967406,249.12059441076,483.649616556646
1.35164359861592,653.676642160561,810.977812827583,157.301170667022,-732.327227494072,248.18773574677,484.139491747303
1.3538062283737,652.795856444151,811.822043612341,159.02618716819,-732.308950028246,246.884834637981,485.424115390266
1.35596885813149,651.208412349104,810.273502060113,159.065089711009,-730.740957204608,246.071661319047,484.669295885561
1.35813148788927,650.500455689453,811.075536542282,160.575080852829,-730.787996115868,244.962687418312,485.825308697556
1.36029411764706,650.616746611562,811.838649717789,161.221903106227,-731.227698164675,244.697421752667,486.530276412008
1.36245674740484,650.689818681861,810.990003942407,160.300185260546,-730.839911312134,245.194816710657,485.645094601477
1.36461937716263,650.67580862793,810.945145865361,160.26933723743,-730.810477246646,245.20323569525,485.607241551395
1.36678200692042,648.999472466042,810.144221473109,161.144749007067,-729.571846969575,243.927361729487,485.644485240088
1.3689446366782,648.897648474801,812.563380184172,163.665731709371,-730.730514329487,242.615958382715,488.114555946771
1.37110726643599,649.638977532174,811.03120295578,161.392225423606,-730.335090243977,244.123376054284,486.211714189693
1.37326989619377,649.662033594083,811.075375327114,161.41334173303,-730.368704460598,244.124345930526,486.244358530072
1.37543252595156,648.947163619404,811.081789275924,162.13462565652,-730.014476447664,243.406268981442,486.608207466222
1.37759515570934,649.031989697937,811.045364729554,162.013375031618,-730.038677213745,243.509307333159,486.529369880586
1.37975778546713,649.071225691347,809.398602450105,160.327376758758,-729.234914070726,244.371924466295,484.862989604432
1.38192041522491,648.250974043831,810.941694816387,162.690720772557,-729.596334430109,242.780126635637,486.816207794472
1.3840830449827,647.387677094989,810.140039508279,162.75236241329,-728.763858301634,242.31765734085,486.446200960785
1.38624567474048,645.733264805341,812.557177147489,166.823912342148,-729.145220976415,239.454676231596,489.690544744819
1.38840830449827,646.502891253648,809.43697215267,162.934080899022,-727.969931703159,241.784405177313,486.185526525846
1.39057093425606,644.143792068598,811.07617833132,166.932386262721,-727.609985199959,238.605702902939,489.00428229702
1.39273356401384,643.401197785895,812.678606426734,169.277408640839,-728.039902106314,237.061894572528,490.978007533786
1.39489619377163,642.652689136999,811.849421465955,169.196732328956,-727.251055301477,236.727978404021,490.523076897455
1.39705882352941,642.666635301389,810.991967187138,168.325331885749,-726.829301244263,237.17065170782,489.658649536443
1.3992214532872,643.439710667652,812.527044679457,169.087334011806,-727.983377673554,237.176188327923,490.807189345631
1.40138408304498,643.401842493196,811.719828469367,168.317985976171,-727.560835481282,237.541928258512,490.018907222769
1.40354671280277,642.580348159557,810.962610200238,168.382262040681,-726.771479179898,237.099043059438,489.672436120459
1.40570934256055,643.374085468662,810.236229921459,166.862144452797,-726.805157695061,238.255970507932,488.549187187128
1.40787197231834,644.981238576854,811.88261881872,166.901380241867,-728.431928697787,239.039929167493,489.391999530294
1.41003460207612,644.204682803488,811.891546766225,167.686863962737,-728.048114784856,238.258909420376,489.789205364481
1.41219723183391,644.209820033903,811.843719301405,167.633899267502,-728.026769667654,238.287960383201,489.738809284454
1.4143598615917,642.617475860461,810.974935223045,168.357459362585,-726.796205541753,237.130008248938,489.666197292815
1.41652249134948,643.410811403309,810.128223028478,166.717411625169,-726.769517215893,238.34669988907,488.422817326824
1.41868512110727,643.417252359674,811.720037905677,168.302785546003,-727.568645132675,237.557233406835,490.01141172584
1.42084775086505,642.630349347555,810.980739675714,168.35039032816,-726.805544511634,237.139979509697,489.665565001937
1.42301038062284,642.627275781944,812.640298817612,170.013023035668,-727.633787299778,236.307126373138,491.32666092664
1.42517301038062,641.813187700025,811.887978031536,170.074790331511,-726.85058286578,235.869198684257,490.981384181523
1.42733564013841,641.784946188902,811.083004088163,169.298057899261,-726.433975138533,236.24344414482,490.190530993712
1.42949826989619,642.562029511741,810.235942767621,167.67391325588,-726.398986139681,237.44405812793,488.95492801175
1.43166089965398,643.367424250208,812.556535133391,169.189110883183,-727.9619796918,237.089156683513,490.872823008287
1.43382352941176,643.408592858242,811.724459665101,168.315866806859,-727.566526261671,237.546363025692,490.02016323598
1.43598615916955,645.047976401688,810.938530755294,165.890554353606,-727.993253578491,239.578711024041,488.41454255445
1.43814878892734,645.867903918793,810.989143862838,165.121239944045,-728.428523890816,240.373331987374,488.055191903442
1.44031141868512,645.05035382052,810.257992955602,165.207639135082,-727.654173388061,239.921357342719,487.732816045342
1.44247404844291,643.398483107931,811.88387783964,168.485394731708,-727.641180473785,237.456544188112,490.184636285674
1.44463667820069,642.539195700393,811.870808417018,169.331612716624,-727.205002058706,236.603791491884,490.601210566821
1.44679930795848,643.308921770048,811.815104768878,168.50618299883,-727.562013269463,237.401369385609,490.160643883854
1.44896193771626,643.343206892587,810.958580207062,167.615373314475,-727.150893549825,237.863916789056,489.286976760769
1.45112456747405,641.831990734484,811.723910087478,169.891919352993,-726.777950410981,235.970035690745,490.807914720235
1.45328719723183,640.321277394364,811.745015365673,171.423737971309,-726.033146380018,234.448769711527,491.584376668491
1.45544982698962,639.556470180884,811.007659023171,171.451188842287,-725.282064602027,234.052640669298,491.229423932729
1.4576124567474,641.098576761241,811.065191095162,169.966614333921,-726.081883928202,235.56598121366,490.515902714541
1.45977508650519,639.405074287446,811.881232961955,172.476158674509,-725.6431536247,233.464457806468,492.178695818232
1.46193771626298,638.510617389098,811.058873453001,172.548256063903,-724.784745421049,232.981180662597,491.803564758452
1.46410034602076,641.660044709039,811.000002700163,169.339957991125,-726.330023704601,236.160043358957,490.169980345644
1.46626297577855,644.90477073555,811.742185495021,166.837414759471,-728.323478115285,239.033677988039,489.289800127246
1.46842560553633,651.383522200745,811.728494207485,160.34497200674,-731.556008204115,245.519275097002,486.036733107113
1.47058823529412,660.222209835547,810.967433565278,150.745223729731,-735.594821700412,254.738493052908,480.856328647504
1.4727508650519,666.58666469191,812.615350779482,146.028686087572,-739.601007735696,260.278989302169,479.322018433527
1.47491349480969,673.64758183253,809.486585443059,135.839003610528,-741.567083637795,268.904289111001,472.662794526794
1.47707612456747,675.112892123992,811.878216584547,136.765324460555,-743.49555435427,269.173783831719,474.321770522551
1.47923875432526,677.427501325792,811.045607175363,133.618105849571,-744.236554250577,271.90469773811,472.331856512467
1.48140138408305,679.053474747177,810.189028370841,131.135553623664,-744.621251559009,273.958960561756,470.662290997252
1.48356401384083,683.932541282936,810.936791103052,127.004249820115,-747.434666192994,278.464145731411,468.970520461583
1.48572664359862,688.797412584871,810.934553715234,122.137141130363,-749.865983150052,283.330135727254,466.535847422798
1.4878892733564,693.567431027829,810.978094013169,117.41066298534,-752.272762520499,288.078384021244,464.194378499254
1.49005190311419,689.502918436742,811.041222043305,121.538303606563,-750.272070240023,283.982307415089,466.289762824934
1.49221453287197,682.249056538212,811.085379313956,128.836322775744,-746.667217926084,276.706366881234,469.96085104485
1.49437716262976,678.257434351854,811.877049070448,133.619614718594,-745.067241711151,272.31890981663,472.748331894521
1.49653979238754,674.370629216054,810.240324806167,135.869695590113,-742.30547701111,269.25046681297,473.05501019814
1.49870242214533,670.514493109138,811.765432569301,141.250939460164,-741.139962839219,264.631776824487,476.508186014732
1.50086505190311,661.025270647283,811.724260924511,150.698990277228,-736.374765785897,255.163140185028,481.211625600869
1.5030276816609,649.03626210832,810.936343327541,161.900081219221,-729.986302717931,243.56809044455,486.418212273381
1.50519031141869,638.569732337429,812.576115689116,174.006383351687,-725.572924013272,232.281674492871,493.291249520401
1.50735294117647,632.905211450966,811.052453357536,178.14724190657,-721.978832404251,227.378984772198,494.599847632053
1.50951557093426,630.529836976275,811.886910065848,181.357073089573,-721.208373521062,224.586381943351,496.621991577711
1.51167820069204,633.820884221736,811.083269032198,177.262384810462,-722.452076626967,228.279249705637,494.17282692133
1.51384083044983,633.961328128186,811.822998631406,177.86167050322,-722.892163379796,228.049828812483,494.842334567313
1.51600346020761,636.418902004594,810.960595539742,174.541693535149,-723.689748772168,230.938604234723,492.751144537445
1.5181660899654,637.971517744222,810.920549726545,172.949031982323,-724.446033735383,232.511242880949,491.934790854434
1.52032871972318,639.442914262387,810.933952539646,171.491038277259,-725.188433401016,233.975937992564,491.212495408452
1.52249134948097,636.945547760829,811.787365810977,174.841818050148,-724.366456785903,231.05186485534,493.314591930563
1.52465397923875,637.707988264123,811.06229937587,173.354311111747,-724.385143819997,232.176838576188,492.208305243808
1.52681660899654,638.569253535506,810.306923750253,171.737670214747,-724.438088642879,233.415791660379,491.0222969825
1.52897923875433,641.062017869386,811.880371832044,170.818353962658,-726.471194850715,235.121831953364,491.349362897351
1.53114186851211,643.514260669843,812.610776216317,169.096515546474,-728.06251844308,237.208872561685,490.853645881395
1.5333044982699,644.289642741609,811.74059570459,167.450952962981,-728.015119223099,238.419344889314,489.595774333785
1.53546712802768,642.617378350856,810.907539906568,168.290161555712,-726.762459128712,237.163608397572,489.59885073114
1.53762975778547,643.334872693992,811.727467952019,168.392595258027,-727.531170323005,237.471138717983,490.060031605023
1.53979238754325,645.70559223825,811.008561573195,165.302969334945,-728.357076905723,240.201311451652,488.15576545407
1.54195501730104,644.172867767316,811.881014007689,167.708146240373,-728.026940887503,238.232360763472,489.794580124031
1.54411764705882,642.663278493016,811.117221249081,168.453942756065,-726.890249871049,237.104667868476,489.785582002573
1.54628027681661,641.910185169225,811.079547939599,169.169362770374,-726.494866554412,236.370411199425,490.124455354987
1.54844290657439,641.084758433589,811.789939284093,170.705180850504,-726.437348858841,235.189788791542,491.247560067298
1.55060553633218,639.412340039729,810.917217858938,171.504877819209,-725.164778949333,233.95373111026,491.211047839073
1.55276816608997,640.924693249606,810.895518468644,169.970825219038,-725.910105859125,235.476934015284,490.433171843841
1.55493079584775,642.500101990418,810.946706165982,168.446604175565,-726.7234040782,237.026748907426,489.696655170774
1.55709342560554,643.357699968824,811.039742950102,167.682042981278,-727.198721459463,237.837828493773,489.36089296569
1.55925605536332,646.63574805398,812.703319368854,166.067571314873,-729.669533711417,240.284088369554,489.385445341863
1.56141868512111,647.500575879793,811.916006973773,164.41543109398,-729.708291426783,241.542572392906,488.165719033876
1.56358131487889,647.492686173504,811.850439104702,164.357752931198,-729.671562639103,241.567466621153,488.10409601795
1.56574394463668,648.204549988931,812.548726803498,164.344176814567,-730.376638396215,241.930186587182,488.446451809033
1.56790657439446,645.717813013905,810.895442665865,165.177629651961,-728.306627839885,240.270091680972,488.036536158913
1.57006920415225,644.867576588161,812.493174080135,167.625597491974,-728.680375334148,238.620989548093,490.059385786054
1.57223183391003,645.689610039095,810.187527290882,164.497917251786,-727.938568664988,240.595846393654,487.342722271334
1.57439446366782,644.985462500238,811.87231971367,166.886857213432,-728.428891106954,239.049302643403,489.379588463551
1.57655709342561,645.87226974457,811.923439536509,166.051169791939,-728.897854640539,239.910549976315,488.987304664224
1.57871972318339,646.701332064197,811.894590833494,165.193258769297,-729.297961448845,240.75403664745,488.543924801396
1.58088235294118,645.863842006614,811.011062634258,165.147220627644,-728.437452320436,240.358310689485,488.079141630951
1.58304498269896,647.362954293722,810.12766905352,162.764714759798,-728.745311673621,242.299119766962,486.446191906659
1.58520761245675,646.492071690759,810.098355540218,163.606283849458,-728.295213615488,241.442893920651,486.852319694838
1.58737024221453,645.684028107665,810.940645997553,165.256617889887,-728.312337052609,240.213705108889,488.09863194372
1.58953287197232,645.740781382533,811.825138164256,166.084356781723,-728.782959773395,239.828212300405,488.95474747299
1.5916955017301,645.827638480604,811.102520249305,165.274881768701,-728.465079364954,240.276378355952,488.188701009003
1.59385813148789,646.679121756189,811.90496467446,165.225842918272,-729.292043215324,240.726639418959,488.565403796366
1.59602076124567,649.050197761637,811.846871116625,162.796673354988,-730.448534439131,243.126762203324,487.321772235807
1.59818339100346,648.977921876475,810.96927131791,161.991349441435,-729.973596597193,243.49328621752,486.480310379672
1.60034602076125,648.104537376853,810.917411786685,162.812874409832,-729.510974581769,242.64583148351,486.865143098258
1.60250865051903,647.283865931994,811.723267024083,164.439401092089,-729.503566478038,241.422232419953,488.081334058086
1.60467128027682,648.917439387219,810.991919886198,162.074480498979,-729.954679636709,243.42147944412,486.533200192588
1.6068339100346,649.791466587597,811.062319354751,161.270852767153,-730.426892971174,244.260306910222,486.166586060952
1.60899653979239,649.05141107628,811.88730150027,162.83589042399,-730.469356288275,243.107760326145,487.36159596213
1.61115916955017,649.042083123266,811.858937056529,162.816853933263,-730.450510089897,243.112614595001,487.337895494896
1.61332179930796,651.359038916419,810.206138010205,158.847099093786,-730.782588463312,246.255969911316,484.526618551996
1.61548442906574,651.282525375768,810.947907495757,159.665382119989,-731.115216435762,245.808571627889,485.306644807873
1.61764705882353,652.046014764817,812.529536870078,160.483522105261,-732.287775817447,245.781246329778,486.506529487669
1.61980968858131,652.086523134943,811.773730114214,159.687206979271,-731.930126624579,246.199658077836,485.730468546743
1.6219723183391,652.967011148763,811.035575761724,158.068564612961,-732.001293455244,247.449223267901,484.552070187342
1.62413494809689,650.656809953378,812.659584290607,162.002774337229,-731.658197121993,244.327017808074,487.331179313918
1.62629757785467,651.458566876718,809.473904810037,158.015337933319,-730.466235843377,246.721614471699,483.744621371678
1.62846020761246,652.183250856879,810.225657414414,158.042406557536,-731.204454135646,247.070422149671,484.134031985975
1.63062283737024,651.283297514122,812.560426947269,161.277129433148,-731.921862230696,245.003084040487,486.918778190208
1.63278546712803,652.801272365562,809.359817472926,156.558545107363,-731.080544919244,248.121363629099,482.959181290144
1.63494809688581,653.611091230363,812.554822751016,158.943731520653,-733.08295699069,247.333679854855,485.749277135835
1.6371107266436,653.709316773407,811.011950518582,157.302633745175,-732.360633645995,248.203341514116,484.157292131879
1.63927335640138,653.832064680606,811.849309586872,158.017244906266,-732.840687133739,247.90740988717,484.933277246569
1.64143598615917,654.6938660807,812.655245814662,157.961379733962,-733.674555947681,248.366243173369,485.308312774312
1.64359861591696,654.656132174621,811.833194301994,157.177062127373,-733.244663238308,248.739535023624,484.505128214684
1.64576124567474,656.117779491906,810.198709202474,154.080929710568,-733.15824434719,251.018424890669,482.139819456521
1.64792387543253,655.184061627962,810.961941854931,155.777880226968,-733.073001741446,249.703090700497,483.36991104095
1.65008650519031,655.918719318674,810.964506195504,155.04578687683,-733.441612757089,250.436466220922,483.005146536167
1.6522491349481,655.190498989171,811.789475978271,156.5989769891,-733.489987483721,249.295761000036,484.194226483685
1.65441176470588,656.935932796376,811.031086362269,154.095153565893,-733.983509579323,251.420389615242,482.563119964081
1.65657439446367,657.084907911756,811.049225385759,153.964317474003,-734.067066648758,251.560295218876,482.506771429881
1.65873702422145,657.127742292571,811.039984967316,153.912242674745,-734.083863629943,251.607749808913,482.476113821031
1.66089965397924,657.825320194068,810.217932458427,152.392612264359,-734.021626326248,252.716353964855,481.305272361393
1.66306228373702,658.438233920161,810.192194348076,151.753960427915,-734.315214134119,253.342136746123,480.973077387996
1.66522491349481,656.697630885554,810.978705145286,154.281074259732,-733.83816801542,251.208278312911,482.629889702509
1.6673875432526,658.265193205774,811.784200009818,153.519006804044,-735.024696607796,252.373093200865,482.651603406931
1.66955017301038,657.59996528604,811.803638676937,154.203673390896,-734.701801981488,251.698145947572,483.003656033916
1.67171280276817,659.389947338137,811.818733622169,152.428786284033,-735.604340480153,253.480580527052,482.123759953101
1.67387543252595,660.329326652444,811.822567449038,151.493240796595,-736.075947050741,254.418042927924,481.657904122816
1.67603806228374,660.322148755046,811.022343837417,150.700195082371,-735.672246296232,254.810976836338,480.861269459894
1.67820069204152,660.957845384274,810.219532168358,149.261686784084,-735.588688776316,255.848079300095,479.740609476221
1.68036332179931,659.158224848438,811.801426716753,152.643201868315,-735.479825782596,253.257511490062,482.222314292534
1.68252595155709,657.44302070207,811.794900419377,154.351879717306,-734.618960560724,251.545570492382,483.073390068341
1.68468858131488,658.278548182775,811.788236825703,153.509688642928,-735.033392504239,252.384429769924,482.648962734315
1.68685121107266,658.460364958117,811.78558391467,153.325218956553,-735.122974436394,252.567573000782,482.555401435611
1.68901384083045,660.252907500562,810.998100548474,150.745193047912,-735.625504024518,254.753857226325,480.871646798193
1.69117647058824,661.141112478835,811.015381137285,149.87426865845,-736.07824680806,255.633421910192,480.444824897867
1.69333910034602,661.066348081708,811.828542945986,150.762194864278,-736.447445513847,255.152076608715,481.295368905132
1.69550173010381,661.669038567906,811.04083437088,149.371795802975,-736.354936469393,256.148621382466,480.206315086928
1.69766435986159,661.485943140099,811.027997189449,149.54205404935,-736.256970164774,255.971944545374,480.2850256194
1.69982698961938,660.634947244971,811.794370952675,151.159423707704,-736.214659098823,254.737761768633,481.47689733019
1.70198961937716,661.53302616999,810.972441979558,149.439415809568,-736.252734074774,256.046805180211,480.205928894563
1.70415224913495,663.313351101865,810.170891459573,146.857540357709,-736.742121280719,258.227905372078,478.514215908641
1.70631487889273,662.671460779524,810.987165232183,148.315704452659,-736.829313005854,257.177878163432,479.651434842421
1.70847750865052,663.483429329892,811.026190603112,147.54276127322,-737.254809966502,257.970334028336,479.284475938166
1.7106401384083,663.360765387962,811.057373013549,147.696607625587,-737.209069200756,257.832078881187,479.376990319568
1.71280276816609,663.975985160374,811.85328452956,147.877299369186,-737.914634844967,258.049342895594,479.865291949373
1.71496539792388,664.650781541132,811.027434226667,146.376652685535,-737.8391078839,259.137064427798,478.702043456101
1.71712802768166,663.870376256954,810.188439714201,146.318063457248,-737.029407985578,258.776156399853,478.253251585725
1.71929065743945,663.210955808464,810.954232395595,147.743276587131,-737.08259410203,257.733839610667,479.348754491363
1.72145328719723,663.376933159306,810.165892014029,146.788958854723,-736.771412586667,258.293987152291,478.477425434376
1.72361591695502,665.052846630284,810.997320743087,145.944474112803,-738.025083686685,259.554186258741,478.470897427945
1.7257785467128,663.417127731059,811.041779065714,147.624651334655,-737.229453398387,257.896238198202,479.333215200185
1.72794117647059,662.478321118475,811.859092411482,149.380771293007,-737.168706764978,256.548774912734,480.619931852244
1.73010380622837,661.542078448935,811.052078030074,149.509999581139,-736.297078239504,256.016039433898,480.281038805606
1.73226643598616,662.288843377185,810.219587250849,147.930743873663,-736.254215314017,257.179049751761,479.075165562256
1.73442906574394,659.978194768793,811.769432452692,151.791237683899,-735.873813610742,254.093478542447,481.780335068295
1.73659169550173,659.324022912282,812.545635501953,153.221612589672,-735.934829207117,253.051205161305,482.883624045812
1.73875432525952,657.84926817803,810.969216723704,153.119948545674,-734.409242450867,252.364659816178,482.044582634689
1.7409169550173,656.27485630584,811.800110777003,155.525254471163,-734.037483541422,250.374800917339,483.662682624083
1.74307958477509,656.977528476525,811.045303993123,154.067775516599,-734.011416234824,251.454876479963,482.556539754861
1.74524221453287,656.841644267472,811.857879211711,155.016234944239,-734.349761739592,250.912704661617,483.437057077975
1.74740484429066,657.545376130891,811.842651398642,154.297275267751,-734.694013764767,251.62405043157,483.069963333196
1.74956747404844,657.559276613878,810.214697213952,152.655420600075,-733.886986913915,252.451928006902,481.435058907014
1.75173010380623,657.668245991518,812.558513592301,154.890267600783,-735.11337979191,251.388989195368,483.724390596542
1.75389273356401,657.800608347901,810.953419084443,153.152810736542,-734.377013716172,252.32389880568,482.053114910492
1.7560553633218,656.281534675203,812.558336210152,156.27680153495,-734.419935442678,250.002366570127,484.417568872551
1.75821799307958,654.65628709884,810.216103933534,155.559816834694,-732.436195516187,249.548235132073,482.887960384114
1.76038062283737,653.744358454562,811.053227876798,157.308869422235,-732.39879316568,248.217744516163,484.181048649517
1.76254325259516,652.826474271734,811.8654510006,159.038976728866,-732.345962636167,246.893748771434,485.452213864733
1.76470588235294,651.18609286908,809.462442738773,158.276349869693,-730.324267803927,246.454871499694,483.869396304233
1.76686851211073,648.855928798421,811.798630825746,162.942702027324,-730.327279812084,242.956613385549,487.370666426535
1.76903114186851,648.184796252332,810.163162241438,161.978365989107,-729.173979246885,243.103215131613,486.070764115272
1.7711937716263,647.503203283057,810.939790630972,163.436587347915,-729.221496957015,242.033307967571,487.188188989444
1.77335640138408,647.531171046782,809.376411469851,161.84524042307,-728.453791258316,242.842965311856,485.61082594646
1.77551903114187,645.074694010063,812.607760955005,167.533066944941,-728.841227482534,238.770813532561,490.070413949973
1.77768166089965,644.15738482866,811.067515204893,166.910130376233,-727.612450016776,238.623627226214,488.988822790563
1.77984429065744,644.860607116399,811.874855033158,167.014247916759,-728.367731074778,238.92317959982,489.444551474958
1.78200692041522,644.857207291072,811.050778264787,166.193570973715,-727.953992777929,239.331818158679,488.622174619251
1.78416955017301,644.145895602798,810.996439842764,166.850544239965,-727.571167722781,238.647675681417,488.923492041365
1.7863321799308,644.260224627741,811.743951687217,167.483727059476,-728.002088157479,238.388248784133,489.613839373346
1.78849480968858,645.125921148862,810.143642800458,165.017721651597,-727.63478197466,240.054099748633,487.580682226028
1.79065743944637,645.109371874354,810.969393658538,165.860021784184,-728.039382766446,239.624675045085,488.414707721361
1.79282006920415,646.607018907,811.818672876602,165.211653969602,-729.212845891801,240.697682468699,488.515163423102
1.79498269896194,647.297011942305,811.068950639897,163.771938697593,-729.182981291101,241.762536622356,487.420444668745
1.79714532871972,648.042433414484,810.283951131638,162.241517717154,-729.163192273061,242.900457848665,486.262734424396
1.79930795847751,647.286935474265,812.63578849403,165.348853019765,-729.961361984148,240.96904122725,488.992320756897
1.80147058823529,646.593931472455,812.580077733023,165.986146260568,-729.587004602739,240.303892605943,489.283111996796
1.80363321799308,647.483636899792,811.73866342046,164.255026520668,-729.611150160126,241.614305189562,487.996844970564
1.80579584775087,645.918442777361,810.93762111347,165.019178336109,-728.428031945416,240.449632220626,487.978399724789
1.80795847750865,645.853506374367,810.977904202609,165.124397828241,-728.415705288488,240.364554273063,488.051151015425
1.81012110726644,646.537315827659,811.833909863287,165.296594035628,-729.185612845473,240.620360896015,488.565251949458
1.81228373702422,645.660926491609,810.28819364895,164.627267157342,-727.974560070279,240.516829667134,487.457730403146
1.81444636678201,646.458782653479,811.872913879411,165.414131225932,-729.165848266445,240.522325713773,488.643522552672
1.81660899653979,646.547427999391,811.822395314126,165.274967314736,-729.184911656759,240.636230342328,488.548681314431
1.81877162629758,646.662505888936,811.756652483239,165.094146594304,-729.209579186088,240.784179647316,488.425399538772
1.82093425605536,645.138585209241,810.92580258251,165.787217373269,-728.032193895875,239.675683917986,488.35650997789
1.82309688581315,646.696561724891,811.739069706412,165.042507981521,-729.217815715652,240.827026871685,488.390788843966
1.82525951557093,646.586590391964,810.214320562965,163.627730171001,-728.400455477464,241.479430110481,486.921025366983
1.82742214532872,647.262562087052,812.664165230443,165.401603143391,-729.963363658748,240.930479471831,489.032884186917
1.82958477508651,648.010685287984,811.892657570758,163.881972282774,-729.951671429371,242.064356502605,487.887314926766
1.83174740484429,649.659798062377,810.26679381116,160.606995748783,-729.963295936769,244.526401156797,485.436894779972
1.83391003460208,648.997042366655,810.989487422365,161.99244505571,-729.99326489451,243.502298655472,486.490966239038
1.83607266435986,648.322257013325,810.135948934556,161.813691921231,-729.22910297394,243.254282546047,485.974820427893
1.83823529411765,648.350082946642,810.128187324418,161.778104377776,-729.23913513553,243.285989284433,485.953145851097
1.84039792387543,648.2612062219,810.971302374721,162.710096152821,-729.616254298311,242.77555503454,486.840699263771
1.84256055363322,648.106591417474,811.837826721895,163.731235304421,-729.972209069684,242.187678056526,487.784531013158
1.844723183391,649.572633440516,812.679673286484,163.107039845968,-731.1261533635,243.232796797274,487.893356566226
1.84688581314879,651.152454823143,811.878451866799,160.725997043656,-731.515453344971,245.213228889743,486.302224455228
1.84904844290657,651.270547422489,809.443280863863,158.172733441374,-730.356914143176,246.548906990558,483.808007152618
1.85121107266436,652.242476630669,811.765147510826,159.522670880157,-732.003812070748,246.359902875256,485.643909195492
1.85337370242215,650.780796304608,812.524145831911,161.743349527303,-731.65247106826,244.518723388653,487.133747679607
1.85553633217993,649.18489714794,810.943934742982,161.759037595042,-730.064415945461,243.712929776449,486.351486169012
1.85769896193772,648.245772735536,810.197344871421,161.951572135885,-729.221558803479,243.147100299825,486.074458503653
1.8598615916955,647.251478873234,811.050155135811,163.798676262577,-729.150817004522,241.726401305329,487.424415699194
1.86202422145329,648.705999644919,811.876120881954,163.170121237035,-730.291060263436,242.767939203942,487.523121059494
1.86418685121107,650.311868639714,811.860301556056,161.548432916342,-731.086085097885,244.381717861686,486.704367236199
1.86634948096886,650.478119755976,811.808236265675,161.330116509699,-731.143178010826,244.574001623139,486.569176387687
1.86851211072664,650.701471610989,810.960836014701,160.259364403711,-730.831153812845,245.221053603639,485.610100209206
1.87067474048443,652.436783680379,812.529582917595,160.092799237216,-732.483183298987,246.171992221582,486.311191077405
1.87283737024221,652.410115343693,811.759193563412,159.349078219719,-732.084654453553,246.530518561987,485.554135891565
1.875,652.216364399069,812.604387602906,160.388023203837,-732.410376000987,245.914170597616,486.496205403371
1.87716262975779,650.379932085478,812.648920461591,162.268988376113,-731.514426273534,244.055471854682,487.458954418852
1.87932525951557,649.437788912483,810.277622105471,160.839833192987,-729.857705508977,244.298977859748,485.558727649229
1.88148788927336,649.487187845034,812.634407649874,163.14721980484,-731.060797747454,243.169984020097,487.890813727357
1.88365051903114,650.503111302628,811.79127149179,161.288160189162,-731.147191397209,244.607475556733,486.539715840476
1.88581314878893,651.556083644619,810.955712719203,159.399629074584,-731.255898181911,246.078227285018,485.177670896893
1.88797577854671,651.69014134985,812.536739304144,160.846597954294,-732.113440326997,245.421771697778,486.691668629219
1.8901384083045,650.81967606875,811.771919603024,160.952243534274,-731.295797835887,244.933716267238,486.362081568649
1.89230103806228,650.578165488499,811.82056826824,161.242402779741,-731.19936687837,244.667881354379,486.531485523991
1.89446366782007,651.112920397206,812.653078444141,161.540158046935,-731.882999420673,244.786381175135,487.096618245538
1.89662629757785,651.789284786713,810.275004924958,158.485720138245,-731.032144855835,246.651782324234,484.380362531602
1.89878892733564,651.094316111352,811.833344722379,160.739028611027,-731.463830416865,245.177643750162,486.286186666703
1.90095155709343,650.561077086266,810.196664181609,159.635587095343,-730.378870633937,245.462744995461,484.916125638476
1.90311418685121,651.619798861408,810.159407551972,158.539608690564,-730.88960320669,246.540095085422,484.349508121268
1.905276816609,652.514548797087,811.742796023234,159.228247226147,-732.12867241016,246.64315078547,485.48552162469
1.90743944636678,651.58838668013,810.976724533492,159.388337853362,-731.282555606811,246.100024413384,485.182531193427
1.90960207612457,650.508981276537,812.611045631454,162.102064354917,-731.560013453995,244.20345846081,487.356554993185
1.91176470588235,649.454635076207,811.854560450317,162.399925374109,-730.654597763262,243.527354851049,487.127242912213
1.91392733564014,647.796686638628,812.658674048978,164.86198741035,-730.227680343803,241.467349614139,488.760330729664
1.91608996539792,649.552732556951,811.04747486088,161.494742303929,-730.300103708916,244.028995126511,486.271108582405
1.91825259515571,652.2325407399,811.799699113236,159.567158373336,-732.016119926568,246.332691183282,485.683428743286
1.92041522491349,652.469271321889,812.553158683595,160.083887361706,-732.511215002742,246.192691980091,486.318523022651
1.92257785467128,653.292750623036,810.151827242593,156.859076619557,-731.722288932814,248.216837001739,483.505451931075
1.92474048442907,652.306057966396,810.169087170643,157.863029204247,-731.237572568519,247.221514381074,484.016058187445
1.92690311418685,652.811351917869,811.801900159961,158.990548242092,-732.306626038915,246.910401837888,485.396224201026
1.92906574394464,653.401355033264,811.052192997842,157.650837964577,-732.226774015553,247.875258534344,484.351515481209
1.93122837370242,652.612471241988,811.072254697551,158.459783455563,-731.842362969769,247.076343893212,484.766019076557
1.93339100346021,652.027408843279,812.644710679598,160.617301836319,-732.336059761438,245.70505350348,486.631006257959
1.93555363321799,651.513399962624,812.599735603531,161.086335640907,-732.056567783078,245.213532160859,486.843035622219
1.93771626297578,652.481709486165,811.758269811173,159.276560325009,-732.119989648669,246.602574580578,485.517415068091
1.93987889273356,652.439137799136,810.15135146484,157.712213665704,-731.295244631988,247.363462066716,483.931782565272
1.94204152249135,652.208373004297,811.762775551071,159.554402546774,-731.985574277684,246.326985228762,485.658589048923
1.94420415224914,651.938145456824,811.015952973924,159.0778075171,-731.477049215374,246.430168969862,485.046880245512
1.94636678200692,651.007488645215,811.057310555848,160.049821910633,-731.032399600531,245.478833367291,485.55356623324
1.94852941176471,651.091818837465,811.86092958694,160.769110749475,-731.476374212202,245.161354043995,486.315020168207
1.95069204152249,652.134504049829,811.038664312717,158.904160262888,-731.586584181273,246.61517189347,484.971412287803
1.95285467128028,652.38462173742,811.78726051829,159.40263878087,-732.085941127855,246.490991478275,485.59494964958
1.95501730103806,651.682048340471,811.753444282866,160.071395942395,-731.717746311668,245.805326199038,485.912420112631
1.95717993079585,650.766180762458,812.54657977171,161.780399009253,-731.656380267084,244.492890876603,487.163489390481
1.95934256055363,650.513099123948,811.783640287041,161.270541163094,-731.148369705495,244.621278980427,486.527090725067
1.96150519031142,650.291272960775,811.033926604343,160.742653643568,-730.662599782559,244.774309658603,485.888290123956
1.9636678200692,651.828021874752,811.857878374296,160.029856499545,-731.842950124524,245.899082687604,485.94386743692
1.96583044982699,652.768094371599,811.057996058376,158.289901686778,-731.913045214987,247.23909634241,484.673948872577
1.96799307958478,651.428057863717,811.020274211334,159.592216347617,-731.224166037525,245.91792075805,485.306245279475
1.97015570934256,652.418613186068,810.974568524888,158.55595533882,-731.696590855478,246.931328923624,484.765261931854
1.97231833910035,653.234684032374,810.156432130323,156.921748097949,-731.695558081348,248.156467967213,483.539090114136
1.97448096885813,654.657291472024,810.17105607331,155.513764601285,-732.414173772667,249.571763435369,482.842410337298
1.97664359861592,654.409081237043,810.214905453689,155.805824216645,-732.311993345366,249.301628510199,483.010364835167
1.9788062283737,653.443666761893,811.052627047376,157.608960285483,-732.248146904634,247.917353238205,484.330793666429
1.98096885813149,652.666019180134,811.859711205124,159.193692024991,-732.262865192629,246.736163577571,485.526701615058
1.98313148788927,652.065062815365,810.245249864903,158.180187049539,-731.155156340134,246.942437882913,484.212718457221
1.98529411764706,652.30865259541,810.201161462037,157.892508866627,-731.254907028724,247.208071864391,484.046835164332
1.98745674740484,650.855084944808,810.963448955149,160.108364010342,-730.909266949979,245.373360467233,485.535906482746
1.98961937716263,651.58847909702,810.168802340111,158.580323243091,-730.878640718566,246.504077926965,484.374562791601
1.99178200692042,652.164373776562,810.992880279403,158.82850650284,-731.578627027983,246.667933636861,484.910693391122
1.9939446366782,651.135780538327,811.824739043044,160.688958504717,-731.480259790685,245.223411016805,486.25684877388
1.99610726643599,653.422043761086,811.049996905654,157.627953144567,-732.23602033337,247.897045308259,484.338975025111
1.99826989619377,654.319910118839,811.041453262794,156.721543143954,-732.680681690817,248.799183487442,483.881498203374
2.00043252595156,656.145131201479,811.013812331648,154.868681130169,-733.579471766563,250.638225035655,482.941246730909
2.00259515570934,657.156489859708,810.986922351838,153.83043249213,-734.071706105773,251.663028683789,482.408677421984
2.00475778546713,658.008928368864,812.56560707961,154.556678710746,-735.287267724237,251.726124829059,483.561142895178
2.00692041522491,657.078224132835,811.781454869221,154.703230736386,-734.429839501028,251.187496698224,483.242342802804
2.0090830449827,656.837451942261,811.009967675613,154.172515733352,-733.923709808937,251.332468104455,482.591241704482
2.01124567474048,657.440951885769,811.82549677362,154.384544887851,-734.633224329695,251.528203498959,483.105020830735
2.01340830449827,655.831352247513,811.037116413084,155.205764165571,-733.434234330299,250.312794040971,483.121440289328
2.01557093425606,655.197839183717,809.437437681012,154.239598497295,-732.317638432364,250.479120343211,481.838518089154
2.01773356401384,655.435593097987,811.006708098406,155.571115000419,-733.221150598196,249.932239048784,483.288911549412
2.01989619377163,654.801885042259,810.989044559198,156.187159516938,-732.895464800728,249.30736276266,483.588102038068
2.02205882352941,653.989202540272,810.982039409333,156.992836869061,-732.485620974803,248.498182835606,483.987438139197
2.0242214532872,655.394250892479,810.99012503417,155.59587414169,-733.192187963325,249.899188375395,483.29299958793
2.02638408304498,655.163697832994,811.803246876263,156.639549043269,-733.483472354628,249.262074394862,484.221397959766
2.02854671280277,655.828927548422,811.821850340675,155.992922792253,-733.825388944549,249.918002378085,483.907386566464
2.03070934256055,656.678310720455,811.830129207309,155.151818486854,-734.254219963882,250.763246116801,483.490973847082
2.03287197231834,656.881367052379,811.030324040061,154.148956987682,-733.95584554622,251.366205032349,482.589640513871
2.03503460207612,657.896004459204,811.808818075163,153.912813615959,-734.852411267183,251.991595421623,482.860815845561
2.03719723183391,657.992191556873,810.20208710617,152.209895549298,-734.097139331521,252.891148003787,481.205991327734
2.0393598615917,659.491465623417,811.779262329572,152.287796706155,-735.635363976494,253.601834458631,482.033529517863
2.04152249134948,659.274399035681,812.572289757481,153.2978907218,-735.923344396581,252.98825415694,482.935090239641
2.04368512110727,660.65840097715,810.993258310136,150.334857332986,-735.825829643643,255.161771822082,480.664057821561
2.04584775086505,661.39157536723,811.013245509896,149.621670142666,-736.202410438563,255.884952612282,480.317457826281
2.04801038062284,659.924971258368,811.829647538041,151.904676279673,-735.877309398205,254.010147489348,481.867161908857
2.05017301038062,659.359805963941,810.252217682289,150.892411718348,-734.806011823115,254.233697122797,480.572314700318
2.05233564013841,657.1674217498,811.038331738121,153.870909988321,-734.10287674396,251.648255880739,482.454620863221
2.05449826989619,655.608098493271,812.598501366831,156.990402873561,-734.103299930051,249.308847809855,484.794452120196
2.05666089965398,653.866122318671,810.179830154186,156.313707835514,-732.022976236428,248.776207241579,483.24676899485
2.05882352941176,653.623976976728,812.543124067307,158.919147090579,-733.083550522018,247.352414943075,485.731135578943
2.06098615916955,652.650022863251,810.172786293739,157.522763430488,-731.411404578495,247.563629716381,483.847774862114
2.06314878892734,652.64766650639,811.804189014349,159.156522507959,-732.225927760369,246.745571999215,485.480355761154
2.06531141868512,652.033259618681,811.058818283691,159.025558665011,-731.546038951186,246.503850476835,485.042188474351
2.06747404844291,651.491548873833,811.875948920309,160.384400046476,-731.683748897071,245.553574413678,486.130174483392
2.06963667820069,651.659284959176,812.647383369132,160.988098409957,-732.153334164154,245.335593274609,486.817740889545
2.07179930795848,650.840564890936,810.999856561442,160.159291670506,-730.920210726189,245.340636610215,485.579574115974
2.07396193771626,650.636464791151,810.942194267519,160.305729476368,-730.789329529335,245.165367657391,485.623961871944
2.07612456747405,650.378157943243,810.13064005952,159.752482116277,-730.254399001381,245.312837913483,484.941561087899
2.07828719723183,647.845072395439,812.549708268757,164.704635873319,-730.197390332098,241.57021826106,488.627172071038
2.08044982698962,647.106479939142,811.822485732988,164.716005793846,-729.464482836065,241.195237072648,488.269245763417
2.0826124567474,648.128175657302,811.086033181235,162.957857523933,-729.607104419269,242.585159066685,487.021945352584
2.08477508650519,649.969058676112,812.687744448945,162.718685772833,-731.328401562528,243.62518645164,487.703215110889
2.08693771626298,649.290609191153,811.850588239841,162.559979048687,-730.570598715497,243.365315071233,487.205283644264
2.08910034602076,649.200465231564,811.776414572975,162.575949341411,-730.48843990227,243.312257945077,487.176181957193
2.09126297577855,648.966700176989,810.922733481347,161.956033304358,-729.944716829168,243.505333436316,486.439383392852
2.09342560553633,648.739681326581,810.916334724283,162.176653397702,-729.828008025432,243.28151396444,486.546494060993
2.09558823529412,647.867075492547,810.174265025326,162.307189532779,-729.020670258937,242.779942979884,486.240727279053
2.0977508650519,648.775643141435,811.841592534105,163.06594939267,-730.30861783777,242.854846874382,487.453770963388
2.09991349480969,649.002774681893,811.102071453732,162.099296771839,-730.052423067813,243.451738955027,486.600684112786
2.10207612456747,649.196121493526,811.892552242029,162.696430748503,-730.544336867778,243.249845372512,487.294491495266
2.10423875432526,648.443946913635,811.832247029237,163.388300115602,-730.138096971436,242.527823399016,487.610273572419
2.10640138408304,647.524187595544,810.959501024352,163.435313428808,-729.241844309948,242.044437083368,487.19740722658
2.10856401384083,648.112651335104,810.913557423914,162.80090608881,-729.513104379509,242.655872623147,486.857231756362
2.11072664359862,649.543236017546,811.722766967366,162.179530949819,-730.633001492456,243.681852533864,486.951148958592
2.1128892733564,648.729232068367,811.787197129176,163.057965060808,-730.258214598771,242.835633503779,487.422581094992
2.11505190311419,650.439080469325,811.860085629994,161.421005160668,-731.149583049659,244.509037654328,486.640545395331
2.11721453287197,649.824942601922,812.690570478603,162.865627876681,-731.257756540262,243.479657362621,487.778099177642
2.11937716262976,649.160733426247,811.874318238951,162.713584812704,-730.517525832599,243.223574306772,487.293951525827
2.12153979238754,647.583075151467,811.810230647311,164.227155495844,-729.696652899389,241.677959827811,488.018693071577
2.12370242214533,645.892149346192,812.538636488762,166.64648714257,-729.215392917477,239.622831101811,489.592561815666
2.12586505190311,645.743998928738,810.922080634764,165.178081706026,-728.333039781751,240.282958611356,488.050081170395
2.1280276816609,644.838512646347,811.74289829599,166.904385649643,-728.290705471169,238.967063498352,489.323641972817
2.13019031141869,642.435641288603,811.805258185203,169.3696168966,-727.120449736903,236.533012196001,490.587437540902
2.13235294117647,644.095714308753,811.069586048316,166.973871739564,-727.582650178534,238.560921284594,489.02172889394
2.13451557093426,646.59103788709,811.089964607878,164.498926720788,-728.840501247484,241.046055583151,487.794445664333
2.13667820069204,645.88807353901,811.061257656177,165.173184117166,-728.474665597593,240.357444710922,488.117220886671
2.13884083044983,646.717516880487,812.5895656358,165.872048755313,-729.653541258143,240.422734062587,489.230807195556
2.14100346020761,647.48816466301,810.945434440041,163.457269777032,-729.216799551525,242.015447442989,487.201352108536
2.1431660899654,647.424209094718,812.518008149303,165.093799054584,-729.971108622011,241.165205020067,488.805903601943
2.14532871972318,647.346105601956,810.962819274665,163.61671367271,-729.15446243831,241.864695964623,487.289766473687
2.14749134948097,645.690997679224,811.026265216578,165.335267537354,-728.358631447901,240.177865070935,488.180766376966
2.14965397923875,644.071771357647,811.080834815951,167.009063458304,-727.576303086799,238.531353949672,489.044949137127
2.15181660899654,644.888109381194,811.885011935893,166.9969025547,-728.386560658543,238.945603413247,489.440957245296
2.15397923875433,646.549775684957,810.253999603989,163.704223919032,-728.401887644473,241.422775882962,486.979111761511
2.15614186851211,649.03148147159,810.186725550971,161.155244079381,-729.609103511281,243.938118696105,485.670984815176
2.1583044982699,655.463532614656,812.51861059636,157.055077981705,-733.991071605508,249.204227316476,484.786844289033
2.16046712802768,663.411094778774,810.13153044681,146.720435668035,-736.771312612792,258.345329555369,478.425983057423
2.16262975778547,671.264223287127,810.974223918672,139.710000631545,-741.1192236029,265.777111327791,475.342112275109
2.16479238754325,675.09069062561,812.634750068407,137.544059442797,-743.862720347008,268.773315591406,475.089404755602
