t,leadI,leadII,leadIII,aVR,aVL,aVF
0,348,302,-46,-325,197,128
0.00276701715550636,343,323,-20,-333,181.5,151.5
0.00553403431101273,358.421608987412,348.571952486689,-9.84965650072371,-353.49678073705,184.135632744068,169.361147992982
0.00830105146651909,386.9259846916,385.929130495497,-0.996854196103357,-386.427557593549,193.961419443852,192.466138149697
0.0110680686220255,418.257474879609,428.035633976919,9.7781590973093,-423.146554428264,204.23965789115,218.906896537114
0.0138350857775318,439.226084848898,456.926064594292,17.6999797453936,-448.076074721595,210.763052551752,237.313022169843
0.0166021029330382,443.968206839774,473.956097856339,29.9878910165648,-458.962152348057,206.990157911605,251.971994436452
0.0193691200885446,449.204326980493,477.634189382867,28.4298624023742,-463.41925818168,210.387232289059,253.032025892621
0.0221361372440509,440.874444967984,453.106151101937,12.2317061339535,-446.99029803496,214.321369417015,232.668928617945
0.0249031543995573,426.770108162457,422.775762609649,-3.994345552808,-424.772935386053,215.382226857633,209.390708528421
0.0276701715550636,409.453748241885,389.321612926844,-20.1321353150405,-399.387680584364,214.792941778463,184.594738805902
0.03043718871057,374.656938465482,350.669147341322,-23.9877911241595,-362.663042903402,199.322364794821,163.340678108581
0.0332042058660764,333.983887682579,315.994916181027,-17.9889715015519,-324.989401931803,175.986429592065,149.002972339738
0.0359712230215827,304.413895476428,292.216525429728,-12.1973700467003,-298.315210453078,158.305632761564,140.009577691514
0.0387382401770891,289.161496439864,275.04261560332,-14.1188808365443,-282.102056021592,151.640188638204,130.461867383388
0.0415052573325955,292.717769143592,279.717340988532,-13.0004281550601,-286.217555066062,152.859098649326,133.358456416736
0.0442722744881018,303.008323851667,290.00760414513,-13.0007197065369,-296.507963998399,158.004521779102,138.503442219297
0.0470392916436082,305.065187180581,297.161561703473,-7.90362547710833,-301.113374442027,156.484406328845,144.628968113182
0.0498063087991146,298.967747689717,298.980754020121,0.0130063304039822,-298.974250854919,149.477370679657,149.496880175263
0.0525733259546209,291.544632186563,305.39756815776,13.8529359711972,-298.471100172162,138.845848107683,159.625252064479
0.0553403431101273,288.423124776921,301.158747979906,12.7356232029846,-294.790936378414,137.843750786968,156.947185591445
0.0581073602656337,292.629754112632,299.59506919828,6.96531508564846,-296.112411655456,142.832219513492,153.280192141964
0.06087437742114,303.763177015548,299.101481684083,-4.66169533146473,-301.432329349816,154.212436173506,147.219893176309
0.0636413945766464,301.922702119772,296.333227441312,-5.58947467845962,-299.127964780542,153.756088399116,145.371876381426
0.0664084117321527,296.938910714054,296.987756847445,0.0488461333910664,-296.963333780749,148.445032290331,148.518301490418
0.0691754288876591,287.743721200431,295.336254562654,7.59253336222321,-291.539987881542,140.075593919104,151.464393962439
0.0719424460431655,281.705642660233,295.190207223252,13.484564563019,-288.447924941743,134.110539048607,154.337385893136
0.0747094631986718,288.563767712242,296.48864331909,7.92487560684867,-292.526205515666,140.319446052697,152.20675946297
0.0774764803541782,300.461192873323,301.02055252231,0.559359648987652,-300.740872697816,149.950916612167,150.789956085649
0.0802434975096846,302.737449010376,299.372675048102,-3.36477396227394,-301.055062029239,153.051111486325,148.003950542914
0.0830105146651909,300.891933203384,297.979624250006,-2.9123089533781,-299.435778726695,151.902121078381,147.533657648314
0.0857775318206973,294.999937820438,298.421801704903,3.4218638844643,-296.71086976267,145.789036967987,150.921832794683
0.0885445489762037,281.989600680079,295.294118596552,13.3045179164728,-288.641859638316,134.342541381803,154.299318256513
0.09131156613171,284.506398757225,296.389480664768,11.8830819075435,-290.447939710996,136.311658424841,154.136281286156
0.0940785832872164,295.217726159529,299.921443167839,4.70371700830975,-297.569584663684,145.25700457561,152.312580088074
0.0968456004427228,301.622728644051,300.415974311875,-1.20675433217599,-301.019351477963,151.414741488113,149.604609989849
0.0996126175982291,303.847094632333,298.973105918135,-4.87398871419862,-301.410100275234,154.360541673266,147.049558601968
0.102379634753735,301.166737606741,299.484450684819,-1.6822869219219,-300.32559414578,151.424512264332,148.901081881449
0.105146651909242,289.19730039518,300.395442047524,11.1981416523441,-294.796371221352,138.999579371418,155.796791849934
0.107913669064748,287.439494626383,299.287568344198,11.8480737178151,-293.36353148529,137.795710454284,155.567821031006
0.110680686220255,297.1036000808,305.864291452473,8.76069137167281,-301.483945766637,144.171454354564,157.312491412073
0.113447703375761,304.603223200676,305.460605062071,0.85738186139514,-305.031914131374,151.87292066964,153.158993461733
0.116214720531267,307.806298805353,302.960110294494,-4.84618851085833,-305.383204549924,156.326243658106,149.056960891818
0.118981737686774,307.275034567151,302.573773723759,-4.70126084339216,-304.924404145455,155.988147705272,148.936256440183
0.12174875484228,296.350918310765,302.523424325606,6.17250601484091,-299.437171318186,145.089206147962,154.347965170223
0.124515771997786,287.368516661488,303.198338752416,15.8298220909281,-295.283427706952,135.76934728528,159.514080421672
0.127282789153293,295.033072492161,308.765644466095,13.7325719739339,-301.899358479128,140.650250259113,161.249108220014
0.130049806308799,303.666364880738,308.481066423164,4.81470154242618,-306.073715651951,149.425831669156,156.647883982795
0.132816823464305,308.785858284012,307.943850962774,-0.842007321238441,-308.364854623393,154.813932802625,153.550921820768
0.135583840619812,312.278553748619,310.664735796197,-1.61381795242187,-311.471644772408,156.94618585052,154.525458921888
0.138350857775318,307.393941636352,308.628997852835,1.23505621648275,-308.011469744593,153.079442709935,154.932027034659
0.141117874930825,298.269582278864,313.101596913988,14.8320146351236,-305.685589596426,141.71878382187,163.966805774556
0.143884892086331,301.093577368107,315.723090631994,14.6295132638875,-308.408334000051,143.23203205211,165.176301947941
0.146651909241837,306.842597727844,312.547330797656,5.70473306981182,-309.69496426275,150.568932329016,159.126031933734
0.149418926397344,311.784965510012,313.933894075969,2.14892856595702,-312.859429792991,154.818018472028,158.041411320963
0.15218594355285,319.22349995544,314.723952892885,-4.49954706255414,-316.973726424162,161.861523508997,155.112202915166
0.154952960708356,316.353681519003,315.73429784547,-0.619383673533491,-316.043989682237,158.486532596268,157.557457085968
0.157719977863863,307.151743380975,318.004680874535,10.8529374935608,-312.578212127755,148.149402943707,164.428809184048
0.160486995019369,306.196480177787,321.680151235071,15.4836710572838,-313.938315706429,145.356404560252,168.581911146177
0.163254012174876,310.095874466193,319.627860996383,9.53198653019047,-314.861867731288,150.281943968001,164.579923763287
0.166021029330382,315.808878984579,317.920399092857,2.11152010827811,-316.864639038718,156.84867943815,160.015959600568
0.168788046485888,323.114586113325,316.786375045954,-6.32821106737089,-319.95048057964,164.721398590348,155.229081989292
0.171555063641395,321.264907477384,319.867814132454,-1.39709334493006,-320.566360804919,161.331000411157,159.235360393762
0.174322080796901,315.024804474694,318.923988637661,3.89918416296689,-316.974396556177,155.562810155864,161.411586400314
0.177089097952407,309.298020851327,320.587613979553,11.2895931282259,-314.94281741544,149.00421386155,165.938603553889
0.179856115107914,309.379486641606,324.697104203142,15.3176175615365,-317.038295422374,147.030934540035,170.007360882339
0.18262313226342,319.860398058551,322.908182892436,3.04778483388498,-321.384290475494,158.406306612333,162.977983863161
0.185390149418926,329.961726221871,328.84093205753,-1.12079416434102,-329.4013291397,165.541260193106,163.860068946594
0.188157166574433,329.092721658239,327.933034040008,-1.15968761823183,-328.512877849124,165.126204638236,163.386673210888
0.190924183729939,323.860032823701,326.817632764306,2.95759994060512,-325.338832794003,160.451216441548,164.887616352455
0.193691200885446,321.470832988391,330.582571684945,9.11173869655437,-326.026702336668,156.179547145918,169.84715519075
0.196458218040952,316.721520327914,331.817454496274,15.0959341683603,-324.269487412094,150.812793079777,173.456694332317
0.199225235196458,323.919112644346,333.905253679239,9.98614103489302,-328.912183161793,156.966485804727,171.945697357066
0.201992252351965,335.828192283549,338.880659929086,3.05246764553664,-337.354426106317,166.387862319006,170.966563787311
0.204759269507471,341.948670585503,341.003332287293,-0.945338298210231,-341.476001436398,171.447004441857,170.028996994541
0.207526286662977,343.678076931353,342.697631290745,-0.980445640607343,-343.187854111049,172.32926128598,170.858592825069
0.210293303818484,339.665159554828,348.619221980024,8.95406242519596,-344.142190767426,165.355548564816,178.78664220261
0.21306032097399,333.084551128026,348.958894441152,15.8743433131259,-341.021722784589,158.60510390745,182.416618877139
0.215827338129496,333.968218284935,345.879931801358,11.9117135164227,-339.924075043146,161.028252384256,178.89582265889
0.218594355285003,344.758327358346,349.971469834161,5.21314247581523,-347.364898596253,169.772592441265,177.592306154988
0.221361372440509,348.873375756331,345.153880690491,-3.71949506584059,-347.013628223411,176.296435411086,170.717192812325
0.224128389596015,350.525495054862,347.629606027068,-2.89588902779326,-349.077550540965,176.710692041327,172.366858499638
0.226895406751522,349.735306860221,352.517779419166,2.78247255894536,-351.126543139693,173.476417150638,177.650125989056
0.229662423907028,338.34923390358,348.005137630917,9.65590372733749,-343.177185767248,164.346665088121,178.830520679127
0.232429441062535,332.028080031042,345.879335619738,13.8512555886958,-338.95370782539,159.088412221173,179.865295604217
0.235196458218041,341.662593038137,347.980032208667,6.31743917053029,-344.821312623402,167.672576933803,177.148735689599
0.237963475373547,347.836349973119,348.280040451034,0.443690477915311,-348.058195212077,173.696329747602,174.361865464475
0.240730492529054,352.407584108046,348.561805752496,-3.84577835555012,-350.484694930271,178.126681231798,172.358013698473
0.24349750968456,355.708864797901,354.416317561061,-1.29254723683988,-355.062591179481,178.500706017371,176.561885162111
0.246264526840066,344.513398044004,352.068102547896,7.55470450389151,-348.29075029595,168.479346770056,179.811403525894
0.249031543995573,334.057347526112,347.869616442892,13.8122689167798,-340.963481984502,160.122539304666,180.840942679836
0.251798561151079,336.647408631017,345.008157957924,8.36074932690735,-340.82778329447,164.143329652055,176.684453642416
0.254565578306585,342.932606863403,342.449374327564,-0.48323253583925,-342.690990595483,171.707919699621,170.983070895862
0.257332595462092,345.35325415557,337.547555809609,-7.80569834596184,-341.45040498259,176.579476250766,164.870928731823
0.260099612617598,345.547350942805,340.203761724071,-5.34358921873411,-342.875556333438,175.445470080769,167.430086252668
0.262866629773105,336.573414319112,336.055214232479,-0.518200086633215,-336.314314275795,168.545807202873,167.768507072923
0.265633646928611,322.104099586645,329.907409032289,7.80330944564395,-326.005754309467,157.1503950705,168.855359238966
0.268400664084117,320.57696072407,329.910023149935,9.33306242586508,-325.243491937002,155.621949149102,169.6215427879
0.271167681239624,324.007164978182,327.494197028486,3.48703205030404,-325.750681003334,160.260066463939,165.490614539395
0.27393469839513,327.352300929228,321.530681537009,-5.82161939221851,-324.441491233119,166.586960160723,157.854531072395
0.276701715550636,328.288193403349,320.001494946801,-8.28669845654775,-324.144844175075,168.287445929948,155.857398245127
0.279468732706143,321.507344215553,316.080625820591,-5.42671839496137,-318.793985018072,163.467031305257,155.326953712815
0.282235749861649,304.135079963593,309.984067765896,5.8489878023035,-307.059573864745,149.143046080645,157.9165277841
0.285002767017156,296.522045629038,304.756968398514,8.23492276947587,-300.639507013776,144.143561429781,156.495945583995
0.287769784172662,298.145906451503,301.494723094609,3.34881664310586,-299.820314773056,147.398544904198,152.421769868857
0.290536801328168,302.419738692684,297.550847960831,-4.86889073185307,-299.985293326758,153.644314712269,146.340978614489
0.293303818483675,305.93664237485,298.741355116192,-7.19528725865871,-302.338998745521,156.565964816755,145.773033928766
0.296070835639181,303.290303310038,296.99569968522,-6.29460362481751,-300.143001497629,154.792453467428,145.350548030201
0.298837852794687,288.119966644366,291.021079295979,2.90111265161318,-289.570522970173,142.609426996377,146.961095973796
0.301604869950194,279.534385523024,292.673965350477,13.1395798274527,-286.104175436751,133.197402847786,152.906772588965
0.3043718871057,284.351539523732,293.521695880878,9.17015635714569,-288.936617702305,137.590691583293,151.345926119012
0.307138904261206,289.483056891166,289.517544020562,0.0344871293955293,-289.500300455864,144.724284880885,144.776015574979
0.309905921416713,298.651345456932,293.607155900721,-5.04418955621111,-296.129250678827,151.847767506572,144.281483172255
0.312672938572219,300.070134551162,295.019336507857,-5.05079804330495,-297.54473552951,152.560466297234,144.984269232276
0.315439955727726,289.036738129835,289.036512591963,-0.000225537871358483,-289.036625360899,144.518481833853,144.518143527046
0.318206972883232,278.662259176798,289.662535950044,11.0002767732459,-284.162397563421,133.830991201776,150.331406361645
0.320973990038738,277.678920725758,285.619162484845,7.9402417590872,-281.649041605302,134.869339483335,146.779702121966
0.323741007194245,280.585824666445,285.522239615707,4.93641494926231,-283.054032141076,137.824704858591,145.229327282485
0.326508024349751,291.356331377777,288.443383419263,-2.91294795851371,-289.89985739852,147.134639668145,142.765217730375
0.329275041505257,293.805775451252,288.983003122122,-4.82277232913026,-291.394389286687,149.314273890191,142.080115396496
0.332042058660764,285.940361639256,288.045879910896,2.10551827163994,-286.993120775076,141.917421683808,145.075699091268
0.33480907581627,277.773702047791,284.659787328558,6.88608528076753,-281.216744688175,135.443808383512,145.772936304663
0.337576092971776,272.998238226823,286.746264105658,13.7480258788352,-279.872251166241,129.625106173994,150.247144992247
0.340343110127283,275.693341406969,284.506956921745,8.8136155147763,-280.100149164357,133.439862946096,146.660286218261
0.343110127282789,289.096657589891,288.320140706158,-0.776516883733336,-288.708399148024,144.936587236812,143.771811911212
0.345877144438296,295.552841242755,291.988478410093,-3.56436283266191,-293.770659826424,149.558602037709,144.212057788716
0.348644161593802,294.803384644927,290.033948242957,-4.76943640197027,-292.418666443942,149.786410523449,142.632255920493
0.351411178749308,285.935401072376,287.684476993178,1.74907592080189,-286.809939032777,142.093162575787,144.71677645699
0.354178195904815,273.393590217374,286.890056558585,13.4964663412112,-280.141823387979,129.948561938081,150.193261449898
0.356945213060321,272.83042925809,282.511338595765,9.68090933767485,-277.670883926927,131.574759960208,146.09612396672
0.359712230215827,283.839796094177,287.180993923709,3.34119782953297,-285.510395008943,140.249299132322,145.261095876621
0.362479247371334,292.293783959674,290.964048627947,-1.32973533172765,-291.628916293811,146.811759645701,144.81715664811
0.36524626452684,291.679053782738,289.027853643071,-2.65120013966668,-290.353453712904,147.165126961202,143.188326751702
0.368013281682346,288.029292177432,291.690402383508,3.66111020607553,-289.85984728047,142.184090985678,147.675756294792
0.370780298837853,277.716939940877,287.002174916979,9.28523497610252,-282.359557428928,134.215852482387,148.143704946541
0.373547315993359,273.927640319621,287.507064180439,13.5794238608179,-280.71735225003,130.174108229402,150.543244020628
0.376314333148866,283.657384304535,290.075054759233,6.41767045469777,-286.866219531884,138.619856924919,148.246362606965
0.379081350304372,294.136026149351,293.983521098824,-0.152505050526941,-294.059773624088,147.144265599939,146.915508024149
0.381848367459878,295.573735991278,292.024825917215,-3.54891007406366,-293.799280954246,149.561323032671,144.237957921575
0.384615384615385,298.102463230312,295.69894240864,-2.4035208216722,-296.900702819476,150.252992025992,146.647710793484
0.387382401770891,286.985979998328,292.129688269446,5.14370827111736,-289.557834133887,140.921135863606,148.636698270282
0.390149418926397,275.982296904016,286.490509820062,10.5082129160464,-281.236403362039,132.737041993985,148.499361368054
0.392916436081904,282.531501455887,292.969710013669,10.4382085577825,-287.750605734778,136.046646449052,151.703959285726
0.39568345323741,291.088212218661,294.004768754802,2.91655653614094,-292.546490486732,144.08582784126,148.460662645472
0.398450470392916,295.550702041309,289.040929995001,-6.509772046308,-292.295816018155,151.030237043809,141.265578974347
0.401217487548423,297.08306392249,292.673342814927,-4.40972110756275,-294.878203368709,150.746392515026,144.131810853682
0.403984504703929,293.125798726466,293.222665322297,0.0968665958313863,-293.174232024382,146.514466065317,146.659765959064
0.406751521859436,279.991412361488,290.482463634515,10.4910512730269,-285.236937998002,134.750180544231,150.486757453771
0.409518539014942,280.455437967276,293.872473225799,13.4170352585233,-287.163955596537,133.519201354376,153.644754242161
0.412285556170448,290.149475622682,295.05369095188,4.90421532919788,-292.601583287281,142.622630146742,149.978953140539
0.415052573325955,293.579561763058,292.07019513847,-1.50936662458776,-292.824878450764,147.544464193823,145.280414256941
0.417819590481461,298.016377645885,293.65132816512,-4.36504948076498,-295.833852905502,151.190713563325,144.643139342177
0.420586607636967,296.1537934867,293.308917698678,-2.84487578802162,-294.731355592689,149.499334637361,145.232020955328
0.423353624792474,284.959011444789,291.481989604303,6.52297815951465,-288.220500524546,139.218016642637,149.002483881909
0.42612064194798,278.413407194841,294.765264520609,16.3518573257677,-286.589335857725,131.030774934537,155.558560923188
0.428887659103486,286.292913311735,295.079650050334,8.78673673859896,-290.686281681035,138.753088286568,151.933193394466
0.431654676258993,292.679766421537,293.095976165211,0.416209743673789,-292.887871293374,146.131778338932,146.756092954442
0.434421693414499,297.906455237847,294.626729968751,-3.27972526909571,-296.266592603299,150.593090253471,145.673502349828
0.437188710570006,299.07669983431,295.393249968216,-3.68344986609401,-297.234974901263,151.380074850202,145.854900051061
0.439955727725512,289.866102566989,292.47435586188,2.6082532948912,-291.170229214435,143.628924636049,147.541304578386
0.442722744881018,283.4068487871,298.665552553297,15.2587037661967,-291.036200670199,134.074072510452,156.962128159747
0.445489762036525,284.508778064269,297.111809580457,12.6030315161877,-290.810293822363,135.952873274041,154.857420548322
0.448256779192031,290.822057595568,294.117207491736,3.29514989616774,-292.469632543652,143.7634538497,148.706178693952
0.451023796347537,300.778453361561,298.604148722083,-2.17430463947807,-299.691301041822,151.47637900052,148.214922041303
0.453790813503044,303.926217450311,299.475939666173,-4.45027778413805,-301.701078558242,154.188247617225,147.512830941018
0.45655783065855,298.713624316645,299.458745912821,0.745121596176318,-299.086185114733,148.984251360234,150.101933754499
0.459324847814056,291.433811368455,304.585494918218,13.1516835497628,-298.009653143337,139.141063909346,158.868589233991
0.462091864969563,287.828672254101,303.191711549901,15.3630392957995,-295.510191902001,136.232816479151,159.27737542285
0.464858882125069,290.011468583492,298.14726807497,8.13579949147754,-294.079368329231,140.937834546007,153.141533783224
0.467625899280576,298.639935245107,299.581803491192,0.941868246084766,-299.11086936815,148.849033499511,150.261835868638
0.470392916436082,303.741881088509,301.576543681824,-2.16533740668507,-302.659212385167,152.953609247597,149.70560313757
0.473159933591588,303.565605306616,299.472072520151,-4.09353278646483,-301.518838913383,153.82956904654,147.689269866843
0.475926950747095,298.432652323189,305.473777360549,7.0411250373603,-301.953214841869,145.695763642914,156.257451198955
0.478693967902601,293.112487520025,308.206973588797,15.0944860687726,-300.659730554411,139.009000725626,161.650729828785
0.481460985058107,294.180246764152,308.146159519489,13.9659127553377,-301.163203141821,140.107167004407,161.056036137414
0.484228002213614,306.539553470717,310.586922928439,4.04736945772186,-308.563238199578,151.246092006498,157.31714619308
0.48699501936912,313.60490550734,312.732310864625,-0.872594642715399,-313.168608185982,157.238750075028,155.929858110955
0.489762036524626,312.379354049414,310.470353481238,-1.90900056817526,-311.424853765326,157.144177308794,154.280676456532
0.492529053680133,309.443278993288,309.395086563687,-0.0481924296015563,-309.419182778487,154.745735711445,154.673447067043
0.495296070835639,300.457934686425,312.31029258706,11.8523579006358,-306.384113636743,144.302788392894,162.081325243848
0.498063087991146,296.391496772077,312.21352052808,15.8220237560029,-304.302508650079,140.284736508037,164.017772142042
0.500830105146652,303.427939056788,308.542573430076,5.11463437328854,-305.985256243432,149.15665234175,156.828603901682
0.503597122302158,311.445447196411,309.793872177809,-1.65157501860261,-310.61965968711,156.548511107507,154.071148579603
0.506364139457665,311.251081626492,306.503073875818,-4.74800775067416,-308.877077751155,157.999544688583,150.877533062572
0.509131156613171,311.389802039351,309.269862491455,-2.11993954789523,-310.329832265403,156.754870793623,153.57496147178
0.511898173768677,301.672089967356,309.283736444447,7.61164647709063,-305.477913205901,147.030221745133,158.447691460769
0.514665190924184,292.568006168243,303.244206014196,10.6761998459529,-297.906106091219,140.945903161145,156.960202930074
0.51743220807969,294.334331177689,302.48968999439,8.15535881670149,-298.41201058604,143.089486180494,155.322524405546
0.520199225235196,302.327393145363,299.835179782903,-2.49221336246006,-301.081286464133,152.409803253911,148.671483210221
0.522966242390703,302.195977047378,296.575373260177,-5.62060378720105,-299.385675153777,153.908290417289,145.477384736488
0.525733259546209,304.281892589297,301.121997516385,-3.15989507291181,-302.701945052841,153.720893831104,148.981051221737
0.528500276701716,298.745032837455,301.185920027985,2.44088719052922,-299.96547643272,148.152072823463,151.813403609257
0.531267293857222,286.683325835467,300.261221913329,13.5778960778621,-293.472273874398,136.552714878802,156.919558995595
0.534034311012728,287.271949960716,296.453810558192,9.18186059747643,-291.862880259454,139.04504468162,152.817835577834
0.536801328168235,293.280790428282,293.929879881546,0.649089453263684,-293.605335154914,146.315850487509,147.289484667405
0.539568345323741,295.193230886135,291.666822913943,-3.52640797219243,-293.430026900039,149.359819429164,144.070207470875
0.542335362479247,297.157342099835,291.984964570539,-5.17237752929634,-294.571153335187,151.164859814566,143.406293520621
0.545102379634754,295.751640945758,293.099045091672,-2.65259585408666,-294.425343018715,149.202118399922,145.223224618792
0.54786939679026,282.757586462449,289.287937921623,6.53035145917352,-286.022762192036,138.113617501638,147.909144690398
0.550636413945766,278.233329197059,290.3995848882,12.1662556911404,-284.31645704263,133.033536752959,151.28292028967
0.553403431101273,283.30756806073,287.950732505654,4.6431644449242,-285.629150283192,139.332201807903,146.296948475289
0.556170448256779,289.255838533892,285.711718701039,-3.54411983285354,-287.483778617465,146.399979183373,141.083799434093
0.558937465412286,294.01641248595,290.869194542298,-3.1472179436513,-292.442803514124,148.5818152148,143.860988299323
0.561704482567792,296.666458762867,292.050333489199,-4.61612527366867,-294.358396126033,150.641292018268,143.717104107765
0.564471499723298,283.738864667882,289.296499485475,5.55763481759328,-286.517682076678,139.090614925144,147.427067151534
0.567238516878805,277.232229402565,289.36950594187,12.1372765393045,-283.300867672218,132.54747643163,150.753391240587
0.570005534034311,276.468771554247,286.054795644629,9.58602409038178,-281.261783599438,133.441373731932,147.820409867505
0.572772551189817,282.40790275452,283.798399790311,1.39049703579047,-283.103151272416,140.508702859365,142.594448413051
0.575539568345324,289.85673697033,286.752865254445,-3.10387171588485,-288.304801112388,146.480304343108,141.82449676928
0.57830658550083,293.464981965224,288.983534177761,-4.4814477874624,-291.224258071493,148.973214876343,142.25104319515
0.581073602656336,285.657508525775,285.307253973088,-0.350254552686636,-285.482381249432,143.003881539231,142.478499710201
0.583840619811843,273.242528431233,287.330496751558,14.0879683203255,-280.286512591395,129.577280055454,150.709232535942
0.586607636967349,271.714150261357,285.125729803471,13.4115795421141,-278.419940032414,129.151285359621,149.268654672792
0.589374654122856,277.624825780278,280.860138957843,3.23531317756476,-279.242482369061,137.194756301357,142.047726067704
0.592141671278362,281.698144404082,277.647413370947,-4.05073103313453,-279.672778887515,142.874437718608,136.798341168906
0.594908688433868,286.212274645286,275.951366815819,-10.2609078294666,-281.081820730552,148.236591237376,132.845229493176
0.597675705589375,282.559228367662,279.420032175446,-3.13919619221565,-280.989630271554,142.849212279939,138.140417991615
0.600442722744881,272.239750907146,281.265840764336,9.02608985719058,-276.752795835741,131.606830524978,145.145965310763
0.603209739900387,267.927112336366,284.060019790683,16.1329074543166,-275.993566063524,125.897102441025,150.0964636225
0.605976757055894,269.823545371317,278.816643445988,8.99309807467085,-274.320094408653,130.415223648323,143.90487076033
0.6087437742114,284.55634776977,287.568474543851,3.01212677408051,-286.06241115681,140.772110497845,145.290300658966
0.611510791366907,302.953404658175,308.0223592734,5.06895461522595,-305.487881965787,148.942225021474,156.545656944313
0.614277808522413,321.274354501997,330.295387424847,9.0210329228492,-325.784870963422,156.126660789574,169.658210173848
0.617044825677919,340.30798731264,365.314218685671,25.006231373031,-352.811102999156,157.650877969805,195.160225029351
0.619811842833426,362.560846601986,403.568565848618,41.0077192466326,-383.064706225302,160.776563677676,222.288142547625
0.622578859988932,390.674055930902,432.379959394054,41.7059034631521,-411.527007662478,174.484076233875,237.042931428603
0.625345877144438,425.619802891838,457.711038674808,32.0912357829703,-441.665420783323,196.764283554434,244.901137228889
0.628112894299945,451.885320956018,473.493886577501,21.6085656214827,-462.68960376676,215.138377667268,247.551226099492
0.630879911455451,449.037141078934,460.405045767107,11.3679046881724,-454.721093423021,218.834618195381,235.88647522764
0.633646928610957,431.417460030602,434.373828607284,2.95636857668239,-432.895644318943,214.23054572696,218.665098591983
0.636413945766464,398.780044789138,395.437498724973,-3.34254606416511,-397.108771757055,201.061295426651,196.047476330404
0.63918096292197,360.494201563925,358.218003361251,-2.27619820267387,-359.356102462588,181.3851998833,177.970902579289
0.641947980077477,337.373946625382,319.408286116963,-17.9656605084185,-328.391116371173,177.6698035669,150.721312804272
0.644714997232983,319.897472603391,295.210822354165,-24.6866502492262,-307.554147478778,172.292061426309,135.26208605247
0.647482014388489,302.208682664061,277.6710031252,-24.5376795388618,-289.939842894631,163.373181101462,126.566661793169
0.650249031543996,295.206259269847,273.134248378943,-22.0720108909042,-284.170253824395,158.639135080376,125.531118744019
0.653016048699502,283.74533953915,275.067097887533,-8.67824165161733,-279.406218713342,146.211790595384,133.194428117958
0.655783065855008,275.466019980417,281.917661383219,6.45164140280207,-278.691840681818,134.507189288807,144.184651393011
0.658550083010515,284.237522362285,291.296422782532,7.05890042024663,-287.766972572408,138.589310971019,149.177661601389
0.661317100166021,294.416136009989,296.061992129892,1.6458561199027,-295.239064069941,146.385139945043,148.853924124897
0.664084117321527,296.01802713596,295.597706944044,-0.420320191916005,-295.807867040002,148.219173663938,147.588693376064
0.666851134477034,298.168575759247,292.11962300215,-6.04895275709754,-295.144099380698,152.108764258172,143.035335122526
0.66961815163254,292.990041694829,295.361961295919,2.37191960108953,-294.176001495374,145.30906104687,148.866940448504
0.672385168788047,280.659045653158,293.057482391129,12.3984367379714,-286.858264022143,134.130304457593,152.72795956455
0.675152185943553,278.157620378214,290.204922734744,12.0473023565303,-284.181271556479,133.055159010842,151.126112545637
0.677919203099059,287.308217364372,296.037432138349,8.72921477397722,-291.672824751361,139.289501295197,152.383323456163
0.680686220254566,291.023640463645,289.645673843601,-1.37796662004394,-290.334657153623,146.200803541844,144.133853611778
0.683453237410072,293.109240520579,285.075269426611,-8.03397109396747,-289.092254973595,150.571605807273,138.520649166322
0.686220254565578,293.024235647962,289.361477578405,-3.66275806955724,-291.192856613184,148.34349685876,142.849359754424
0.688987271721085,280.736845023122,287.130721635278,6.39387661215613,-283.9337833292,137.171484205483,146.762299123717
0.691754288876591,275.088784646855,290.114210471423,15.0254258245673,-282.601497559139,130.031679411144,152.569818147995
0.694521306032097,284.286103781022,293.959322034974,9.67321825395214,-289.122712907998,137.306442763535,151.816270144463
0.697288323187604,289.081294101149,289.661326503489,0.580032402340407,-289.371310302319,144.250630849404,145.120679452915
0.70005534034311,295.049471637615,293.035394342784,-2.01407729483049,-294.042432990199,148.531774466223,145.510658523977
0.702822357498617,296.019561991564,291.429944167455,-4.58961782410881,-293.72475307951,150.304589907836,143.420163171673
0.705589374654123,285.760853830294,291.215659181023,5.45480535072949,-288.488256505658,140.153024239782,148.335232265876
0.708356391809629,277.02377076988,291.0296917815,14.0059210116203,-284.02673127569,131.50892487913,152.51780639656
0.711123408965136,280.353599079967,291.944003486616,11.5904044066486,-286.148801283291,134.381597336659,151.767203946632
0.713890426120642,286.239003619126,290.740510508883,4.50150688975651,-288.489757064004,140.868748364685,147.62100869932
0.716657443276148,294.992343352111,288.994222090453,-5.99812126165847,-291.993282721282,150.495232306885,141.498050414397
0.719424460431655,297.907485626869,297.441429532893,-0.46605609397534,-297.674457579881,149.186770860422,148.487686719459
0.722191477587161,296.689304233822,292.221601023388,-4.46770321043397,-294.455452628605,150.578503722128,143.876948906477
0.724958494742667,286.953955159066,297.946170171519,10.9922150124532,-292.450062665292,137.980870073306,154.469192591986
0.727725511898174,287.557509298606,300.984891940991,13.4273826423844,-294.271200619798,137.065063328111,157.206137291687
0.73049252905368,291.461836766056,295.799153166084,4.33731640002748,-293.63049496607,143.562260183014,150.068234783056
0.733259546209187,296.943487679203,294.953118637557,-1.99036904164558,-295.94830315838,149.466928360424,146.481374797956
0.736026563364693,302.796520464636,299.501842045915,-3.29467841872139,-301.149181255275,153.045599441679,148.103581813597
0.738793580520199,301.595130382865,299.313467569329,-2.28166281353657,-300.454298976097,151.938396598201,148.515902377896
0.741560597675706,291.875166891664,299.863227031633,7.98806013996943,-295.869196961649,141.943553375847,153.925643585801
0.744327614831212,287.731325686642,301.985850260636,14.2545245739948,-294.858587973639,136.738400556323,158.120187417316
0.747094631986718,290.723061895438,301.884583588813,11.1615216933754,-296.303822742126,139.780770101031,156.523052641094
0.749861649142225,299.907649213075,301.911947238089,2.00429802501384,-300.909798225582,148.951675594031,151.958122631552
0.752628666297731,306.612717658659,303.544622974559,-3.06809468410006,-305.078670316609,154.840406171379,150.238264145229
0.755395683453237,306.429951798332,302.380096253388,-4.04985554494397,-304.40502402586,155.239903671638,149.165120354222
0.758162700608744,301.78282347199,304.781569798406,2.99874632641576,-303.282196635198,149.392038572787,153.890158062411
0.76092971776425,295.964552686718,307.982336229757,12.0177835430392,-301.973444458238,141.973384571839,160.000059886398
0.763696734919757,292.004727510229,305.934264057883,13.9295365476539,-298.969495784056,139.037595481288,159.931900302769
0.766463752075263,300.884492114681,307.868928265876,6.98443615119521,-304.376710190278,146.950027981743,157.426682208536
0.769230769230769,309.433130195665,307.605128249966,-1.82800194569893,-308.519129222816,155.630566070682,152.888563152134
0.771997786386276,311.271145926866,310.473940550777,-0.797205376088414,-310.872543238822,156.034175651477,154.838367587344
0.774764803541782,313.679200476613,310.699678172748,-2.97952230386431,-312.18943932468,158.329361390238,153.860077934442
0.777531820697288,307.182876872361,317.992018766735,10.8091418943745,-312.587447819548,148.186867488993,164.400580330555
0.780298837852795,298.268845566236,314.975645996805,16.706800430569,-306.622245781521,140.781022567834,165.841223213687
0.783065855008301,303.866999043844,312.819265620585,8.9522665767409,-308.343132332215,147.457366233552,160.885766098663
0.785832872163807,316.316184860266,318.707042295003,2.39085743473674,-317.511613577635,156.962663712765,160.54894986487
0.788599889319314,319.147319212745,320.571859248855,1.42454003611044,-319.8595892308,158.861389588317,160.998199642483
0.79136690647482,324.565549901894,320.616386101165,-3.94916380072891,-322.590968001529,164.257356851311,158.333611150218
0.794133923630327,320.382093084193,323.017109112549,2.63501602835566,-321.699601098371,158.873538527919,162.826062570452
0.796900940785833,309.518289873155,322.079969129407,12.5616792562522,-315.799129501281,148.478305308451,167.32082419283
0.799667957941339,309.850465877048,324.776558697543,14.9260928204959,-317.313512287296,147.462186528276,169.85132575902
0.802434975096846,320.258718911972,325.743760565296,5.48504165332417,-323.001239738634,157.386838629324,165.61440110931
0.805201992252352,327.112689033681,326.637074142653,-0.475614891027021,-326.874881588167,163.794151962354,163.080729625813
0.807969009407858,329.454449062976,325.532686525778,-3.92176253719833,-327.493567794377,166.688105800087,160.80546199429
0.810736026563365,331.490486034476,330.03659447698,-1.45389155749552,-330.763540255728,166.472188795986,164.291351459742
0.813503043718871,320.698027992671,332.172610988375,11.4745829957035,-326.435319490523,154.611722498484,171.823596992039
0.816270060874377,318.828202256847,331.728101315465,12.8998990586175,-325.278151786156,152.964151599115,172.314000187041
0.819037078029884,328.268964441603,334.807659458433,6.53869501682976,-331.538311950018,160.865134712387,170.673177237631
0.82180409518539,335.13147741796,337.729331845208,2.59785442724808,-336.430404631584,166.266811495356,170.163593136228
0.824571112340897,340.34648843963,336.445653391952,-3.90083504767836,-338.396070915791,172.123661743654,166.272409172137
0.827338129496403,345.555367641347,343.075180046609,-2.48018759473814,-344.315273843978,174.017777618043,170.297496225935
0.830105146651909,334.820661512454,341.2548813792,6.43421986674537,-338.037771445827,164.193220822854,173.844550622972
0.832872163807416,325.792428587855,340.677655971985,14.8852273841306,-333.23504227992,155.453600601862,177.781441678058
0.835639180962922,330.347095479272,341.873584930059,11.5264894507866,-336.110340204665,159.410303014243,176.700037190423
0.838406198118428,339.284021940769,344.850474201448,5.56645226067815,-342.067248071109,166.858784840046,175.208463231063
0.841173215273935,345.268192973159,343.369686950345,-1.89850602281427,-344.318939961752,173.583349497987,170.735590463765
0.843940232429441,350.473812451517,348.056328748717,-2.41748370279936,-349.265070600117,176.445648077158,172.819422522959
0.846707249584947,344.841173403259,346.335908578022,1.49473517476241,-345.588540990641,171.673219114248,173.915321876392
0.849474266740454,331.74065611899,341.63272893116,9.89207281216937,-336.686692525075,160.92429165341,175.762400871665
0.85224128389596,330.473674256789,343.898205236551,13.424530979762,-337.18593974667,158.524571638514,178.661368108157
0.855008301051467,336.523628890609,342.967506821801,6.4438779311912,-339.745567856205,165.039875479709,174.705692376496
0.857775318206973,342.227651420476,343.312426731673,1.08477531119661,-342.770039076075,170.57143805464,172.198601021435
0.860542335362479,350.264957628411,343.966292158249,-6.29866547016104,-347.11562489333,178.281811549286,168.833813344044
0.863309352517986,345.737873363105,341.397254830271,-4.34061853283401,-343.567564096688,175.03924594797,168.528318148719
0.866076369673492,331.674316012361,338.604636994028,6.93032098166697,-335.139476503195,162.371997515347,172.767478987848
0.868843386828998,324.615043085744,336.857194114911,12.2421510291673,-330.736118600327,156.186446028288,174.549672572039
0.871610403984505,325.840047327206,332.071209686534,6.23116235932775,-328.95562850687,159.804442483939,169.151186022931
0.874377421140011,328.235663713463,326.277940848356,-1.95772286510743,-327.25680228091,165.096693289285,162.160108991624
0.877144438295517,333.928979139748,325.794213316741,-8.13476582300774,-329.861596228245,171.031872481378,158.829723746867
0.879911455451024,328.57096609661,322.448445878582,-6.12252021802783,-325.509705987596,167.346743157319,158.162962830277
0.88267847260653,315.62804705711,315.61126180029,-0.0167852568196736,-315.6196544287,157.822416156965,157.797238271735
0.885445489762037,304.639181990512,315.688245907156,11.0490639166443,-310.163713948834,146.795059036934,163.3686549119
0.888212506917543,302.11180748724,309.101849859491,6.99004237225097,-305.606828673365,147.560882557494,158.045946115871
0.890979524073049,304.283569519218,306.263660358638,1.98009083941992,-305.273614938928,151.151739339899,154.121875599029
0.893746541228556,313.525503964907,308.58397179744,-4.94153216746651,-311.054737881174,159.233518066187,151.821219814987
0.896513558384062,312.317655892504,305.431497690241,-6.886158202263,-308.874576791372,159.601907047383,149.272669743989
0.899280575539568,305.555588871482,300.604963570487,-4.95062530099506,-303.080276220985,155.253107086239,147.827169134746
0.902047592695075,294.728053229543,299.590249978316,4.86219674877299,-297.159151603929,144.932928240385,152.226223363544
0.904814609850581,285.409149993954,297.184543946042,11.7753939520887,-291.296846969998,136.816878020933,154.479968949066
0.907581627006087,289.343562841216,293.246892037865,3.90332919664928,-291.295227439541,142.720116822283,148.575110617257
0.910348644161594,296.174175795921,292.419816095112,-3.75435970080883,-294.296995945517,149.964267748365,144.332728197152
0.9131156613171,296.086901383919,291.459152618817,-4.62774876510258,-293.773027001368,150.357325074511,143.415701926857
0.915882678472607,293.486013030194,288.6105449162,-4.87546811399386,-291.048278973197,149.180740572094,141.867538401103
0.918649695628113,284.780897291656,287.48056820041,2.69967090875417,-286.130732746033,141.040613191451,145.090119554582
0.921416712783619,273.666873161763,285.217855987561,11.5509828257981,-279.442364574662,131.057945167982,148.38441940668
0.924183729939126,275.398025470091,284.224520263186,8.82649479309515,-279.811272866638,133.285765338498,146.52550752814
0.926950747094632,287.892981469392,289.2952242685,1.40224279910831,-288.594102868946,143.245369335142,145.348733533804
0.929717764250138,291.870979089334,289.448442589407,-2.42253649992631,-290.65971083937,147.14675779463,143.51295304474
0.932484781405645,292.381810492891,286.574849659935,-5.80696083295612,-289.478330076413,149.094385662923,140.383944413489
0.935251798561151,286.90953196665,287.491182197947,0.581650231296294,-287.200357082298,143.163940867677,144.036416214621
0.938018815716657,273.967638713621,285.343795154264,11.3761564406435,-279.655716933942,131.295741136489,148.359975797454
0.940785832872164,270.445480753129,283.201777570165,12.7562968170363,-276.823629161647,128.844591968046,147.979037193601
0.94355285002767,280.68555407947,285.200589447122,4.51503536765182,-282.943071763296,138.085259355909,144.857812407387
0.946319867183177,286.738155938115,286.485092709308,-0.25306322880698,-286.611624323712,143.495609583461,143.116014740251
0.949086884338683,288.301914963571,285.559129921328,-2.74278504224321,-286.93052244245,145.522350002907,141.408172439542
0.951853901494189,290.956832002614,286.460513590726,-4.49631841188778,-288.70867279667,147.726575207251,140.982097589419
0.954620918649696,279.152427008675,286.420791872644,7.26836486396957,-282.786609440659,135.942031072353,146.844578368307
0.957387935805202,271.448320189429,287.164267841972,15.7159476525432,-279.3062940157,127.866186268443,151.440107747257
0.960154952960708,281.602958329026,290.153886276336,8.55092794731013,-285.878422302681,136.526015190858,149.352407111823
0.962921970116215,288.73347944135,287.537928721575,-1.19555071977442,-288.135704081463,144.964515080562,143.171189000901
0.965688987271721,290.240506341611,288.538299029367,-1.7022073122443,-289.389402685489,145.971356826928,143.418045858561
0.968456004427227,292.969678800207,290.449626327767,-2.5200524724392,-291.709652563987,147.744865636323,143.964786927664
0.971223021582734,288.309695767315,290.501560872456,2.19186510514089,-289.405628319885,143.058915331087,146.346712988798
0.97399003873824,275.43214331655,288.120501788185,12.6883584716347,-281.776322552368,131.371892422458,150.40443012991
0.976757055893747,279.569267752776,293.114021567,13.5447538142244,-286.341644659888,133.012256969276,153.329387690612
0.979524073049253,286.824714109364,293.619908642106,6.79519453274253,-290.222311375735,140.014759788311,150.207551587424
0.982291090204759,291.230405351199,292.511875667259,1.28147031606062,-291.871140509229,144.974467517569,146.89667299166
0.985058107360266,294.891807372158,290.449754544485,-4.44205282767325,-292.670780958321,149.666930099916,143.003850858406
0.987825124515772,293.329844184289,292.631786211675,-0.698057972613356,-292.980815197982,147.013951078451,145.966864119531
0.990592141671278,281.380715762022,291.106263323133,9.72554756111089,-286.243489542578,135.827584100456,150.415905442122
0.993359158826785,278.596484629599,291.034117372439,12.4376327428403,-284.815301001019,133.079425943379,151.73587505764
0.996126175982291,286.01468218539,294.671312038158,8.65662985276862,-290.342997111774,138.679026166311,151.663970945463
0.998893193137798,294.261693494315,292.494557338512,-1.7671361558028,-293.378125416414,148.014414825059,145.363710591355
1.0016602102933,299.765846113596,297.425034634221,-2.34081147937468,-298.595440373908,151.053328796485,147.542111577423
1.00442722744881,299.252207112219,295.686884470275,-3.56532264194374,-297.469545791247,151.408764877081,146.060780914166
1.00719424460432,289.283952672943,294.062213500505,4.77826082756292,-291.673083086724,142.25284592269,149.420237164034
1.00996126175982,282.684102383743,298.002276615552,15.3181742318085,-290.343189499648,133.682964075967,156.66022542368
1.01272827891533,283.291457351258,297.753994559159,14.4625372079012,-290.522725955208,134.414460071678,156.10826588353
1.01549529607084,291.347738042968,294.484571258927,3.13683321595926,-292.916154650948,144.105452413504,148.810702237443
1.01826231322634,299.56835139668,296.394751452532,-3.17359994414744,-297.981551424606,151.370975670414,146.610575754192
1.02102933038185,300.073104172643,297.785093222458,-2.28801095018491,-298.92909869755,151.180557561414,147.748541136136
1.02379634753735,292.159893591954,294.043299693017,1.88340610106252,-293.101596642485,145.138243745446,147.96335289704
1.02656336469286,285.777134023081,298.929566402616,13.1524323795347,-292.353350212848,136.312350821773,156.040999391075
1.02933038184837,283.605666853392,297.806414509833,14.2007476564411,-290.706040681612,134.702459598475,156.003581083137
1.03209739900387,288.451037810351,291.477720912275,3.02668310192411,-289.964379361313,142.712177354213,147.2522020071
1.03486441615938,296.373933238253,295.348943188233,-1.02499005001988,-295.861438213243,148.699461644137,147.161976569107
1.03763143331489,299.899451276564,297.859297957316,-2.04015331924762,-298.87937461694,150.969802297906,147.909572319034
1.04039845047039,298.036205119641,297.027083128431,-1.00912199120995,-297.531644124036,149.522663555425,148.00898056861
1.0431654676259,291.855862110814,299.863991885965,8.00812977515119,-295.85992699839,141.923866167831,153.936060830558
1.04593248478141,283.90196032502,297.874283744381,13.9723234193612,-290.888122034701,134.964818452829,155.923303581871
1.04869950193691,287.560327089167,295.48154045458,7.92121336541288,-291.520933771873,139.819556861877,151.701376909996
1.05146651909242,298.201376119255,296.30882774096,-1.89254837829469,-297.255101930108,150.046962248775,147.208139681333
1.05423353624792,302.721614653856,298.936104914878,-3.78550973897813,-300.828859784367,153.253562196417,147.57529758795
1.05700055340343,300.890263202045,297.011812406408,-3.87845079563647,-298.951037804227,152.384356998841,146.566680805386
1.05976757055894,297.931999190602,301.792466236611,3.8604670460096,-299.862232713606,147.035766072296,152.82646664131
1.06253458771444,287.219670856699,300.928745550597,13.7090746938975,-294.074208203648,136.755298081401,157.318910122247
1.06530160486995,286.679039334057,294.468363064833,7.78932373077612,-290.573701199445,139.44485780164,151.128843397805
1.06806862202546,297.040353451934,301.275524259981,4.23517080804726,-299.157938855957,146.402591321943,152.755347534014
1.07083563918096,305.565273791413,306.010285598936,0.445011807523372,-305.787779695175,152.560130991945,153.22764870323
1.07360265633647,305.747943239624,301.969439152147,-3.77850408747645,-303.858691195886,154.76322366355,149.095467532336
1.07636967349198,306.988455093997,307.761564854793,0.773109760796785,-307.375009974395,153.1076726666,154.267337307795
1.07913669064748,297.511745634508,306.048399691994,8.53665405748609,-301.780072663251,144.487545788511,157.29252687474
1.08190370780299,290.762358691187,305.480724903613,14.7183662124252,-298.1215417974,138.021996239381,160.099545558019
1.08467072495849,299.944608430166,306.246192887386,6.30158445721952,-303.095400658776,146.821511986473,156.273888672303
1.087437742114,304.506178001109,304.099849098322,-0.406328902786697,-304.303013549715,152.456253451948,151.846760097768
1.09020475926951,306.671033502182,301.984120337596,-4.68691316458677,-304.327576919889,155.678973333385,148.648603586504
1.09297177642501,310.957532204574,305.663490043973,-5.29404216060118,-308.310511124273,158.125787182588,150.184723941686
1.09573879358052,302.673108823403,307.076057723176,4.40294889977355,-304.874583273289,149.135079961815,155.739503311475
1.09850581073603,294.813107654602,308.470598388845,13.6574907342422,-301.641853021723,140.57780846018,161.064044561543
1.10127282789153,300.888305599569,313.218083716601,12.3297781170324,-307.053194658085,144.279263741268,162.773930916817
1.10403984504704,310.534595547272,317.191284654168,6.65668910689601,-313.86294010072,151.938953220188,161.923986880532
1.10680686220255,315.60319522021,314.924805236167,-0.678389984042497,-315.264000228188,158.140792602126,157.123207626062
1.10957387935805,320.931361845098,317.663290301434,-3.26807154366378,-319.297326073266,162.099716694381,157.197609378885
1.11234089651356,317.832284851514,320.253419038887,2.42113418737335,-319.042851945201,157.70557533207,161.33727661313
1.11510791366906,304.814155676072,316.479258610784,11.6651029347123,-310.646707143428,146.57452637068,164.072180772748
1.11787493082457,301.89087113302,317.185063572134,15.2941924391147,-309.537967352577,143.298339346952,166.239628005624
1.12064194798008,308.695215908495,315.295116728345,6.59990081984989,-311.99516631842,151.047657544322,160.947508774097
1.12340896513558,312.655464339291,311.957822749939,-0.697641589352372,-312.306643544615,156.676552964322,155.630090580293
1.12617598229109,319.77877764874,315.547324001756,-4.23145364698405,-317.663050825248,162.005115647862,155.657935177386
1.1289429994466,319.765211931361,317.245639058627,-2.51957287273427,-318.505425494994,161.142392402048,157.363033092946
1.1317100166021,305.763759962637,314.478631541049,8.71487157841278,-310.121195751843,148.524444192112,161.596751559731
1.13447703375761,299.90598300673,314.134333320339,14.2283503136085,-307.020158163535,142.838816346561,164.181341816974
1.13724405091312,304.910141127076,312.394796644361,7.48465551728486,-308.652468885719,148.712742804896,159.939726080823
1.14001106806862,310.760756479477,310.00177778562,-0.758978693856818,-310.381267132548,155.759867586667,154.621399545882
1.14277808522413,316.6015858168,312.431990425224,-4.16959539157602,-314.516788121012,160.385590604188,154.131197516824
1.14554510237963,317.632933054753,310.235397631389,-7.39753542336405,-313.934165343071,162.515234239058,151.418931104012
1.14831211953514,302.697508347826,303.503576418775,0.80606807094955,-303.100542383301,150.945720138438,152.154822244862
1.15107913669065,292.913178547316,306.044211019285,13.1310324719694,-299.4786947833,139.891073037673,159.587621745627
1.15384615384615,291.140361844805,303.417512151731,12.2771503069256,-297.278936998268,139.43160576894,157.847331229328
1.15661317100166,295.948205149246,299.043217016253,3.09501186700675,-297.49571108275,146.42659664112,151.06911444163
1.15938018815717,303.356828744783,299.303532219306,-4.05329652547732,-301.330180482045,153.70506263513,147.625117846914
1.16214720531267,305.341667311656,300.219722116958,-5.12194519469796,-302.780694714307,155.231806253177,147.54888846113
1.16491422246818,298.592596614896,296.548252506808,-2.04434410808852,-297.570424560852,150.318470361492,147.25195419936
1.16768123962369,288.931644334398,298.953933393736,10.0222890593383,-293.942788864067,139.45467763753,154.488111226537
1.17044825677919,283.402901871915,296.424981103231,13.0220792313163,-289.913941487573,135.190411320299,154.723530167274
1.1732152739347,287.135995674949,293.069601922665,5.93360624771566,-290.102798798807,140.601194713617,149.50160408519
1.1759822910902,296.149361925287,295.201301395827,-0.948060529460236,-295.675331660557,148.548711227374,147.126620433183
1.17874930824571,302.078048654576,297.223179851615,-4.85486880296116,-299.650614253096,153.466458728769,146.184155524327
1.18151632540122,298.4436127421,296.566917138494,-1.87669560360621,-297.505264940297,150.160154172853,147.345110767444
1.18428334255672,291.970144350198,298.897664176611,6.92751982641283,-295.433904263404,142.521312261892,152.912592001512
1.18705035971223,282.719127392044,297.491386764315,14.7722593722705,-290.10525707818,133.973434009887,156.131823068293
1.18981737686774,283.330636423524,294.088804422786,10.7581679992624,-288.709720423155,136.286234212131,152.423486211024
1.19258439402324,292.970430142962,296.121583509632,3.15115336667037,-294.546006826297,144.909638388146,149.636368438151
1.19535141117875,298.837411165446,293.265295055671,-5.57211610977481,-296.051353110559,152.20476363761,143.846589472948
1.19811842833426,298.302405097166,291.621457857508,-6.68094723965845,-294.961931477337,152.491676168412,142.470255308925
1.20088544548976,293.98749663705,295.812745293935,1.82524865688481,-294.900120965493,146.081123990083,148.81899697541
1.20365246264527,282.012331600018,295.483090206523,13.4707586065052,-288.74771090327,134.270786496756,154.476924406514
1.20641947980077,277.52670109597,291.083146189368,13.5564450933983,-284.304923642669,131.985128001286,152.319795641383
1.20918649695628,284.805996428973,289.046584660297,4.24058823132401,-286.926290544635,140.282704098824,146.64358644581
1.21195351411179,290.614464801557,285.346318864399,-5.26814593715807,-287.980391832978,147.941305369358,140.039086463621
1.21472053126729,287.199592707345,283.734762152263,-3.46483055508168,-285.467177429804,145.332211631213,140.134965798591
1.2174875484228,287.949719819358,283.69924844473,-4.25047137462764,-285.824484132044,146.100095596993,139.724388535051
1.22025456557831,281.188351697165,286.39805565968,5.20970396251471,-283.793203678423,137.989323867325,145.803879811097
1.22302158273381,270.658178908179,283.074351038127,12.4161721299483,-276.866264973153,129.121003389115,147.745261584038
1.22578859988932,278.685581859159,283.962289969425,5.27670811026542,-281.323935914292,136.704436874447,144.619499039845
1.22855561704483,290.483762210972,291.388366225902,0.904604014929362,-290.936064218437,144.789579098021,146.146485120415
1.23132263420033,302.103466272457,306.736184057166,4.63271778470903,-304.419825164812,148.735374243874,155.684450920938
1.23408965135584,324.950996657177,333.701083769611,8.7500871124339,-329.326040213394,158.100454772372,171.225585441022
1.23685666851134,345.394775702125,366.508395066677,21.1136193645517,-355.951585384401,162.140578168787,193.811007215614
1.23962368566685,361.38318485181,397.60471413423,36.2215292824204,-379.49394949302,162.580827784695,216.913121708325
1.24239070282236,393.917128447921,433.286520989661,39.3693925417401,-413.601824718791,177.27386795309,236.3279567657
1.24515771997786,430.264672270929,463.488018806463,33.2233465355336,-446.876345538696,198.520662867698,248.355682670998
1.24792473713337,449.714400139182,471.378897563919,21.6644974247372,-460.54664885155,214.024951357222,246.521697494328
1.25069175428888,458.287634272504,471.083969794395,12.7963355218903,-464.685802033449,222.745649375307,241.940152658142
1.25345877144438,444.677343860728,449.883589943844,5.2062460831159,-447.280466902286,219.735548888806,227.54491801348
1.25622578859989,407.659597957679,411.036611838311,3.37701388063175,-409.348104897995,202.141292038524,207.206812859471
1.2589928057554,375.833128022335,376.053894549591,0.220766527256671,-375.943511285963,187.806180747539,188.137330538424
1.2617598229109,352.365869804561,339.227842888785,-13.1380269157766,-345.796856346673,182.751948360169,163.044907986504
1.26452684006641,329.33120594429,304.069783714207,-25.2614222300829,-316.700494829248,177.296314087186,139.404180742062
1.26729385722191,317.773977101899,290.4916276377,-27.2823494641992,-304.1328023698,172.528163283049,131.60463908675
1.27006087437742,308.451937450152,285.358560843019,-23.0933766071332,-296.905249146586,165.772657028643,131.132592117943
1.27282789153293,291.711544399256,284.039439442305,-7.6721049569511,-287.87549192078,149.691824678104,138.183667242677
1.27559490868843,282.561675640367,288.75387107002,6.19219542965243,-285.657773355193,138.184740105357,147.473033249836
1.27836192584394,288.810468023803,295.62204846873,6.81158044492696,-292.216258246266,140.999443789438,151.216814456828
1.28112894299945,296.365438396847,294.945567214725,-1.4198711821212,-295.655502805786,148.892654789484,146.762848016302
1.28389596015495,304.641691958296,300.474140353089,-4.16755160520671,-302.557916155693,154.404621781751,148.153294373941
1.28666297731046,307.287987901545,301.539725421011,-5.74826248053444,-304.413856661278,156.51812519104,147.895731470238
1.28942999446597,298.615904714371,296.068902820115,-2.54700189425677,-297.342403767243,150.581453304314,146.760950462929
1.29219701162147,286.545041584414,296.686739242706,10.1416976582924,-291.61589041356,138.201671963061,153.414218450499
1.29496402877698,284.059471797777,299.715891679791,15.6564198820134,-291.887681738784,134.201525957882,157.686155780902
1.29773104593248,288.611892968692,296.023334523454,7.41144155476212,-292.317613746073,140.600225706965,151.717388039108
1.30049806308799,296.502623797606,296.411318078752,-0.0913057188548692,-296.456970938179,148.296964758231,148.160006179948
1.3032650802435,301.016821355521,296.555820599545,-4.46100075597644,-298.786320977533,152.738911055749,146.047409921784
1.306032097399,298.46702646408,297.126143695714,-1.34088276836599,-297.796585079897,149.903954616223,147.892630463674
1.30879911455451,290.519767756983,300.596054861442,10.076287104459,-295.557911309212,140.221740326262,155.33617098295
1.31156613171002,287.316412833669,300.70979409664,13.393381262971,-294.013103465155,136.961515785349,157.051587679806
1.31433314886552,287.823418101829,297.049474496361,9.22605639453189,-292.436446299095,139.298680853649,153.137765445446
1.31710016602103,296.398125288015,297.361961348894,0.96383606087926,-296.880043318454,147.717144613568,149.162898704887
1.31986718317654,303.835877597596,298.626718721724,-5.20915887587216,-301.23129815966,154.522518236734,146.708779922926
1.32263420033204,301.319595061405,300.183268479134,-1.13632658227152,-300.75143177027,151.227960821839,149.523470948431
1.32540121748755,294.485083331969,299.510145155767,5.0250618237979,-296.997614243868,144.730010754086,152.267603489783
1.32816823464305,289.58127301139,305.728913090866,16.1476400794767,-297.655093051128,136.716816465956,160.938276585171
1.33093525179856,289.064825823481,303.071569708415,14.0067438849341,-296.068197765948,137.529040969274,158.539156796675
1.33370226895407,298.303491078282,305.317561261878,7.01407018359578,-301.81052617008,145.644710447343,156.165815722737
1.33646928610957,304.643175137597,302.728099147305,-1.91507599029211,-303.685637142451,153.279125563944,150.406511578506
1.33923630326508,304.171953831359,301.258811693405,-2.91314213795346,-302.715382762382,153.542547984656,149.172834777726
1.34200332042059,303.437546042754,302.420762414684,-1.0167836280695,-302.929154228719,152.227164835412,150.701989393307
1.34477033757609,296.829290538508,306.708382732744,9.87909219423619,-301.768836635626,143.475099172136,158.29373746349
1.3475373547316,291.271914153327,305.093947352108,13.822033198781,-298.182930752718,138.724940477273,159.457990275444
1.35030437188711,298.22812718416,305.266247076701,7.03811989254166,-301.74718713043,145.595003645809,156.152183484621
1.35307138904261,307.512273448976,308.809853642269,1.29758019329336,-308.161063545622,153.107346627841,155.053716917781
1.35583840619812,309.058282004403,306.311151353411,-2.74713065099172,-307.684716678907,155.902706327697,151.78201035121
1.35860542335362,313.375024852654,310.3407025175,-3.034322335154,-311.857863685077,158.204673593904,153.653190091173
1.36137244050913,309.044236854658,311.741704596238,2.69746774158051,-310.392970725448,153.173384556539,157.219586168909
1.36413945766464,296.428863863615,312.138184627291,15.7093207636763,-304.283524245453,140.359771549969,163.923752695484
1.36690647482014,298.170606264194,311.214365406971,13.0437591427771,-304.692485835583,142.563423560708,162.129062274874
1.36967349197565,309.468041902871,313.896465223588,4.42842332071694,-311.68225356323,152.519809291077,159.162444272152
1.37244050913116,314.027553080858,312.383310400274,-1.64424268058326,-313.205431740566,157.83589788072,155.369533859846
1.37520752628666,319.294203636453,315.259321694308,-4.03488194214481,-317.276762665381,161.664542789299,155.612219876082
1.37797454344217,315.165756745071,318.766603278512,3.60084653344109,-316.966180011791,155.782455105815,161.183724905976
1.38074156059768,302.560379533514,316.166177847347,13.6057983138332,-309.36327869043,144.47729060984,164.88598808059
1.38350857775318,303.120926663945,314.159769139395,11.0388424754506,-308.64034790167,146.041042094247,162.599305807423
1.38627559490869,311.460865833593,318.981131804679,7.52026597108585,-315.220998819136,151.970299931254,163.250698887882
1.38904261206419,317.033173392089,318.462465560469,1.42929216837996,-317.747819476279,157.801940611855,159.945878864425
1.3918096292197,322.205037900473,319.178006027143,-3.02703187333077,-320.691521963808,162.616034886902,158.075487076906
1.39457664637521,326.232524324374,322.7874416042,-3.44508272017379,-324.509982964287,164.838803522274,159.671179442013
1.39734366353071,312.614506495421,321.2190640504,8.60455755497958,-316.91678527291,152.00497447022,164.91181080269
1.40011068068622,306.079394776871,321.102002936297,15.0226081594262,-313.590698856584,145.528393308722,168.062305547861
1.40287769784173,312.570109271683,323.043814724893,10.4737054532096,-317.806961998288,151.048201909237,166.758760089051
1.40564471499723,319.161268329152,323.537347959617,4.37607963046582,-321.349308144385,157.392594349343,163.956713795042
1.40841173215274,328.10925265279,323.097255814616,-5.01199683817424,-325.603254233703,166.560624745482,159.042629488221
1.41117874930825,332.16264403006,329.807307519676,-2.35533651038429,-330.984975774868,167.258990270222,163.725985504646
1.41394576646375,325.583234181231,330.255050332022,4.67181615079107,-327.919142256627,160.45570901522,167.463433241407
1.41671278361926,318.036543226447,332.043909901715,14.0073666752679,-325.040226564081,152.01458827559,173.025638288491
1.41947980077476,321.78600360274,334.153641491806,12.3676378890651,-327.969822547273,154.709182856838,173.260639690435
1.42224681793027,327.344326005436,331.614261186727,4.26993518129092,-329.479293596082,161.537195412073,167.942098184009
1.42501383508578,334.018676320092,333.017233630179,-1.00144268991272,-333.517954975136,167.510059505002,166.007895470133
1.42778085224128,342.088041122299,337.848378208515,-4.23966291378377,-339.968209665407,173.163852018041,166.804357647366
1.43054786939679,337.519468086406,336.311437439399,-1.20803064700652,-336.915452762902,169.363749366706,167.551703396196
1.4333148865523,328.983803273046,339.982208437493,10.9984051644468,-334.483005855269,158.9926990543,175.49030680097
1.4360819037078,327.02375903596,341.22175129245,14.1979922564896,-334.122755164205,156.412883389735,177.70987177447
1.43884892086331,331.596457872411,339.69072990071,8.09427202829937,-335.64359388656,161.751092922056,173.892500964505
1.44161593801882,340.935777642032,338.936489576547,-1.9992880654853,-339.936133609289,171.467532853759,168.468600755531
1.44438295517432,347.924421158877,343.892293385301,-4.03212777357589,-345.908357272089,175.978274466227,169.930082805863
1.44714997232983,345.397087188163,342.394300777094,-3.00278641106831,-343.895693982628,174.199936799615,169.695757183013
1.44991698948533,337.919099906628,345.91982691931,8.00072701268289,-341.919463412969,164.959186446972,176.960276965997
1.45268400664084,332.281716486942,349.264139668477,16.9824231815351,-340.77292807771,157.649646652703,183.123281425006
1.45545102379635,335.888635799478,349.742857974954,13.8542221754763,-342.815746887216,161.017206812001,181.798540075215
1.45821804095185,345.8653635216,349.852878965687,3.98751544408742,-347.859121243644,170.938924038756,176.920197204887
1.46098505810736,354.733284316523,353.976470007537,-0.756814308986065,-354.35487716203,177.745049312755,176.609827849276
1.46375207526287,355.235611495094,355.49873454407,0.26312304897624,-355.367173019582,177.486244223059,177.880928796523
1.46651909241837,350.838779051413,355.855076143548,5.01629709213586,-353.34692759748,172.911240979638,180.435686617842
1.46928610957388,345.582804960139,357.340508760416,11.7577038002767,-351.461656860278,166.912550579931,184.549106280346
1.47205312672939,340.18821316125,351.840132757258,11.6519195960082,-346.014172959254,164.268146782621,181.746026176633
1.47482014388489,344.807688179811,348.774296755883,3.96660857607213,-346.790992467847,170.420539801869,176.370452665977
1.4775871610404,351.543340872193,351.953588658186,0.410247785993079,-351.74846476519,175.5665465431,176.18191822209
1.4803541781959,351.145745029295,348.589383778555,-2.55636125074,-349.867564403925,176.851053140017,173.016511263907
1.48312119535141,347.760034734218,343.80119203859,-3.95884269562805,-345.780613386404,175.859438714923,169.921174671481
1.48588821250692,338.694171549855,345.268608931839,6.57443738198356,-341.981390240847,166.059867083936,175.921523156911
1.48865522966242,330.454113290007,341.935216150164,11.4811028601568,-336.194664720085,159.486505214925,176.70815950516
1.49142224681793,330.770406315318,339.708166848318,8.93776053300007,-335.239286581818,160.916322891159,174.322963690659
1.49418926397344,341.278831056258,339.836123421497,-1.44270763476067,-340.557477238878,171.360769345509,169.196707893368
1.49695628112894,342.019667598496,336.654574139284,-5.36509345921269,-339.33712086889,173.692380528854,165.644740340035
1.49972329828445,337.677556652605,331.755160701239,-5.92239595136635,-334.716358676922,171.799976301986,162.916382374936
1.50249031543996,328.782315704061,328.17598556853,-0.606330135531152,-328.479150636295,164.694322919796,163.784827716499
1.50525733259546,313.729170042763,323.044822985376,9.31565294261259,-318.386996514069,152.206758550075,166.180237963994
1.50802434975097,308.758221300541,316.66152980784,7.90330850729879,-312.70987555419,150.427456396621,162.282419157569
1.51079136690647,315.950409483575,315.623006245464,-0.327403238111231,-315.78670786452,158.138906360843,157.647801503676
1.51355838406198,317.919638238003,310.697126688713,-7.22251154928955,-314.308382463358,162.571074893646,151.737307569712
1.51632540121749,315.612961561256,308.72975491824,-6.88320664301608,-312.171358239748,161.248084102136,150.923274137612
1.51909241837299,312.710769516297,307.982573534498,-4.72819598179899,-310.346671525397,158.719482749048,151.627188776349
1.5218594355285,297.87439595573,303.05785426734,5.18345831160991,-300.466125111535,146.34546882206,154.120656289475
1.52462645268401,289.745321224407,300.614830125902,10.8695089014951,-295.180075675155,139.437906161456,155.742169513699
1.52739346983951,296.743092263785,300.484657076694,3.74156481290908,-298.613874670239,146.500763725438,152.113110944801
1.53016048699502,299.899890775915,298.751966760781,-1.14792401513324,-299.325928768348,150.523907395524,148.802021372824
1.53292750415053,302.558269636189,296.69943146841,-5.85883816777925,-299.628850552299,154.208553901984,145.420296650315
1.53569452130603,302.610981512514,298.884177063141,-3.72680444937333,-300.747579287828,153.168892980944,147.578686306884
1.53846153846154,291.942349018409,297.095002475193,5.15265345678404,-294.518675746801,143.394847780812,151.123827965988
1.54122855561704,281.716900995669,293.559981670701,11.8430806750325,-287.638441333185,134.936910160318,152.701531172867
1.54399557277255,286.681281622434,298.430637376116,11.7493557536827,-292.555959499275,137.465962934376,155.0899965649
1.54676258992806,291.980448304017,294.81026962656,2.82982132254239,-293.395358965288,144.575313490737,148.820045474551
1.54952960708356,296.512541160302,293.663703858471,-2.84883730183151,-295.088122509386,149.680689231067,145.40743327832
1.55229662423907,299.5029405151,295.846480313931,-3.6564602011693,-297.674710414516,151.579700358135,146.095010056381
1.55506364139458,291.948345662137,290.161500346306,-1.7868453158307,-291.054923004222,146.867595488984,144.187327515238
1.55783065855008,278.670561059227,287.516619330576,8.84605827134948,-283.093590194901,134.912251393939,148.181338800963
1.56059767570559,278.713718003583,291.342198110389,12.6284801068066,-285.027958056986,133.042618948388,151.985339108598
1.5633646928611,284.164093506812,290.863899568102,6.6998060612907,-287.513996537457,138.73214372276,148.781852814697
1.5661317100166,292.495465087134,290.63072194572,-1.86474314141429,-291.563093516427,147.180104114274,144.382989402153
1.56889872717211,299.314910185801,293.808652355444,-5.50625783035639,-296.561781270622,152.410584008078,144.151197262544
1.57166574432761,296.830286031889,295.223521004781,-1.60676502710811,-296.026903518335,149.218525529498,146.808377988836
1.57443276148312,284.586084758076,291.453950429586,6.86786567150972,-288.020017593831,138.859109543283,149.160908050548
1.57719977863863,280.883736687864,294.353651755792,13.4699150679281,-287.618694221828,133.706910809968,153.91178341186
1.57996679579413,285.46116672738,294.974757228673,9.51359050129315,-290.217961978027,137.973788113043,152.244173864983
1.58273381294964,291.497411209488,290.597589319773,-0.899821889714531,-291.047500264631,146.198616549601,144.848883715029
1.58550083010515,298.111701105286,293.784260496124,-4.32744060916167,-295.947980800705,151.219570857224,144.728409943481
1.58826784726065,297.692156392906,293.292029893634,-4.40012649927201,-295.49209314327,151.046141446089,144.445951697181
1.59103486441616,290.497248299962,295.40869460451,4.91144630454818,-292.952971452236,142.792900997707,150.160070454529
1.59380188157167,282.029959963011,297.308847839641,15.2788878766308,-289.669403901326,133.37553604319,156.293867858136
1.59656889872717,280.753454785032,294.019664543481,13.2662097584487,-287.386559664256,133.743622513292,153.642937150965
1.59933591588268,287.525094653847,291.562055855522,4.03696120167496,-289.543575254685,141.744066726086,147.799508528599
1.60210293303818,298.872834287753,298.773688975751,-0.0991453120013261,-298.823261631752,149.485989799877,149.337271831875
1.60486995019369,299.482842472768,295.349199519901,-4.13364295286698,-297.416020996334,151.808242712817,145.607778283517
1.6076369673492,297.379787073247,294.354201195292,-3.02558587795505,-295.866994134269,150.202686475601,145.664307658668
1.6104039845047,290.224885006667,300.288738806245,10.063853799578,-295.256811906456,140.080515603544,155.176296302911
1.61317100166021,283.083630149909,294.102912930384,11.0192827804751,-288.593271540146,136.032173684717,152.56109785543
1.61593801881572,287.560165529813,295.536629146797,7.97646361698463,-291.548397338305,139.791850956414,151.756546381891
1.61870503597122,297.669096243307,298.74444033025,1.07534408694318,-298.206768286779,148.296876078182,149.909892208597
1.62147205312673,300.32305405228,296.421073969473,-3.90198008280714,-298.372064010877,152.112517067544,146.259546943333
1.62423907028224,299.268887269405,296.308167440417,-2.96071982898764,-297.788527354911,151.114803549196,146.673723805715
1.62700608743774,294.354210565516,298.253197090976,3.89898652546003,-296.303703828246,145.227612020028,151.076091808218
1.62977310459325,286.374081083501,299.204648849929,12.830567766428,-292.789364966715,136.771756658536,156.017608308178
1.63254012174875,285.593917226379,294.505854592857,8.91193736647813,-290.049885909618,138.34098992995,151.708895979668
1.63530713890426,297.503494911507,298.723744354683,1.2202494431761,-298.113619633095,148.141622734165,149.97199689893
1.63807415605977,301.199971877423,298.509492041967,-2.69047983545556,-299.854731959695,151.945225856439,147.909506103256
1.64084117321527,301.16192771743,293.267014785903,-7.89491293152781,-297.214471251666,154.528420324479,142.686050927187
1.64360819037078,299.445446345608,302.199930753002,2.75448440739439,-300.822688549305,148.345480969107,152.477207580198
1.64637520752629,288.623436504239,299.245682637938,10.622246133699,-293.934559571088,139.00059518527,154.933964385818
1.64914222468179,283.628749042351,298.473110146766,14.8443611044153,-291.050929594558,134.392193968968,156.658735625591
1.6519092418373,294.364293879057,300.718262822337,6.35396894327937,-297.541278350697,144.005162467889,153.536115882808
1.65467625899281,298.126737214473,296.612703070009,-1.51403414446423,-297.369720142241,149.820385679469,147.549334462772
1.65744327614831,298.078894892267,292.246807731152,-5.83208716111494,-295.16285131171,151.955491026691,143.207360285019
1.66021029330382,302.456276893532,299.112331089808,-3.34394580372367,-300.78430399167,152.900111348628,147.884192643042
1.66297731045932,293.783565900372,298.284354883721,4.50078898334868,-296.033960392047,144.641388458512,151.392571933535
1.66574432761483,285.632820310772,299.444834214226,13.8120139034545,-292.538827262499,135.910403203659,156.62842405884
1.66851134477034,291.31401209158,302.697638694003,11.3836266024225,-297.005825392792,139.965192744579,157.040632648213
1.67127836192584,298.181780382188,300.700210178406,2.5184297962179,-299.440995280297,147.831675292985,151.609319987312
1.67404537908135,300.029579673198,296.206008109612,-3.8235715635862,-298.117793891405,151.926575618392,146.191218273013
1.67681239623686,306.406716097332,301.081934038973,-5.32478205835906,-303.744325068152,155.865749077846,147.878575990307
1.67957941339236,296.855081190968,301.380059741808,4.52497855084022,-299.117570466388,146.165051320064,152.952519146324
1.68234643054787,284.616506226198,298.42545932637,13.8089531001723,-291.520982776284,135.403776563013,156.117206213271
1.68511344770338,287.299381768711,299.657394552618,12.3580127839072,-293.478388160665,137.470684492402,156.007703668263
1.68788046485888,295.299934594067,298.793698179506,3.49376358543896,-297.046816386786,145.903085504314,151.143730882472
1.69064748201439,299.01805966654,298.192100475753,-0.825959190787273,-298.605080071146,149.922009428664,148.683070642483
1.69341449916989,302.290142703841,297.00396957847,-5.28617312537148,-299.647056141156,153.788157914606,145.858898226549
1.6961815163254,299.873405859853,298.44210979105,-1.43129606880319,-299.157757825451,150.652350964328,148.505406861123
1.69894853348091,286.581753635793,300.41926647945,13.8375128436568,-293.500510057622,136.372120396068,157.128389661554
1.70171555063641,287.319530416235,304.605325278333,17.2857948620986,-295.962427847284,135.016867777068,160.945560070216
1.70448256779192,295.455134454288,306.822624256841,11.3674898025528,-301.138879355565,142.043822325868,159.095057029697
1.70724958494743,305.016607078508,305.118806974063,0.102199895554406,-305.067707026286,152.457203591477,152.610503434809
1.71001660210293,312.185819212963,307.033557532491,-5.15226168047229,-309.609688372727,158.669040446718,150.940647926009
1.71278361925844,311.82580761722,308.600808861576,-3.22499875564375,-310.213308239398,157.525403186432,152.687905052966
1.71555063641395,300.483680465124,305.404353041397,4.92067257627332,-302.94401675326,147.781503944425,155.162512808835
1.71831765356945,295.452481230041,306.577429838136,11.1249486080958,-301.014955534089,142.163766310972,158.851189223116
1.72108467072496,295.76550627965,308.914300915145,13.1487946354956,-302.339903597398,141.308355822077,161.031547775321
1.72385168788047,303.087388167226,306.095177148564,3.00778898133797,-304.591282657895,150.039799592944,154.551483064951
1.72661870503597,311.975292781327,308.97188362748,-3.00340915384771,-310.473588204403,157.489350967587,152.984237236816
1.72938572219148,313.65344297305,308.664666975814,-4.98877599723596,-311.159054974432,159.321109485143,151.837945489289
1.73215273934698,307.368529460324,309.394782880047,2.02625341972259,-308.381656170185,152.671138020301,155.710518149885
1.73491975650249,300.570924257198,314.541501355626,13.9705770984273,-307.556212806412,143.300173579386,164.256039227027
1.737686773658,300.09497020497,314.964377153836,14.8694069488663,-307.529673679403,142.612781628052,164.916892051351
1.7404537908135,309.163038703835,315.039759481372,5.87672077753683,-312.101399092603,151.643158963149,160.458240129454
1.74322080796901,319.802998474861,319.9717510546,0.16875257973868,-319.887374764731,159.817122947561,160.070251817169
1.74598782512452,323.489832519545,321.793570923156,-1.69626159638898,-322.64170172135,162.593047057967,160.048654663383
1.74875484228002,320.214222333351,321.359516036482,1.14529370313113,-320.786869184917,159.53446431511,161.252404869807
1.75152185943553,312.729026919731,322.557508774288,9.82848185455697,-317.643267847009,151.450272532587,166.192995314422
1.75428887659103,307.48661420161,321.11765316841,13.6310389667993,-314.30213368501,146.927787617405,167.374346067604
1.75705589374654,308.26659136113,318.032443665253,9.7658523041228,-313.149517513192,149.250369528504,163.899147984688
1.75982291090205,318.603505392466,316.896783934151,-1.70672145831492,-317.750144663309,160.15511342539,157.595031237918
1.76258992805755,322.313912971868,318.873432139039,-3.44048083282917,-320.593672555454,162.877196902349,157.716475653105
1.76535694521306,322.0963880779,318.378012099489,-3.71837597841034,-320.237200088694,162.907382028155,157.329818060539
1.76812396236857,315.792667511523,319.473181613806,3.68051410228304,-317.632924562664,156.05607670462,161.576847858044
1.77089097952407,304.783763762568,318.152845862054,13.3690820994862,-311.468304812311,145.707340831541,165.76096398077
1.77365799667958,301.387963391361,312.017365381319,10.6294019899578,-306.70266438634,145.379280700702,161.323383685638
1.77642501383509,309.393746870916,313.811454548909,4.41770767799312,-311.602600709913,152.488019596461,159.114581113451
1.77919203099059,312.140138260347,306.933732348233,-5.20640591211412,-309.53693530429,158.673272086231,150.863663218059
1.7819590481461,314.018926298393,308.437733782519,-5.58119251587419,-311.228330040456,159.800059407134,151.428270633323
1.78472606530161,311.772518576073,308.334757519761,-3.43776105631161,-310.053638047917,157.605139816192,152.448498231725
1.78749308245711,298.973387697379,306.117291043589,7.14390334620981,-302.545339370484,145.914742175585,156.630597194899
1.79026009961262,290.485980794409,302.016868541784,11.5308877473752,-296.251424668096,139.477546523517,156.77387814458
1.79302711676812,296.219598014108,302.70334488406,6.48374686995209,-299.461471449084,144.867925572078,154.593545877006
1.79579413392363,303.031869956645,303.985807934979,0.953937978334011,-303.508838945812,151.038965989155,152.469872956656
1.79856115107914,303.968586770827,299.456159944685,-4.51242682614208,-301.712373357756,154.240506798485,147.471866559271
1.80132816823464,302.712400650115,298.247812718047,-4.46458793206807,-300.480106684081,153.588494291092,146.89161239299
1.80409518539015,296.11322880187,298.167206564079,2.05397776220985,-297.140217682974,147.02962551983,150.110592163145
1.80686220254566,282.554459230694,295.045284809427,12.4908255787328,-288.79987202006,135.031816825981,153.76805519408
1.80962921970116,284.095432712917,294.580103625576,10.4846709126594,-289.337768169246,136.805380900129,152.532387269118
1.81239623685667,294.99988464058,297.982599642529,2.98271500194869,-296.491242141554,146.008584819316,150.482657322239
1.81516325401217,296.954581774092,296.46661548111,-0.487966292981923,-296.710598627601,148.721274033537,147.989324594064
1.81793027116768,300.623960153929,298.185452499971,-2.43850765395814,-299.40470632695,151.531233903944,147.873472423006
1.82069728832319,297.160110380448,296.216252024689,-0.943858355758096,-296.688181202568,149.051984368103,147.636196834466
1.82346430547869,284.559695301848,294.047750448456,9.48805514660745,-289.303722875152,137.53582007762,151.767902797532
1.8262313226342,281.057336362552,296.499484909459,15.4421485469073,-288.778410636005,132.807593907822,155.970816728183
1.82899833978971,290.101147983967,294.017751834708,3.91660385074101,-292.059449909337,143.092272066613,148.967177842724
1.83176535694521,293.001453544493,294.49151120041,1.49005765591687,-293.746482372452,145.755697944288,147.990784428164
1.83453237410072,299.495858358816,295.115387021508,-4.38047133730731,-297.305622690162,151.938164848061,145.367457842101
1.83729939125623,301.110439454519,294.2609467013,-6.84949275321964,-297.685693077909,153.979966103869,143.70572697404
1.84006640841173,286.497324044969,293.052732945306,6.55540890033649,-289.775028495137,139.970957572316,149.804070922821
1.84283342556724,280.069401659871,294.418915995543,14.3495143356719,-287.244158827707,132.8599436621,154.384215165607
1.84560044272275,283.313802598064,291.070595410273,7.75679281220852,-287.192199004169,137.778504892928,149.413694111241
1.84836745987825,285.132077192658,282.526075012501,-2.60600218015747,-283.82907610258,143.869039686408,139.960036416172
1.85113447703376,291.306308269931,286.017009661473,-5.2892986084579,-288.661658965702,148.297803439195,140.363855526508
1.85390149418926,291.931554763273,286.259370775804,-5.672183987469,-289.095462769539,148.801869375371,140.293593394168
1.85666851134477,284.43421470253,287.070654609414,2.63643990688416,-285.752434655972,140.898887397823,144.853547258149
1.85943552850028,277.063151567238,290.319316517501,13.256164950263,-283.691234042369,131.903493308487,151.787740733882
1.86220254565578,279.505834514807,294.083274352153,14.5774398373466,-286.79455443348,132.46419733873,154.33035709475
1.86496956281129,292.246458771409,301.506901383347,9.26044261193834,-296.876680077378,141.493008079735,155.383671997643
1.8677365799668,318.180226278464,327.030706195399,8.85047991693415,-322.605466236932,154.664873180765,167.940593056166
1.8705035971223,345.744525998928,357.332052207885,11.5875262089572,-351.538289103407,167.078499894985,184.459789208421
1.87327061427781,366.985107867177,388.663129500069,21.6780216328925,-377.824118683623,172.653543117142,205.170575566481
1.87603763143331,389.486734454067,425.739213922649,36.2524794685817,-407.612974188358,176.617127492743,230.995846695615
1.87880464858882,413.391874340992,456.910972965558,43.5190986245664,-435.151423653275,184.936387858213,250.215035795062
1.88157166574433,437.963775417475,472.02099151927,34.0572161017955,-454.992383468372,201.95327965784,253.039103810533
1.88433868289983,455.620839951769,473.664164684536,18.0433247327672,-464.642502318153,218.788757609501,245.853744708652
1.88710570005534,453.665150858915,459.71492989614,6.04977903722499,-456.690040377528,223.807685910845,232.882354466683
1.88987271721085,430.87851633373,423.872572322309,-7.00594401142081,-427.375544328019,218.942230172575,208.433314155444
1.89263973436635,397.609935597659,388.597613766892,-9.01232183076792,-393.103774682275,203.311128714214,189.792645968062
1.89540675152186,359.023075437027,351.021071068435,-8.00200436859171,-355.022073252731,183.512539902809,171.509533349922
1.89817376867737,326.694194245396,312.74308951714,-13.951104728256,-319.718641881268,170.322649486826,149.395992394442
1.90094078583287,313.887989536957,291.830481352078,-22.0575081848796,-302.859235444518,167.972748860918,134.886486583599
1.90370780298838,307.44503117193,284.357364004411,-23.0876671675185,-295.901197588171,165.266349169724,130.634848418446
1.90647482014389,301.993196907906,283.082447495042,-18.9107494128647,-292.537822201474,160.451973160385,132.085849041088
1.90924183729939,300.178337405883,292.090899609432,-8.0874377964505,-296.134618507657,154.132887601167,142.001730906491
1.9120088544549,293.457754918001,299.228547013171,5.77079209517069,-296.343150965586,143.843481411415,152.499669554171
1.9147758716104,291.748928427855,301.559334098309,9.81040567045466,-296.654131263082,140.9692613787,155.684869884382
1.91754288876591,298.743371156474,304.858215540385,6.11484438391091,-301.800793348429,146.314263386281,155.486529962148
1.92030990592142,305.297201043142,302.624953048881,-2.67224799426174,-303.961077046012,153.984724518702,149.97635252731
1.92307692307692,304.892019232049,299.131036574688,-5.76098265736067,-302.011527903369,155.326500944705,146.685026958664
1.92584394023243,303.155129172716,302.030426189729,-1.1247029829874,-302.592777681222,152.139916077852,150.452861603371
1.92861095738794,295.684335700485,299.297848676055,3.61351297556985,-297.49109218827,146.035411362458,151.455680825813
1.93137797454344,285.900614807408,297.611259454655,11.7106446472466,-291.755937131031,137.094985080081,154.660952050951
1.93414499169895,288.623445530686,296.776831061235,8.15338553054931,-292.700138295961,140.235030000068,152.465108295892
1.93691200885445,298.170826738628,299.643596315337,1.47276957670937,-298.907211526983,148.349028580959,150.558182946023
1.93967902600996,301.836226288052,299.156540666975,-2.67968562107723,-300.496383477514,152.257955954565,148.238427522949
1.94244604316547,306.090231014263,302.948753534845,-3.14147747941774,-304.519492274554,154.61585424684,149.903638027714
1.94521306032097,302.799705007873,306.333338070649,3.53363306277635,-304.566521539261,149.633035972548,154.933485566713
1.94798007747648,287.953386306577,301.598870394952,13.6454840883747,-294.776128350765,137.153951109101,157.622177241663
1.95074709463199,287.571009849827,301.739981094786,14.1689712449592,-294.655495472306,136.701019302434,157.954476169872
1.95351411178749,295.217379680612,298.768823912453,3.5514442318414,-296.993101796533,145.832967724385,151.160134072147
1.956281128943,298.876308820167,297.249528520012,-1.62678030015547,-298.06291867009,150.251544560161,147.811374109928
1.95904814609851,302.984126489473,298.838903083393,-4.14522340608005,-300.911514786433,153.564674947777,147.346839838656
1.96181516325401,303.794139456596,303.277404150446,-0.516735306150053,-303.535771803521,152.155437381373,151.380334422148
1.96458218040952,290.966514955623,300.591972832038,9.62545787641449,-295.77924389383,140.670528539604,155.108715354226
1.96734919756503,289.535847704586,305.687909699,16.1520619944142,-297.611878701793,136.691892855086,160.919985846707
1.97011621472053,298.319147155303,307.855377062341,9.5362299070373,-303.087262108822,144.391458624133,158.695803484689
1.97288323187604,305.921781150811,305.254376320472,-0.667404830339137,-305.588078735641,153.294592990575,152.293485745066
1.97565024903154,310.8970457515,305.783146178225,-5.11389957327498,-308.340095964862,158.005472662387,150.334623302475
1.97841726618705,312.825119780845,310.386323469406,-2.43879631143903,-311.605721625125,157.631958046142,153.973763578983
1.98118428334256,299.95472675339,304.640704911774,4.6859781583837,-302.297715832582,147.634374297503,154.663341535079
1.98395130049806,291.516076153644,305.62399101908,14.1079148654355,-298.570033586362,138.704080644104,159.865952942258
1.98671831765357,297.495025712775,308.91114369093,11.4161179781554,-303.203084701853,143.03945386731,160.163630834543
1.98948533480908,301.058914346834,305.297512467465,4.23859812063085,-303.17821340715,148.410158113102,154.768055294048
1.99225235196458,308.764409533473,305.699897168639,-3.064512364834,-307.232153351056,155.914460949153,151.317692401902
1.99501936912009,314.682645875634,311.408238163869,-3.27440771176504,-313.045442019751,158.978526793699,154.066915226052
1.9977863862756,307.862378785459,308.67221674012,0.809837954660622,-308.26729776279,153.526270415399,154.74102734739
2.0005534034311,300.510938871771,312.565336390311,12.0543975185399,-306.538137631041,144.228270676616,162.309866954425
2.00332042058661,297.751413993837,311.977094595936,14.2256806020985,-304.864254294887,141.762866695869,163.101387599017
2.00608743774211,303.263807342959,310.340659695109,7.07685235214973,-306.802233519034,148.093477495405,158.708756023629
2.00885445489762,311.635267545233,309.625589110723,-2.00967843451019,-310.630428327978,156.822472989872,153.807955338106
2.01162147205313,316.502383008333,314.4592043623,-2.04317864603314,-315.480793685316,159.272780827183,156.208012858133
2.01438848920863,314.737422783868,313.717481918785,-1.0199408650829,-314.227452351327,157.878681824476,156.348770526851
2.01715550636414,306.500205148325,316.503616618873,10.003411470548,-311.501910883599,148.248396838889,163.253514044711
2.01992252351965,303.041471734859,318.041740913299,15.00026917844,-310.541606324079,144.02060127821,166.52100504587
2.02268954067515,305.47560746727,316.367774282032,10.8921668147621,-310.921690874651,147.291720326254,163.629970548397
2.02545655783066,317.517635693862,318.556048810428,1.0384131165668,-318.036842252145,158.239611288647,159.797230963498
2.02822357498617,323.323523149216,320.532113455972,-2.79140969324447,-321.927818302594,163.05746642123,158.870351881364
2.03099059214167,321.573048072147,317.765215853782,-3.80783221836498,-319.669131962965,162.690440145256,156.978691817709
2.03375760929718,315.483776054544,319.439483863829,3.95570780928477,-317.461629959187,155.76403412263,161.697595836557
2.03652462645268,309.365593368802,323.100204233693,13.7346108648915,-316.232898801248,147.815491251955,168.417407549292
2.03929164360819,306.725437907378,319.403457226354,12.6780193189765,-313.064447566866,147.023709294201,166.040738272665
2.0420586607637,315.404265105849,321.479580208737,6.07531510288811,-318.441922657293,154.66447500148,163.777447655813
2.0448256779192,326.118570870351,324.585306873373,-1.53326399697829,-325.351938871862,163.825917433665,161.526021438197
2.04759269507471,326.410980149251,324.818214371454,-1.59276577779679,-325.614597260353,164.001872963524,161.612724296829
2.05035971223022,324.448783588984,323.377218593699,-1.07156499528492,-323.913001091341,162.760174292134,161.152826799207
2.05312672938572,318.662362676953,328.174510121781,9.51214744482724,-323.418436399367,154.575107616063,168.843328783304
2.05589374654123,311.949166556055,327.459338233488,15.5101716774324,-319.704252394772,148.219497439311,171.48475495546
2.05866076369673,321.313380228364,331.404391975643,10.0910117472798,-326.358886102004,155.611184240542,170.747701861462
2.06142778085224,330.976365482431,331.644553109578,0.668187627146665,-331.310459296004,165.154088927642,166.156370368362
2.06419479800775,334.282808780114,332.861272307753,-1.42153647236091,-333.572040543933,167.852172626237,165.719867917696
2.06696181516325,337.397169117127,336.315885935081,-1.08128318204609,-336.856527526104,169.239226149587,167.617301376518
2.06972883231876,330.928595708109,341.260216388325,10.3316206802163,-336.094406048217,160.298487513946,175.795918534271
2.07249584947427,323.14228651464,338.47383671928,15.3315502046407,-330.80806161696,153.905368154999,176.90269346196
2.07526286662977,327.241559668045,343.335498450776,16.0939387827309,-335.288529059411,155.573810442657,179.714718616754
2.07802988378528,338.926286766451,344.775426161344,5.84913939489314,-341.850856463898,166.538573685779,175.312282778119
2.08079690094079,344.21162164562,343.930890343049,-0.280731302571212,-344.071255994335,172.246176474096,171.825079520239
2.08356391809629,348.327933202586,346.251301837914,-2.07663136467153,-347.28961752025,175.202282283629,172.087335236621
2.0863309352518,346.142747060898,348.346065907454,2.2033188465561,-347.244406484176,171.969714107171,175.274692377005
2.08909795240731,333.283554989479,345.54133763113,12.257782641651,-339.412446310305,160.512886173914,178.89956013639
2.09186496956281,330.179404381639,347.254226309417,17.0748219277778,-338.716815345528,156.552291226931,182.164524118597
2.09463198671832,340.938115415773,347.827433932225,6.88931851645179,-344.382774673999,167.024398449661,177.358376224339
2.09739900387382,344.243767517337,343.013991559479,-1.22977595785835,-343.628879538408,172.736771737598,170.89210780081
2.10016602102933,347.235819144667,345.177193362259,-2.0586257824084,-346.206506253463,174.647222463538,171.559283789925
2.10293303818484,351.175683603988,348.339084835716,-2.83659876827159,-349.757384219852,177.00614118613,172.751243033722
2.10570005534034,340.346957034992,347.584265977818,7.2373089428267,-343.965611506405,166.554824046083,177.410787460323
2.10846707249585,334.122777135936,349.171726418745,15.0489492828086,-341.647251777341,159.536913926564,182.110337850777
2.11123408965136,343.014417653214,354.870429647623,11.8560119944094,-348.942423650418,165.579202829402,183.363220821016
2.11400110680686,347.342375158201,351.066932430354,3.72455727215311,-349.204653794278,171.808908943024,177.395744851254
2.11676812396237,353.141906031637,349.110284720848,-4.03162131078921,-351.126095376242,178.586763671213,172.539331705029
2.11953514111788,356.156196362101,351.427694462578,-4.72850189952288,-353.791945412339,180.442349130812,173.349596281527
2.12230215827338,344.36786738947,343.701312983418,-0.666554406051659,-344.034590186444,172.517210897761,171.517379288683
2.12506917542889,330.065099798912,342.085386316238,12.0202865173255,-336.075243057575,159.022406640793,177.052836416782
2.12783619258439,329.113601801278,338.793014531167,9.67941272988912,-333.953308166222,159.717094535694,174.236213630528
2.1306032097399,331.592768723646,333.184018111902,1.59124938825568,-332.388393417774,165.000759667695,167.387633750079
2.13337022689541,334.046128511811,329.036721796533,-5.00940671527877,-331.541425154172,169.527767613545,162.013657540627
2.13613724405091,334.848053092662,328.259622030204,-6.58843106245877,-331.553837561433,170.718242077561,160.835595483872
2.13890426120642,328.305528207652,323.771889303103,-4.53363890454841,-326.038708755378,166.4195835561,159.619125199277
2.14167127836193,313.004311063821,319.005317940672,6.00100687685097,-316.004814502246,153.501652093485,162.503162408761
2.14443829551743,307.139866359981,317.640654974456,10.5007886144743,-312.390260667218,148.319538872753,164.070721794465
2.14720531267294,307.841702721382,314.26606105135,6.4243583299687,-311.053881886366,150.708672195706,160.345209690659
2.14997232982844,312.970188986817,310.974699233824,-1.99548975299314,-311.972444110321,157.482839369905,154.489604740415
2.15273934698395,315.482055152825,310.110596025138,-5.37145912768784,-312.796325588981,160.426757140257,152.369568448725
2.15550636413946,311.15883591218,303.820622967238,-7.33821294494231,-307.489729439709,159.248524428561,148.241205011148
2.15827338129496,297.942561086981,303.935278561333,5.99271747435211,-300.938919824157,145.974921806315,154.963998017843
2.16104039845047,290.223833982132,302.499665460726,12.2758314785941,-296.361749721429,138.974001251769,157.38774846966
2.16380741560598,289.119018487208,297.311915781825,8.19289729461764,-293.215467134516,140.463060596295,152.752406538221
2.16657443276148,295.916149826222,294.921252626513,-0.994897199708362,-295.418701226367,148.455523512965,146.963177713402
2.16934144991699,298.127455746952,294.002990484606,-4.12446526234606,-296.065223115779,151.125960504649,144.93926261113
2.1721084670725,296.993599992526,290.894083442461,-6.09951655006478,-293.943841717493,151.546558271295,142.397283446198
2.174875484228,291.876094269063,290.873365414097,-1.00272885496508,-291.37472984158,146.439411562014,144.935318279566
2.17764250138351,283.331479302259,291.379900027622,8.04842072536331,-287.35568966494,137.641529288448,149.714160376493
2.18040951853901,277.356176321563,289.347365370149,11.9911890485864,-283.351770845856,132.682493636488,150.669277209368
2.18317653569452,285.877389057239,288.870485104644,2.99309604740529,-287.373937080942,141.442146504917,145.931790576025
2.18594355285003,293.868935872965,289.96772496042,-3.90121091254491,-291.918330416692,148.885073392755,143.033257023937
2.18871057000553,292.817940894636,286.953593648099,-5.86434724653697,-289.885767271368,149.341144070587,140.544623200781
2.19147758716104,291.798351086029,289.812863101209,-1.98548798482051,-290.805607093619,146.891919535425,143.913687558194
2.19424460431655,284.510130595197,291.340669624254,6.83053902905664,-287.925400109726,138.83979578307,149.085604326655
2.19701162147205,275.622374831443,292.386170983875,16.763796152432,-284.004272907659,129.429289339506,154.574983568154
2.19977863862756,278.85000581892,288.815583799386,9.96557798046615,-283.832794809153,134.442213919227,149.390580889926
2.20254565578307,291.664160271424,290.009183124365,-1.65497714705879,-290.836671697894,146.659568709241,144.177102988653
2.20531267293857,293.675929109091,287.070796832889,-6.60513227620197,-290.37336297099,150.140530692646,140.232832278343
2.20807969009408,291.711302944511,291.758544567243,0.0472416227317467,-291.734923755877,145.83203066089,145.902893094987
2.21084670724959,290.681362425043,291.279633655329,0.598271230285548,-290.980498040186,145.041545597379,145.938952442807
2.21361372440509,279.860223451002,293.404002137427,13.5437786864247,-286.632112794215,133.158222382289,153.473890411926
2.2163807415606,278.826417371991,290.759362203227,11.9329448312362,-284.792889787609,133.446736270377,151.346153517232
2.2191477587161,287.5399580853,293.051917987103,5.51195990180315,-290.295938036202,141.013999091749,149.281938944453
2.22191477587161,294.632151743438,291.175416204163,-3.4567355392756,-292.903783973801,149.044443641357,143.859340332444
2.22468179302712,297.628350559609,291.702967262062,-5.92538329754677,-294.665658910836,151.776866928578,142.888791982258
2.22744881018262,296.760793497891,294.257880945875,-2.50291255201512,-295.509337221883,149.631853024953,145.87748419693
2.23021582733813,284.010430596146,291.446943440035,7.43651284388966,-287.72868701809,138.286958876128,149.441728141962
2.23298284449364,275.798971761387,288.709481941895,12.910510180508,-282.254226851641,131.444230790439,150.809996061201
2.23574986164914,284.492718048962,293.042852340306,8.55013429134436,-288.767785194634,137.971291878809,150.796493315825
2.23851687880465,291.667410108526,292.250483022991,0.583072914465163,-291.958946565758,145.54216859703,146.416777968728
2.24128389596016,296.559453294676,293.649084384537,-2.91036891013903,-295.104268839607,149.734911102408,145.369357737199
2.24405091311566,298.73132593626,298.240252846212,-0.491073090047564,-298.485789391236,149.611199513154,148.874589878082
2.24681793027117,291.073692975525,297.492522011019,6.41882903549441,-294.283107493272,142.327431970015,151.955675523257
2.24958494742667,279.756844604183,293.650338855937,13.8934942517544,-286.70359173006,132.931675176214,153.771916553846
2.25235196458218,285.547082438227,296.09352220378,10.5464397655531,-290.820302321003,137.500321336337,153.319980984666
2.25511898173769,289.797210697907,293.38084412504,3.58363342713267,-291.589027411473,143.106788635387,148.482238776086
2.25788599889319,295.508252768387,293.607250906014,-1.90100186237328,-294.5577518372,148.70462731538,145.85312452182
2.2606530160487,300.628348916345,298.173372842981,-2.45497607336432,-299.400860879663,151.541662494855,147.859198384808
2.26342003320421,295.052652529667,295.512663223938,0.46001069427075,-295.282657876803,147.296320917698,147.986336959104
2.26618705035971,284.702292733837,297.59826109762,12.8959683637835,-291.150276915729,135.903162185027,155.247114730702
2.26895406751522,283.645905515419,298.102811578237,14.4569060628178,-290.874358546828,134.594499726301,156.279858820527
2.27172108467072,290.012839478503,295.477464924456,5.46462544595238,-292.745152201479,142.274107016275,150.471045185204
2.27448810182623,295.477264192016,293.561708114052,-1.91555607796437,-294.519486153034,148.69641013499,145.823076018044
2.27725511898174,302.473795435249,298.14019676841,-4.33359866683907,-300.30699610183,153.403697051044,146.903299050786
2.28002213613724,298.967000840855,292.576795752809,-6.39020508804572,-295.771898296832,152.67860296445,143.093295332382
2.28278915329275,286.630059270918,294.558594362022,7.92853509110375,-290.59432681647,139.350762089907,151.243564726563
2.28555617044826,282.783830726985,298.056591941605,15.2727612146195,-290.420211334295,133.755534756183,156.664676578112
2.28832318760376,283.283715652889,292.525046741669,9.24133108877953,-287.904381197279,137.021192282055,150.883188915224
2.29109020475927,291.482618381176,293.518289319855,2.03567093867872,-292.500453850516,144.723473721249,147.776980129267
2.29385722191478,300.225929186763,297.107541188623,-3.11838799813972,-298.666735187693,151.672158592451,146.994576595242
2.29662423907028,297.7848467517,294.652815281362,-3.13203147033795,-296.218831016531,150.458439111019,145.760391905512
2.29939125622579,290.539262024902,294.514651309635,3.97538928473233,-292.526956667269,143.281936370085,149.245020297184
2.3021582733813,280.952405286688,294.037608558427,13.0852032717393,-287.495006922557,133.933601007474,153.561405915083
2.3049252905368,281.618175762476,293.639404718513,12.0212289560369,-287.628790240494,134.798473403219,152.830316837275
2.30769230769231,289.507621247658,293.485316619543,3.97769537188475,-291.496468933601,142.764962937887,148.731505995714
2.31045932484781,297.975764983009,296.049558316588,-1.92620666642125,-297.012661649798,149.950985824715,147.061675825083
2.31322634200332,298.58695070292,296.699166726986,-1.8877839759341,-297.643058714953,150.237367339427,147.405691375526
2.31599335915883,294.431236190239,294.465069552094,0.0338333618545903,-294.448152871167,147.198701414192,147.249451456974
2.31876037631433,289.132669337132,298.037087023775,8.90441768664238,-293.584878180454,140.114125825245,153.470752355209
2.32152739346984,279.919463860412,292.728340599239,12.8088767388269,-286.323902229826,133.555293560793,152.768608669033
2.32429441062535,285.539427735516,293.45489058355,7.91546284803451,-289.497159159533,138.811982443741,150.685176715792
2.32706142778085,295.754980143224,296.995082004772,1.24010186154828,-296.375031073998,147.257439140838,149.11759193316
2.32982844493636,298.415434502414,297.738801523842,-0.676632978571206,-298.077118013128,149.546033740492,148.531084272636
2.33259546209187,297.323651125721,294.417084300561,-2.90656682516016,-295.870367713141,150.115108975441,145.7552587377
2.33536247924737,291.271103966046,296.029944789425,4.75884082337853,-293.650524377736,143.256131571334,150.394392806402
2.33812949640288,281.227021130118,296.856512595381,15.6294914652637,-289.041766862749,132.798764832427,156.243002030322
2.34089651355838,283.578870219648,292.42625304595,8.84738282630173,-288.002561632799,137.365743696673,150.636817936126
2.34366353071389,294.560766161971,298.942559611471,4.38179344949975,-296.751662886721,145.089486356236,151.662176530485
2.3464305478694,299.262217313121,296.777356741473,-2.48486057164757,-298.019787027297,150.873538942384,147.146248084913
2.3491975650249,300.211087143966,299.375746026339,-0.835341117626967,-299.793416585152,150.523214130796,149.270202454356
2.35196458218041,299.390292518412,300.015678184716,0.62538566630343,-299.702985351564,149.382453426054,150.320531925509
2.35473159933592,288.487930446516,298.941162275952,10.4532318294367,-293.714546361234,139.017349308539,154.697197052694
2.35749861649142,285.598445669447,299.39367877356,13.7952331041124,-292.496062221504,135.901606282668,156.594455938836
2.36026563364693,293.452163879357,299.921015253536,6.46885137417945,-296.686589566446,143.491656252589,153.194933313858
2.36303265080244,299.223188768684,300.871113877205,1.64792510852084,-300.047151322945,148.787631830082,151.259519492863
2.36579966795794,304.13173817328,301.338843524929,-2.79289464835153,-302.735290849105,153.462316410816,149.272974438289
2.36856668511345,307.416776045112,303.987345818358,-3.42943022675416,-305.702060931735,155.423103135933,150.278957795802
2.37133370226895,297.632835204028,303.012524802865,5.37968959883693,-300.322680003447,146.126572802596,154.196107200851
2.37410071942446,286.580567588741,299.352975806931,12.77240821819,-292.966771697836,136.904079685275,156.06269201256
2.37686773657997,292.433438804823,298.903963071605,6.47052426678198,-295.668700938214,142.98145726902,152.687243669193
2.37963475373547,299.316177402465,303.990484436299,4.67430703383314,-301.653330919382,147.320935184316,154.332395735066
2.38240177089098,307.096780660776,305.316581762333,-1.78019889844342,-306.206681211555,154.43848977961,151.768191431945
2.38516878804649,312.349248548549,311.937680281835,-0.411568266714312,-312.143464415192,156.380408407632,155.76305600756
2.38793580520199,306.666318788637,308.032544791295,1.36622600265815,-307.349431789966,152.650046392989,154.699385396977
2.3907028223575,293.525054257421,307.291934750099,13.7668804926779,-300.40849450376,139.879086882371,160.529407621388
2.393469839513,294.49583330132,309.938906941645,15.4430736403254,-302.217370121483,139.526379830497,162.690990290985
2.39623685666851,303.522176465878,310.1229122541,6.60073578822215,-306.822544359989,148.460720338828,158.361824021161
2.39900387382402,310.093393407796,309.292367612799,-0.801025794996747,-309.692880510298,155.447209601396,154.245670908901
2.40177089097952,315.23450151713,312.896809038812,-2.33769247831805,-314.065655277971,158.786096997724,155.279558280247
2.40453790813503,311.641351141932,311.115568381614,-0.525782760318179,-311.378459761773,156.083566951125,155.294892810648
2.40730492529054,298.459984064313,306.261211793936,7.80122772962329,-302.360597929125,145.329378167345,157.03121976178
2.41007194244604,294.558356675626,306.896793112151,12.3384364365243,-300.727574893889,141.109960119551,159.617614774338
2.41283895960155,297.755178629782,306.231322177768,8.476143547986,-301.993250403775,144.639517540898,157.353732862877
2.41560597675706,301.146699620902,299.300857165507,-1.84584245539537,-300.223778393204,151.496271038149,148.727507355056
2.41837299391256,309.017928509545,303.776099102979,-5.2418294065663,-306.397013806262,157.129878958056,149.267134848206
2.42114001106807,305.500627810397,300.131377625043,-5.36925018535464,-302.81600271772,155.434938997876,147.381063719844
2.42390702822358,292.389709310866,296.262197355393,3.87248804452662,-294.325953333129,144.25861063317,150.06734269996
2.42667404537908,282.590057673249,294.787073571856,12.1970158986064,-288.688565622552,135.196520887321,153.492044735231
2.42944106253459,282.021991970597,290.282531597688,8.26053962709125,-286.152261784143,136.880726171753,149.27153561239
2.43220807969009,287.268312676611,287.342308768451,0.0739960918405131,-287.305310722531,143.597158292385,143.708152430146
2.4349750968456,292.717320929427,288.613198004251,-4.10412292517594,-290.665259466839,148.410721927302,142.254537539538
2.43774211400111,292.256566592301,288.101553728144,-4.15501286415696,-290.179060160222,148.205789728229,141.973270431993
2.44050913115661,287.303207441861,288.254904079442,0.951696637581279,-287.779055760651,143.17575540214,144.603300358512
2.44327614831212,276.632452859328,286.699912076008,10.0674592166801,-281.666182467668,133.282496821324,148.383685646344
2.44604316546763,272.28149923302,285.342209342752,13.0607101097321,-278.811854287886,129.610394561644,149.201459726242
2.44881018262313,276.38039486701,280.350343048821,3.96994818181099,-278.365368957916,136.2052233426,142.160145615316
2.45157719977864,285.471751139143,283.520213744222,-1.95153739492179,-284.495982441682,143.711644267033,140.78433817465
2.45434421693415,289.025904238145,282.12313213484,-6.90277210330504,-285.574518186492,147.964338170725,137.610180015767
2.45711123408965,284.175020833913,281.248965318912,-2.92605551500083,-282.711993076413,143.550538174457,139.161454901956
2.45987825124516,276.715598466983,284.616959494387,7.90136102740377,-280.666278980685,134.40711871979,146.259160260895
2.46264526840066,269.594544687855,286.372089199494,16.7775445116391,-277.983316943674,126.408500088108,151.574816855566
2.46541228555617,273.501285700902,283.323512968269,9.82222726736694,-278.412399334585,131.839529216767,146.572870117818
2.46817930271168,283.263587291868,285.498445837197,2.2348585453293,-284.381016564533,140.514364373269,143.866652191263
2.47094631986718,289.810743704458,284.233345198245,-5.57739850621283,-287.022044451351,147.694071105335,139.327973346016
2.47371333702269,287.028310659821,284.251514214869,-2.7767964449522,-285.639912437345,144.902553552387,140.737358884958
2.4764803541782,282.812310534013,285.55194993036,2.73963939634655,-284.182130232187,140.036335568833,144.145794663353
2.4792473713337,272.923754440417,284.417824999836,11.4940705594188,-278.670789720126,130.714841940499,147.955947779627
2.48201438848921,269.616817374096,282.320580153009,12.703762778913,-275.968698763553,128.456527297592,147.512171465961
2.48478140564472,279.084800223545,284.43870903343,5.35390880988575,-281.761754628487,136.865445706829,144.896308921658
2.48754842280022,280.640278353218,278.294019403446,-2.34625894977194,-279.467148878332,141.493268651495,137.973880226837
2.49031543995573,279.943960983333,272.274253214063,-7.66970776927008,-276.109107098698,143.806834376301,132.302272722396
2.49308245711123,278.796272543628,273.432658630081,-5.363613913547,-276.114465586855,142.079943228588,134.034522358267
2.49584947426674,267.11227301239,273.424863199604,6.3125901872146,-270.268568105997,130.399841412588,139.868726693409
2.49861649142225,259.721601505596,272.347647040365,12.6260455347686,-266.03462427298,123.547777985414,142.486846287567
2.50138350857775,263.923145622908,274.328443675102,10.4052980521942,-269.125794649005,126.758923785357,142.366870863648
2.50415052573326,272.53781732889,274.299415206646,1.76159787775589,-273.418616267768,135.388109725567,138.030506542201
2.50691754288877,277.887093710103,277.265607093786,-0.621486616317497,-277.576350401945,139.25429016321,138.322060238734
2.50968456004427,292.75617375179,297.391819134012,4.63564538222153,-295.073996442901,144.060264184784,151.013732258117
2.51245157719978,308.173271513991,327.403635681219,19.2303641672277,-317.788453597605,144.471453673382,173.316999924223
2.51521859435528,325.528784856071,361.029299405238,35.5005145491673,-343.279042130654,145.014135153452,198.264906977203
2.51798561151079,361.239094496191,397.785897154377,36.5468026581859,-379.512495825284,162.346145919002,217.166349906281
2.5207526286663,395.874228433548,428.845805878702,32.9715774451537,-412.360017156125,181.451325494197,230.908691661928
2.5235196458218,422.367753085597,446.707975621107,24.3402225355101,-434.537864353352,199.013765275043,235.524099078309
2.52628666297731,442.480029578207,460.240572236461,17.7605426582539,-451.360300907334,212.359743459977,239.000557447358
2.52905368013282,438.252893689983,450.657055650498,12.4041619605152,-444.45497467024,212.924365864734,231.530608805507
2.53182069728832,409.393914682886,420.005061547368,10.6111468644824,-414.699488115127,199.391383909202,215.308104205925
2.53458771444383,382.517957826051,385.872120861332,3.35416303528149,-384.195039343691,189.581897395385,194.613141948307
2.53735473159934,358.588183981854,347.349355775923,-11.238828205931,-352.968769878889,184.913506093893,168.055263784996
2.54012174875484,333.905441313666,312.386476235675,-21.5189650779908,-323.145958774671,177.712203195828,145.433755578842
2.54288876591035,313.701270312725,286.25983378749,-27.4414365252347,-299.980552050107,170.57135341898,129.409198631128
2.54565578306586,297.426431915697,274.557486150902,-22.8689457647955,-285.9919590333,160.147688840247,125.844270193053
2.54842280022136,275.699902442766,264.339871129616,-11.3600313131494,-270.019886786191,143.529966877957,126.489919908233
2.55118981737687,266.902061695446,271.153186885379,4.2511251899333,-269.027624290413,131.325468252756,137.702156037656
2.55395683453237,272.919780285831,275.478674814083,2.55889452825221,-274.199227549957,135.180442878789,139.018784671168
2.55672385168788,281.974765547278,279.279906546291,-2.69485900098647,-280.627336046785,142.334812274132,138.292523772653
2.55949086884339,291.439520579347,287.206842947919,-4.23267763142746,-289.323181763633,147.836099105387,141.487082658246
2.56225788599889,295.164989178349,291.634591026637,-3.53039815171189,-293.399790102493,149.34769366503,144.052096437463
2.5650249031544,285.55598628396,288.26737883617,2.71139255221038,-286.911682560065,141.422296865875,145.48938569419
2.56779192030991,274.996906180817,288.208135443816,13.2112292629994,-281.602520812316,130.892838458909,150.709682353408
2.57055893746541,274.283229850071,286.739588341514,12.4563584914428,-280.511409095792,130.913435679314,149.597973416478
2.57332595462092,280.151506158817,283.349116271345,3.19761011252763,-281.750311215081,138.476948023145,143.273363191936
2.57609297177643,289.237896246678,285.111325956832,-4.1265702898462,-287.174611101755,146.682233268262,140.492377833493
2.57885998893193,293.91978867815,289.622267898139,-4.29752078001098,-291.771028288145,149.108654729081,142.662373559064
2.58162700608744,289.408051467549,288.253999679199,-1.15405178834993,-288.831025573374,145.281051627949,143.549973945425
2.58439402324294,282.059983309161,294.157273029684,12.0972897205235,-288.108628169423,134.981346794319,153.127281375104
2.58716104039845,274.611493981745,288.812655575427,14.2011615936826,-281.712074778586,130.205166194031,151.506908584555
2.58992805755396,278.330160301074,285.367926334941,7.03776603386757,-281.849043318007,135.646197133603,146.202846184404
2.59269507470946,288.056842080237,284.049634082756,-4.00720799748103,-286.053238081496,146.032025038859,140.021213042637
2.59546209186497,292.689714581333,284.685836840931,-8.00387774040206,-288.687775711132,150.346796160868,138.340979550265
2.59822910902048,291.262094188192,287.308738106868,-3.95335608132467,-289.28541614753,147.607725134758,141.677691012771
2.60099612617598,283.098507425958,289.061898346676,5.96339092071759,-286.080202886317,138.56755825262,147.512644633697
2.60376314333149,275.934206881096,291.813924684477,15.8797178033804,-283.874065782787,130.027244538858,153.846821243929
2.606530160487,278.515539856269,290.340373812121,11.8248339558527,-284.427956834195,133.345352950208,151.082603883987
2.6092971776425,287.896178270234,294.021635092403,6.12545682216967,-290.958906681318,140.885360724032,150.073545957286
2.61206419479801,294.4780711036,293.80482434441,-0.673246759190079,-294.141447724005,147.575658931395,146.56578879261
2.61483121195351,294.102354532017,292.317919651171,-1.78443488084565,-293.210137091594,147.943394706431,145.266742385163
2.61759822910902,293.129532361519,295.009387962482,1.87985560096354,-294.069460162001,145.624838380278,148.444621781723
2.62036524626453,287.239628362491,298.889444736913,11.6498163744216,-293.064536549702,137.794905994035,155.269630555667
2.62313226342003,282.642116808348,297.337599248678,14.6954824403302,-289.989858028513,133.973317184009,156.016540844504
2.62589928057554,290.792351050508,294.980425770232,4.18807471972463,-292.88638841037,143.302138165392,149.584250244979
2.62866629773105,297.390374636987,298.932191632009,1.54181699502215,-298.161283134498,147.924278820982,150.237004313516
2.63143331488655,298.011392890761,294.363625788474,-3.64776710228739,-296.187509339618,150.829579996524,145.357929343093
2.63420033204206,299.111640024643,295.931714220322,-3.17992580432104,-297.521677122483,151.145782914482,146.375894208001
2.63696734919757,292.451773102894,301.912630104913,9.46085700201922,-297.182201603903,141.495458050437,155.686743553466
2.63973436635307,283.757873548536,299.329877314837,15.5720037663015,-291.543875431686,134.092934891117,157.450940540569
2.64250138350858,290.697252947545,300.928326731326,10.2310737837811,-295.812789839435,140.233089581882,155.579700257553
2.64526840066408,300.322427384789,303.021180818622,2.69875343383245,-301.671804101705,148.811836975478,152.859967126227
2.64803541781959,303.932287906597,303.396874171724,-0.535413734872805,-303.66458103916,152.233850820735,151.430730218426
2.6508024349751,308.08238579595,305.876184667078,-2.20620112887156,-306.979285231514,155.144293462411,151.834991769103
2.6535694521306,303.646804104308,305.978538665631,2.33173456132374,-304.812671384969,150.657534771492,154.155136613478
2.65633646928611,289.832839717918,305.3485879674,15.515748249482,-297.590713842659,137.158545734218,160.432168108441
2.65910348644162,291.637268807256,308.870407318301,17.2331385110448,-300.253838062778,137.202065148105,163.051772914673
2.66187050359712,302.352156412112,308.095755222376,5.74359881026373,-305.223955817244,148.304278800924,156.91967701632
2.66463752075263,306.928239415815,306.419381365877,-0.508858049937203,-306.673810390846,153.718548732876,152.95526165797
2.66740453790814,310.008639795071,307.812923721896,-2.19571607317471,-308.910781758484,156.102177934123,152.808603824361
2.67017155506364,309.734518111026,307.049688872626,-2.68482923839974,-308.392103491826,156.209673674713,152.182429817113
2.67293857221915,299.874080068601,311.396749350143,11.5226692815416,-305.635414709372,144.17570539353,161.459709315842
2.67570558937465,296.599989758154,311.800167577567,15.2001778194131,-304.200078667861,140.699905969371,163.50017269849
2.67847260653016,304.451578191291,315.148555954326,10.6969777630349,-309.800067072808,146.877300214128,162.92276685868
2.68123962368567,309.979093857156,309.417939279099,-0.561154578056858,-309.698516568128,155.270124217606,154.428392350521
2.68400664084117,318.913704648321,318.757463772127,-0.156240876193579,-318.835584210224,159.534972762257,159.300611447967
2.68677365799668,323.732043554816,319.133410745517,-4.59863280929869,-321.432727150167,164.165338182057,157.267388968109
2.68954067515219,312.799612010547,320.384725450067,7.58511343952028,-316.592168730307,152.607249285513,163.984919444794
2.69230769230769,305.604523715046,322.755775061917,17.151251346871,-314.180149388482,144.226636184087,169.953513204394
2.6950747094632,309.721794536154,322.288760693334,12.5669661571806,-316.005277614744,148.577414189486,167.427863425257
2.69784172661871,314.14475988256,317.486649946589,3.34189006402835,-315.815704914575,155.401434909266,160.414270005309
2.70060874377421,324.787069731716,319.685586313396,-5.10148341831967,-322.236328022556,164.944276575018,157.292051447538
2.70337576092972,329.601028952031,324.185689249196,-5.41533970283518,-326.893359100614,167.508184327433,159.385174773181
2.70614277808522,322.684279694096,324.402920520721,1.71864082662523,-323.543600107409,160.482819433736,163.060780673673
2.70890979524073,314.604055768822,328.689305684331,14.0852499155085,-321.646680726576,150.259402926657,171.38727779992
2.71167681239624,314.02180040202,329.369375823929,15.3475754219091,-321.695588112975,149.337112490056,172.358475622919
2.71444382955174,321.355565741969,330.518249582985,9.16268384101619,-325.936907662477,156.096440950476,169.840466712001
2.71721084670725,331.663220081879,333.632507839251,1.96928775737166,-332.647863960565,164.846966162254,167.800897798311
2.71997786386276,338.446966971869,336.300173786611,-2.1467931852581,-337.37357037924,170.296880078564,167.076690300677
2.72274488101826,334.526624312293,336.425629489196,1.89900517690279,-335.476126900744,166.313809567695,169.162317333049
2.72551189817377,328.602894742653,337.63140945434,9.02851471168771,-333.117152098496,159.787190015482,173.329962083014
2.72827891532928,324.373927768454,341.498004163904,17.1240763954497,-332.935965966179,153.624925686502,179.311040279677
2.73104593248478,327.582054578906,338.5589890051,10.9769344261936,-333.070521792003,158.302560076356,174.767961715647
2.73381294964029,337.546301586204,337.56675327879,0.0204516925853682,-337.556527432497,168.76292494681,168.793602485688
2.73657996679579,344.286158123655,343.393080461581,-0.893077662074177,-343.839619292618,172.589617892865,171.250001399754
2.7393469839513,341.380912291832,338.474583807122,-2.90632848470949,-339.927748049477,172.143620388271,167.784127661206
2.74211400110681,338.575041918048,343.550807134426,4.97576521637757,-341.062924526237,166.799638350835,174.263286175402
2.74488101826231,331.675595403696,346.532592470247,14.8569970665509,-339.104093936972,158.409299168573,180.694794768399
2.74764803541782,327.808199876515,340.582033133996,12.7738332574814,-334.195116505255,157.517183309517,176.677933195739
2.75041505257333,335.434450012047,339.495354763811,4.06090475176399,-337.464902387929,165.686772630142,171.778129757788
2.75318206972883,345.110930547861,340.46924935695,-4.64168119091084,-342.790089952405,174.876305869386,167.91378408302
2.75594908688434,343.255828945347,341.590596045499,-1.6652328998486,-342.423212495423,172.460530922598,169.962681572825
2.75871610403985,342.523036510389,344.45965021669,1.93661370630122,-343.49134336354,170.293211402044,173.198131961496
2.76148312119535,332.916420627344,342.505040588321,9.5886199609763,-337.710730607833,161.663900333184,176.046830274649
2.76425013835086,322.04516228799,335.624419169,13.5792568810095,-328.834790728495,154.23295270349,174.601838025005
