t,leadI,leadII,leadIII,aVR,aVL,aVF
0,-2.72608032043551,-4.39402522813827,-1.66794490770276,3.56005277428689,-0.529067706366376,-3.03098506792052
0.00276701715550636,8.76459655221238,25.2655888683276,16.5009923161152,-17.01509271027,-3.8681978819514,20.8832905922214
0.00553403431101273,22.812278221906,56.2521421427778,33.4398639208718,-39.5322101823419,-5.31379284948291,44.8460030318248
0.00830105146651909,40.4923559224159,88.3945596535791,47.9022037311632,-64.4434577879975,-3.70492390437366,68.1483816923711
0.0110680686220255,60.6057811747807,119.26040092588,58.6546197510994,-89.9330910503304,0.975580711840649,88.9575103384898
0.0138350857775318,79.8973829919778,144.514962389308,64.6175793973301,-112.206172690643,7.63990179732382,104.566270893319
0.0166021029330382,94.1013170165339,159.268928992215,65.1676119756812,-126.685123004375,14.4668525204263,112.218270483948
0.0193691200885446,99.3343369471358,159.844334242834,60.5099972956979,-129.589335594985,19.4121698257189,110.177165769266
0.0221361372440509,93.3388067884007,145.227322617564,51.8885158291629,-119.283064702982,20.7251454796189,98.5579192233633
0.0249031543995573,76.2285522195492,117.639766507115,41.4112142875658,-96.9341593633321,17.4086689659917,79.5254903973404
0.0276701715550636,50.5672677839186,82.0471126570048,31.4798448730863,-66.3071902204617,9.54371145541615,56.7634787650455
0.03043718871057,20.7597293340231,44.8328691977785,24.0731398637555,-32.7962992659008,-1.65670526486618,34.453004530767
0.0332042058660764,-8.10657134738812,12.1333399817506,20.2399113291387,-2.01338431718123,-14.1732413382634,16.1866256554446
0.0359712230215827,-31.6476126162795,-11.6307408019385,20.016871814341,21.639176709109,-25.8322422153103,4.19306550620126
0.0387382401770891,-47.3322418075981,-24.6219682640657,22.7102735435324,35.9771050358319,-35.0212576755652,-0.955847360266649
0.0415052573325955,-54.9582864696898,-27.6698020431714,27.2884844265184,41.3140442564306,-41.1233854481041,-0.190658808326539
0.0442722744881018,-56.284094182817,-23.625057271332,32.659036911485,39.9545757270745,-44.471565547151,4.51698982007649
0.0470392916436082,-54.0384555899526,-16.2499225209968,37.7885330689559,35.1441890554747,-45.9134943294543,10.7693052739795
0.0498063087991146,-50.8148687090903,-9.0312580122777,41.7836106968126,29.923063360684,-46.2992397029514,16.3761763422674
0.0525733259546209,-48.3400704244461,-4.29179224075736,44.0482781836887,26.3159313326017,-46.1941743040674,19.8782429714657
0.0553403431101273,-47.3147232311144,-2.82938026313018,44.4853429679842,25.0720517471223,-45.9000330995493,20.827981352427
0.0581073602656337,-47.6758359839192,-4.10538810231838,43.5704478816008,25.8906120431188,-45.62314193276,19.7325298896412
0.06087437742114,-48.9664837538596,-6.8135808135355,42.1529029403241,27.8900322836975,-45.5596933470918,17.6696610633943
0.0636413945766464,-50.5908466468017,-9.55509899469751,41.0357476521042,30.0729728207496,-45.813297149453,15.7403243287034
0.0664084117321527,-51.9448116852688,-11.3562603746862,40.5885513105825,31.6505360299775,-46.2666814979256,14.6161454679481
0.0691754288876591,-52.5369952638513,-11.8819047752541,40.6550904885973,32.2094500195527,-46.5960428762243,14.3865928566716
0.0719424460431655,-52.1587925908378,-11.3532459466049,40.8055466442329,31.7560192687213,-46.4821696175354,14.726150348814
0.0747094631986718,-51.0149534601481,-10.2927294770101,40.722223983138,30.6538414685791,-45.8685887216431,15.214747253064
0.0774764803541782,-49.6640121264288,-9.24534580740594,40.4186663190228,29.4546789669173,-45.0413392227258,15.5866602558084
0.0802434975096846,-48.7285700700553,-8.5819318298315,40.1466382402238,28.6552509499434,-44.4376041551395,15.7823532051961
0.0830105146651909,-48.53007237832,-8.42142301953264,40.1086493587874,28.4757476989263,-44.3193608685537,15.8436131696274
0.0857775318206973,-48.8994835430314,-8.65561662484425,40.2438669181871,28.7775500839378,-44.5716752306093,15.7941251466714
0.0885445489762037,-49.310444670066,-9.03705593914636,40.2733887309196,29.1737503046062,-44.7919167004928,15.6181663958866
0.09131156613171,-49.2446497462327,-9.28977557372998,39.9548741725027,29.2672126599813,-44.5997619593677,15.3325492993864
0.0940785832872164,-48.519865487527,-9.20845166748502,39.311413820042,28.864158577506,-43.9156396537845,15.0514810762785
0.0968456004427228,-47.3436767757204,-8.71867961853796,38.6249971571825,28.0311781971292,-42.9843369664515,14.9531587693223
0.0996126175982291,-46.081032354734,-7.88400819104082,38.1970241636932,26.9825202728874,-42.1390282592136,15.1565079863262
0.102379634753735,-44.9529548011662,-6.86482775800409,38.0881270431621,25.9088912795852,-41.5205409221642,15.611649642579
0.105146651909242,-43.9227087642803,-5.85152815943116,38.0711806048491,24.8871184618557,-40.9969446845647,16.109826222709
0.107913669064748,-42.8442044164784,-4.99950672889483,37.8446976875836,23.9218555726866,-40.344451052031,16.4225954793444
0.110680686220255,-41.7070474737663,-4.38555955893017,37.3214879148361,23.0463035163482,-39.5142676943012,16.467964177953
0.113447703375761,-40.7276453366919,-3.99221006384924,36.7354352728427,22.3599277002706,-38.7315403047673,16.3716126044967
0.116214720531267,-40.1824128306462,-3.71822167902665,36.4641911516195,21.9503172548364,-38.3233019911329,16.3729847362964
0.118981737686774,-40.1242308009035,-3.41144108937009,36.7127897115334,21.7678359451368,-38.4185102562185,16.6506743110817
0.12174875484228,-40.2447468113199,-2.91755430934674,37.3271925019732,21.5811505603333,-38.7859696566465,17.2048190963132
0.124515771997786,-40.0310826936087,-2.13218004647427,37.8989026471344,21.0816313700415,-38.9649926703716,17.8833613003301
0.127282789153293,-39.1120929468659,-1.03935362318823,38.0727393236777,20.0757232850271,-38.5924161352718,18.5166928502447
0.130049806308799,-37.518112306761,0.278720368290608,37.7968326750516,18.6196959692352,-37.6574724909063,19.0377765216711
0.132816823464305,-35.6428206916178,1.66851756949846,37.3113382611163,16.9871515610597,-36.4770794763671,19.4899279153074
0.135583840619812,-33.9416655912684,2.96426976608311,36.9059353573515,15.4886979125927,-35.42380047431,19.9351025617173
0.138350857775318,-32.6137254889866,4.05878503823574,36.6725105272223,14.2774702253754,-34.6431180081045,20.365647782729
0.141117874930825,-31.5146175415205,4.95294490405961,36.4675624455801,13.2808363187304,-33.9910899935503,20.7102536748198
0.143884892086331,-30.3463424206162,5.75273383287725,36.0990762534934,12.2968042938695,-33.2227093370548,20.9259050431853
0.146651909241837,-28.9423307621134,6.6057084218903,35.5480391840037,11.1683111701116,-32.2451849730586,21.076873802947
0.149418926397344,-27.4025452123318,7.60642111493294,35.0089663272647,9.89806204869943,-31.2057557697983,21.3076937210988
0.15218594355285,-25.980023336366,8.72758375411251,34.7076070904785,8.62621979112676,-30.3438152134223,21.7175954222955
0.154952960708356,-24.8419829393693,9.8237395291465,34.6657224685158,7.5091217051114,-29.7538527039425,22.2447309988311
0.157719977863863,-23.9303706981175,10.70862018344,34.6389908815575,6.61087525733878,-29.2846807898375,22.6738055324987
0.160486995019369,-23.0432185994472,11.2599445168016,34.3031631162488,5.89163704132277,-28.673190857848,22.7815538165252
0.163254012174876,-22.0468837140885,11.4907914454233,33.5376751595117,5.27804613433262,-27.7922794368001,22.5142333024675
0.166021029330382,-21.0058587260761,11.552084660809,32.5579433868851,4.72688703263353,-26.7819010564806,22.0550140238471
0.168788046485888,-20.0980344686258,11.6734257177554,31.7714601863812,4.21230437543524,-25.9347473275035,21.7224429520683
0.171555063641395,-19.3938054689497,12.0774468815592,31.471252350509,3.65817929369525,-25.4325289097294,21.7743496160341
0.174322080796901,-18.7183208778705,12.9024634098338,31.6207842877044,2.90792873401837,-25.1695525827875,22.2616238487691
0.177089097952407,-17.7509271838029,14.1541622280477,31.9050894118506,1.79838247787758,-24.8280082978267,23.0296258199491
0.179856115107914,-16.2955620369741,15.7011081556826,31.9966701926567,0.297226940645774,-24.1461161148154,23.8488891741696
0.18262313226342,-14.4791586238954,17.3284495052764,31.8076081291718,-1.42464544069046,-23.1433833765336,24.5680288172241
0.185390149418926,-12.6758076125256,18.8453029139751,31.5211105265007,-3.08474765072475,-22.0984590695132,25.1832067202379
0.188157166574433,-11.1929749777959,20.2001298433405,31.3931048211364,-4.50357743277229,-21.2930398994661,25.7966173322384
0.190924183729939,-9.97976282762454,21.5312335715254,31.5109963991499,-5.77573537195042,-20.7453796133872,26.5211149853376
0.193691200885446,-8.6165915633287,23.1050164445737,31.7216080079024,-7.24421244062252,-20.1690997856156,27.4133122262381
0.196458218040952,-6.61511144748344,25.1661354154318,31.7812468629152,-9.27551198397418,-19.1981791551993,28.4736911391735
0.199225235196458,-3.79596341280543,27.7873878687039,31.5833512815093,-11.9957122279492,-17.6896573471574,29.6853695751066
0.201992252351965,-0.443315654173329,30.809680112722,31.2529957668954,-15.1831822292744,-15.8481557105344,31.0313379398087
0.204759269507471,2.88306657235136,33.9013592052734,31.018292632922,-18.3922128888124,-14.0676130302853,32.4598259190977
0.207526286662977,5.7184217677661,36.6913592987021,30.972937530936,-21.2048905332341,-12.627257881585,33.8321484148191
0.210293303818484,7.9453724330744,38.896562882605,30.9511904495306,-23.4209676578397,-11.5029090082281,34.9238766660678
0.21306032097399,9.74132615016487,40.3857395384283,30.6444133882634,-25.0635328442966,-10.4515436190493,35.5150764633459
0.215827338129496,11.3022658022174,41.1735482747966,29.8712824725792,-26.237907038507,-9.2845083351809,35.5224153736879
0.218594355285003,12.6118751912471,41.3779601888048,28.7660849975577,-26.9949176900259,-8.07710490315528,35.0720225931812
0.221361372440509,13.468657173613,41.1797611247131,27.7111039511001,-27.324209149163,-7.12122338874359,34.4454325379066
0.224128389596015,13.7389009381211,40.7992711275486,27.0603701894275,-27.2690860328348,-6.66073462565317,33.929820658488
0.226895406751522,13.592010595282,40.4767405754268,26.8847299801448,-27.0343755853544,-6.64635969243139,33.6807352777858
0.229662423907028,13.4829142571133,40.4318446477847,26.9489303906714,-26.957379452449,-6.73300806677908,33.6903875192281
0.232429441062535,13.8653523401004,40.7946600195361,26.9293076794357,-27.3300061798182,-6.53197766966763,33.8619838494859
0.235196458218041,14.8597197100572,41.5348394601219,26.6751197500647,-28.1972795850896,-5.90770002000372,34.1049796050933
0.237963475373547,16.1495808924779,42.4365051699208,26.286924277443,-29.2930430311993,-5.06867169248254,34.3617147236819
0.240730492529054,17.1943956713057,43.1495777921037,25.955182120798,-30.1719867317047,-4.38039322474616,34.5523799564508
0.24349750968456,17.5845654570926,43.3044004005676,25.719834943475,-30.4444829288301,-4.06763474319124,34.5121176720213
0.246264526840066,17.2560063417034,42.6395573935446,25.3835510518412,-29.947781867624,-4.06377235506892,34.0115542226929
0.249031543995573,16.4146446440979,41.0868102577447,24.6721656136468,-28.7507274509213,-4.12876048477446,32.8794879356957
0.251798561151079,15.2742252518053,38.7810553562024,23.5068301043971,-27.0276403040038,-4.1163024262959,31.1439427302997
0.254565578306585,13.8594739634089,35.9986210047905,22.1391470413816,-24.9290474840997,-4.13983653898637,29.0688840230861
0.257332595462092,12.0428315784081,33.0536751755321,21.010843597124,-22.5482533769701,-4.48400600935792,27.032259386328
0.260099612617598,9.75174372009818,30.1909467973729,20.4392030772747,-19.9713452587355,-5.34372967858824,25.3150749373238
0.262866629773105,7.12363274709107,27.5081802476348,20.3845475005437,-17.3159064973629,-6.63045737672631,23.9463638740892
0.265633646928611,4.44230645246971,24.9324650945588,20.4901586420891,-14.6873857735143,-8.02392609480969,22.7113118683239
0.268400664084117,1.9029531822947,22.2616885147582,20.3587353324635,-12.0823208485265,-9.22789107508442,21.3102119236109
0.271167681239624,-0.577491152785538,19.2601906927236,19.8376818455091,-9.34134976996902,-10.2075864991473,19.5489362691163
0.27393469839513,-3.3180711007533,15.7696326212899,19.0877037220432,-6.22578076026831,-11.2028874113983,17.4286681716666
0.276701715550636,-6.61661427511431,11.782923631795,18.3995379069094,-2.58315467834037,-12.5080760910118,15.0912307693522
0.279468732706143,-10.487959705225,7.44924073178387,17.9372004370089,1.51935948672059,-14.212580071117,12.6932205843964
0.282235749861649,-14.6176510519875,3.01980430856627,17.6374553605537,5.7989233717106,-16.1275532062706,10.32862983456
0.285002767017156,-18.5679338510684,-1.22705323481058,17.3408806162578,9.8974935429395,-17.9544072336631,8.05691369072363
0.287769784172662,-22.0571511021607,-5.04555874714273,17.011592355018,13.5513549246517,-19.5343717285894,5.98301680393764
0.290536801328168,-25.0753200676772,-8.25366803058201,16.8216520370952,16.6644940491296,-20.9484860523862,4.28399200325657
0.293303818483675,-27.7509699738764,-10.7443750942971,17.0065948795794,19.2476725340867,-22.3787824267279,3.13110989264115
0.296070835639181,-30.1112097620422,-12.4934421934759,17.6177675685662,21.3023259777591,-23.8644886653042,2.56216268754515
0.298837852794687,-31.972998325439,-13.5699690092851,18.4030293161539,22.771483667362,-25.1880138207964,2.4165301534344
0.301604869950194,-33.081261468961,-14.1383135328433,18.9429479361176,23.6097875009021,-26.0121047025393,2.40231720163716
0.3043718871057,-33.3782097153249,-14.4331089165452,18.9451007987797,23.905659315935,-26.1616552570523,2.25599594111728
0.307138904261206,-33.1570516020682,-14.7036939709187,18.4533576311495,23.9303727864935,-25.8052046166089,1.8748318301154
0.309905921416713,-32.9439704799133,-15.1469806252189,17.7969898546943,24.0454755525661,-25.3704801673038,1.32500461473771
0.312672938572219,-33.1856339639738,-15.8568757721059,17.3287581918678,24.5212548680399,-25.2571960779208,0.73594120988094
0.315439955727726,-33.9881089022225,-16.8094745901831,17.1786343120394,25.3987917462028,-25.5833716071309,0.184579860928128
0.318206972883232,-35.1103736148954,-17.8875057007669,17.2228679141285,26.4989396578311,-26.1666207645119,-0.332318893319169
0.320973990038738,-36.2006490130079,-18.9323604127203,17.2682886002877,27.5665047128641,-26.7344688066478,-0.832035906216312
0.323741007194245,-37.0629518223989,-19.8004415544211,17.2625102679778,28.43169668841,-27.1627310451883,-1.26896564322168
0.326508024349751,-37.7292480178795,-20.3995693295689,17.3296786883107,29.0644086737242,-27.5294633530951,-1.53494532062911
0.329275041505257,-38.2982016130731,-20.6951235096183,17.6030781034547,29.4966625613457,-27.9506398582639,-1.5460227030818
0.332042058660764,-38.7171553055221,-20.6961589828302,18.0209963226918,29.7066571441761,-28.3690758141069,-1.33758133006921
0.33480907581627,-38.7362598026575,-20.4428723745861,18.2933874280714,29.5895660886218,-28.5148236153644,-1.07474247325737
0.337576092971776,-38.1051621236152,-20.0086077526626,18.0965543709525,29.0568849381389,-28.1008582472839,-0.956026690855044
0.340343110127283,-36.8521883449804,-19.5082327159995,17.3439556289809,28.1802105304899,-27.0980719869806,-1.08213854350932
0.343110127282789,-35.3887667353349,-19.089505236071,16.2992614992639,27.2391359857029,-25.8440141172994,-1.39512186840353
0.345877144438296,-34.311445952752,-18.8910314605824,15.4204144921696,26.6012387066672,-24.8659302224608,-1.73530848420641
0.348644161593802,-34.027058515523,-18.9779820992366,15.0490764162865,26.5025203073798,-24.5380674659047,-1.96445284147505
0.351411178749308,-34.4879157444402,-19.2949323438878,15.1929834005524,26.891424044164,-24.8404495724963,-2.05097447166772
0.354178195904815,-35.2483060183464,-19.67703763461,15.5712683837364,27.4626718264782,-25.4097872010414,-2.05288462543682
0.356945213060321,-35.7947663589719,-19.925403335781,15.8693630231909,27.8600848473765,-25.8320646910814,-2.02802015629507
0.359712230215827,-35.87905100978,-19.9034977379586,15.9755532718214,27.8912743738693,-25.9273021408007,-1.96397223306856
0.362479247371334,-35.592398007554,-19.5911687491602,16.0012292583938,27.5917833783571,-25.7968136329739,-1.79496974538323
0.36524626452684,-35.1547644195313,-19.0629026924399,16.0918617270914,27.1088335559856,-25.6233130733114,-1.48552048267426
0.368013281682346,-34.6401422652184,-18.4156237158228,16.2245185493956,26.5278829905206,-25.432330407307,-1.0955525832136
0.370780298837853,-33.8990911149193,-17.7091942320435,16.1898968828758,25.8041426734814,-25.0444939988976,-0.75964867458385
0.373547315993359,-32.744593844337,-16.96606073835,15.778533105987,24.8553272913435,-24.261563475162,-0.59376381618149
0.376314333148866,-31.2180735404535,-16.2200632724337,14.9980102680198,23.7190684064436,-23.1080419042367,-0.611026502206942
0.379081350304372,-29.6730557700517,-15.5591642061822,14.1138915638695,22.616109988117,-21.8934736669606,-0.722636321156374
0.381848367459878,-28.5741978002248,-15.1120108948062,13.4621869054186,21.8431043475155,-21.0181923528217,-0.824911994693784
0.384615384615385,-28.1651220405411,-14.9779688496085,13.1871531909326,21.5715454450748,-20.6761376157368,-0.895407829337923
0.387382401770891,-28.2832779938135,-15.1519340927312,13.1313439010822,21.7176060432724,-20.7073109474479,-1.0102950958245
0.390149418926397,-28.4837171708367,-15.5047896219857,12.978927548851,21.9942533964112,-20.7313223598438,-1.26293103656732
0.392916436081904,-28.3743459475441,-15.838834332403,12.5355116151411,22.1065901399735,-20.4549287813426,-1.65166135863096
0.39568345323741,-27.8870741652079,-15.9818614661848,11.9052126990231,21.9344678156963,-19.8961434321155,-2.03832438358081
0.398450470392916,-27.2694780570533,-15.8612556481871,11.4082224088662,21.5653668526202,-19.3388502329598,-2.22651661966041
0.401217487548423,-26.825630582277,-15.520516359813,11.305114222464,21.173073471045,-19.0653724023705,-2.10770106867449
0.403984504703929,-26.6444629160038,-15.0788449163105,11.5656179996933,20.8616539161572,-19.1050404578486,-1.7566134583086
0.406751521859436,-26.5490773902984,-14.664058691173,11.8850186991254,20.6065680407357,-19.2170480447119,-1.38951999602378
0.409518539014942,-26.2942917603337,-14.3579550095047,11.936336750829,20.3261233849192,-19.1153142555813,-1.21080912933784
0.412285556170448,-25.8181073379542,-14.1783620144651,11.6397453234891,19.9982346762096,-18.7289263307217,-1.26930834548799
0.415052573325955,-25.3110224298836,-14.0948160045145,11.2162064253691,19.7029192171991,-18.2636144276264,-1.43930478957271
0.417819590481461,-25.0393044956148,-14.0566696928767,10.9826348027381,19.5479870942458,-18.0109696491765,-1.53701744506932
0.420586607636967,-25.0857226607689,-14.0146526745278,11.0710699862411,19.5501876676484,-18.078396323505,-1.47179134414334
0.423353624792474,-25.2484112433585,-13.9312800207211,11.3171312226375,19.5898456320398,-18.282771232998,-1.3070743990418
0.42612064194798,-25.1980227534953,-13.7861068047717,11.4119159487236,19.4920647791335,-18.3049693511094,-1.18709542802405
0.428887659103486,-24.7592261730813,-13.5801127574296,11.1791134156517,19.1696694652555,-17.9691697943665,-1.20049967088898
0.431654676258993,-24.0633024392419,-13.334239758858,10.7290626803839,18.6987710990499,-17.3961825598129,-1.30258853923704
0.434421693414499,-23.4270156727127,-13.07316826232,10.3538474103927,18.2500919675163,-16.8904315415527,-1.35966042596363
0.437188710570006,-23.0573054789162,-12.7952811101459,10.2620243687703,17.926293294531,-16.6596649238432,-1.26662837068779
0.439955727725512,-22.8421445777755,-12.4472698528893,10.3948747248862,17.6447072153324,-16.6185096513308,-1.02619756400157
0.442722744881018,-22.4205083055046,-11.9299270906786,10.490581214826,17.1752176980916,-16.4555447601653,-0.719672937926275
0.445489762036525,-21.4860036110885,-11.1482008335243,10.3378027775642,16.3171022223064,-15.9119031943263,-0.405199027980027
0.448256779192031,-20.073099999146,-10.0873519339078,9.98574806523824,15.0802259665269,-15.0294240321921,-0.0508019343347712
0.451023796347537,-18.5801596582676,-8.86745348206135,9.71270617620623,13.7238065701645,-14.1464329172369,0.422626347072439
0.453790813503044,-17.4995279061549,-7.72685928052874,9.77266862562615,12.6131935933418,-13.6360982658905,1.02290467254871
0.45655783065855,-17.068032322255,-6.92356217333896,10.144470148916,11.995797247797,-13.6062512355855,1.61045398778853
0.459324847814056,-17.1134691222453,-6.59973885328118,10.5137302689641,11.8566039877632,-13.8135996956047,1.95699570784146
0.462091864969563,-17.2046329528751,-6.68710138746674,10.5175315654083,11.9458671701709,-13.8610822591417,1.91521508897079
0.464858882125069,-16.9622818179855,-6.91245993548089,10.0498218825046,11.9373708767332,-13.5060518502451,1.56868097351187
0.467625899280576,-16.2706180788484,-6.90481417421855,9.36580390462986,11.5877161265335,-12.8182109917391,1.23049486520565
0.470392916436082,-15.2385603010092,-6.34817442201586,8.89038587899333,10.7933673615125,-12.0644730900013,1.27110572848873
0.473159933591588,-13.991523579892,-5.10680076710206,8.88472281278991,9.54916217349702,-11.4381231963409,1.88896102284392
0.475926950747095,-12.5183321892234,-3.27450680545759,9.24382538376585,7.89641949734052,-10.8810787864946,2.98465928915413
0.478693967902601,-10.7283530880753,-1.13887535343308,9.58947773464227,5.93361422075422,-10.1589154113588,4.22530119060459
0.481460985058107,-8.65766430057448,0.919346281483038,9.57701058205751,3.86915900954572,-9.117337441316,5.24817843177028
0.484228002213614,-6.60250905328132,2.55468919190859,9.15719824518991,2.02390993068637,-7.87985364923562,5.85594371854925
0.48699501936912,-5.0113006114788,3.56751280736406,8.57881341884286,0.721893902057368,-6.79505701516083,6.07316311310346
0.489762036524626,-4.1920278360742,3.95286482124495,8.14489265731915,0.119581507414623,-6.16846024669668,6.04887873928205
0.492529053680133,-4.07961953130042,3.86532152963489,7.94494106093532,0.107149000832765,-6.01228029611787,5.9051312952851
0.495296070835639,-4.2776022105681,3.51786140404505,7.79546361461315,0.379870403261523,-6.03653291259062,5.6566625093291
0.498063087991146,-4.36042172910002,3.06933982084606,7.42976154994609,0.645540954126981,-5.89509163952306,5.24955068539608
0.500830105146652,-4.19684221019244,2.55839304139072,6.75523525158316,0.819224584400863,-5.4760387308878,4.65681414648694
0.503597122302158,-4.03115331785917,1.90988569918591,5.94103901704508,1.06063380933663,-4.98609616745212,3.92546235811549
0.506364139457665,-4.26073167502423,1.00141112033012,5.26214279535436,1.62966027734706,-4.7614372351893,3.13177695784224
0.509131156613171,-5.10054982730953,-0.246184908624823,4.8543649186847,2.67336736796717,-4.97745737299712,2.30409000502994
0.511898173768677,-6.41105235502172,-1.79825452759483,4.61279782742689,4.10465344130827,-5.5119250912243,1.40727164991603
0.514665190924184,-7.81773105173726,-3.49336337216885,4.32436767956841,5.65554721195305,-6.07104936565283,0.415502153699779
0.51743220807969,-9.0023837401681,-5.10063864204926,3.90174509811884,7.05151119110868,-6.45206441914347,-0.59944677196521
0.520199225235196,-9.91268417538082,-6.42329104758977,3.48939312779105,8.16798761148529,-6.70103865158594,-1.46694895989936
0.522966242390703,-10.7277689824325,-7.39542302721285,3.33234595521962,9.06159600482266,-7.03005746882604,-2.03153853599662
0.525733259546209,-11.6414545920121,-8.11803820282731,3.52341638918475,9.87974639741969,-7.58243549059841,-2.29731090682128
0.528500276701716,-12.6766210443511,-8.81095831183501,3.86566273251613,10.7437896780931,-8.27114188843364,-2.47264778965944
0.531267293857222,-13.6951698357563,-9.70469591352744,3.99047392222884,11.6999328746419,-8.84282187899256,-2.8571109956493
0.534034311012728,-14.5740543493398,-10.9307987714267,3.64325557791304,12.7524265603832,-9.1086549636264,-3.64377159675683
0.536801328168235,-15.3612029376856,-12.4668694732726,2.89433346441292,13.9140362054791,-9.12776820104924,-4.78626800442986
0.539568345323741,-16.2481934519755,-14.1556439423329,2.09254950964265,15.2019186971542,-9.1703714808091,-6.03154721634512
0.542335362479247,-17.3744672162545,-15.7750146404938,1.59945257576066,16.5747409283741,-9.48695989600756,-7.08778103236657
0.545102379634754,-18.6439245900584,-17.1177716594921,1.52615293056625,17.8808481247752,-10.0850387603123,-7.79580936446292
0.54786939679026,-19.7364847643459,-18.0505933830578,1.68589138128805,18.8935390737018,-10.711188072817,-8.18235100088489
0.550636413945766,-20.3312777385722,-18.542859660166,1.78841807840624,19.4370686993691,-11.0598479084892,-8.37722079087988
0.553403431101273,-20.3675688924135,-18.6689672178266,1.69860167458685,19.5182680551201,-11.0330852835002,-8.4851827716199
0.556170448256779,-20.1218591301626,-18.5879968540357,1.53386227612691,19.3549279920992,-10.8278607031448,-8.52706728895441
0.558937465412286,-20.0241680411611,-18.4996325014417,1.52453553971937,19.2619002713014,-10.7743517904402,-8.48754848086116
0.561704482567792,-20.3542343359808,-18.5796295486724,1.77460478730836,19.4669319423266,-11.0644195616446,-8.40251238068204
0.564471499723298,-21.0612128683299,-18.9157589017706,2.14545396655928,19.9884858850503,-11.6033334174446,-8.38515246760568
0.567238516878805,-21.8479683697862,-19.4784189661862,2.36954940359991,20.6631936679862,-12.108758886693,-8.55443478129317
0.570005534034311,-22.4393352799753,-20.1485323086009,2.29080297137441,21.2939337942881,-12.3650691256749,-8.92886466861326
0.572772551189817,-22.8015176830083,-20.7911549343759,2.01036274863246,21.7963363086921,-12.4059402158204,-9.39039609287171
0.575539568345324,-23.1288857707878,-21.3317176463568,1.797168124431,22.2303017085723,-12.4630269476094,-9.76727476096291
0.57830658550083,-23.6237048302777,-21.7898983406795,1.8338064895982,22.7068015854786,-12.728755659938,-9.97804592554066
0.581073602656336,-24.2809681013539,-22.2577167866932,2.02325131466067,23.2693424440235,-13.1521097080073,-10.1172327360163
0.583840619811843,-24.8884989478117,-22.8485611307611,2.03993781705054,23.8685300392864,-13.4642183824311,-10.4043116568553
0.586607636967349,-25.2589251825078,-23.6608410041711,1.59808417833671,24.4598830933394,-13.4285046804222,-11.0313784129172
0.589374654122856,-25.4911727169378,-24.7796759369306,0.71149678000717,25.1354243269342,-13.1013347484725,-12.0340895784617
0.592141671278362,-26.007575587965,-26.2909492546299,-0.283373666664819,26.1492624212975,-12.8621009606501,-13.2871614606473
0.594908688433868,-27.2753338468603,-28.2350404551124,-0.959706608252098,27.7551871509863,-13.1578136193041,-14.5973735316822
0.597675705589375,-29.3598421224638,-30.4312036095823,-1.07136148711842,29.8955228660231,-14.1442403176727,-15.7512825483503
0.600442722744881,-31.583547320098,-32.191422278682,-0.607874958584024,31.88748479939,-15.487836180757,-16.399648618633
0.603209739900387,-32.4974233701705,-32.0807958692778,0.416627500892609,32.2891096197242,-16.4570254355315,-15.8320841841926
0.605976757055894,-30.1843739819113,-27.9613653997303,2.22300858218099,29.0728696908208,-16.2036912820461,-12.8691784087747
0.6087437742114,-22.7542403084096,-17.4772425683066,5.27699774010297,20.1157414383581,-14.0156190242563,-6.10012241410182
0.611510791366907,-8.862857047503,1.08444946451258,9.94730651201558,3.88920379149521,-9.40508177975929,5.51587798826408
0.614277808522413,11.8337018783114,27.8553306670577,16.0216287887463,-19.8445162726845,-2.09396345521744,21.938479727902
0.617044825677919,38.3164406661527,60.7675005894268,22.451059923274,-49.5419706277897,7.93269037143934,41.6092802563504
0.619811842833426,68.0013107054014,95.5676524080065,27.5663417026051,-81.7844815567039,20.2174845013981,61.5669970553058
0.622578859988932,96.8680721311975,126.558465699086,29.6903935678882,-111.713268915142,33.5888392816546,78.124429633487
0.625345877144438,120.102511564877,147.907040949611,27.8045293847336,-134.004776257244,46.1489910900717,87.8557851671722
0.628112894299945,133.246427768694,155.155634664497,21.9092068958032,-144.201031216596,55.6686104364455,88.5324207801502
0.630879911455451,133.52862924076,146.475989042252,12.9473598014922,-140.002309141506,60.2906347196339,79.7116744218721
0.633646928610957,120.826232128114,123.257379833304,2.43114770518984,-122.041805980709,59.1975422114621,62.8442637692469
0.636413945766464,97.7864968989178,89.8127930144311,-7.97370388448674,-93.7996449566744,52.8801003917023,40.9195445649722
0.63918096292197,69.019266105177,52.2767471694527,-16.7425189357242,-60.6480066373148,42.8808925204506,17.7671141168642
0.641947980077477,39.7164374964218,17.0414187238458,-22.675018772576,-28.3789281101338,31.1957281344989,-2.81680002436514
0.644714997232983,14.2849619115482,-10.7802929488789,-25.0652548604271,-1.75233448133463,19.6751083859877,-17.922773904653
0.647482014388489,-4.52628322578035,-28.412915332589,-23.8866321068087,16.4695992791847,9.68017444051416,-26.1497737196988
0.650249031543996,-15.8494069536533,-35.7304571997677,-19.8810502461145,25.7899320767105,2.01582164623058,-27.8057537229411
0.653016048699502,-20.4164264978512,-34.8125055258457,-14.3960790279944,27.6144660118485,-3.0101737349284,-24.6042922769201
0.655783065855008,-20.0323089589508,-28.9742384113352,-8.94192945238448,24.503273685143,-5.54518975328313,-18.9580839318599
0.658550083010515,-16.9884091069079,-21.6412955651248,-4.6528864582169,19.3148523360164,-6.1677613243455,-13.1470910116709
0.661317100166021,-13.4897960657637,-15.4414169031402,-1.95162083737655,14.4656064844519,-5.76908761419355,-8.69651887025837
0.664084117321527,-11.1478622373084,-11.7550452922939,-0.607183054985507,11.4514537648011,-5.27033959116143,-6.18111417363969
0.666851134477034,-10.6513486629116,-10.7622533602454,-0.110904697333831,10.7068010115785,-5.27022198278887,-5.43657902878962
0.66961815163254,-11.7538839324533,-11.8330523562353,-0.0791684237819599,11.7934681443443,-5.83735775433567,-5.95611039000861
0.672385168788047,-13.6137586664476,-14.0181994102766,-0.40444074382904,13.8159790383621,-6.60465896130927,-7.21132007705283
0.675152185943553,-15.3316230968779,-16.4355106801416,-1.10388758326373,15.8835668885097,-7.11386775680706,-8.76969913170267
0.677919203099059,-16.3976716320925,-18.4641169058969,-2.06644527380444,17.4308942689947,-7.16561317914402,-10.2652810898507
0.680686220254566,-16.8108462630238,-19.7743697154065,-2.96352345238274,18.2926079892151,-6.92366140532051,-11.3689465838946
0.683453237410072,-16.858453294003,-20.2763628710022,-3.4179095769992,18.5674080825026,-6.7202718585019,-11.8471362240007
0.686220254565578,-16.7791981131441,-20.0566871065581,-3.27748899341399,18.4179426098511,-6.75085455986505,-11.667088049986
0.688987271721085,-16.5883291941439,-19.3257477285873,-2.73741853444339,17.9570384613656,-6.92545532985026,-11.0315831315153
0.691754288876591,-16.1768001953811,-18.3648886267905,-2.18808843140948,17.2708444110858,-6.99435588198579,-10.2764885291
0.694521306032097,-15.5486237250959,-17.4635573378239,-1.91493361272793,16.5060905314599,-6.81684505618401,-9.6892454752759
0.697288323187604,-14.9428204299816,-16.853097151722,-1.91027672174038,15.8979587908518,-6.51627185412063,-9.3816869367312
0.70005534034311,-14.699436863492,-16.6518128449781,-1.95237598148611,15.6756248542351,-6.37353044100294,-9.30209441323211
0.702822357498617,-14.9705830373071,-16.8339898213046,-1.86340678399752,15.9022864293059,-6.55358812665479,-9.34869830265107
0.705589374654123,-15.5308006274202,-17.2331431387482,-1.70234251132795,16.3819718830842,-6.91422905804613,-9.46774282503806
0.708356391809629,-15.8701410595658,-17.587625192647,-1.71748413308116,16.7288831261064,-7.07632846324233,-9.65255466286406
0.711123408965136,-15.5190128444706,-17.6265962989253,-2.10758345445476,16.5728045716979,-6.7057146950079,-9.86708987669004
0.713890426120642,-14.3578981014056,-17.1732518361808,-2.81535373477528,15.7655749687932,-5.77127218331515,-9.99430278547806
0.716657443276148,-12.6761269635826,-16.2213443329401,-3.54521736935755,14.4487356482613,-4.56545479711251,-9.88328085114883
0.719424460431655,-10.9502181494514,-14.9410841434158,-3.99086599396433,12.9456511464336,-3.47967607774356,-9.46597506869006
0.722191477587161,-9.53322620087706,-13.6024926766428,-4.06926647576572,11.5678594387599,-2.73197986255567,-8.83587957620426
0.724958494742667,-8.49679453610955,-12.4521784567851,-3.9553839206756,10.4744864964473,-2.27070530771697,-8.20378118873037
0.727725511898174,-7.71657166317322,-11.6093937393185,-3.89282207614529,9.66298270124586,-1.91187479351396,-7.7511079077319
0.73049252905368,-7.0791122555844,-11.036439093612,-3.9573268380276,9.0577756745982,-1.5608927087784,-7.4968829658198
0.733259546209187,-6.59968712739286,-10.5921461056679,-3.992458978275,8.59591661653036,-1.30361407455893,-7.29230254197143
0.736026563364693,-6.34710095225939,-10.1253021009287,-3.77820114866935,8.23620152659406,-1.28444990179502,-6.95175162479904
0.738793580520199,-6.26929421677634,-9.54612654987001,-3.27683233309366,7.90771038332318,-1.49623094184134,-6.41147944148183
0.741560597675706,-6.1176523309936,-8.84248560927608,-2.72483327828248,7.48006897013484,-1.69640952635556,-5.78365944377928
0.744327614831212,-5.58026213950864,-8.05327866719833,-2.47301652768968,6.81677040335348,-1.55362280590948,-5.26314759744401
0.747094631986718,-4.53069910446985,-7.23197233001766,-2.70127322554781,5.88133571724376,-0.914712939461017,-4.96662277778274
0.749861649142225,-3.16816244697624,-6.42138120349992,-3.25321875652368,4.79477182523808,0.04252815477372,-4.8372999800118
0.752628666297731,-1.89970501780877,-5.64165291526607,-3.7419478974573,3.77067896653742,0.921121439824268,-4.69180040636169
0.755395683453237,-1.03829405054005,-4.88595345283135,-3.8476594022913,2.9621237516857,1.40468267587562,-4.36680642756132
0.758162700608744,-0.560021979224444,-4.12074389831031,-3.56072191908586,2.34038293876737,1.50034996993071,-3.84073290869808
0.76092971776425,-0.125127260045951,-3.29200151548988,-3.16687425544393,1.70856438776791,1.52087349769899,-3.2294378854669
0.763696734919757,0.649455904960432,-2.34036960342527,-2.9898255083857,0.845456849232417,1.81964070667306,-2.66509755590548
0.766463752075263,1.89007992774727,-1.22375834590997,-3.11383827365724,-0.333160790918654,2.50195910070226,-2.1687983097836
0.769230769230769,3.38749327402886,0.0625776909422455,-3.32491558308661,-1.72503548248555,3.35620442855773,-1.63116894607218
0.771997786386276,4.80026906692566,1.48227882827496,-3.3179902386507,-3.14127394760031,4.05912965278818,-0.917855705187871
0.774764803541782,5.96194395699751,2.97640757597058,-2.98553638102692,-4.46917576648405,4.47374016901221,-0.00456440252816837
0.777531820697288,7.02609288499735,4.49351485067101,-2.53257803432633,-5.75980386783418,4.77933545966184,0.980468408172339
0.780298837852795,8.32305141813746,6.00828923151678,-2.31476218662067,-7.16567032482712,5.31890680237907,1.84676352244805
0.783065855008301,10.0518432787505,7.51334518255746,-2.53849809619304,-8.78259423065398,6.29517068747177,2.48742354318221
0.785832872163807,12.0772375954911,8.99423363846721,-3.0830039570239,-10.5357356169792,7.5801207762575,2.95561484072166
0.788599889319314,14.0123632805206,10.4156445744349,-3.59671870608568,-12.2140039274777,8.80454099330313,3.4094629341746
0.79136690647482,15.5178996591872,11.7343315339182,-3.78356812526903,-13.6261155965527,9.65073389222814,3.9753817043246
0.794133923630327,16.5619420028609,12.9253235083642,-3.63661849449669,-14.7436327556125,10.0992802486788,4.64435250693375
0.796900940785833,17.4240431439652,13.9982035492821,-3.42583959468308,-15.7111233466237,10.4249413693241,5.28618197729953
0.799667957941339,18.4535726677692,14.9973437430495,-3.45622892471975,-16.7254582054094,10.9549007962445,5.77055740916486
0.802434975096846,19.8036300278822,15.9954583508756,-3.80817167700666,-17.8995441893789,11.8059008524444,6.09364333693445
0.805201992252352,21.3692741193878,17.084524710185,-4.28474940920282,-19.2268994147864,12.8270117642953,6.3998876504911
0.807969009407858,22.9607525587047,18.3569911190549,-4.60376143964981,-20.6588718388798,13.7822569991773,6.87661483970255
0.810736026563365,24.5264287747157,19.8741011348143,-4.65232763990143,-22.200264954765,14.5893782073086,7.61088674745643
0.813503043718871,26.2046473347316,21.6340419337584,-4.57060540097319,-23.919344634245,15.3876263678524,8.53171826639261
0.816270060874377,28.1546224784187,23.5608850961093,-4.59373738230939,-25.857753787264,16.374179930364,9.48357385689994
0.819037078029884,30.3315544027437,25.5256158604123,-4.80593854233136,-27.928585131578,17.5687464725375,10.3598386590405
0.82180409518539,32.4319460500761,27.3915894310239,-5.04035661905223,-29.91176774055,18.7361513345642,11.1756164059858
0.824571112340897,34.0848611383098,29.0625136244068,-5.02234751390299,-31.5736873813583,19.5536043261064,12.0200830552519
0.827338129496403,35.1387247198749,30.5082939043615,-4.63043081551339,-32.8235093121182,19.8845777676941,12.938931544424
0.830105146651909,35.7942209636021,31.7542719371205,-4.03994902648158,-33.7742464503613,19.9170849950419,13.8571614553195
0.832872163807416,36.4535284616371,32.8398912327098,-3.6136372289273,-34.6467098471734,20.0335828452822,14.6131270018912
0.835639180962922,37.3974167021599,33.7733414907952,-3.62407521136472,-35.5853790964775,20.5107459567623,15.0746331397152
0.838406198118428,38.557209494911,34.5146650647169,-4.04254443019419,-36.535937279814,21.2998769625526,15.2360603172613
0.841173215273935,39.5759272902157,35.0022701745751,-4.57365711564064,-37.2890987323954,22.0747922029282,15.2143065294672
0.843940232429441,40.1084380162334,35.2047346343434,-4.90370338189005,-37.6565863252884,22.5060706990617,15.1505156262267
0.846707249584947,40.1067613825132,35.1564744707315,-4.95028691178164,-37.6316179266223,22.5285241471474,15.1030937794749
0.849474266740454,39.8502315577094,34.9441670635968,-4.90606449411259,-37.3971993106531,22.378148025911,15.0190512847421
0.85224128389596,39.6970338822663,34.6467893450669,-5.05024453719937,-37.1719116136666,22.3736392097328,14.7982724039338
0.855008301051467,39.7680153519331,34.2679187575362,-5.50009659439688,-37.0179670547346,22.634055973165,14.3839110815697
0.857775318206973,39.8266876036852,33.7057523519409,-6.12093525174438,-36.7662199778131,22.9738114277148,13.7924085500982
0.860542335362479,39.4474264522941,32.7796804843029,-6.66774596799117,-36.1135534682985,23.0575862101426,13.0559672581559
0.863309352517986,38.3190648543379,31.2969602044577,-7.0221046498802,-34.8080125293978,22.670584752109,12.1374277772887
0.866076369673492,36.426671622448,29.1261321736473,-7.30053944880071,-32.7764018980477,21.8636055356244,10.9127963624233
0.868843386828998,33.9760299727326,26.2481250681631,-7.72790490456955,-30.1120775204479,20.8519674386511,9.26011008179677
0.871610403984505,31.1597088590401,22.7688679145975,-8.39084094444256,-26.9642883868188,19.7752749017413,7.18901348507748
0.874377421140011,27.9991317943474,18.8921177524543,-9.10701404189313,-23.4456247734008,18.5530729181203,4.89255185528056
0.877144438295517,24.4127817678873,14.8665536966033,-9.54622807128408,-19.6396677322453,16.9795049195857,2.66016281265959
0.879911455451024,20.4382368441994,10.9300137275825,-9.50822311661694,-15.684125285891,14.9732299804082,0.710895305482774
0.88267847260653,16.3819924819062,7.26875277383823,-9.11323970806795,-11.8253726278722,12.7476160949871,-0.922243467114861
0.885445489762037,12.7262114908302,3.99519869902045,-8.7310127918098,-8.36070509492535,10.72861214132,-2.36790704639468
0.888212506917543,9.83740309092889,1.1381046710768,-8.69929841985209,-5.48775388100285,9.26835075539049,-3.78059687438765
0.890979524073049,7.70785714709415,-1.35761281757628,-9.06546996467043,-3.17512216475893,8.38666355588229,-5.21154139112336
0.893746541228556,5.94950634695254,-3.61557859167985,-9.56508493863239,-1.16696387763634,7.75729564279247,-6.59033176515612
0.896513558384062,4.05706767686802,-5.79215170250515,-9.84921937937317,0.867542012818564,6.9531435281206,-7.82068554093916
0.899280575539568,1.73725069779682,-8.02725327883589,-9.76450397663271,3.14500129051954,5.75087733721477,-8.8958786277343
0.902047592695075,-0.947810823690804,-10.3994560925322,-9.45164526884141,5.67363345811151,4.2519172225753,-9.92555068068681
0.904814609850581,-3.7118757489236,-12.9006941338329,-9.18881838490928,8.30628494137825,2.73847131799284,-11.0447562593711
0.907581627006087,-6.30722203324257,-15.4357621185418,-9.12854008529928,10.8714920758922,1.41065902602835,-12.2821511019206
0.910348644161594,-8.67733804726443,-17.8440367880917,-9.16669874082725,13.2606874176781,0.244680346781408,-13.5053677644595
0.9131156613171,-10.880094144107,-19.9374840901774,-9.05738994607031,15.4087891171422,-0.911352099018366,-14.4974370181238
0.915882678472607,-12.886887882924,-21.5478165493056,-8.66092866638161,17.2173522161148,-2.11297960827121,-15.1043726078436
0.918649695628113,-14.4828539621639,-22.5760223605731,-8.09316839840919,18.5294381613685,-3.19484278187734,-15.3345953794911
0.921416712783619,-15.3980492177661,-23.0349963595416,-7.63694714177547,19.2165227886539,-3.88055103799532,-15.3359717506585
0.924183729939126,-15.5737826899883,-23.067144476177,-7.4933617861887,19.3204635830826,-4.0402104518998,-15.2802531311828
0.926950747094632,-15.31724505986,-22.9149378364724,-7.59769277661248,19.1160914481662,-3.85977614162374,-15.2563153065425
0.929717764250138,-15.1699254359429,-22.8401908556251,-7.67026541968216,19.005058145784,-3.74983000813038,-15.2552281376536
0.932484781405645,-15.5594079075028,-23.0221617920858,-7.46275388458299,19.2907848497943,-4.04832701145991,-15.2424578383344
0.935251798561151,-16.5036872420219,-23.4865344907055,-6.9828472486836,19.9951108663637,-4.76041999666915,-15.2346908696946
0.938018815716657,-17.6094878861474,-24.1047490853963,-6.49526119924887,20.8571184857718,-5.55711334344926,-15.3000051423226
0.940785832872164,-18.3693056457226,-24.6636935269834,-6.29438788126085,21.516499586353,-6.03745888223087,-15.4790407041221
0.94355285002767,-18.5182395927254,-24.9673753189724,-6.44913572624701,21.7428074558489,-6.03455193323919,-15.7082555226097
0.946319867183177,-18.1713084971641,-24.9183552183963,-6.74704672123218,21.5448318577802,-5.71213088796596,-15.8327009698142
0.949086884338683,-17.6567069810245,-24.5430198438598,-6.88631286283536,21.0998634124421,-5.38519705909455,-15.7146663533476
0.951853901494189,-17.2154598091408,-23.9585161046102,-6.74305629546937,20.5869879568755,-5.23620175683573,-15.3507862000398
0.954620918649696,-16.8331233684273,-23.3076358993269,-6.47451253089966,20.0703796338771,-5.17930541876381,-14.8910742151133
0.957387935805202,-16.3323438902087,-22.6960730263879,-6.36372913617914,19.5142084582983,-4.98430737701479,-14.5299010812835
0.960154952960708,-15.6149152984693,-22.1579717511256,-6.54305645265621,18.8864435247974,-4.53592942290656,-14.3505141018909
0.962921970116215,-14.813569954312,-21.6608204184187,-6.84725046410672,18.2371951863653,-3.98315974510262,-14.2540354412627
0.965688987271721,-14.2089469328764,-21.1431709352853,-6.93422400240886,17.6760589340809,-3.63736146523379,-14.0386974688471
0.968456004427227,-13.9904010858107,-20.5631666614515,-6.57276557564074,17.2767838736311,-3.708817755085,-13.5679661185461
0.971223021582734,-14.0819060994131,-19.9326190346371,-5.85071293522398,17.0072625670251,-4.11559658209458,-12.8916659849305
0.97399003873824,-14.1935497100254,-19.3215905214129,-5.12804081138748,16.7575701157192,-4.53275444931896,-12.2248156664002
0.976757055893747,-14.0566996423612,-18.8315989581159,-4.77489931575474,16.4441493002386,-4.64090016330323,-11.8032491369353
0.979524073049253,-13.6359604786069,-18.5464471324038,-4.91048665379696,16.0912038055053,-4.36273691240495,-11.7284668931004
0.982291090204759,-13.1295221764637,-18.481221827818,-5.35169965135429,15.8053720021408,-3.88891126255469,-11.9164607395861
0.985058107360266,-12.7583675629393,-18.5573486478057,-5.79898108486649,15.6578581053725,-3.47969323903638,-12.1781648663361
0.987825124515772,-12.5363301293423,-18.6225164946976,-6.08618636535531,15.57942331202,-3.22507188199351,-12.3543514300265
0.990592141671278,-12.2350099745155,-18.5099735874182,-6.27496361290276,15.3724917809669,-2.98002318080636,-12.3924686001605
0.993359158826785,-11.5878227339476,-18.1098046715243,-6.52198193757675,14.8488137027359,-2.53292039818541,-12.3158933045505
0.996126175982291,-10.5605806069129,-17.4181997168346,-6.85761910992169,13.9893901618737,-1.85148074849558,-12.1379094133781
0.998893193137798,-9.44347707892448,-16.5398589300714,-7.0963818511469,12.9916680044979,-1.17354761388879,-11.8181203906091
1.0016602102933,-8.66520966792024,-15.6412187509035,-6.97600908298331,12.1532142094119,-0.844600292468466,-11.3086139169434
1.00442722744881,-8.47257599248559,-14.879733063999,-6.40715707151338,11.6761545282423,-1.03270946048611,-10.6434450677562
1.00719424460432,-8.74243719129267,-14.3478150254835,-5.60537783419088,11.5451261083881,-1.56852967855089,-9.97659642983722
1.00996126175982,-9.08612337936916,-14.0574020156401,-4.97127863627093,11.5717626975046,-2.05742237154911,-9.51434032595551
1.01272827891533,-9.16032981550486,-13.9638233780908,-4.80349356258597,11.5620765967978,-2.17841812645945,-9.3836584703384
1.01549529607084,-8.9241796163484,-14.0068282707681,-5.08264865441971,11.4655039435583,-1.92076548096434,-9.54473846259391
1.01826231322634,-8.63094388424556,-14.1419200422142,-5.51097615796866,11.3864319632299,-1.55998386313845,-9.82644810009144
1.02102933038185,-8.57381575661486,-14.3443850251501,-5.77056926853522,11.4591003908825,-1.40162324403982,-10.0574771468426
1.02379634753735,-8.81448040635313,-14.5872406839839,-5.77276027763081,11.7008605451685,-1.52086006436116,-10.1800004808074
1.02656336469286,-9.12792394836179,-14.8147209098819,-5.6867969615201,11.9713224291218,-1.72056349342084,-10.250758935701
1.02933038184837,-9.19972668117027,-14.9403972865055,-5.74067060533524,12.0700619838379,-1.72952803791752,-10.3405339459204
1.03209739900387,-8.8922653751914,-14.8829933075751,-5.99072793238367,11.8876293413832,-1.45076872140387,-10.4368606199794
1.03486441615938,-8.3454486318147,-14.6200139841881,-6.27456535237339,11.4827313080014,-1.03544163972065,-10.4472896682807
1.03763143331489,-7.8328986052711,-14.215842771989,-6.38294416671794,11.0243706886301,-0.724977219276582,-10.2993934693535
1.04039845047039,-7.5126770713685,-13.7943784682095,-6.28170139684097,10.653527769789,-0.615487837263762,-10.0380399325252
1.0431654676259,-7.30109166545745,-13.4714250762511,-6.17033341079362,10.3862583708543,-0.565379127331913,-9.82087924352234
1.04593248478141,-6.98285225898549,-13.2963868585362,-6.31353459955072,10.1396195587608,-0.334658829717386,-9.80496072904346
1.04869950193691,-6.45155753951383,-13.2416347254054,-6.7900771858916,9.84659613245963,0.169259823188884,-10.0158559556485
1.05146651909242,-5.84762279033338,-13.2339708551995,-7.38634806486608,9.54079682276642,0.769362637266352,-10.3101594600328
1.05423353624792,-5.44906881188753,-13.1899650271311,-7.74089621524353,9.3195169195093,1.145913701678,-10.4654306211873
1.05700055340343,-5.40034273520581,-13.0247467477097,-7.62440401250392,9.21254474145777,1.11203063864906,-10.3245753801068
1.05976757055894,-5.52445993156119,-12.641403760766,-7.11694382920485,9.08293184616361,0.796241948821833,-9.87917379498545
1.06253458771444,-5.40422014036602,-11.9371658327314,-6.53294569236533,8.67069298654868,0.564362775999658,-9.23505576254834
1.06530160486995,-4.68752549673837,-10.8514581964697,-6.16393269973137,7.76949184660405,0.7382036014965,-8.50769544810055
1.06806862202546,-3.37146554369731,-9.43548235757279,-6.06401681387548,6.40347395063505,1.34627563508909,-7.74974958572414
1.07083563918096,-1.82864653587302,-7.88711279838999,-6.05846626251697,4.8578796671315,2.11490986332198,-6.97278953045348
1.07360265633647,-0.553044384279588,-6.50876257400896,-5.95571818972938,3.53090347914428,2.70133690272489,-6.23224038186917
1.07636967349198,0.166598651710803,-5.59843586863861,-5.76503452034942,2.71591860846391,2.96581658603011,-5.68173519449402
1.07913669064748,0.390513291087888,-5.32579020877143,-5.71630349985931,2.46763845884177,3.0534083954736,-5.52104685431537
1.08190370780299,0.402520087978389,-5.64772836296568,-6.05024845094406,2.62260413749364,3.22638426946123,-5.84898840695487
1.08467072495849,0.458937838614649,-6.29638905520566,-6.75532689382031,2.91872560829551,3.60713236621748,-6.52585797451299
1.087437742114,0.643380973806736,-6.84762905070572,-7.49101002451245,3.10212403844949,4.06719549915959,-7.16931953760908
1.09020475926951,0.935833402415545,-6.85339966388147,-7.78923306629702,2.95878313073296,4.36253323435628,-7.32131636508925
1.09297177642501,1.39170803004932,-5.99610175160736,-7.38780978165668,2.30219686077902,4.389758905853,-6.69195576663202
1.09573879358052,2.22138615444972,-4.20777003558891,-6.42915619003863,0.993191940569592,4.32527117224417,-5.31846311281377
1.09850581073603,3.65644571961635,-1.70512669851642,-5.36157241813277,-0.975659510549964,4.50900906887456,-3.5333495583246
1.10127282789153,5.69877109625913,1.07629047625162,-4.62248062000752,-3.38753078625537,5.16062585813333,-1.77309507187795
1.10403984504704,7.98235655658498,3.62349510049646,-4.35886145608852,-5.80292582854072,6.17060900633675,-0.36768317779603
1.10680686220255,9.90573117966224,5.50604286462528,-4.39968831503696,-7.70588702214376,7.1527097473496,0.553177274794163
1.10957387935805,10.9697719776538,6.49447920078064,-4.4752927768732,-8.73212558921724,7.72253237726352,1.00959321195372
1.11234089651356,11.0750688054171,6.60227095554319,-4.4727978498739,-8.83866988048014,7.7739333276455,1.06473655283464
1.11510791366906,10.552924703781,6.05013800572476,-4.50278669805626,-8.30153135475289,7.52785570091864,0.773675653834249
1.11787493082457,9.91061142657995,5.17384763655584,-4.73676379002412,-7.54222953156789,7.32368760830203,0.218541923265859
1.12064194798008,9.49462149201995,4.30585773247071,-5.18876375954924,-6.90023961224533,7.34169262578459,-0.441453013539266
1.12340896513558,9.32933587334968,3.6673427100962,-5.66199316325348,-6.49833929172294,7.49566451830158,-0.99732522657864
1.12617598229109,9.22784286107213,3.30846926305491,-5.91937359801721,-6.26815606206352,7.57360822954467,-1.30545216748115
1.1289429994466,9.03730457533616,3.11917131662662,-5.91813325870954,-6.07823794598139,7.47771891702285,-1.39948097104146
1.1317100166021,8.77830276715031,2.89950328639718,-5.87879948075313,-5.83890302677375,7.32855112395172,-1.48964809717797
1.13447703375761,8.55393564439077,2.44895556014799,-6.10498008424278,-5.50144560226938,7.32945786431678,-1.8280122620474
1.13724405091312,8.33323182304725,1.63206862336265,-6.7011631996846,-4.98265022320495,7.51719751136593,-2.53454728816098
1.14001106806862,7.84371715588239,0.403319030027191,-7.4403981258552,-4.12351809295479,7.6420576408688,-3.51853954791401
1.14277808522413,6.7138001607517,-1.19856942072279,-7.91236958147448,-2.75761537001446,7.31308487111309,-4.55546950109864
1.14554510237963,4.76970210253826,-3.07070473340311,-7.84040683594136,-0.849498684567573,6.30505446923981,-5.45555578467224
1.14831211953514,2.2323065483672,-5.07366386818998,-7.30597041655718,1.42067865991139,4.76913848246219,-6.18981714237358
1.15107913669065,-0.373653514059518,-7.06424310722203,-6.69058959316251,3.71894831064077,3.1584680395515,-6.87741635019227
1.15384615384615,-2.54599004848911,-8.92609101955599,-6.38010097106688,5.73604053402255,1.91705546128888,-7.65309599531144
1.15661317100166,-4.11137688152436,-10.588677941971,-6.47730106044665,7.35002741174768,1.18296208946115,-8.53298950120883
1.15938018815717,-5.26941587120736,-12.0289864499142,-6.75957057870684,8.64920116056078,0.745077353749742,-9.39427851431052
1.16214720531267,-6.35295005015778,-13.2547825754715,-6.90183252531376,9.80386631281466,0.274441237577989,-10.0783075503926
1.16491422246818,-7.51772649534071,-14.2741536615923,-6.75642716625156,10.8959400784665,-0.380649664544575,-10.5152904139219
1.16768123962369,-8.62242993500059,-15.0670408782178,-6.44461094321722,11.8447354066092,-1.08890949589169,-10.7558259107175
1.17044825677919,-9.38677327101186,-15.5825100514241,-6.19573678041224,12.484641661218,-1.59551824529981,-10.8891234159182
1.1732152739347,-9.67338511836272,-15.7750055453899,-6.1016204270272,12.7241953318763,-1.78588234566776,-10.9383129862086
1.1759822910902,-9.63713089580159,-15.6629115802995,-6.02578068449787,12.6500212380505,-1.80567510565186,-10.8443461323987
1.17874930824571,-9.61039310605773,-15.3663805319801,-5.75598742592237,12.4883868190189,-1.92720284006768,-10.5611839789512
1.18151632540122,-9.83163101572229,-15.086279629909,-5.25464861418667,12.4589553228156,-2.28849120076781,-10.1704641220478
1.18428334255672,-10.2637379923109,-15.0250228751915,-4.7612848828806,12.6443804337512,-2.75122655471516,-9.89315387903606
1.18705035971223,-10.6659273019309,-15.2941224911505,-4.62819518921958,12.9800248965407,-3.01886605635565,-9.96115884018501
1.18981737686774,-10.8527355817742,-15.8668361006923,-5.01410051891805,13.3597858412332,-2.91931753142809,-10.4404683098052
1.19258439402324,-10.9019808747949,-16.6063417086802,-5.70436083388527,13.7541612917375,-2.59881002045481,-11.1553512712827
1.19535141117875,-11.1169927582179,-17.3519106849705,-6.23491792675264,14.2344517215942,-2.44103741573262,-11.7934143058616
1.19811842833426,-11.7707799999652,-18.0109484667843,-6.24016846681913,14.8908642333747,-2.76530576657302,-12.1255584668017
1.20088544548976,-12.8610668372984,-18.6056098948592,-5.74454305756083,15.7333383660788,-3.55826188986878,-12.17507647621
1.20365246264527,-14.1041245493272,-19.2588753751787,-5.15475082585153,16.681499962253,-4.47468686173784,-12.2068131005151
1.20641947980077,-15.1895109118348,-20.1487703218959,-4.95925941006115,17.6691406168654,-5.11512575088683,-12.5540148659785
1.20918649695628,-16.0834749968883,-21.4683441122998,-5.38486911541152,18.775909554594,-5.34930294073838,-13.4266066138557
1.21195351411179,-17.1093253060963,-23.3881496792078,-6.27882437311145,20.2487374926521,-5.41525046649245,-14.8334870261596
1.21472053126729,-18.6992249373022,-25.9677628908426,-7.26853795354039,22.3334939140724,-5.71534349188091,-16.6181504221915
1.2174875484228,-20.9592390108925,-28.9678319965634,-8.00859298567092,24.9635355037279,-6.47532301261078,-18.4882124911172
1.22025456557831,-23.3199428868398,-31.5976953522015,-8.27775246536175,27.4588191195206,-7.52109521073901,-19.9377239087816
1.22302158273381,-24.4785392184621,-32.3441299172519,-7.86559069878975,28.411334567857,-8.3064742598362,-20.1048603080208
1.22578859988932,-22.6542725447193,-29.0701919079231,-6.41591936320384,25.8622322263212,-8.11917659075772,-17.7430556355635
1.22855561704483,-16.0282921898917,-19.4891942256905,-3.46090203579876,17.7587432077911,-6.28369507704649,-11.4750481307446
1.23132263420033,-3.2192810586687,-1.93802815659801,1.2812529020707,2.57865460763335,-2.2502669803697,-0.328387627263654
1.23408965135584,16.2765637844246,23.7990202669844,7.52245648255975,-20.0377920257045,4.37705365093243,15.6607383747721
1.23685666851134,41.6999564397787,55.9316062065841,14.2316497668054,-48.8157813231814,13.7341533364867,35.0816279866947
1.23962368566685,70.7686673276601,90.6221041704815,19.8534368428215,-80.6953857490708,25.4576152424193,55.2377705066515
1.24239070282236,99.7245879936852,122.562959262402,22.8383712687165,-111.143773628044,38.4431083624844,72.7006652655592
1.24515771997786,123.890524786684,146.088481733591,22.1979569469064,-134.989503260138,50.846283919889,84.1432193402486
1.24792473713337,138.759774136578,156.557874901696,17.7981007651183,-147.658824519137,60.4808366857297,87.1779878334072
1.25069175428888,141.317368573013,151.6186774577,10.3013088846871,-146.468023015356,65.5080298441628,80.9599931711934
1.25345877144438,131.050228856647,131.942271403614,0.892042546967133,-131.49625013013,65.0790931548399,66.4171569752906
1.25622578859989,110.160729577719,101.154491018609,-9.00623855911,-105.657610298164,59.5834840684144,46.0741262297494
1.2589928057554,82.8627702263575,64.939701653224,-17.9230685731335,-73.9012359397907,50.3929193997455,23.5083165400453
1.2617598229109,54.0877614800317,29.5817134999949,-24.5060479800368,-41.8347374900133,39.2969047300342,2.53783275997905
1.26452684006641,28.171986345702,0.402311612284085,-27.7696747334179,-14.287148978993,27.9708305395599,-13.6836815605669
1.26729385722191,8.00163495358105,-19.4124626744676,-27.4140976280486,5.70541386044327,17.7078662908148,-23.4132801512581
1.27006087437742,-5.23361205992974,-29.2607036841161,-24.0270916241864,17.2471578720229,9.39673978212834,-26.6438976541513
1.27282789153293,-11.8347020226886,-30.7868480889745,-18.9521460662859,21.3107750558316,3.55872202179863,-24.8694970776302
1.27559490868843,-13.190809826067,-26.979165948958,-13.788356122891,20.0849878875125,0.298773148411975,-20.3837610359245
1.27836192584394,-11.3306355893922,-21.0855964895064,-9.75496090011424,16.2081160394493,-0.787837344638973,-15.4202786948103
1.28112894299945,-8.43512087920637,-15.7165190886576,-7.28139820945118,12.075819983932,-0.576861334877595,-11.4989586490544
1.28389596015495,-6.30709643679564,-12.3564255015356,-6.04932906473996,9.33176096916562,-0.128883686027838,-9.20287728313778
1.28666297731046,-5.91314522151391,-11.322759800811,-5.4096145792971,8.61795251116246,-0.251765321108406,-8.36618719005405
1.28942999446597,-7.20728581922829,-12.0670447728117,-4.85975895358344,9.63716529602001,-1.17376343282243,-8.46340186319759
1.29219701162147,-9.36930511703542,-13.640306074045,-4.27100095700953,11.5048055955402,-2.54915208001294,-8.95565351552724
1.29496402877698,-11.3600780254883,-15.1391130400332,-3.77903501454492,13.2495955327608,-3.79052150547169,-9.45907402728907
1.29773104593248,-12.485492834718,-15.998755464743,-3.51326263002502,14.2421241497305,-4.48611510234649,-9.75600904738402
1.30049806308799,-12.6523443601443,-16.0832231472922,-3.43087878714795,14.3677837537182,-4.61073278649816,-9.75705096722009
1.3032650802435,-12.2193072765608,-15.599951701065,-3.38064442450418,13.9096294888129,-4.41933142602831,-9.49029806278458
1.306032097399,-11.6255384654434,-14.9123532567788,-3.28681479133533,13.2689458611111,-4.16936183705405,-9.09958402405705
1.30879911455451,-11.0997221559671,-14.3360747233309,-3.23635256736376,12.717898439649,-3.93168479430169,-8.78621364534733
1.31156613171002,-10.6329496568345,-13.9982822501585,-3.365332593324,12.3156159534965,-3.63380853175527,-8.68180742174127
1.31433314886552,-10.156180272655,-13.8118197298444,-3.65563945718941,11.9840000012497,-3.25027040773279,-8.73372959351691
1.31710016602103,-9.70488783554398,-13.563776303796,-3.85888846825207,11.63433206967,-2.92299968364595,-8.71133238602406
1.31986718317654,-9.40485270153261,-13.0608216343443,-3.65596893281164,11.2328371679384,-2.87444188436049,-8.35839528357794
1.32263420033204,-9.31119885708294,-12.2482035901036,-2.9370047330207,10.7797012235933,-3.18709706203112,-7.59260416156217
1.32540121748755,-9.28583016419852,-11.2420862187287,-1.95625605453019,10.2639581914636,-3.66478705483417,-6.59917113662945
1.32816823464305,-9.06271461973462,-10.2669037734564,-1.20418915372175,9.6648091965955,-3.92926273300643,-5.73554646358906
1.33093525179856,-8.46305231130697,-9.53773037738173,-1.07467806607475,9.00039134434435,-3.69418712261611,-5.30620422172824
1.33370226895407,-7.56505211969565,-9.15125619185728,-1.58620407216163,8.35815415577646,-2.98942402376701,-5.36873013200945
1.33646928610957,-6.65969305186603,-9.04126961259289,-2.38157656072687,7.85048133222946,-2.13905824556958,-5.71142308665988
1.33923630326508,-6.01293485208786,-9.01801433816499,-3.00507948607713,7.51547459512642,-1.50392768300536,-6.01154691212106
1.34200332042059,-5.63269176967438,-8.86285269380157,-3.2301609241272,7.24777223173798,-1.20126542277359,-6.04650680896439
1.34477033757609,-5.24530951100828,-8.42164521332466,-3.17633570231638,6.83347736216647,-1.03448690434595,-5.79899045782052
1.3475373547316,-4.51394184571609,-7.65137199263858,-3.13743014692249,6.08265691917733,-0.688255849396795,-5.39440106978054
1.35030437188711,-3.32454448693657,-6.61089689034564,-3.28635240340908,4.9677206886411,-0.0190960417637442,-4.94862464687736
1.35307138904261,-1.90032731599402,-5.41703756385418,-3.51671024786015,3.6586824399241,0.808191465933064,-4.46687390585716
1.35583840619812,-0.643150668319744,-4.19420820354601,-3.55105753522627,2.41867943593288,1.45395343345326,-3.87263286938614
1.35860542335362,0.172386564070188,-3.03655777243402,-3.20894433650421,1.43208560418192,1.6906654502872,-3.12275105446912
1.36137244050913,0.601525114136016,-1.99010848152773,-2.59163359566374,0.694291683695856,1.59657935489988,-2.29087103859574
1.36413945766464,0.962042887830793,-1.05514461135779,-2.01718749918858,0.0465508617634975,1.48961519350969,-1.53616605527318
1.36690647482014,1.55750791626892,-0.204037924398698,-1.76154584066762,-0.676734995935112,1.65952687846827,-0.982791882533159
1.36967349197565,2.43167731137917,0.595417353579577,-1.83625995779959,-1.51354733247937,2.13396863458938,-0.620421302110009
1.37244050913116,3.36643394664342,1.36419275858463,-2.00224118805879,-2.36531335261402,2.6843375673511,-0.319024214737079
1.37520752628666,4.11615282815651,2.11262236474914,-2.00353046340736,-3.11438759645282,3.05984164578194,0.0545459506708887
1.37797454344217,4.65701926578123,2.85313862648062,-1.80388063930061,-3.75507894613092,3.23044995254092,0.524628993590002
1.38074156059768,5.21807686048887,3.60810703451892,-1.60996982596996,-4.41309194750389,3.41402334322941,0.999068604274481
1.38350857775318,6.06326898488874,4.39881730621429,-1.66445167867445,-5.23104314555152,3.8638603317816,1.36718281376992
1.38627559490869,7.22469178358153,5.22267533361941,-2.00201644996212,-6.22368355860047,4.61335411677182,1.61032944182865
1.38904261206419,8.43568892073396,6.04372631961468,-2.39196260111928,-7.23970762017432,5.41382576092662,1.8258818592477
1.3918096292197,9.33636010997119,6.81443004393935,-2.52193006603184,-8.07539507695527,5.92914508800151,2.14624998895376
1.39457664637521,9.78332153519868,7.51894702205952,-2.26437451313916,-8.6511342786291,6.02384802416892,2.62728625446018
1.39734366353071,10.0000889668198,8.20720475900639,-1.79288420781342,-9.1036468629131,5.89648658731662,3.20716027559648
1.40011068068622,10.4344127030993,8.99227655344527,-1.44213614965408,-9.71334462827231,5.93827442637672,3.77507020189559
1.40287769784173,11.4346876368343,10.0058009695281,-1.42888666730618,-10.7202443031812,6.43178715207024,4.28845715111096
1.40564471499723,13.009479418984,11.3318911645617,-1.67758825442238,-12.1706852917728,7.34353383670321,4.82715145506964
1.40841173215274,14.8592177413384,12.9553433602185,-1.90387438111983,-13.9072805507784,8.3815460612291,5.52573448954935
1.41117874930825,16.6346888402468,14.7562819400439,-1.8784069002029,-15.6954853901454,9.25654787022486,6.43893751992051
1.41394576646375,18.1923405920847,16.5601529185157,-1.63218767356893,-17.3762467553002,9.91226413282679,7.4639826224734
1.41671278361926,19.6387883484006,18.2186877641942,-1.42010058420644,-18.9287380562974,10.5294444663035,8.39929358999388
1.41947980077476,21.1545453800941,19.6738532513545,-1.48069212873954,-20.4141993157243,11.3176187544168,9.0965805613075
1.42224681793027,22.7784170706315,20.9640552841971,-1.81436178643441,-21.8712361774143,12.2963894285329,9.57484674888132
1.42501383508578,24.3530929719402,22.1709846489952,-2.18210832294496,-23.2620388104677,13.2676006474426,9.99443816302514
1.42778085224128,25.6724742189224,23.3481667757535,-2.32430744316892,-24.510320497338,13.9983908310457,10.5119296662923
1.43054786939679,26.6830416640428,24.4842405997431,-2.19880106429972,-25.583641131893,14.4409213641713,11.1427197677217
1.4333148865523,27.5437655302625,25.526321631803,-2.0174438984595,-26.5350435810327,14.780604714361,11.7544388666717
1.4360819037078,28.482387080237,26.4435896835233,-2.03879739671366,-27.4629883818801,15.2605922384753,12.2023961434048
1.43884892086331,29.5805834095382,27.282248181812,-2.29833522772621,-28.4314157956751,15.9394593186322,12.4919564770429
1.44161593801882,30.6967282829598,28.1708090173903,-2.5259192655695,-29.4337686501751,16.6113237742647,12.8224448759104
1.44438295517432,31.614035278179,29.2714495704003,-2.3425857077787,-30.4427424242897,16.9783104929789,13.4644319313108
1.44714997232983,32.289105705563,30.7089977823189,-1.58010792324409,-31.499051743941,16.9346068144036,14.5644449295374
1.44991698948533,32.9686443234836,32.5175467540428,-0.451097569440776,-32.7430955387632,16.7098709464622,16.033224592301
1.45268400664084,34.044607272908,34.6244906918332,0.579883418925178,-34.3345489823706,16.7323619269914,17.6021870553792
1.45545102379635,35.7451091477936,36.8644446600404,1.11933551224682,-36.304776903917,17.3128868177734,18.9918900861436
1.45821804095185,37.9102624242147,39.0047825114376,1.09452008722295,-38.4575224678262,18.4078711684959,20.0496512993303
1.46098505810736,40.0410530151845,40.7758960440429,0.734843028858364,-40.4084745296137,19.6531049931631,20.7553695364506
1.46375207526287,41.5870230330249,41.9153730988283,0.328350065803349,-41.7511980659266,20.6293364836108,21.1218615823158
1.46651909241837,42.2496961566845,42.2324759172967,-0.0172202393877754,-42.2410860369906,21.1334581980361,21.1076278389545
1.46928610957388,42.0809990899092,41.6746899771652,-0.406309112744033,-41.8778445335372,21.2436541013266,20.6341904322106
1.47205312672939,41.3360536410317,40.3580589743517,-0.977994666680075,-40.8470563076917,21.1570241538559,19.6900321538358
1.47482014388489,40.238006339786,38.5348255941529,-1.7031807456331,-39.3864159669694,20.9705935427095,18.4158224242599
1.4775871610404,38.8623377943167,36.5089919532117,-2.353345841105,-37.6856648737642,20.6078418177109,17.0778230560534
1.4803541781959,37.2145185086419,34.5385117508583,-2.67600675778358,-35.8765151297501,19.9452626332127,15.9312524965374
1.48312119535141,35.3839720774874,32.760815903552,-2.6231561739354,-34.0723939905197,19.0035641257114,15.0688298648083
1.48588821250692,33.5841577980389,31.1591288021028,-2.42502899593609,-32.3716433000709,18.0045933969875,14.3670499030834
1.48865522966242,32.0018938368349,29.5730547796705,-2.42883905716444,-30.7874743082527,17.2153664469997,13.572107861253
1.49142224681793,30.5783066398409,27.7510086005371,-2.82729803930378,-29.164657620189,16.7028023395723,12.4618552806167
1.49418926397344,28.9420180001321,25.4340736372698,-3.50794436286232,-27.1880458187009,16.2249811814972,10.9630646372037
1.49695628112894,26.6063425067302,22.4489829241768,-4.1573595825534,-24.5276627154535,15.3818510446418,9.14581167081172
1.49972329828445,23.310258336074,18.7792532124904,-4.5310051235836,-21.0447557742822,13.9206317298288,7.12412404445341
1.50249031543996,19.2360591595087,14.5850510928594,-4.6510080666493,-16.9105551261841,11.943533613079,4.96702151310507
1.50525733259546,14.916811920176,10.1585847284447,-4.75822719173136,-12.5376983243104,9.8375195559537,2.70017876835666
1.50802434975097,10.8951193584292,5.82969644801469,-5.06542291041448,-8.36240790322193,7.98027113442182,0.382136768800106
1.51079136690647,7.39920098641349,1.86168995353774,-5.53751103287575,-4.63044546997561,6.46835600964462,-1.83791053966901
1.51355838406198,4.28426764164721,-1.61567336863382,-5.89994101028103,-1.3342971365067,5.09210432596412,-3.75780718945742
1.51632540121749,1.26187271079148,-4.60692138910403,-5.86879409989551,1.67252433915627,3.56533340534349,-5.23785774449977
1.51909241837299,-1.79592662351769,-7.19192014763832,-5.39599352412063,4.49392338557801,1.80003345030147,-6.29395683587947
1.5218594355285,-4.73634584116927,-9.44707460090991,-4.71072875974064,7.09171022103959,-0.0128085407143184,-7.07890168032527
1.52462645268401,-7.27344326022914,-11.3943367401486,-4.12089347991945,9.33389000018887,-1.57627489015484,-7.75761511003402
1.52739346983951,-9.25080868660191,-13.0025251090394,-3.75171642243747,11.1266668978206,-2.74954613208222,-8.37712076573842
1.53016048699502,-10.7754669547712,-14.2302464382961,-3.45477948352495,12.5028566965336,-3.66034373562311,-8.84251296091054
1.53292750415053,-12.1084911233629,-15.07787245886,-2.9693813354971,13.5931817911115,-4.56955489393291,-9.02362689717856
1.53569452130603,-13.4249116583891,-15.6184210195121,-2.19350936112301,14.5216663389506,-5.61570114863305,-8.90596519031758
1.53846153846154,-14.6725430037332,-15.9952721478246,-1.32272914409142,15.3339075757789,-6.67490692982088,-8.65900064595801
1.54122855561704,-15.6631688224133,-16.3913534924338,-0.728184670020566,16.0272611574235,-7.46749207619635,-8.55976908122719
1.54399557277255,-16.3097568798656,-16.9800296724207,-0.67027279255511,16.6448932761431,-7.81974204365524,-8.8251512324879
1.54676258992806,-16.7802114355346,-17.8675676549512,-1.08735621941655,17.3238895452429,-7.84642760805902,-9.47746193718385
1.54952960708356,-17.4053463212124,-19.0415731524184,-1.63622683120593,18.2234597368154,-7.88455974500325,-10.3388999918122
1.55229662423907,-18.4006022231623,-20.3493073486156,-1.94870512545332,19.374954785889,-8.2259485488545,-11.1490062370345
1.55506364139458,-19.6394708098536,-21.530495367623,-1.89102455776935,20.5849830887383,-8.87422312604215,-11.7107599626962
1.55783065855008,-20.6897263748819,-22.3082333114697,-1.61850693658777,21.4989798431758,-9.53560971914706,-11.9633701240287
1.56059767570559,-21.1079984990219,-22.5048661108598,-1.39686761183785,21.8064323049409,-9.85556544359205,-11.9508668613488
1.5633646928611,-20.7653167016249,-22.1244558155195,-1.35913911389462,21.4448862585722,-9.70308879386514,-11.7417974647071
1.5661317100166,-19.9407510048038,-21.3548521159341,-1.41410111113022,20.6478015603689,-9.26332494683681,-11.3844766135321
1.56889872717211,-19.1095868537301,-20.4858333962877,-1.3762465425576,19.7977101250089,-8.86667015558622,-10.9310399694226
1.57166574432761,-18.6055775041678,-19.7852392116181,-1.17966170745029,19.195408357893,-8.71295789835877,-10.4824504595342
1.57443276148312,-18.4343208422972,-19.3951649188704,-0.960844076573125,18.9147428805838,-8.73673838286206,-10.1780044977217
1.57719977863863,-18.374153390084,-19.2962141243979,-0.922060734313948,18.835183757241,-8.72604632788502,-10.1091374293559
1.57996679579413,-18.2479881736575,-19.3490844416729,-1.10109626801545,18.7985363076652,-8.573445952821,-10.2250903548442
1.58273381294964,-18.1079589847581,-19.3829221435272,-1.27496315876914,18.7454405641426,-8.41649791299446,-10.3289426511482
1.58550083010515,-18.1670216330954,-19.2808659731074,-1.11384434001202,18.7239438031014,-8.52658864654169,-10.1973551565597
1.58826784726065,-18.5483625753711,-19.0207036699813,-0.472341094610204,18.7845331226762,-9.03801074038043,-9.74652238229574
1.59103486441616,-19.0907860128604,-18.6566910032385,0.434095009621903,18.8737385080495,-9.76244051124117,-9.11129799680831
1.59380188157167,-19.4026711474437,-18.2649854660527,1.13768568139093,18.8338283067482,-10.2701784144173,-8.5636498923309
1.59656889872717,-19.1404236209164,-17.8963240465883,1.24409957432813,18.5183738337524,-10.1922615976223,-8.32611223613009
1.59933591588268,-18.2850038214027,-17.565283652018,0.719720169384683,17.9251437367104,-9.50236199539371,-8.42278174131668
1.60210293303818,-17.1797552524201,-17.2682832083829,-0.0885279559627925,17.2240192304015,-8.54561364822867,-8.67840558217286
1.60486995019369,-16.2895776487429,-17.0012528563135,-0.711675207570643,16.6454152525282,-7.78895122058611,-8.85646403194208
1.6076369673492,-15.875580216386,-16.7609658895135,-0.885385673127503,16.3182730529497,-7.49509727162922,-8.82317578132048
1.6104039845047,-15.8465170731975,-16.5388032888536,-0.692286215656114,16.1926601810256,-7.57711542877071,-8.61554475225488
1.61317100166021,-15.8931552964856,-16.3228197076199,-0.429664411134249,16.1079875020528,-7.73174544267569,-8.37624205937707
1.61593801881572,-15.771468891687,-16.1105663375093,-0.33909744582232,15.9410176145982,-7.71618572293235,-8.22483189166583
1.61870503597122,-15.483929350655,-15.9191904601352,-0.435261109480228,15.7015599053951,-7.52433412058738,-8.17722578480772
1.62147205312673,-15.2145039471967,-15.7783160078334,-0.563812060636687,15.4964099775151,-7.32534594328001,-8.17106403423504
1.62423907028224,-15.1017245970252,-15.7062938488395,-0.604569251814212,15.4040092229324,-7.24857767260552,-8.15543155032683
1.62700608743774,-15.0762912968743,-15.6860118465703,-0.609720549696023,15.3811515717223,-7.23328537358915,-8.14786619813319
1.62977310459325,-14.9204858538798,-15.6589302305992,-0.738444376719347,15.2897080422395,-7.09102073858024,-8.19868730365926
1.63254012174875,-14.4944164865294,-15.5462780071446,-1.05186152061517,15.020347246837,-6.72127748295713,-8.29906976387989
1.63530713890426,-13.9134352807722,-15.2915035590783,-1.37806827830608,14.6024694199252,-6.26768350123305,-8.33478591869217
1.63807415605977,-13.499496352692,-14.904157749373,-1.40466139668105,14.2018270510325,-6.04741747800547,-8.15440957302704
1.64084117321527,-13.5332238566146,-14.4789646074421,-0.945740750827495,14.0060942320283,-6.29374155289355,-7.71235267913479
1.64360819037078,-14.0169001263823,-14.1700652767414,-0.153165150359083,14.0934827015618,-6.93186748801161,-7.16161521355024
1.64637520752629,-14.6549346160059,-14.1205388845855,0.534395731420394,14.3877367502957,-7.59466517371312,-6.79307157658253
1.64914222468179,-15.0714718968551,-14.3763600086538,0.695111888201275,14.7239159527545,-7.88329189252818,-6.84062406022627
1.6519092418373,-15.0812050649947,-14.8351210308097,0.246084034184991,14.9581630479022,-7.66364454958982,-7.29451849831234
1.65467625899281,-14.7893186758629,-15.2713063887508,-0.4819877128879,15.0303125323068,-7.15366548148749,-7.87664705081934
1.65744327614831,-14.4520429773518,-15.4372990548532,-0.985256077501466,14.9446710161025,-6.73339344992515,-8.21127756617735
1.66021029330382,-14.2364526595837,-15.187404341961,-0.950951682377294,14.7119285007723,-6.6427504886032,-8.06917801216914
1.66297731045932,-14.0943881020711,-14.5509107648254,-0.456522662754344,14.3226494334483,-6.81893271965838,-7.50371671378989
1.66574432761483,-13.8533116224434,-13.7115760093291,0.141735613114363,13.7824438158862,-6.99752361777889,-6.78492019810734
1.66851134477034,-13.430325907558,-12.9134980645181,0.516827843039835,13.1719119860381,-6.9735768752989,-6.19833511073915
1.67127836192584,-12.9651308404901,-12.3577777205779,0.607353119912171,12.661454280534,-6.78624198020114,-5.87521230033289
1.67404537908135,-12.741120466475,-12.1477751317681,0.593345334706846,12.4444477991215,-6.66723290059091,-5.77721489853064
1.67681239623686,-12.9579705595264,-12.2934407691922,0.664529790334106,12.6257056643593,-6.81125017493023,-5.81445548942907
1.67957941339236,-13.5585688669803,-12.7404578746685,0.818110992311802,13.1495133708244,-7.18833992964603,-5.96117344117832
1.68234643054787,-14.2680734012194,-13.3854510183911,0.882622382828243,13.8267622098052,-7.5753478920238,-6.25141431778143
1.68511344770338,-14.809382654394,-14.0705031309137,0.738879523480268,14.4399428926538,-7.77413108893711,-6.66581180371671
1.68788046485888,-15.0938333717595,-14.5819028536227,0.511930518136841,14.8378681126911,-7.80288194494819,-7.03498616774293
1.69064748201439,-15.2085491848139,-14.6821793291,0.526369855713853,14.945364256957,-7.86745952026387,-7.07790473669309
1.69341449916989,-15.2179891039266,-14.1823987500818,1.03559035384475,14.7001939270042,-8.12678972888567,-6.57340419811854
1.6961815163254,-14.9821703231306,-13.0286553765667,1.95351494656385,14.0054128498486,-8.46784263484721,-5.53757021500142
1.69894853348091,-14.1911798727539,-11.3530335545881,2.83814631816581,12.772106713671,-8.51466309545987,-4.25744361821115
1.70171555063641,-12.6222950161353,-9.4477856600787,3.17450935605665,11.035040338107,-7.898402186096,-3.13663815201103
1.70448256779192,-10.4115503071638,-7.66521922433408,2.74633108282971,9.03838476574894,-6.57894069499675,-2.45944407075219
1.70724958494743,-8.0899106294568,-6.29318164273859,1.79672898671821,7.19154613609769,-4.9433198080875,-2.24822632801019
1.71001660210293,-6.31438906996158,-5.46818015977136,0.846208910190224,5.89128461486647,-3.5802989900759,-2.31098562479057
1.71278361925844,-5.47752011112826,-5.15849091880677,0.319029192321485,5.31800551496751,-2.89827465172487,-2.41973086324264
1.71555063641395,-5.48565816560283,-5.2062152609512,0.279442904651628,5.34593671327702,-2.88255053512723,-2.46338617814979
1.71831765356945,-5.86534576921033,-5.39202479852079,0.473320970689543,5.62868528386556,-3.16933336994994,-2.45935191391562
1.72108467072496,-6.09872347933413,-5.48950694549466,0.60921653383947,5.7941152124144,-3.3539700065868,-2.4401452058276
1.72385168788047,-5.91878916963431,-5.29728217995398,0.621506989680331,5.60803567479415,-3.27014807965732,-2.33788759513682
1.72661870503597,-5.35197578793691,-4.658497610991,0.693478176945907,5.00523669946395,-3.02272698244141,-1.98250971702255
1.72938572219148,-4.5241752816146,-3.48269621843372,1.04147906318087,4.00343575002416,-2.78282717239773,-1.22060857762643
1.73215273934698,-3.44537842459393,-1.77183324289461,1.67354518169932,2.60860583374427,-2.55946180314663,-0.0491440305976476
1.73491975650249,-1.98631213466505,0.363040352660616,2.34935248732567,0.811635891002218,-2.16783231099536,1.35619641999314
1.737686773658,-0.0658414252545327,2.70837241028054,2.77421383553507,-1.321265492513,-1.4200276303948,2.7412931229078
1.7404537908135,2.14124318070097,4.98139588549134,2.84015270479037,-3.56131953309616,-0.349454762044703,3.91077429514086
1.74322080796901,4.19779782501668,6.88609324137953,2.68829541636285,-5.54194553319811,0.754751204326917,4.78719432887119
1.74598782512452,5.64274368051716,8.18472626465314,2.54198258413598,-6.91373497258515,1.55038054819059,5.36335442439456
1.74875484228002,6.29163525075807,8.76923919702395,2.47760394626588,-7.53043722389101,1.90701565224609,5.62342157164492
1.75152185943553,6.3477399559226,8.70308826750711,2.35534831158451,-7.52541411171486,1.99619582216905,5.52921828954581
1.75428887659103,6.22265062691569,8.20146632079316,1.97881569387747,-7.21205847385442,2.12191746651911,5.09014100733531
1.75705589374654,6.20679254446759,7.5407524440349,1.33395989956731,-6.87377249425125,2.43641632245014,4.4373561718011
1.75982291090205,6.25623498535342,6.92976677054126,0.673531785187837,-6.59300087794734,2.79135160008279,3.80164927786455
1.76258992805755,6.06427317079538,6.40917376663523,0.344900595839846,-6.23672346871531,2.85968628747777,3.37703718123754
1.76535694521306,5.3472929106747,5.84146546080466,0.494172550129959,-5.59437918573968,2.42656018027237,3.16781900546731
1.76812396236857,4.09815300033175,5.00410795660258,0.905954956270831,-4.55113047846716,1.59609902203046,2.9550314564367
1.77089097952407,2.59519509433614,3.73187580148924,1.1366807071531,-3.16353544791269,0.729257193591521,2.43427825432117
1.77365799667958,1.16928109172206,2.02125808822779,0.851976996505736,-1.59526958997493,0.158652047608162,1.43661754236677
1.77642501383509,-0.0607179979782266,0.0364496689345564,0.097167666912783,0.0121341645218351,-0.0789428324455048,0.0668086679236697
1.77919203099059,-1.25332831892263,-1.9783127574928,-0.724984438570168,1.61582053820771,-0.264171940176231,-1.35164859803148
1.7819590481461,-2.66246140130396,-3.81883185803826,-1.1563704567343,3.24064662967111,-0.753045472284829,-2.48760115738628
1.78472606530161,-4.37935627109952,-5.40156098175661,-1.02220471065709,4.89045862642806,-1.67857578022122,-3.21188284620685
1.78749308245711,-6.23332807396441,-6.76995737621879,-0.53662930225438,6.5016427250916,-2.84834938585501,-3.65329333923658
1.79026009961262,-7.93945078839561,-8.04177762872386,-0.102326840328251,7.99061420855973,-3.91856197403368,-4.07205223452605
1.79302711676812,-9.35415644189256,-9.33612590705593,0.0180305348366225,9.34514117447424,-4.68609348836459,-4.65904768610966
1.79579413392363,-10.5979401540049,-10.7116317674646,-0.11369161345973,10.6547859607347,-5.24212427027257,-5.41266169046217
1.79856115107914,-11.9253661839954,-12.1330403021495,-0.207674118154104,12.0292032430725,-5.85884603292066,-6.17035721015182
1.80132816823464,-13.4569702601829,-13.4769182942205,-0.0199480340376272,13.4669442772017,-6.71851111307263,-6.74843316412907
1.80409518539015,-15.019312671492,-14.5790878081993,0.440224863292753,14.7992002398457,-7.7297687673924,-7.06943147245327
1.80686220254566,-16.2485713590324,-15.3087750454815,0.939796313550891,15.7786732022569,-8.59418383629164,-7.1844893659653
1.80962921970116,-16.880168831216,-15.6364393899304,1.24372944128565,16.2583041105732,-9.06194913625083,-7.19635497432236
1.81239623685667,-16.9770362334177,-15.6585731283381,1.31846310507964,16.3178046808779,-9.14774966924869,-7.17005501162923
1.81516325401217,-16.8948848150398,-15.5605549521105,1.3343298629293,16.2277198835751,-9.11460733898453,-7.11311254459059
1.81793027116768,-17.0081254162399,-15.5331130805723,1.47501233566755,16.2706192484061,-9.24156887595371,-7.02905037245238
1.82069728832319,-17.4263462081305,-15.6884901975257,1.73785601060482,16.5574182028281,-9.58210110936765,-6.97531709346041
1.82346430547869,-17.9377205384373,-16.0235964129704,1.91412412546693,16.9806584757039,-9.92592233195214,-7.05473614375174
1.8262313226342,-18.2203883210035,-16.4466553217359,1.77373299926762,17.3335218213697,-9.99706066013555,-7.33646116123412
1.82899833978971,-18.1362767457749,-16.8460703675498,1.2902063782251,17.4911735566623,-9.71324156199998,-7.77793199466233
1.83176535694521,-17.8579533800113,-17.1611041984722,0.696849181539083,17.5095287892418,-9.27740128077521,-8.23212750846658
1.83453237410072,-17.7310660097734,-17.4205044634946,0.310561546278738,17.575785236634,-9.02081377802606,-8.55497145860796
1.83729939125623,-18.0074015596246,-17.7386177317916,0.268783827833015,17.8730096457081,-9.13809269372883,-8.73491695197931
1.84006640841173,-18.6919166219562,-18.2818369225529,0.410079699403298,18.4868767722546,-9.55099816067975,-8.93587861157481
1.84283342556724,-19.6365286095716,-19.2259836386847,0.410544970886921,19.4312561241282,-10.0235367902293,-9.40771933389889
1.84560044272275,-20.7783325260718,-20.7128100067125,0.0655225193592379,20.7455712663921,-10.4219275227155,-10.3236437436766
1.84836745987825,-22.266089801496,-22.7879023423132,-0.521812540817191,22.5269960719046,-10.8721386303394,-11.6548574415652
1.85113447703376,-24.2892850383098,-25.2832493324828,-0.993964294172976,24.7862671853963,-11.6476603720684,-13.1386068133279
1.85390149418926,-26.6686626254862,-27.6297135902616,-0.96105096477546,27.1491881078739,-12.8538058303554,-14.2953822775186
1.85666851134477,-28.4860125907832,-28.6630211345258,-0.177008543742691,28.5745168626545,-14.1545020235202,-14.4200148391343
1.85943552850028,-28.0492538244998,-26.5760287955373,1.47322502896249,27.3126413100186,-14.7612394267311,-12.5514018832874
1.86220254565578,-23.2936409912366,-19.1817288940623,4.11191209717423,21.2376849426494,-13.7027765442054,-7.53490839844405
1.86496956281129,-12.4594170366041,-4.53563529252341,7.9237817440807,8.49752616456376,-10.1915993903424,1.69407322577865
1.8677365799668,5.25016152851101,18.2300748776659,12.9799133491549,-11.7401182030884,-3.86487591032194,15.6049941134104
1.8705035971223,29.2617516836125,48.1675215331888,18.9057698495763,-38.7146366084006,5.17799091701807,33.5366456913826
1.87327061427781,57.5370164817064,82.2000362088931,24.6630197271868,-69.8685263452998,16.4369983772598,53.4315279680399
1.87603763143331,86.7438330417163,115.443114971175,28.6992819294591,-101.093474006446,29.0222755561286,72.0711984503172
1.87880464858882,112.674012673839,142.158760049738,29.4847473758988,-127.416386361788,41.5946326489702,85.8217537128183
1.88157166574433,130.952214149874,157.123489669676,26.1712755198016,-144.037851909775,52.3904693150364,91.6473825947388
1.88433868289983,138.026442783494,157.025472429471,18.9990296459763,-147.525957606483,59.5137065687591,88.0122510377235
1.88710570005534,132.224265234243,141.453841823002,9.22957658875887,-136.839053528622,61.497344322742,75.3417092058803
1.88987271721085,114.457231462051,113.139600126562,-1.31763133548948,-113.798415794306,57.8874313987702,55.910984395536
1.89263973436635,88.1700698806195,77.3339249019702,-10.8361449786493,-82.7519973912949,49.5031074296344,33.2488899616605
1.89540675152186,58.4257088714241,40.488459510718,-17.9372493607061,-49.457084191071,38.1814791160651,11.2756050750059
1.89817376867737,30.4397245629343,8.63245277629314,-21.8072717866412,-19.5360886696137,26.1234981747878,-6.58740950517403
1.90094078583287,8.16272610697717,-14.0580895984357,-22.2208157054128,2.94768174572924,15.191770906195,-18.1394526519242
1.90370780298838,-6.53417896230734,-26.0713217765373,-19.53714281423,16.3027503694223,6.50148192596132,-22.8042322953837
1.90647482014389,-13.8582224056568,-28.54035039591,-14.6821279902533,21.1992864007834,0.411952792298266,-21.6112391930817
1.90924183729939,-15.4737635701363,-24.4761994711705,-9.00243590103423,19.9749815206534,-3.23566383455103,-16.7393176861024
1.9120088544549,-13.6726089930549,-17.5859794735933,-3.91337048053839,15.6292942333241,-4.87961925625827,-10.7496749770659
1.9147758716104,-10.6814143695821,-11.1143720671727,-0.432957697590606,10.8978932183774,-5.12422833599574,-5.77366488238165
1.91754288876591,-8.22748809151424,-7.07300027186871,1.15448781964553,7.65024418169147,-4.69098795557989,-2.95925622611159
1.92030990592142,-7.31108690838971,-6.02239081857861,1.2886960898111,6.66673886348416,-4.2998914991004,-2.36684736438376
1.92307692307692,-8.12052853402535,-7.34618205042959,0.774346483595765,7.73335529222747,-4.44743750881056,-3.28591778341691
1.92584394023243,-10.110789906148,-9.80340348149144,0.307386424656567,9.95709669381972,-5.20908816540229,-4.74800852841744
1.92861095738794,-12.2983032742726,-12.1105109017474,0.187792372525204,12.20440708801,-6.24304782339888,-5.96135926461108
1.93137797454344,-13.7302784990597,-13.3716694903885,0.358609008671223,13.5509739947241,-7.04444375386548,-6.50653024085865
1.93414499169895,-13.9372120662558,-13.2793191956072,0.657892870648608,13.6082656309315,-7.29755246845223,-6.31071316247931
1.93691200885445,-13.1225829153656,-12.0906742897556,1.03190862561001,12.6066286025606,-7.07724577048782,-5.52938283207281
1.93967902600996,-11.9722761312606,-10.4340301402818,1.53824599097875,11.2031531357712,-6.75526106111966,-4.44789207465153
1.94244604316547,-11.2079858941276,-9.02457022425076,2.18341566987685,10.1162780591892,-6.69570078200223,-3.42057727718696
1.94521306032097,-11.1797856667153,-8.38389590430305,2.79588976241223,9.78184078550917,-6.98783771456375,-2.79400307094541
1.94798007747648,-11.7511098500606,-8.65585629416574,3.0952535558949,10.2034830721132,-7.42318170297777,-2.78030136913542
1.95074709463199,-12.5016190280167,-9.58102327295873,2.92059575505792,11.0413211504877,-7.71110739153729,-3.3302137589504
1.95351411178749,-13.0422770949313,-10.6324834012871,2.40979369364417,11.8373802481092,-7.72603539428772,-4.11134485382147
1.956281128943,-13.1907741436667,-11.2484464767455,1.94232766692119,12.2196103102061,-7.56655090529395,-4.65305940491217
1.95904814609851,-12.9209618875521,-11.0577819088343,1.86317997871778,11.9893718981932,-7.39207093313493,-4.59730096505827
1.96181516325401,-12.2155213360936,-10.0061054028143,2.20941593327925,11.110813369454,-7.21246863468641,-3.89834473476754
1.96458218040952,-11.0192055795203,-8.34388923595667,2.67531634356362,9.68154740773848,-6.84726096154196,-2.83428644619652
1.96734919756503,-9.35867049837305,-6.50105246213158,2.85761803624148,7.92986148025232,-6.10814426730727,-1.82171721294505
1.97011621472053,-7.49719518883519,-4.91345503180186,2.58374015703334,6.20532511031853,-5.04046767293426,-1.16485743738426
1.97288323187604,-5.92333194622789,-3.87374814896743,2.04958379726047,4.89854004759766,-3.98645787174418,-0.91208217585348
1.97565024903154,-5.10866531650246,-3.45631487693287,1.6523504395696,4.28249009671767,-3.38050787803603,-0.901982218681634
1.97841726618705,-5.19154686904915,-3.52795774330573,1.66358912574342,4.35975230617744,-3.42756799739628,-0.932184308781157
1.98118428334256,-5.84310315887936,-3.82301945731001,2.02008370156935,4.83306130809469,-3.93159343022435,-0.901467877870334
1.98395130049806,-6.44855414078816,-4.04704125462104,2.40151288616712,5.2477976977046,-4.42503351347764,-0.822764184226962
1.98671831765357,-6.48885063323465,-3.97402998937216,2.51482064386249,5.2314403113034,-4.50183563854857,-0.729604672754834
1.98948533480908,-5.84462745792778,-3.51054827141066,2.33407918651712,4.67758786466922,-4.08935332222245,-0.588234542446771
1.99225235196458,-4.80603036694859,-2.71092662442257,2.09510374252602,3.75847849568558,-3.45056705473731,-0.307911440948273
1.99501936912009,-3.80483712698939,-1.7397050077569,2.0651321192325,2.77227106737314,-2.93498462311095,0.162713555737801
1.9977863862756,-3.09383249091835,-0.791427161775829,2.30240532914252,1.94262982634709,-2.69811891003044,0.755489083683346
2.0005534034311,-2.61725093104764,0.00278901792914287,2.62003994897678,1.30723095655925,-2.61864544001221,1.31141448345296
2.00332042058661,-2.14101529267722,0.637203977485346,2.77821927016257,0.751905657595939,-2.4596172814199,1.70771162382396
2.00608743774211,-1.49404988360287,1.22561256189325,2.71966244549613,0.13421866085481,-2.1068561645495,1.97263750369469
2.00885445489762,-0.6963378285905,1.92825434728082,2.62459217587132,-0.615958259345158,-1.66046500223091,2.27642326157607
2.01162147205313,0.124338141379218,2.8545931479648,2.73025500658558,-1.48946564467201,-1.30295843260318,2.79242407727519
2.01438848920863,0.918803899599691,4.00060087007957,3.08179697047988,-2.45970238483963,-1.0814965354401,3.54119892027973
2.01715550636414,1.80342171951117,5.25434989384214,3.45092817433098,-3.52888580667665,-0.823753227409905,4.35263903408656
2.01992252351965,2.94657522021384,6.45812708331072,3.51155186309688,-4.70235115176228,-0.282488321441523,4.9848394732038
2.02268954067515,4.35577902059749,7.48424301318863,3.12846399259114,-5.92001101689306,0.613657514003175,5.30635350288989
2.02545655783066,5.77912907850313,8.28366519495768,2.50453611645455,-7.03139713673041,1.63729648102429,5.39410065570612
2.02822357498617,6.84478729908917,8.89098007467472,2.04619277558556,-7.86788368688195,2.3992972617518,5.46858642513014
2.03099059214167,7.34477791741868,9.39459342277155,2.04981550535287,-8.36968567009512,2.64748120603291,5.72220446406221
2.03375760929718,7.42501999635819,9.89484272484027,2.46982272848209,-8.65993136059923,2.47759863393805,6.18233272666118
2.03652462645268,7.50868316494698,10.4719632416992,2.9632800767522,-8.99032320332308,2.27270154409739,6.71762165922569
2.03929164360819,8.00170962101586,11.1737640623782,3.1720544413623,-9.58773684169701,2.41482758982678,7.17290925187023
2.0420586607637,9.01593914307535,12.0193053492538,3.00336620617841,-10.5176222461646,3.00628646844847,7.51133577771609
2.0448256779192,10.3331285641698,13.0099185157776,2.67678995160779,-11.6715235399737,3.828169306281,7.84335423369269
2.04759269507471,11.6292947946118,14.1415219107893,2.51222711617748,-12.8854083527005,4.55853383921715,8.32687451348336
2.05035971223022,12.7591656772487,15.4143977065246,2.6552320292759,-14.0867816918866,5.0519668239864,9.03481486790024
2.05312672938572,13.8567421673119,16.8373891694166,2.98064700210471,-15.3470656683642,5.43804758260357,9.90901808576064
2.05589374654123,15.1770271319808,18.4261480954391,3.24912096345829,-16.8015876137099,5.96395308426125,10.8376345294487
2.05866076369673,16.8351871519695,20.1966238120554,3.36143666008595,-18.5159054820125,6.73687524594177,11.7790302360707
2.06142778085224,18.6869203181897,22.1532835475538,3.46636322936408,-20.4201019328718,7.61027854441282,12.8098233884589
2.06419479800775,20.460119867983,24.2737057584075,3.81358589042454,-22.3669128131952,8.32326698877922,14.043645824416
2.06696181516325,22.0150433271422,26.4989507924539,4.48390746531177,-24.256997059798,8.7655679309152,15.4914291288828
2.06972883231876,23.4883058855381,28.739462765602,5.25115688006391,-26.11388432557,9.11857450273708,16.9953098228329
2.07249584947427,25.1748926233746,30.8929416251184,5.71804900174384,-28.0339171242465,9.72842181081538,18.3054953134311
2.07526286662977,27.2370579532725,32.8590206694823,5.62196271620986,-30.0480393113774,10.8075476185313,19.2404916928461
2.07802988378528,29.4926960720672,34.5412236877691,5.04852761570186,-32.0169598799181,12.2220842281827,19.7948756517355
2.08079690094079,31.4793817047986,35.843826384936,4.36444468013737,-33.6616040448673,13.5574685123306,20.1041355325367
2.08356391809629,32.7589028314149,36.6819075036263,3.92300467221143,-34.7204051675206,14.4179490796017,20.3024560879189
2.0863309352518,33.2224698298461,37.0156525707365,3.7931827408904,-35.1190612002913,14.7146435444778,20.4044176558135
2.08909795240731,33.1558717026975,36.8985089572029,3.7426372545054,-35.0271903299502,14.706617224096,20.3205731058541
2.09186496956281,33.0252748035201,36.5089343490904,3.48365954557025,-34.7671045763053,14.7708076289749,19.9962969473303
2.09463198671832,33.172374247783,36.1332597167776,2.96088546899463,-34.6528169822803,15.1057443893942,19.5470725928861
2.09739900387382,33.6644873808899,36.0877628102831,2.4232754293932,-34.8761250955865,15.6206059757483,19.2555191198381
2.10016602102933,34.3879533752678,36.6026404422241,2.2146870669563,-35.4952969087459,16.0866331541557,19.4086637545902
2.10293303818484,35.2523979850185,37.7181277193948,2.4657297343763,-36.4852628522066,16.3933341253211,20.0919287268855
2.10570005534034,36.288158742511,39.2427086447537,2.95454990224275,-37.7654336936324,16.6668044201341,21.0986292734982
2.10846707249585,37.5368107522108,40.7944917175232,3.25768096531237,-39.165651234867,17.1395648934492,22.0260863414178
2.11123408965136,38.8435764879235,41.9093715249383,3.06579503701479,-40.3764740064309,17.8888907254543,22.4875832809765
2.11400110680686,39.7714764217928,42.173826771954,2.40235035016114,-40.9726515968734,18.6845630358158,22.2880885610576
2.11676812396237,39.7647894325679,41.3348188725878,1.5700294400199,-40.5498041525779,19.097379996274,21.4524241563039
2.11953514111788,38.4691456213012,39.3533785094532,0.884232888151985,-38.9112620653772,18.7924563665746,20.1188056988026
2.12230215827338,35.9623523293813,36.3928387215507,0.430486392169392,-36.177595525466,17.765932968606,18.4116625568601
2.12506917542889,32.7040103961872,32.7542859704029,0.0502755742157603,-32.7291481832951,16.3268674109857,16.4022807723093
2.12783619258439,29.2345777900778,28.7844626178187,-0.450115172259029,-29.0095202039482,14.8423464811684,14.1671737227798
2.1306032097399,25.8583982523082,24.7864960110106,-1.07190224129754,-25.3224471316594,13.4651502468029,11.8572968848565
2.13337022689541,22.5519569460672,20.9614735767788,-1.59048336928836,-21.756715261423,12.0712201576778,9.68549510374524
2.13613724405091,19.1412996028888,17.396114987055,-1.7451846158338,-18.2687072949719,10.4432421093613,7.82546518561059
2.13890426120642,15.5668770106547,14.0906118673942,-1.47626514326052,-14.8287444390245,8.52157107695763,6.30717336206684
2.14167127836193,11.9952524454874,11.0023355547529,-0.992916890734481,-11.4987940001201,6.49408466811092,5.0047093320092
2.14443829551743,8.68783483972406,8.07909829000516,-0.608736549718898,-8.38346656486461,4.64828569472148,3.73518087014313
2.14720531267294,5.76039085911023,5.27172849897596,-0.488662360134271,-5.51605967904309,3.12452660962225,2.39153306942084
2.14997232982844,3.06593195943982,2.53445757546665,-0.531474383973162,-2.80019476745324,1.79870317170649,1.00149159574675
2.15273934698395,0.318715487276087,-0.173515558112594,-0.49223104538868,-0.0725999645817464,0.405473266332383,-0.332873301750637
2.15550636413946,-2.64634108450312,-2.87952719673829,-0.233186112235162,2.7629341406207,-1.20657748613398,-1.55635665448672
2.15827338129496,-5.71087308884885,-5.58410361025776,0.126769478591091,5.6474883495533,-2.91882128371997,-2.72866706583333
2.16104039845047,-8.55362985180241,-8.24900010890261,0.304629742899797,8.40131498035251,-4.4291297973511,-3.97218518300141
2.16380741560598,-10.9029063734285,-10.7956052135166,0.107301159911872,10.8492557934725,-5.50510376667017,-5.34415202680236
2.16657443276148,-12.7368899973967,-13.1204825188636,-0.383592521466893,12.9286862581301,-6.17664873796488,-6.75203752016522
2.16934144991699,-14.2595910687129,-15.1243785964269,-0.86478752771405,14.6919848325699,-6.69740177049941,-7.99458306207049
2.1721084670725,-15.684965467584,-16.74006439245,-1.05509892486597,16.212514930017,-7.31493327135904,-8.89758165865799
2.174875484228,-17.0310804064709,-17.9442545879085,-0.913174181437629,17.4876674971897,-8.05895311251663,-9.42871438467307
2.17764250138351,-18.1120279039347,-18.7508563492356,-0.63882844530092,18.4314421265851,-8.73659972931687,-9.69484239726825
2.18040951853901,-18.7351059789758,-19.1965574047042,-0.461451425728335,18.96583169184,-9.13682727662374,-9.82900441521624
2.18317653569452,-18.922076721132,-19.3333138298482,-0.411237108716179,19.1276952754901,-9.25541980620792,-9.87227546928219
2.18594355285003,-18.9443772896706,-19.2329362616888,-0.288558972018194,19.0886567756797,-9.32790915882621,-9.7607476168535
2.18871057000553,-19.1261330684059,-18.9942219508321,0.131911117573797,19.060177509619,-9.62902209298983,-9.43115541662914
2.19147758716104,-19.5811328893197,-18.7344956772784,0.846637212041276,19.1578142832991,-10.2138850506805,-8.94392923261857
2.19424460431655,-20.1166653016396,-18.5550190938551,1.56164620778451,19.3358421977474,-10.8391557547121,-8.4966864430353
2.19701162147205,-20.3959872405877,-18.4931891083171,1.90279813227059,19.4445881744524,-11.1493926864291,-8.29519548802324
2.19977863862756,-20.2244989342579,-18.495754274884,1.72874465937389,19.360126604571,-10.9766217968159,-8.38350480775506
2.20254565578307,-19.711815916816,-18.4425359594834,1.26927995733261,19.0771759381497,-10.4905479370743,-8.5866280010754
2.20531267293857,-19.1682809477126,-18.215794264892,0.95248668282062,18.6920376063023,-10.0603838152666,-8.63165379103569
2.20807969009408,-18.8300562477382,-17.7736723925059,1.05638385523231,18.3018643201221,-9.94322005148527,-8.35864426863681
2.21084670724959,-18.6595549835187,-17.1811463572536,1.47840862626508,17.9203506703862,-10.0689818048919,-7.85136886549428
2.21361372440509,-18.400651944832,-16.5826795287817,1.81797241605025,17.4916657368068,-10.1093121804411,-7.38235355636573
2.2163807415606,-17.8425441328298,-16.1376964886975,1.70484764413227,16.9901203107637,-9.77369588848103,-7.21642442228263
2.2191477587161,-17.0588047271924,-15.9542433838669,1.10456134332548,16.5065240555297,-9.08168303525895,-7.42484102027073
2.22191477587161,-16.4006902306663,-16.0459168368637,0.354773393802635,16.223303533765,-8.37773181223448,-7.84557172153052
2.22468179302712,-16.2307673569973,-16.3202015294465,-0.0894341724491809,16.2754844432219,-8.07066659227406,-8.20481785094784
2.22744881018262,-16.6120062482866,-16.598776605741,0.0132296425455607,16.6053914270138,-8.31261794541606,-8.29277348159771
2.23021582733813,-17.2191998000387,-16.6707056349812,0.548494165057516,16.9449527175099,-8.88384698254811,-8.06110573496184
2.23298284449364,-17.560750995497,-16.3723605386769,1.18839045682007,16.9665557670869,-9.37457072615851,-7.59198504092842
2.23574986164914,-17.3371384633022,-15.6671445832447,1.66999388005752,16.5021415232734,-9.50356617167986,-6.99857535159359
2.23851687880465,-16.6450719333359,-14.6811482118697,1.96392372146615,15.6631100726028,-9.30449782740102,-6.35861224520179
2.24128389596016,-15.868666660486,-13.6621608794084,2.20650578107761,14.7654137699472,-9.0375862207818,-5.72782754916538
2.24405091311566,-15.3632445448589,-12.870676685953,2.49256785890582,14.1169606154059,-8.92790620188234,-5.18905441352361
2.24681793027117,-15.2007268734126,-12.4564512100806,2.74427566333207,13.8285890417466,-8.97250126837234,-4.85608777337424
2.24958494742667,-15.1736762570488,-12.3900566444979,2.78361961255085,13.7818664507733,-8.9786479347998,-4.80321851597353
2.25235196458218,-15.0232793018643,-12.4906367790155,2.53264252284877,13.7569580404399,-8.77796091235653,-4.97899712808337
2.25511898173769,-14.6717183351419,-12.5337373803075,2.1379809548344,13.6027278577247,-8.40484964498814,-5.19787821273653
2.25788599889319,-14.2571084476314,-12.3749605582498,1.88214788938164,13.3160345029406,-8.06962816850652,-5.24640633443406
2.2606530160487,-13.961825763844,-12.0192477495341,1.94257801430995,12.990536756689,-7.95220188907698,-5.03833486761206
2.26342003320421,-13.813149044088,-11.6029211474468,2.21022789664115,12.7080350957674,-8.01168847036457,-4.69634662540285
2.26618705035971,-13.6525040189742,-11.3079271955552,2.34457682341899,12.4802156072647,-7.99854042119659,-4.4816751860681
2.26895406751522,-13.306371215052,-11.2623308046277,2.04404041042436,12.2843510098399,-7.6752058127382,-4.60914519710166
2.27172108467072,-12.7972138776131,-11.481325355289,1.31588852232417,12.139269616451,-7.05655119996864,-5.08271841648239
2.27448810182623,-12.3853565608598,-11.873172768631,0.512183792228759,12.1292646647454,-6.44877017654427,-5.68049448820113
2.27725511898174,-12.3813340419935,-12.2956047361091,0.0857293058843549,12.3384693890513,-6.23353167393893,-6.1049377151124
2.28002213613724,-12.880936145012,-12.6249981693883,0.255937975623629,12.7529671572001,-6.5684370603178,-6.18453009688235
2.28278915329275,-13.6574978614018,-12.803057988318,0.854439873083752,13.2302779248599,-7.25596886724276,-5.97430905761713
2.28555617044826,-14.3184233241478,-12.845240371679,1.47318295246873,13.5818318479134,-7.89580313830826,-5.68602870960516
2.28832318760376,-14.6027704005124,-12.8169648456258,1.78580555488657,13.7098676230691,-8.19428797769949,-5.51557964536963
2.29109020475927,-14.567155382904,-12.7953783661944,1.7717770167096,13.6812668745492,-8.16946619980682,-5.51180067474242
2.29385722191478,-14.499438143498,-12.8325021762147,1.66693596728324,13.6659701598563,-8.0831870553906,-5.58278310446573
2.29662423907028,-14.6376069379078,-12.9301181125756,1.70748882533221,13.7838625252417,-8.17254788162,-5.61131464362168
2.29939125622579,-14.9437847340477,-13.0365546683468,1.90723006570093,13.9901697011973,-8.42550739987434,-5.56466230132294
2.3021582733813,-15.1346954136009,-13.0725032372533,2.06219217634759,14.1035993254271,-8.59844379497425,-5.50515553045287
2.3049252905368,-14.941475832735,-12.9773321424221,1.96414369031289,13.9594039875785,-8.45280976152394,-5.5065942260546
2.30769230769231,-14.3665205562976,-12.7488192697137,1.61770128658392,13.5576699130056,-7.99211092144076,-5.56555899156488
2.31045932484781,-13.7077661538639,-12.4482358830095,1.25953027085439,13.0780010184367,-7.48364821235914,-5.59435280607755
2.31322634200332,-13.3278778867469,-12.1651973067245,1.16268058002243,12.7465375967357,-7.24527923338468,-5.50125836335104
2.31599335915883,-13.3687052600302,-11.9659710154149,1.40273424461532,12.6673381377225,-7.38571975232275,-5.28161838539977
2.31876037631433,-13.654745705068,-11.8614965717899,1.79324913327808,12.758121138429,-7.72399741917304,-5.03412371925592
2.32152739346984,-13.8623703282755,-11.8163634866871,2.0460068415884,12.8393669074813,-7.95418858493197,-4.88517832254937
2.32429441062535,-13.8014001851828,-11.7871848422647,2.01421534291809,12.7942925137237,-7.90780776405043,-4.8864847496733
2.32706142778085,-13.5600727551088,-11.7544477364868,1.80562501862206,12.6572602457978,-7.68284888686544,-4.97441135893235
2.32982844493636,-13.3885106731498,-11.7196866154932,1.66882405765657,12.5540986443215,-7.52866736540319,-5.02543127891833
2.33259546209187,-13.431991043497,-11.6746266846197,1.75736435887734,12.5533088640584,-7.59467770118719,-4.95863116287118
2.33536247924737,-13.5617793663352,-11.5763995233507,1.98537984298444,12.569089444843,-7.77357960465981,-4.79550984018315
2.33812949640288,-13.4638857902069,-11.3560147904679,2.10787099973899,12.4099502903374,-7.78587839497292,-4.62407189536444
2.34089651355838,-12.9119935650864,-10.9558214538786,1.95617211120775,11.9339075094825,-7.43408283814705,-4.49982467133543
2.34366353071389,-11.9803824734262,-10.3668397866835,1.61354268674263,11.1736111300549,-6.7969625800844,-4.37664854997046
2.3464305478694,-11.0017453416104,-9.63767931552017,1.36406602609024,10.3197123285653,-6.18290568385033,-4.13680664471497
2.3491975650249,-10.3003552224173,-8.84960628956501,1.45074893285232,9.57498075599116,-5.87555207763482,-3.69942867835634
2.35196458218041,-9.92987727771562,-8.07870940261001,1.85116787510561,9.00429334016281,-5.89052257641062,-3.1137707637522
2.35473159933592,-9.64237288402001,-7.37457711215545,2.26779577186456,8.50847499808773,-5.95508432794229,-2.55339067014544
2.35749861649142,-9.11613724552773,-6.76746809722087,2.34866914830686,7.9418026713743,-5.7324031969173,-2.209399474457
2.36026563364693,-8.24707442561524,-6.28793696468647,1.95913746092877,7.26750569515085,-5.103105943272,-2.16439975187885
2.36303265080244,-7.25198352218331,-5.96944089810343,1.28254262407988,6.61071221014337,-4.2672630731316,-2.34344913701178
2.36579966795794,-6.49120848360938,-5.81798291502714,0.673225568582236,6.15459569931826,-3.58221702609581,-2.57237867322245
2.36856668511345,-6.15772407457858,-5.76508498924706,0.392639085331527,5.96140453191282,-3.27518157995505,-2.68622295195776
2.37133370226895,-6.09695897151048,-5.64739759619984,0.44956137531064,5.87217828385516,-3.27326017341056,-2.5989181104446
2.37410071942446,-5.91531474911817,-5.25081149228871,0.664503256829454,5.58306312070344,-3.28990900297381,-2.29315411772963
2.37686773657997,-5.29045600112,-4.41204694821706,0.878409052902935,4.85125147466853,-3.08443252701147,-1.76681894765706
2.37963475373547,-4.22116820250541,-3.11700267786887,1.10416552463653,3.66908544018714,-2.66266686357097,-1.00641857661617
2.38240177089098,-3.00613840997758,-1.52332503241024,1.48281337756735,2.26473172119391,-2.24447589377246,-0.020255827421447
2.38516878804649,-1.97836729724174,0.11389511436839,2.09226241161013,0.932236091436677,-2.03531485442594,1.10307876298926
2.38793580520199,-1.23470307789189,1.5599517512844,2.7946548291763,-0.162624336696255,-2.0146789535341,2.17730329023035
2.3907028223575,-0.598677555134178,2.67960890191163,3.27828645704581,-1.04046567338873,-1.93848200608999,2.97894767947872
2.393469839513,0.158892612520164,3.43605552407462,3.27716291155445,-1.79747406829739,-1.55913514951714,3.35660921781454
2.39623685666851,1.05104193142486,3.8352925346571,2.78425060323224,-2.44316723304098,-0.86660433590369,3.30977156894467
2.39900387382402,1.80815704621345,3.87440612006795,2.0662490738545,-2.8412815831407,-0.129046013820523,2.97032759696122
2.40177089097952,2.07550477872906,3.53234676835089,1.45684198962183,-2.80392577353997,0.309331394553618,2.49459437898636
2.40453790813503,1.69424776101583,2.79667098683153,1.1024232258157,-2.24545937392368,0.295912267600068,1.94954710632362
2.40730492529054,0.812042219724369,1.68969573461553,0.877653514891163,-1.25086897716995,-0.0328056475833971,1.28367462475335
2.41007194244604,-0.274101113276317,0.264372889901058,0.538474003177375,0.00486411168762985,-0.406287558226846,0.401423446539216
2.41283895960155,-1.39861795748402,-1.42676632438013,-0.0281483668961084,1.41269214093208,-0.685234795293958,-0.727457345638121
2.41560597675706,-2.67672277672516,-3.35848937704284,-0.681766600317678,3.017606076884,-0.997478088203739,-2.02012798868026
2.41837299391256,-4.38394891171282,-5.52542170656511,-1.14147279485229,4.95468530913897,-1.62123805843027,-3.3334472507087
2.42114001106807,-6.66853105806852,-7.89814352965413,-1.22961247158561,7.28333729386133,-2.71945929324146,-4.56387800061987
2.42390702822358,-9.35138729137167,-10.3748130370999,-1.02342574572822,9.86310016423578,-4.16398077282172,-5.69911939141406
2.42667404537908,-11.9964967623743,-12.7738908581449,-0.777394095770594,12.3851938102596,-5.60955133330185,-6.77564247695774
2.42944106253459,-14.1994759294913,-14.8904729137953,-0.690996984303935,14.5449744216433,-6.7542394725937,-7.7907349490496
2.43220807969009,-15.8515359846306,-16.5908968448087,-0.73936086017811,16.2212164147196,-7.55608756222623,-8.6651288524934
2.4349750968456,-17.1603211453108,-17.8843069366359,-0.723985791325095,17.5223140409734,-8.21816767699286,-9.30414636398051
2.43774211400111,-18.4235841318537,-18.917084462246,-0.493500330392241,18.6703342970498,-8.96504190073074,-9.7052923963191
2.44050913115661,-19.7611401021611,-19.8848602989913,-0.12372019683016,19.8230002005762,-9.81870995266547,-10.0042902479107
2.44327614831212,-21.0340721562718,-20.91326089002,0.120811266251817,20.9736665231459,-10.5774417112618,-10.3962248118841
2.44604316546763,-22.0057865328378,-21.9814413445299,0.0243451883078691,21.9936139386839,-11.0150658605728,-10.978548078111
2.44881018262313,-22.5828939092017,-22.9343750865232,-0.351481177321521,22.7586344978625,-11.1157063659401,-11.6429281319224
2.45157719977864,-22.9062354339051,-23.5721700425533,-0.665934608648108,23.2392027382292,-11.1201504126285,-12.1190523256007
2.45434421693415,-23.2065228262105,-23.7600585604781,-0.553535734267591,23.4832906933443,-11.3264935459715,-12.1567971473729
2.45711123408965,-23.5645012861856,-23.4982895995713,0.0662116866142668,23.5313954428784,-11.8153564863999,-11.7160389564785
2.45987825124516,-23.812087504896,-22.9212972349004,0.890790269995552,23.3666923698982,-12.3514388874458,-11.0152534824524
2.46264526840066,-23.6851115852755,-22.236445760531,1.44866582474458,22.9607786729032,-12.5668887050101,-10.3938899678932
2.46541228555617,-23.101931255771,-21.642034562409,1.4598966933621,22.37198290909,-12.2809139745666,-10.0910689345234
2.46817930271168,-22.3128657362389,-21.268430604577,1.04443513166191,21.7906481704079,-11.6786504339504,-10.1119977364575
2.47094631986718,-21.7679685177073,-21.1647268531778,0.603241664529538,21.4663476854426,-11.1856050911184,-10.2807425943241
2.47371333702269,-21.7981497158218,-21.3230319400988,0.475117775722993,21.5605908279603,-11.1366337457724,-10.4239570821879
2.4764803541782,-22.3761739881602,-21.7165819419423,0.659592046217902,22.0463779650513,-11.5178830171891,-10.5284949478622
2.4792473713337,-23.1667148349732,-22.333754350397,0.832960484576255,22.7502345926851,-11.9998376597747,-10.7503969329104
2.48201438848921,-23.8364271337411,-23.2038653962742,0.632561737466954,23.5201462650076,-12.234494435604,-11.2856518294036
2.48478140564472,-24.3777807147678,-24.4153670975736,-0.0375863828057525,24.3965739061707,-12.170097165981,-12.2264767401897
2.48754842280022,-25.1841033446784,-26.1170718538126,-0.932968509134259,25.6505875992455,-12.1255674177721,-13.5250201814734
2.49031543995573,-26.8022075664092,-28.472623626175,-1.67041605976588,27.6374155962921,-12.5658957533216,-15.0715198429705
2.49308245711123,-29.5181216706103,-31.5252301147318,-2.00710844412151,30.5216758926711,-13.7555066132444,-16.7661692794267
2.49584947426674,-33.0229606671845,-34.9569230953763,-1.93396242819184,33.9899418812804,-15.5444991194963,-18.4454427617841
2.49861649142225,-36.3165957263955,-37.811453510921,-1.49485778452552,37.0640246186582,-17.410868970935,-19.6531556477232
2.50138350857775,-37.8417477000331,-38.3501043570073,-0.508356656974222,38.0959260285202,-18.6666955215294,-19.4292305069908
2.50415052573326,-35.7489246376209,-34.2361296847578,1.51279495286319,34.9925271611894,-18.6308597952421,-16.3616673659473
2.50691754288877,-28.2308633025708,-23.1344687918598,5.09639451071104,25.6826660472153,-16.6636289066409,-9.01903714057438
2.50968456004427,-13.9491684933599,-3.60101785444774,10.3481506389121,8.77509317390381,-12.148659566136,3.3735663922322
2.51245157719978,7.42953430191499,24.059315464782,16.629781162867,-15.7444248833485,-4.60012343047599,20.3445483138245
2.51521859435528,34.7040281039577,57.3381523986911,22.6341242947333,-46.0210902513244,6.03495190461222,39.9861383467122
2.51798561151079,64.8865040042026,91.7176860613402,26.8311820571376,-78.3020950327714,19.0276609735325,59.2744340592389
2.5207526286663,93.5130610146012,121.526033278957,28.0129722643561,-107.519547146779,32.7500443751226,74.7695027716568
2.5235196458218,115.597056096369,141.241858938611,25.6448028422422,-128.41945751749,44.9761266270634,83.4433308904267
2.52628666297731,126.971326314706,146.889354866564,19.9180285518579,-136.930340590635,53.5266488814239,83.4036917092108
2.52905368013282,125.510080988778,137.118080352514,11.6079993637367,-131.314080670646,56.9510408125204,74.3630398581255
2.53182069728832,111.726743575534,113.627141042856,1.90039746732236,-112.676942309195,54.9131730541058,57.7637692550893
2.53458771444383,88.5280787598489,80.7750824600808,-7.75299629976801,-84.6515806099648,48.1405375298084,36.5110430801564
2.53735473159934,60.2965649989429,44.4771815028066,-15.8193834961364,-52.3868732508748,38.0579742475397,14.3288990033351
2.54012174875484,31.7267239542199,10.7322084374353,-20.9945155167846,-21.2294661958276,26.3606197355022,-5.13115353967465
2.54288876591035,6.82379211450967,-15.7665165688416,-22.5903086833513,4.47136222716596,14.7070503989305,-19.1784126260964
2.54565578306586,-11.7361164359549,-32.5401853614283,-20.8040689254733,22.1381508986916,4.5339762447592,-26.6721271434508
2.54842280022136,-22.8861666963302,-39.5483809640339,-16.6622142677037,31.2172738301821,-3.11197621431325,-28.1052976158688
2.55118981737687,-27.1503275770725,-38.755585975633,-11.6052583985604,32.9529567763528,-7.77253458925605,-25.1804221870967
2.55395683453237,-26.3380281901483,-33.2583942681338,-6.92036607798555,29.798211229141,-9.70883105608136,-20.0893801730597
2.55672385168788,-22.9454480310175,-26.2845236681822,-3.33907563716462,24.6149858495999,-9.80318619692646,-14.8117996526734
2.55949086884339,-19.3618279916914,-20.3581356651589,-0.996307673467467,19.8599818284251,-9.18276015911196,-10.6772216693132
2.56225788599889,-17.143594996899,-16.8276448117958,0.315950185103251,16.9856199043474,-8.72977259100115,-8.25584731334627
2.5650249031544,-16.6745121560342,-15.8205273630095,0.853984793024754,16.2475197595219,-8.7642484745295,-7.48327128499237
2.56779192030991,-17.3704964415595,-16.5646157725668,0.805880668992678,16.9675561070632,-9.0881885552761,-7.87936755178708
2.57055893746541,-18.2855722069021,-17.9193489646374,0.366223242264788,18.1024605857698,-9.32589772458347,-8.77656286118629
2.57332595462092,-18.7409947822,-18.911657951654,-0.17066316945392,18.826326366927,-9.28516580637306,-9.54116056055394
2.57609297177643,-18.6167578556906,-19.0875866427079,-0.470828787017375,18.8521722491993,-9.0729645343366,-9.77920771486266
2.57885998893193,-18.2083223654141,-18.5740470681655,-0.365724702751383,18.3911847167898,-8.92129883133134,-9.46988588545842
2.58162700608744,-17.8573981196321,-17.8689312809508,-0.0115331613186775,17.8631647002915,-8.92293247915672,-8.94023222113474
2.58439402324294,-17.6813857569314,-17.4932015578769,0.188184199054565,17.5872936574042,-8.934784977993,-8.65250867941116
2.58716104039845,-17.5822534922758,-17.6913500720972,-0.109096579821365,17.6368017821865,-8.73657845622722,-8.90022332595927
2.58992805755396,-17.4513829648181,-18.3248885374461,-0.873505572627977,17.8881357511321,-8.28893869609509,-9.59919705503705
2.59269507470946,-17.3296433014163,-18.9862173163307,-1.6565740149144,18.1579303088735,-7.83653464325097,-10.3213956656226
2.59546209186497,-17.357625695786,-19.2370473518475,-1.87942165606146,18.2973365238167,-7.73910201986227,-10.5582345039545
2.59822910902048,-17.5747385593623,-18.8223995143873,-1.247660955025,18.1985690368748,-8.16353880216865,-10.0350302347061
2.60099612617598,-17.7818304191077,-17.7534147457601,0.0284156733476308,17.7676225824339,-8.90512304622769,-8.86249953620624
2.60376314333149,-17.6258853457859,-16.2480317458999,1.37785359988601,16.9369585458429,-9.50186947283597,-7.43508907300695
2.606530160487,-16.8544478068862,-14.5974924676085,2.25695533927772,15.7259701372474,-9.55570157308199,-6.1702685641654
2.6092971776425,-15.5224040026976,-13.0457453361564,2.47665866654117,14.284074669427,-8.99953133461938,-5.28454333480763
2.61206419479801,-13.9695977347248,-11.7351080835754,2.23448965114945,12.8523529091501,-8.10204369293713,-4.75030921621295
2.61483121195351,-12.5878408790507,-10.7188204227655,1.86902045628518,11.6533306509081,-7.22843066766794,-4.42489998324018
2.61759822910902,-11.573338292635,-10.0015186014534,1.57181969118164,10.7874284470442,-6.57257899190834,-4.21484945513588
2.62036524626453,-10.8606814649777,-9.56280212997813,1.29787933499959,10.2117417974779,-6.07928039998865,-4.13246139748927
2.62313226342003,-10.2677065894932,-9.3481503138305,0.9195562756627,9.80792845166185,-5.59363143257795,-4.2142970190839
2.62589928057554,-9.69808655789155,-9.24982946138422,0.448257096507334,9.47395800963789,-5.07317182719944,-4.40078618243844
2.62866629773105,-9.2094113749103,-9.112702784534,0.0967085903763003,9.16105707972215,-4.6530599826433,-4.50799709707885
2.63143331488655,-8.89044655824864,-8.7763963327416,0.114050225507043,8.83342144549512,-4.50224839187784,-4.33117305361728
2.63420033204206,-8.6776242363545,-8.13161010032821,0.546014136026297,8.40461716834136,-4.6118191861904,-3.79279798215095
2.63696734919757,-8.30696730033422,-7.15563201464718,1.15133528568704,7.7312996574907,-4.72915129301063,-3.00214836448007
2.63973436635307,-7.47975791423195,-5.90872695233569,1.57103096189625,6.69424243328382,-4.5253944380641,-2.16884799521972
2.64250138350858,-6.11874660630297,-4.50212489173561,1.61662171456736,5.31043574901929,-3.86768416043517,-1.44275158858412
2.64526840066408,-4.48806794476114,-3.06308522991001,1.42498271485113,3.77557658733558,-2.95652532980614,-0.81905125752944
2.64803541781959,-3.04824804179787,-1.71240417776558,1.33584386403228,2.38032610978172,-2.19204595291508,-0.188280156866649
2.6508024349751,-2.14163216568792,-0.551768561791701,1.58986360389622,1.34670036373981,-1.86574788479207,0.519047521052259
2.6535694521306,-1.7570513785955,0.347635421086684,2.10468679968219,0.704707978754409,-1.93086908913884,1.22616111038444
2.65633646928611,-1.56556098780422,0.959142279982545,2.52470326778676,0.303209353910835,-2.04513212779549,1.74192277388465
2.65910348644162,-1.19384435739318,1.31527448259359,2.50911883998677,-0.0607150626002043,-1.85148159868998,1.91219666129018
2.66187050359712,-0.501101180500338,1.51531223026086,2.0164134107612,-0.507105524880261,-1.25875729563077,1.76586282051103
2.66463752075263,0.371684946631408,1.7143711585832,1.34268621195179,-1.0430280526073,-0.485500632660192,1.5285286852675
2.66740453790814,1.20480705976249,2.089049942631,0.884242882868516,-1.64692850119675,0.160282088446987,1.48664641274976
2.67017155506364,1.95778849454304,2.79040728775041,0.832618793207368,-2.37409789114673,0.562584850667837,1.81151304047889
2.67293857221915,2.84417844593292,3.90494993126889,1.06077148533597,-3.37456418860091,0.891703480298473,2.48286070830243
2.67570558937465,4.15322222692261,5.4361636846284,1.2829414577058,-4.7946929557755,1.43514038460841,3.3595525711671
2.67847260653016,5.97312106554883,7.3010094717487,1.32788840619987,-6.63706526864876,2.32261632967448,4.31444893897428
2.68123962368567,8.06017422222764,9.33162207974501,1.27144785751737,-8.69589815098632,3.39436318235513,5.30153496863119
2.68400664084117,9.9778138930971,11.2906742515516,1.31286035845453,-10.6342440723244,4.33247676732128,6.30176730500308
2.68677365799668,11.4008836972291,12.9231260849014,1.52224238767232,-12.1620048910652,4.93932065477837,7.22268423628686
2.68954067515219,12.3374914989311,14.0479997241418,1.71050822521071,-13.1927456115365,5.3134916368602,7.87925397467626
2.69230769230769,13.0874046842182,14.652225879739,1.56482119552075,-13.8698152819786,5.76129174434874,8.10852353762986
2.6950747094632,13.9792401920879,14.9259535474656,0.946713355377632,-14.4525968697768,6.51626341835515,7.9363334514216
2.69784172661871,15.1166970130427,15.2024943216545,0.0857973086117436,-15.1595956673486,7.51544985221549,7.6441458151331
2.70060874377421,16.3492899688996,15.8245137935611,-0.524776175338516,-16.0869018812303,8.43703307211906,7.64986880911128
2.70337576092972,17.4776035609721,17.0078883539664,-0.469715207005752,-17.2427459574692,8.97365938398894,8.26908657348031
2.70614277808522,18.4924290929396,18.7747355727433,0.282306479803648,-18.6335823328414,9.10506130656798,9.52852102627346
2.70890979524073,19.6204522629156,20.9775117964536,1.35705953353801,-20.2989820296846,9.13169636468877,11.1672856649958
