t,leadI,leadII,leadIII,aVR,aVL,aVF
0,-2.68580483359364,-61.3091873500061,-58.6233825164125,31.9974960917999,27.9687888414094,-59.9662849332093
0.00215007525263384,-1.78779624709016,202.632609731946,204.420405979036,-100.422406742428,-103.104101113063,203.526507855491
0.00430015050526768,-1.07295179856977,453.262814835398,454.335766633968,-226.094931518414,-227.704359216269,453.799290734683
0.00645022575790153,-0.632871600914439,679.485115813277,680.117987414191,-339.426122106181,-340.375429507553,679.801551613734
0.00860030101053537,-0.420904779202731,874.022558654732,874.443463433935,-436.800826937765,-437.432184106569,874.233011044334
0.0107503762631692,-0.258956804902509,1034.0642053711,1034.323162176,-516.902624283097,-517.29105949045,1034.19368377355
0.0129004515158031,0.0989020221572042,1160.91566218358,1160.81676016142,-580.507282102866,-580.358929069631,1160.8662111725
0.0150505267684369,0.872210697784401,1258.91098200103,1258.03877130325,-629.891596349409,-628.583280302733,1258.47487665214
0.0172006020210707,2.16581741546257,1333.9883474867,1331.82253007124,-668.077082451083,-664.828356327889,1332.90543877897
0.0193506772737046,3.91670867648853,1392.32190749575,1388.40519881926,-698.119308086121,-692.244245071388,1390.36355315751
0.0215007525263384,5.89085820360904,1439.28577038639,1433.39491218278,-722.588314294999,-713.752026989586,1436.34034128459
0.0236508277789723,7.7327322110584,1478.872323433,1471.13959122195,-743.302527822031,-731.703429505443,1475.00595732747
0.0258009030316061,9.0585038148994,1513.55198609766,1504.49348228277,-761.305244956282,-747.717489233933,1509.02273419022
0.0279509782842399,9.56918088041873,1544.47274811908,1534.90356723866,-777.020964499747,-762.667193179119,1539.68815767887
0.0301010535368738,9.14640713243458,1571.858419143,1562.71201201056,-790.502413137717,-776.782802439065,1567.28521557678
0.0322511287895076,7.89378223287077,1595.46567731748,1587.57189508461,-801.679729775175,-789.839056425869,1591.51878620104
0.0344012040421415,6.10639768177291,1614.98861585736,1608.88221817559,-810.547506769567,-801.387910246907,1611.93541701647
0.0365512792947753,4.18183960791821,1630.34068529672,1626.1588456888,-817.261262452319,-810.988503040442,1628.24976549276
0.0387013545474092,2.50901302072633,1641.78502774592,1639.27601472519,-822.147020383321,-818.383500852231,1640.53052123555
0.040851429800043,1.37402484142219,1649.91892504368,1648.54490020225,-825.646474942549,-823.585437680416,1649.23191262296
0.0430015050526768,0.907088770560043,1655.54627858542,1654.63918981486,-828.226683677991,-826.866050522151,1655.09273420014
0.0451515803053107,1.07518937086241,1659.49353134875,1658.41834197789,-830.284360359806,-828.671576303513,1658.95593666332
0.0473016555579445,1.71395999397511,1662.43413014941,1660.72017015543,-832.074045071692,-829.503105080729,1661.57715015242
0.0494517308105784,2.58709816266456,1664.77811731243,1662.19101914976,-833.682607737547,-829.80196049355,1663.4845682311
0.0516018060632122,3.45576863627205,1666.65654606056,1663.20077742428,-835.056157348414,-829.872504394006,1664.92866174242
0.0537518813158461,4.13674887578276,1667.99382400696,1663.85707513118,-836.065286441371,-829.860163127696,1665.92544956907
0.0559019565684799,4.53380556159227,1668.62924930133,1664.09544373974,-836.581527431463,-829.780819089074,1666.36234652054
0.0580520318211137,4.63920813156086,1668.43537778414,1663.79616965258,-836.537292957851,-829.57848076051,1666.11577371836
0.0602021070737476,4.51262235437224,1667.39016846373,1662.87754610936,-835.951395409051,-829.182461877493,1665.13385728654
0.0623521823263814,4.24936273426788,1665.58497341399,1661.33561067972,-834.917168074129,-828.543123972728,1663.46029204686
0.0645022575790153,3.94969416477826,1663.17800311563,1659.22830895085,-833.563848640202,-827.639307393035,1661.20315603324
0.0666523328316491,3.69648006340795,1660.32225754569,1656.62577748228,-832.009368804549,-826.464648709437,1658.47401751399
0.068802408084283,3.54288966657099,1657.10307375253,1653.56018408596,-830.322981709549,-825.008647209692,1655.33162891924
0.0709524833369168,3.50872898867817,1653.51231454302,1650.00358555434,-828.51052176585,-823.247428282833,1651.75795004868
0.0731025585895506,3.58358676155225,1649.46737654249,1645.88378978094,-826.52548165202,-821.150101509691,1647.67558316171
0.0752526338421845,3.7351057724232,1644.86249461992,1641.1273888475,-824.298800196172,-818.696141537538,1642.99494173371
0.0774027090948183,3.92044203354599,1639.62674997698,1635.70630794343,-821.773596005261,-815.892932954942,1637.6665289602
0.0795527843474522,4.09916048568486,1633.76239525394,1629.66323476826,-818.930777869815,-812.782037141287,1631.7128150111
0.081702859600086,4.24511684590173,1627.34787166077,1623.10275481486,-815.796494253334,-809.428818984481,1625.22531323782
0.0838529348527198,4.35186611027598,1620.50780410364,1616.15593799337,-812.429835106959,-805.902035941545,1618.3318710485
0.0860030101053537,4.42580131845885,1613.36905258943,1608.94325127097,-808.897426953943,-802.258724976255,1611.1561519302
0.0881530853579875,4.46931751040242,1606.02761478676,1601.55829727636,-805.248466148581,-798.544489882978,1603.79295603156
0.0903031606106214,4.4667776703783,1598.54213983026,1594.07536215988,-801.50445875032,-794.804292244753,1596.30875099507
0.0924532358632552,4.38637157757771,1590.95288329732,1586.56651171974,-797.669627437448,-791.090070071081,1588.75969750853
0.0946033111158891,4.19940032301515,1583.31081917972,1579.11141885671,-793.755109751368,-787.456009266845,1581.21111901821
0.0967533863685229,3.90551620586222,1575.69704687866,1571.7915306728,-789.80128154226,-783.943007233467,1573.74428877573
0.0989034616211567,3.54705340070845,1568.21903926302,1564.67198586231,-785.883046331863,-780.562466230801,1566.44551256266
0.101053536873791,3.20021381069973,1560.98388742564,1557.78367361494,-782.09205061817,-777.29172990212,1559.38378052029
0.103203612126424,2.94437005813272,1554.0613375338,1551.11696747566,-778.502853795965,-774.086298708766,1552.58915250473
0.105353687379058,2.82629062743385,1547.45430625804,1544.6280156306,-775.140298442735,-770.900862501584,1546.04116094432
0.107503762631692,2.84119569436902,1541.09071664846,1538.2495209541,-771.965956171417,-767.704162629863,1539.67011880128
0.109653837884326,2.94102291741016,1534.84068738072,1531.89966446331,-768.890855149066,-764.479320772951,1533.37017592202
0.11180391313696,3.06169187816911,1528.55174807345,1525.49005619529,-765.806719975812,-761.214182158558,1527.02090213437
0.113953988389594,3.15188391388042,1522.0873972594,1518.93551334552,-762.619640586643,-757.891814715822,1520.51145530246
0.116104063642227,3.19088394668137,1515.35458127503,1512.16369732835,-759.272732610858,-754.486406690836,1513.75913930169
0.118254138894861,3.19221638605624,1508.31241121031,1505.12019482426,-755.752313798185,-750.963989219101,1506.71630301729
0.120404214147495,3.19380819845278,1500.96346585296,1497.76965765451,-752.078637025706,-747.287924728027,1499.36656175373
0.122554289400129,3.23704671295646,1493.33638383611,1490.09933712315,-748.286715274534,-743.431145205099,1491.71786047963
0.124704364652763,3.34228376723499,1485.47118508874,1482.1289013215,-744.406734427987,-739.393308777135,1483.80004320512
0.126854439905397,3.49401233324284,1477.41505391804,1473.9210415848,-740.454533125642,-735.213514625777,1475.66804775142
0.129004515158031,3.64639130680762,1469.22735442629,1465.58096311948,-736.436872866547,-730.967285906336,1467.40415877288
0.131154590410664,3.74707244456773,1460.98391051704,1457.23683807247,-732.365491480801,-726.74488281395,1459.11037429475
0.133304665663298,3.76409125495412,1452.76923674293,1449.00514548797,-728.26666399894,-722.620527116508,1450.88719111545
0.135454740915932,3.69900615906253,1444.65405767048,1440.95505151141,-724.17653191477,-718.628022676176,1442.80455459095
0.137604816168566,3.58111422306726,1436.66786662363,1433.08675240057,-720.12449042335,-714.752819088749,1434.8773095121
0.1397548914212,3.45157046819539,1428.78252238556,1425.33095191736,-716.117046426875,-710.939690724582,1427.05673715146
0.141904966673834,3.34984129576139,1420.91894035697,1417.56909906121,-712.134390826368,-707.109628882726,1419.24401970909
0.144055041926467,3.30681439029308,1412.97799778161,1409.67118339132,-708.142406085951,-703.182184500512,1411.32459058646
0.146205117179101,3.34074623076113,1404.88438829864,1401.54364206788,-704.1125672647,-699.101447918558,1403.21401518326
0.148355192431735,3.45367210827167,1396.62439353762,1393.17072142935,-700.039032822947,-694.85852466054,1394.89755748349
0.150505267684369,3.63185390831701,1388.26021363338,1384.62835972507,-695.94603377085,-690.498252908375,1386.44428667923
0.152655342937003,3.85339590118445,1379.91402554668,1376.0606296455,-691.883710723934,-686.103616872157,1377.98732759609
0.154805418189637,4.09898633625467,1371.72833839939,1367.62935206314,-687.913662367823,-681.765182863441,1369.67884523126
0.15695549344227,4.35725590505976,1363.81883219594,1359.46157629088,-684.088044050498,-677.552160192908,1361.64020424341
0.159105568694904,4.62009050389993,1356.23781378978,1351.61772328588,-680.428952146839,-673.498816390989,1353.92776853783
0.161255643947538,4.871428693397,1348.96044733727,1344.08901864388,-676.915938015336,-669.60879497524,1346.52473299058
0.163405719200172,5.07829293245024,1341.89529240122,1336.81699946877,-673.486792666835,-665.86935326816,1339.35614593499
0.165555794452806,5.19173968483779,1334.91120318697,1329.71946350213,-670.051471435903,-662.263861908646,1332.31533334455
0.16770586970544,5.15994562236929,1327.86914396691,1322.70919834454,-666.514544794641,-658.774626361087,1325.28917115573
0.169855944958074,4.94933181245076,1320.64957947363,1315.70024766118,-662.799455643039,-655.375457924363,1318.1749135674
0.172006020210707,4.56446819426213,1313.16985171969,1308.60538352543,-658.867159956978,-652.020457665584,1310.88761762256
0.174156095463341,4.05500344315946,1305.3898523461,1301.33484890294,-654.72242789463,-648.639922729891,1303.36235062452
0.176306170715975,3.50186356911875,1297.3089619594,1293.80709839028,-650.40541276426,-645.152617410582,1295.55803017484
0.178456245968609,2.98710927383593,1288.96041917749,1285.97330990366,-645.973764225665,-641.493100314911,1287.46686454058
0.180606321221243,2.5637336623246,1280.40743703258,1277.84370337025,-641.485585347451,-637.639984853964,1279.12557020141
0.182756396473877,2.24142491504146,1271.73952586,1269.49810094496,-636.990475387519,-633.628338014957,1270.61881340248
0.18490647172651,1.99241256285179,1263.06335830726,1261.07094574441,-632.527885435056,-629.539266590779,1262.06715202583
0.187056546979144,1.77022184906279,1254.48422148757,1252.71399963851,-628.127221668318,-625.471888894724,1253.59911056304
0.189206622231778,1.53143935168865,1246.07993353843,1244.54849418675,-623.805686445062,-621.508527417529,1245.31421386259
0.191356697484412,1.25354086168399,1237.87522501883,1236.62168415715,-619.564382940258,-617.684071647732,1237.24845458799
0.193506772737046,0.944738405595115,1229.82903913149,1228.8843007259,-615.386888768543,-613.96978116015,1229.35666992869
0.19565684798968,0.643136158753196,1221.84696475506,1221.20382859631,-611.245050456906,-610.280346218776,1221.52539667568
0.197806923242313,0.403719479660721,1213.82152640479,1213.41780692513,-607.112622942228,-606.507043722736,1213.61966666496
0.199956998494947,0.27472976333125,1205.68645061278,1205.41172084945,-602.980590188054,-602.568495543057,1205.54908573111
0.202107073747581,0.270823123646957,1197.45901469155,1197.1881915679,-598.864918907599,-598.458684222129,1197.32360312973
0.204257149000215,0.355999016217712,1189.24753255437,1188.89153353815,-594.801765785292,-594.267767260965,1189.06953304626
0.206407224252849,0.447925295870278,1181.21764984059,1180.76972454472,-590.832787568232,-590.160899624426,1180.99368719266
0.208557299505483,0.44530899964871,1173.5309853333,1173.08567633365,-586.988147166472,-586.320183666999,1173.30833083347
0.210707374758117,0.268464869558603,1166.28222438113,1166.01375951157,-583.275344625343,-582.872647321005,1166.14799194635
0.21285745001075,-0.102697483199344,1159.4610191953,1159.5637166785,-579.679160856049,-579.833207080848,1159.5123679369
0.215007525263384,-0.608721845342483,1152.95380692075,1153.5625287661,-576.172542537705,-577.085625305719,1153.25816784342
0.217157600516018,-1.11880836835956,1146.58263508176,1147.70144345012,-572.731913356703,-574.410125909242,1147.14203926594
0.219307675768652,-1.46719874305108,1140.16120759986,1141.62840634292,-569.347004428407,-571.547802542983,1140.89480697139
0.221457751021286,-1.50602485417565,1133.54212180551,1135.04814665968,-566.018048475666,-568.277085756929,1134.29513423259
0.22360782627392,-1.15595537260602,1126.63770188395,1127.79365725656,-562.740873255672,-564.474806314581,1127.21567957025
0.225757901526553,-0.437426206878192,1119.41334023884,1119.85076644572,-559.487957015982,-560.144096326299,1119.63205334228
0.227907976779187,0.527910168398229,1111.86582406806,1111.33791389966,-556.196867118229,-555.405001865631,1111.60186898386
0.230058052031821,1.54764084237144,1104.00380030055,1102.45615945818,-552.775720571459,-550.454259307902,1103.22997987936
0.232208127284455,2.41266113150559,1095.84322122913,1093.43056009763,-549.127941180319,-545.508949483061,1094.63689066338
0.234358202537089,2.95509205797753,1087.42016766099,1084.46507560301,-545.187629859483,-540.754991772517,1085.942621632
0.236508277789723,3.08743304814768,1078.81202283412,1075.72458978598,-540.949727941136,-536.318578368914,1077.26830631005
0.238658353042356,2.8121223082775,1070.15086763289,1067.33874532461,-536.481494970585,-532.263311508168,1068.74480647875
0.24080842829499,2.20674819623839,1061.61332852136,1059.40658032512,-531.910038358801,-528.599916064443,1060.50995442324
0.242958503547624,1.39652497562176,1053.38053545573,1051.98401048011,-527.388530215677,-525.293742752244,1052.68227296792
0.245108578800258,0.523234667720554,1045.57855820777,1045.05532354005,-523.050896437748,-522.266044436167,1045.31694087391
0.247258654052892,-0.281890485704438,1038.2251023008,1038.50699278651,-518.971605907549,-519.394441636106,1038.36604754366
0.249408729305526,-0.914118928684772,1031.21117042486,1032.12528935354,-515.148525748086,-516.519704141113,1031.6682298892
0.25155880455816,-1.29781632636848,1024.3324260691,1025.63024239547,-511.517304871368,-513.46402936092,1024.98133423229
0.253708879810793,-1.38247318075591,1017.36037393136,1018.74284711212,-507.988950375303,-510.062660146436,1018.05161052174
0.255858955063427,-1.14282706056389,1010.1217203137,1011.26454737426,-504.489446626568,-506.203687217414,1010.69313384398
0.258009030316061,-0.587943797864617,1002.54887719568,1003.13682099354,-500.980466698906,-501.862382395703,1002.84284909461
0.260159105568695,0.226061547236187,994.680088333326,994.45402678609,-497.453074940281,-497.113982619427,994.567057559708
0.262309180821329,1.19130372748115,986.615624720002,985.424320992521,-493.903464223742,-492.11650863252,986.019972856262
0.264459256073963,2.16103281389235,978.460152187353,976.29911937346,-490.310592500623,-487.069043279784,977.379635780407
0.266609331326596,2.98053841034266,970.285661854778,967.305123444435,-486.63310013256,-482.162292517046,968.795392649606
0.26875940657923,3.52565361842936,962.131627682741,958.605974064311,-482.828640650585,-477.540160222941,960.368800873526
0.270909481831864,3.73300217722501,954.032714658889,950.299712481664,-478.882858418057,-473.283355152219,952.166213570276
0.273059557084498,3.6099622874537,946.048106689047,942.438144401593,-474.82903448825,-469.41409105707,944.24312554532
0.275209632337132,3.22356401421723,938.268616263037,935.04505224882,-470.746090138627,-465.910744117301,936.656834255929
0.277359707589766,2.67818503423726,930.792646548595,928.114461514358,-466.735415791416,-462.71813824006,929.453554031477
0.279509782842399,2.09409519454226,923.679796683649,921.585701489107,-462.886945939096,-459.745803147282,922.632749086378
0.281659858095033,1.59216610219554,916.904651614697,915.312485512501,-459.248408858446,-456.860159705153,916.108568563599
0.283809933347667,1.28113133167338,910.338293106369,909.057161774695,-455.809712219021,-453.888015221511,909.697727440532
0.285960008600301,1.24105061292096,903.776146812764,902.535096199843,-452.508598712842,-450.647022793461,903.155621506303
0.288110083852935,1.50291189491757,897.007875761539,895.504963866622,-449.255393828228,-447.001025985852,896.256419814081
0.290260159105569,2.03277267874175,889.899751881853,887.866979203111,-445.966262280297,-442.917103262185,888.883365542482
0.292410234358203,2.7303469073315,882.449658017246,879.719311109914,-442.590002462289,-438.494482101291,881.08448456358
0.294560309610836,3.44572163395732,874.787485482431,871.341763848473,-439.116603558194,-433.948021107258,873.064624665452
0.29671038486347,4.01025814059511,867.120497960723,863.110239820128,-435.565378050659,-429.549990839766,865.115368890426
0.298860460116104,4.27365224375863,859.647753102349,855.37410085859,-431.960702673054,-425.550224307416,857.51092698047
0.301010535368738,4.1389509360036,852.479453111727,848.340502175723,-428.309202023865,-422.10077561986,850.409977643725
0.303160610621372,3.58845141705137,845.594977327504,842.006525910452,-424.591714372278,-419.2090372467,843.800751618978
0.305310685874006,2.69352403335665,838.858400300102,836.164876266745,-420.775962166729,-416.735676116694,837.511638283423
0.307460761126639,1.60220144191978,832.084440411867,830.482238969947,-416.843320926893,-414.440018764014,831.283339690907
0.309610836379273,0.504261764830276,825.121798205637,824.617536440806,-412.813029985233,-412.056637337988,824.869667323222
0.311760911631907,-0.416344159021736,817.912431804523,818.328775963545,-408.748043822751,-409.372560061283,818.120603884034
0.313910986884541,-1.02580860670516,810.501507728351,811.527316335056,-404.737849560823,-406.276562470881,811.014412031704
0.316061062137175,-1.26891228717822,803.001306714379,804.270219001558,-400.866197213601,-402.769565644368,803.635762857968
0.318211137389809,-1.1768907516722,795.534444894313,796.711335645985,-397.17877707132,-398.944113198829,796.122890270149
0.320361212642442,-0.855739933045213,788.186761471053,789.042501404099,-393.665510769004,-394.949120668572,788.614631437576
0.322511287895076,-0.458840058512796,780.988666845567,781.447506904079,-390.264913393527,-390.953173481296,781.218086874823
0.32466136314771,-0.149831569974326,773.92466618526,774.074497755234,-386.887417307643,-387.112164662604,773.999581970247
0.326811438400344,-0.0633158820697053,766.956568894005,767.019884776075,-383.446626505968,-383.541600329072,766.98822683504
0.328961513652978,-0.271782924236352,760.043863467927,760.315646392163,-379.886040271845,-380.2937146582,760.179754930045
0.331111588905612,-0.766777106934566,753.152405801176,753.91918290811,-376.192814347121,-377.342980007522,753.535794354643
0.333261664158246,-1.46007276345108,746.252291663554,747.712364427005,-372.396109450052,-374.586218595228,746.98232804528
0.335411739410879,-2.20619373156215,739.312004696202,741.518198427764,-368.55290548232,-371.862196079663,740.415101561983
0.337561814663513,-2.84116691967061,732.297105511917,735.138272431588,-364.727969296123,-368.989719675629,733.717688971752
0.339711889916147,-3.22577080089804,725.178405055894,728.404175856792,-360.976317127498,-365.814973328845,726.791290456343
0.341861965168781,-3.27922924084907,717.948451834283,721.227681075132,-357.334611296717,-362.25345515799,719.588066454707
0.344012040421415,-2.99443928096878,710.638903114579,713.633342395547,-353.822231916805,-358.313890838258,712.136122755063
0.346162115674049,-2.43471047738409,703.327960699708,705.762671177092,-350.446625111162,-354.098690827238,704.5453159384
0.348312190926682,-1.71742992123072,696.129283694408,697.846713615639,-347.205926886589,-349.782071768435,696.987998655023
0.350462266179316,-0.989738293024738,689.161746573279,690.151484866304,-344.086004140127,-345.570611579664,689.656615719791
0.35261234143195,-0.398920086250002,682.508931590764,682.907851677014,-341.055005752257,-341.653385881632,682.708391633889
0.354762416684584,-0.0600714712013413,676.183438811993,676.243510283195,-338.061683670396,-338.151790877198,676.213474547594
0.356912491937218,-0.0267530016812066,670.111524947097,670.138277948779,-335.042385972708,-335.08251547523,670.124901447938
0.359062567189852,-0.273864204419219,664.146978757947,664.420842962366,-331.936557276764,-332.347353583393,664.283910860157
0.361212642442485,-0.700982503221586,658.110609381741,658.811591884962,-328.70481343926,-329.756287194092,658.461100633352
0.363362717695119,-1.15705577029193,651.840021247124,652.997077017416,-325.341482738416,-327.077066393854,652.41854913227
0.365512792947753,-1.47836540042445,645.231458389418,646.709823789843,-321.876546494497,-324.094094595134,645.97064108963
0.367662868200387,-1.52802334849568,638.261819522947,639.789842871443,-318.366898087226,-320.658933109969,639.025831197195
0.369812943453021,-1.22809785024243,630.987616240799,632.215714091041,-314.879759195278,-316.721905970642,631.60166516592
0.371963018705655,-0.57953330545098,623.52365718448,624.103190489931,-311.472061939515,-312.341361897691,623.813423837206
0.374113093958289,0.333617886458868,616.008650514167,615.675032627708,-308.171134200313,-307.670707370624,615.841841570937
0.376263169210922,1.35834741524064,608.569321978911,607.21097456367,-304.963834697076,-302.926313574215,607.890148271291
0.378413244463556,2.30444966129979,601.296228213768,598.991778552468,-301.800338937534,-298.343664445584,600.144003383118
0.38056331971619,2.98822501795739,594.239640356455,591.251415338498,-298.613932687206,-294.13159516027,592.745527847477
0.382713394968824,3.27850612084786,587.423776238708,584.14527011786,-295.351141179778,-290.433381998506,585.784523178284
0.384863470221458,3.13229348472636,580.867552106858,577.735258622132,-291.999922795792,-287.301482568703,579.301405364495
0.387013545474092,2.60709532034236,574.596333270481,571.989237950138,-288.601714295412,-284.691071314898,573.292785610309
0.389163620726725,1.84377208451761,568.63581777574,566.792045691223,-285.239794930129,-282.474136803353,567.713931733481
0.391313695979359,1.02503199520369,562.992800031038,561.967768035834,-282.008916013121,-280.471368020315,562.480284033436
0.393463771231993,0.323095445356304,557.638076814968,557.314981369611,-278.980586130162,-278.495942962127,557.476529092289
0.395613846484627,-0.147546953289972,552.505872907376,552.653419860666,-276.179162977043,-276.400483406978,552.579646384021
0.397763921737261,-0.357778415637466,547.512191599076,547.869970014714,-273.577206591719,-274.113874215176,547.691080806895
0.399913996989895,-0.362398235292786,542.579885842774,542.942284078067,-271.108743803741,-271.65234115668,542.76108496042
0.402064072242528,-0.269632526603102,537.652041748283,537.921674274886,-268.69120461084,-269.095653400745,537.786858011585
0.404214147495162,-0.192996070412748,532.683346466674,532.876342537087,-266.245175198131,-266.53466930375,532.77984450188
0.406364222747796,-0.204553186017001,527.616493322994,527.821046509011,-263.705970068489,-264.012799847514,527.718769916003
0.40851429800043,-0.308964149881596,522.363957912892,522.672922062774,-261.027496881505,-261.490943106328,522.518439987833
0.410664373253064,-0.449455522374912,516.813862473681,517.263317996056,-258.182203475653,-258.856386759216,517.038590234869
0.412814448505698,-0.542074688829441,510.863687025513,511.405761714343,-255.160806168342,-255.973918201586,511.134724369928
0.414964523758332,-0.52076392896241,504.468462233726,504.989226162689,-251.973849152382,-252.754995045825,504.728844198207
0.417114599010965,-0.371516817225566,497.68038951927,498.051906336496,-248.654436351022,-249.211711576861,497.866147927883
0.419264674263599,-0.1405520104146,490.657769621341,490.798321631755,-245.258608805463,-245.469436821085,490.728045626548
0.421414749516233,0.0866558129061375,483.632559577631,483.545903764725,-241.859607695269,-241.729623975909,483.589231671178
0.423564824768867,0.226620383015545,476.844603891143,476.617983508127,-238.535612137079,-238.195681562556,476.731293699635
0.425714900021501,0.240661155644126,470.467838397962,470.227177242317,-235.354249776803,-234.993258043337,470.34750782014
0.427864975274135,0.157255916624028,464.559038318046,464.401782401422,-232.358147117335,-232.122263242399,464.480410359734
0.430015050526768,0.0604946771199537,459.049034556663,458.988539879543,-229.554764616891,-229.464022601212,459.018787218103
0.432165125779402,0.0497580086991069,453.775984642812,453.726226634113,-226.912871325756,-226.838234312707,453.751105638462
0.434315201032036,0.19270261835317,448.542282712323,448.34958009397,-224.367492665338,-224.078438737808,448.445931403146
0.43646527628467,0.497192102669214,443.170317241061,442.673125138392,-221.833754671865,-221.087966517862,442.921721189727
0.438615351537304,0.915577221596449,437.538600882435,436.623023660838,-219.227089052016,-217.853723219621,437.080812271636
0.440765426789938,1.37526057550331,431.593096352482,430.217835776979,-216.484178463993,-214.421287600738,430.905466064731
0.442915502042571,1.81590662003242,425.340922915415,423.525016295383,-213.578414767724,-210.854554837675,424.432969605399
0.445065577295205,2.21352693512615,418.838605751823,416.625078816697,-210.526066343475,-207.205775940786,417.73184228426
0.447215652547839,2.58166712163559,412.182761910946,409.60109478931,-207.382214516291,-203.509713833837,410.891928350128
0.449365727800473,2.95205178843971,405.501940324939,402.5498885365,-204.22699605669,-199.79891837403,404.025914430719
0.451515803053107,3.34676816560685,398.942097309739,395.595329144133,-201.144432737673,-196.124280489263,397.268713226936
0.453665878305741,3.75861667123385,392.639844002121,388.881227330888,-198.199230336678,-192.561305329827,390.760535666504
0.455815953558375,4.15180299364079,386.685394695794,382.533591702154,-195.418598844718,-189.190894354256,384.609493198974
0.457966028811008,4.48201022074262,381.085657829652,376.60364760891,-192.783834025197,-186.060818694083,378.844652719281
0.460116104063642,4.721053675778,375.743032342099,371.021978666321,-190.232043008938,-183.150462495271,373.38250550421
0.462266179316276,4.8672800676345,370.464951607962,365.597671540327,-187.666115837798,-180.365195736346,368.031311574144
0.46441625456891,4.93306123801072,365.010956616932,360.077895378921,-184.972008927471,-177.572417070455,362.544425997927
0.466566329821544,4.91826043561813,359.1684110409,354.250150605282,-182.043335738259,-174.665945084832,356.709280823091
0.468716405074178,4.78977431687605,352.831610375626,348.04183605875,-178.810692346251,-171.626030870937,350.436723217188
0.470866480326811,4.48398606976798,346.052045221862,341.568059152094,-175.268015645815,-168.542036541163,343.810052186978
0.473016555579445,3.93461258980367,339.035496273284,335.10088368348,-171.485054431544,-165.583135546838,337.068189978382
0.475166630832079,3.11308606431858,332.082202170932,328.969116106613,-167.597644117625,-162.928015021147,330.525659138773
0.477316706084713,2.06111591334094,325.490881296578,323.429765383237,-163.77599860496,-160.684324734948,324.460323339908
0.479466781337347,0.898269525296264,319.464151708927,318.565882183631,-160.181210617112,-158.833806329167,319.015016946279
0.481616856589981,-0.201554156439518,314.053087754824,314.254641911264,-156.925766799192,-157.228098033852,314.153864833044
0.483766931842614,-1.05704063143557,309.161520573917,310.218561205352,-154.052239971241,-155.637800918394,309.690040889635
0.485917007095248,-1.53134612278326,304.603838897271,306.135185020054,-151.536246387244,-153.833265571419,305.369511958663
0.488067082347882,-1.56916415480005,300.186529102195,301.755693256995,-149.308682473698,-151.662428705898,300.971111179595
0.490217157600516,-1.20818578584716,295.775584083201,296.983769869048,-147.283699148677,-149.095977827447,296.379676976124
0.49236723285315,-0.566236279675813,291.322392176426,291.888628456102,-145.378077948375,-146.227432367889,291.605510316264
0.494517308105784,0.187889540775306,286.842861420235,286.654971879459,-143.515375480505,-143.233541169342,286.748916649847
0.496667383358418,0.871195027512859,282.367131921422,281.495936893909,-141.619163474468,-140.312370933198,281.931534407666
0.498817458611051,1.32268317386476,277.890089597121,276.567406423256,-139.606386385493,-137.622361624696,277.228748010188
0.500967533863685,1.43083307489753,273.350273134717,271.919440059819,-137.390553104807,-135.244303492461,272.634856597268
0.503117609116319,1.14716839534845,268.648107043548,267.5009386482,-134.897637719448,-133.176885126426,268.074522845874
0.505267684368953,0.487765507610472,263.692175947842,263.204410440232,-132.089970727726,-131.358322466311,263.448293194037
0.507417759621587,-0.470690027662059,258.446648130904,258.917338158566,-128.987979051621,-129.694014093114,258.681993144735
0.509567834874221,-1.59728830715791,252.953723117261,254.551011424419,-125.678217405052,-128.074149865789,253.75236727084
0.511717910126854,-2.71995199674966,247.321700320381,250.041652317131,-122.300874161816,-126.38080215694,248.681676318756
0.513867985379488,-3.64962206985255,241.689604509291,245.339226579144,-119.019991219719,-124.494424324498,243.514415544218
0.516018060632122,-4.21247618965509,236.188969680529,240.401445870184,-115.988246745437,-122.306961029919,238.295207775356
0.518168135884756,-4.28173993960927,230.918485120474,235.200225060084,-113.318372590433,-119.740982499847,233.059355090279
0.52031821113739,-3.80238582008126,225.935369574036,229.737755394118,-111.066491876978,-116.770070607099,227.836562484077
0.522468286390024,-2.80564739429928,221.258279713154,224.063927107453,-109.226316159427,-113.434787250876,222.661103410304
0.524618361642658,-1.41141840289529,216.8740278895,218.285446292395,-107.731304743302,-109.848432347645,217.579737090947
0.526768436895291,0.183661570536528,212.742361293053,212.558699722516,-106.463011431795,-106.18751907599,212.650530507784
0.528918512147925,1.73440371473803,208.796625241297,207.062221526559,-105.265514478018,-102.663908905911,207.929423383928
0.531068587400559,2.99100546874483,204.942282655886,201.951277187141,-103.966644062315,-99.4801358591979,203.446779921513
0.533218662653193,3.75145973995038,201.059184300152,197.307724560202,-102.405322020051,-96.7781324101257,199.183454430177
0.535368737905827,3.90713693696538,197.014406973128,193.107270036163,-100.460771955047,-94.6000665495988,195.060838504646
0.537518813158461,3.46510725785011,192.688088982596,189.222981724746,-98.076598120223,-92.8789372334478,190.955535353671
0.539668888411094,2.54039207729848,188.006906762036,185.466514684738,-95.2736494196673,-91.4630613037196,186.736710723387
0.541818963663728,1.32465777512638,182.973039612112,181.648381836985,-92.1488486936191,-90.1618620309296,182.310710724549
0.543969038916362,0.0443311391237902,177.673910294951,177.629579155827,-88.8591207170375,-88.7926240083518,177.651744725389
0.546119114168996,-1.08096968839022,172.262299839283,173.343269527673,-85.5906650754462,-87.2121196080315,172.802784683478
0.54826918942163,-1.87244013764539,166.908615432539,168.781055570184,-82.5180876474466,-85.3267478539147,167.844835501361
0.550419264674264,-2.2134202446181,161.741752056169,163.955172300787,-79.7641659057756,-83.0842962727027,162.848462178478
0.552569339926897,-2.05738007848449,156.802621593633,158.860001672117,-77.3726207575741,-80.4586908753008,157.831311632875
0.554719415179531,-1.42792097808854,152.030623287864,153.458544265953,-75.3013511548879,-77.4432326220207,152.744583776909
0.556869490432165,-0.416523242571397,147.290835801372,147.707359043943,-73.4371562794003,-74.0619411432574,147.499097422658
0.559019565684799,0.822890454873134,142.433237431828,141.610346976954,-71.6280639433504,-70.3937282610407,142.021792204391
0.561169640937433,2.08871338326063,137.360310840059,135.271597456798,-69.7245121116596,-66.5914420367686,136.315954148428
0.563319716190067,3.15932947610291,132.073389624081,128.914060147978,-67.6163595500921,-62.8773653359378,130.49372488603
0.5654697914427,3.83105177910377,126.676459396869,122.845407617765,-65.2537555879863,-59.5071779193307,124.760933507317
0.567619866695334,3.9598884767517,121.336186590307,117.376298113555,-62.6480375335294,-56.7082048184019,119.356242351931
0.569769941947968,3.49834475839417,116.217815810021,112.719471051626,-59.8580802842074,-54.6105631466161,114.468643430824
0.571920017200602,2.51459866187578,111.426378257262,108.911779595386,-56.9704884595689,-53.1985904667552,110.169078926324
0.574070092453236,1.18067058287226,106.976735989768,105.796065406896,-54.0787032863201,-52.3076974120117,106.386400698332
0.57622016770587,-0.273304753598284,102.799304582368,103.072609335966,-51.2629999143847,-51.6729570447821,102.935956959167
0.578370242958503,-1.62272121855994,98.7715981294742,100.394319348034,-48.5744384554571,-51.0085202832971,99.5829587387542
0.580520318211137,-2.70266648637554,94.7582389370413,97.4609054234168,-46.0277862253329,-50.0817859548962,96.1095721802291
0.582670393463771,-3.43232060607397,90.6452651963751,94.0775858024491,-43.6064722951506,-48.7549532042615,92.3614254994121
0.584820468716405,-3.80733676196897,86.362830537828,90.1701672997969,-41.2777468879295,-46.9887520308829,88.2664989188124
0.586970543969039,-3.87145822058712,81.8971256664768,85.768583887064,-39.0128337229449,-44.8200210538255,83.8328547767704
0.589120619221673,-3.68222710265263,77.294582746346,80.9768098489986,-36.8061778218467,-42.3295184758256,79.1356962976723
0.591270694474307,-3.28376590437764,72.6596161582566,75.9433820626343,-34.6879251269395,-39.6135739835059,74.3014991104454
0.59342076972694,-2.69523925119467,68.1434169361699,70.8386561873645,-32.7240888424876,-36.7669477192796,69.4910365617672
0.595570844979574,-1.91677308598476,63.9191096813746,65.8358827673593,-31.0011682976949,-33.876327926672,64.8774962243669
0.597720920232208,-0.947755192276604,60.1417280291752,61.0894832214518,-29.5969864184493,-31.0186192068642,60.6156056253135
0.599870995484842,0.191048737160713,56.9003174776176,56.7092687404569,-28.5456831073892,-28.2591100016481,56.8047931090372
0.602021070737476,1.4406553524386,54.17863937542,52.7379840229815,-27.8096473639293,-25.6486643352714,53.4583116992007
0.60417114599011,2.70093281806664,51.8430249793427,49.142092161276,-27.2719788987047,-23.2205796716047,50.4925585703094
0.606321221242743,3.84665321122564,49.6679933444064,45.8213401331807,-26.757323277816,-20.9873434609775,47.7446667387936
0.608471296495377,4.75767400478724,47.3957722497881,42.6380982450008,-26.0767231272876,-18.9402121201068,45.0169352473944
0.610621371748011,5.34756364123621,44.8108387938645,39.4632751526283,-25.0792012175504,-17.0578557556961,42.1370569732464
0.612771447000645,5.57552451755062,41.8011470666061,36.2256225490555,-23.6883357920784,-15.3250490157524,39.0133848078308
0.614921522253279,5.44060644766353,38.3804120842114,32.9398056365478,-21.9105092659374,-13.7495995944421,35.6601088603796
0.617071597505913,4.97095042274834,34.6628039114728,29.6918534887245,-19.8168771671106,-12.3604515329881,32.1773287000986
0.619221672758547,4.2203145514595,30.8038134063268,26.5834988548673,-17.5120639788932,-11.1815921517039,28.6936561305971
0.62137174801118,3.27155480712704,26.9346637289274,23.6631089218004,-15.1031092680272,-10.1957770573367,25.2988863253639
0.623521823263814,2.23604349506487,23.1164717560483,20.8804282609834,-12.6762576255566,-9.32219238295928,21.9984500085159
0.625671898516448,1.23973899543943,19.3293021948864,18.089563199447,-10.2845205951629,-8.42491210200379,18.7094326971667
0.627821973769082,0.398021762117601,15.4969747418341,15.0989529797165,-7.94749825197583,-7.35046560879943,15.2979638607753
0.629972049021716,-0.209862097393555,11.5348858454895,11.7447479428831,-5.66251187404798,-5.97730502013831,11.6398168941863
0.63212212427435,-0.557425104978339,7.39928136558599,7.95670647056433,-3.42092813030383,-4.25706578777134,7.67799391807516
0.634272199526983,-0.67576577703397,3.11646564916623,3.7922314262002,-1.22034993606613,-2.23399860161709,3.45434853768322
0.636422274779617,-0.646932894007121,-1.22031977621509,-0.573386882207964,0.933626335111103,-0.0367730058995781,-0.896853329211525
0.638572350032251,-0.586266074593295,-5.48403278629764,-4.89776671170434,3.03514943044547,2.15575031855552,-5.19089974900099
0.640722425284885,-0.615099862066681,-9.56090404923088,-8.9458041871642,5.08800195564878,4.16535216254876,-9.25335411819754
0.642872500537519,-0.827524662495364,-13.3893536134622,-12.5618289509668,7.10843913797878,5.86715214423573,-12.9755912822145
0.645022575790153,-1.25821457811541,-16.9744210139328,-15.7162064358173,9.11631779602409,7.22899592885097,-16.3453137248751
0.647172651042786,-1.86247994784724,-20.3756953900328,-18.5132154421856,11.11908766894,8.32536774716917,-19.4444554161092
0.64932272629542,-2.52085784987768,-23.6800673547623,-21.1592095048847,13.10046260232,9.31917582750349,-22.4196384298235
0.651472801548054,-3.07384419503441,-26.9743149670695,-23.9004707720351,15.024079581052,10.4133132885003,-25.4373928695523
0.653622876800688,-3.37863655467957,-30.3264505728349,-26.9478140181553,16.8525435637572,11.7845887317379,-28.6371322954951
0.655772952053322,-3.36598493745493,-33.7766672159362,-30.4106822784812,18.5713260766955,13.5223486705132,-32.0936747472087
0.657923027305956,-3.07034785296019,-37.3347453096157,-34.2643974566555,20.2025465812879,15.5970248018476,-35.7995713831356
0.66007310255859,-2.61655475770547,-40.9805690007078,-38.3640142430023,21.7985618792066,17.8737297426484,-39.672291621855
0.662223177811223,-2.16769438556057,-44.6662788750687,-42.4985844895081,23.4169866303146,20.1654450519738,-43.5824316822884
0.664373253063857,-1.85825865781707,-48.3215889903542,-46.4633303325372,25.0899238240857,22.3025358373601,-47.3924596614457
0.666523328316491,-1.7416606501467,-51.8648671546523,-50.1232065045056,26.8032639023995,24.1907729271794,-50.9940368295789
0.668673403569125,-1.77250652550552,-55.219926034081,-53.4474195085755,28.4962162797933,25.837456491535,-54.3336727713283
0.670823478821759,-1.82914843677258,-58.3356226953676,-56.506474258595,30.0823855660701,27.3386629109112,-57.4210484769813
0.672973554074393,-1.76688420612282,-61.2050998198154,-59.4382156136926,31.4859920129691,28.8356657037849,-60.321657716754
0.675123629327026,-1.48038546059523,-63.8806617197674,-62.4002762591722,32.6805235901813,30.4599453992885,-63.1404689894698
0.67727370457966,-0.949782898757827,-66.4767897043158,-65.5270068055579,33.7132863015368,32.2886119534001,-66.0018982549369
0.679423779832294,-0.251433215841864,-69.1526387179529,-68.901205502111,34.7020359668974,34.3248861431346,-69.026922110032
0.681573855084928,0.470058162335911,-72.0719948312914,-72.5420529936273,35.8009683344777,36.5060555779816,-72.3070239124594
0.683723930337562,1.05494918608566,-75.3512381780786,-76.4061873641643,37.1481444959965,38.730568275125,-75.8787127711214
0.685874005590196,1.38327737577406,-79.0160484458701,-80.3993258216442,38.816385535048,40.8913015987091,-79.7076871337571
0.68802408084283,1.4102833032797,-82.9872629332655,-84.3975462365452,40.7884898149929,42.9039147699125,-83.6924045849054
0.690174156095463,1.17257110459947,-87.1042743959013,-88.2768455005008,42.9658516456509,44.7247083025501,-87.690559948201
0.692324231348097,0.768826181533569,-91.1773864418185,-91.9462126233521,45.2042801301425,46.3575194024428,-91.5617995325853
0.694474306600731,0.327018918494859,-95.0472343699563,-95.3742532884512,47.3601077257307,47.850636103473,-95.2107438292038
0.696624381853365,-0.0291055797427656,-98.6258054629727,-98.59669988323,49.3274555213578,49.2837971517436,-98.6112526731014
0.698774457105999,-0.20405153591782,-101.902971126666,-101.698919590748,51.0535113312917,50.747434027415,-101.800945358707
0.700924532358633,-0.138743181614951,-104.921718485516,-104.782975303901,52.5302308335655,52.3221160611431,-104.852346894709
0.703074607611266,0.196140473033993,-107.742339756494,-107.938480229528,53.7730996417299,54.0673103512809,-107.840409993011
0.7052246828639,0.810035422245693,-110.417938711164,-111.22797413341,54.8039516444591,56.0190047778276,-110.822956422287
0.707374758116534,1.68941109166866,-112.990367271841,-114.67977836351,55.6504780900863,58.1845947275893,-113.835072817676
0.709524833369168,2.77655612350779,-115.499704290115,-118.276260413623,56.3615740833037,60.5264082685654,-116.887982351869
0.711674908621802,3.94528529982139,-117.993840998117,-121.939126297939,57.024277849148,62.9422057988801,-119.966483648028
0.713824983874436,4.99923211911642,-120.528692380628,-125.527924499744,57.7647301307556,65.2635783094302,-123.028308440186
0.715975059127069,5.7090806529001,-123.157221585975,-128.866302238875,58.7240704665375,67.2876914458877,-126.011761912425
0.718125134379703,5.88317517283547,-125.91171110528,-131.794886278116,60.0142679662225,68.8390307254757,-128.853298691698
0.720275209632337,5.44511562886944,-128.787486503534,-134.232602132404,61.6711854373325,69.8388588806366,-131.510044317969
0.722425284884971,4.48257782126541,-131.736853935142,-136.219431756408,63.6271380569385,70.3510047888366,-133.978142845775
0.724575360137605,3.23959099253592,-134.678246746552,-137.917837739088,65.7193278770081,70.578714365812,-136.29804224282
0.726725435390239,2.04835041712375,-137.518946996168,-139.567297413292,67.7352982895221,70.8078239152077,-138.54312220473
0.728875510642872,1.22445798475311,-140.183847834624,-141.408305819377,69.4796949249356,71.3163819020652,-140.796076827001
0.731025585895506,0.965599601622574,-142.639609724,-143.605209325623,70.8370050611889,72.2854044636228,-143.122409524812
0.73317566114814,1.29072608633871,-144.903725963269,-146.194452049608,71.8064999384651,73.7425890679731,-145.549089006438
0.735325736400774,2.03932139074599,-147.032995130252,-149.072316520998,72.496836869753,75.555818955872,-148.052655825625
0.737475811653408,2.92783811990508,-149.095864953305,-152.02370307321,73.0840134167,77.4757705965576,-150.559784013258
0.739625886906042,3.64137038599364,-151.142352566978,-154.783722952972,73.7504910904921,79.2125466694826,-152.963037759975
0.741775962158675,3.92865100512669,-153.186181856605,-157.114832861732,74.6287654257393,80.5217419334294,-155.150507359169
0.743926037411309,3.66909924359628,-155.205808681363,-158.874907924959,75.7683547188834,81.2720035842778,-157.040358303161
0.746076112663943,2.89177197246067,-157.160751493369,-160.052523465829,77.134489760454,81.472147719145,-158.606637479599
0.748226187916577,1.74619805825595,-159.01336925239,-160.759567310646,78.6335855970672,81.2528826844511,-159.886468281518
0.750376263169211,0.445301590783644,-160.745855128495,-161.191156719279,80.1502767688557,80.8182291550311,-160.968505923887
0.752526338421845,-0.793239556031577,-162.366518917275,-161.573279361243,81.5798792366533,80.390019902606,-161.969899139259
0.754676413674479,-1.79196342546661,-163.905251782469,-162.113288357002,82.8486076039677,80.1606624657678,-163.009270069735
0.756826488927112,-2.44339793154588,-165.40238128576,-162.958983354214,83.922889608653,80.2577927113342,-164.180682319987
0.758976564179746,-2.72491787259958,-166.897332126412,-164.172414253812,84.8111249995058,80.7237481906064,-165.534873190112
0.76112663943238,-2.69344469732304,-168.423332725797,-165.729888028474,85.5583887115601,81.5182216655756,-167.076610377136
0.763276714685014,-2.45657216972781,-170.010105486206,-167.553533316478,86.233338827967,82.5484805733752,-168.781819401342
0.765426789937648,-2.12827647127665,-171.689071215723,-169.560794744446,86.9086738434998,83.7162591365848,-170.624932980085
0.767576865190282,-1.78764669970171,-173.491556841215,-171.703910141514,87.6396017704585,84.9581317209059,-172.597733491364
0.769726940442915,-1.45907316512349,-175.435769100378,-173.976695935255,88.4474211327509,86.2588113850656,-174.706232517817
0.771877015695549,-1.12195810233735,-177.509932150288,-176.387974047951,89.3159451263128,87.6330079728068,-176.94895309912
0.774027090948183,-0.743083388824624,-179.665699403598,-178.922616014773,90.2043913962113,89.0897663129744,-179.294157709186
0.776177166200817,-0.313326284965153,-181.829935593358,-181.516609308393,91.0716309391614,90.6016415117137,-181.673272450875
0.778327241453451,0.131376318168664,-183.929537366845,-184.060913685013,91.8990805243381,92.0961450015911,-183.995225525929
0.780477316706085,0.516234959092466,-185.915476379497,-186.431711338589,92.6996207102021,93.4739731488408,-186.173593859043
0.782627391958719,0.758197626970855,-187.774221424821,-188.532419051792,93.5080118989249,94.6453083393812,-188.153320238306
0.784777467211352,0.805999305326356,-189.522553585562,-190.328552890888,94.3582771401177,95.5672760981072,-189.925553238225
0.786927542463986,0.669882500275063,-191.189384616592,-191.859267116867,95.2597510581583,96.2645748085709,-191.524325866729
0.78907761771662,0.424721123897943,-192.793657641086,-193.218378764984,96.1844682585939,96.8215499444408,-193.006018203035
0.791227692969254,0.181783153698177,-194.330304773281,-194.512087926979,97.0742608097913,97.3469355403386,-194.42119635013
0.793377768221888,0.0409970311394413,-195.773888166851,-195.81488519799,97.8664455678556,97.9279411145647,-195.79438668242
0.795527843474522,0.0483034826212961,-197.100267538553,-197.148571021175,98.5259820279661,98.598437251898,-197.124419279864
0.797677918727155,0.181080397738111,-198.315260565322,-198.49634096306,99.067090083792,99.3387106803992,-198.405800764191
0.799827993979789,0.367914412187194,-199.474210700328,-199.842125112516,99.5531481440706,100.105019762351,-199.658167906422
0.801978069232423,0.528149717085679,-200.680462843123,-201.208612560209,100.076156563019,100.868381138647,-200.944537701666
0.804128144485057,0.606323386232816,-202.059826343121,-202.666149729354,100.726751478444,101.636236557793,-202.362988036237
0.806278219737691,0.584653980404235,-203.718023735187,-204.302677715591,101.566684877391,102.443665847998,-204.010350725389
0.808428294990325,0.476207586759508,-205.696872921286,-206.173080508045,102.610332667263,103.324644047402,-205.934976714666
0.810578370242958,0.313904878525705,-207.94854266471,-208.262447543235,103.817318893092,104.288176210881,-208.105495103973
0.812728445495592,0.14523117704422,-210.34080452756,-210.486035704605,105.097786675258,105.315633440824,-210.413420116083
0.814878520748226,0.0286198452722214,-212.691980455153,-212.720600300425,106.33168030494,106.374610072849,-212.706290377789
0.81702859600086,0.0220718826400596,-214.822286099886,-214.844357982526,107.400107108623,107.433214932583,-214.833322041206
0.819178671253494,0.162386294725171,-216.604998534444,-216.767384829169,108.221306119859,108.464885561947,-216.686191681807
0.821328746506128,0.444872588875851,-218.002887384427,-218.447759973303,108.779007397776,109.446316281089,-218.225323678865
0.823478821758762,0.817060416857604,-219.078303049843,-219.895363466701,109.130621316493,110.356211941779,-219.486833258272
0.825628897011395,1.19199875076903,-219.971708635127,-221.163707385896,109.389854942179,111.177853068332,-220.567708010511
0.827778972264029,1.47421367694602,-220.85535700522,-222.329570682166,109.690571664137,111.901892179556,-221.592463843693
0.829929047516663,1.58616351275258,-221.880180379616,-223.466343892369,110.147008433432,112.526253702561,-222.673262135993
0.832079122769297,1.4887269547168,-223.136548214653,-224.62527516937,110.823910629968,113.057001062043,-223.880911692011
0.834229198021931,1.19601248046886,-224.641894242563,-225.837906723032,111.722940881047,113.51695960175,-225.239900482797
0.836379273274565,0.782492225419073,-226.354840660723,-227.137332886142,112.786174217652,113.959912555781,-226.746086773432
0.838529348527198,0.373478199940694,-228.202709853733,-228.576188053674,113.914615826896,114.474833126807,-228.389448953704
0.840679423779832,0.111326788794849,-230.10429572414,-230.215622512935,114.996484467673,115.163474650865,-230.159959118538
0.842829499032466,0.103462140438283,-231.976522236618,-232.079984377057,115.93653004809,116.091723258747,-232.028253306837
0.8449795742851,0.373764768352659,-233.727489717867,-234.101254486219,116.676862474757,117.237509627286,-233.914372102043
0.847129649537734,0.842405841364533,-235.249026599053,-236.091432440418,117.203310378844,118.466919140891,-235.670229519735
0.849279724790368,1.34691669785271,-236.423039483405,-237.769956181258,117.538061392776,119.558436439555,-237.096497832332
0.851429800043002,1.69721791113213,-237.148552289209,-238.845770200341,117.725667189038,120.271494055737,-237.997161244775
0.853579875295635,1.74196982878113,-237.383281309951,-239.125251138733,117.820655740585,120.433610483757,-238.254266224342
0.855729950548269,1.42014123609935,-237.179717063425,-238.599858299525,117.879787913663,120.009999767812,-237.889787681475
0.857880025800903,0.778756042790248,-236.690973117395,-237.469729160186,117.956108537303,119.124242601488,-237.08035113879
0.860030101053537,-0.0492025730451659,-236.134550397948,-236.085347824903,118.091876485497,118.018072625929,-236.109949111426
0.862180176306171,-0.897212108528727,-235.727135819744,-234.829923711215,118.312173964136,116.966355801343,-235.27852976548
0.864330251558804,-1.62520037931665,-235.622270711953,-233.997070332637,118.623735545635,116.18593497666,-234.809670522295
0.866480326811438,-2.16038019281498,-235.880785665328,-233.720405472513,119.020582929072,115.780012639849,-234.800595568921
0.868630402064072,-2.501550556686,-236.484020994853,-233.982470438167,119.49278577577,115.740459940741,-235.23324571651
0.870780477316706,-2.68897000529179,-237.377211967683,-234.688241962391,120.033090986487,115.99963597855,-236.032726965037
0.87293055256934,-2.76067188584245,-238.518187830125,-235.757515944283,120.639429857984,116.49842202922,-237.137851887204
0.875080627821974,-2.72125095603303,-239.907887985641,-237.186637029608,121.314569470837,117.232693036788,-238.547262507625
0.877230703074608,-2.53769999595801,-241.589631083609,-239.051931087651,122.063665539783,118.257115545846,-240.32078108563
0.879380778327241,-2.16010709329911,-243.617711344924,-241.457604251625,122.888909219112,119.648748579163,-242.537657798275
0.881530853579875,-1.55535533176542,-246.008888541564,-244.453533209798,123.782121936665,121.449088939016,-245.231210875681
0.883680928832509,-0.739574564594933,-248.698999963345,-247.95942539875,124.71928726397,123.609925417078,-248.329212681048
0.885831004085143,0.205558328186965,-251.5264965713,-251.732054899487,125.660469121556,125.968806613837,-251.629275735393
0.887981079337777,1.14474718967365,-254.253481817976,-255.39822900765,126.554367314151,128.271488098662,-254.825855412813
0.890131154590411,1.92996064407533,-256.618114711249,-258.548075355325,127.344077033587,130.2390179997,-257.583095033287
0.892281229843044,2.45494082428303,-258.399304876743,-260.854245701026,127.97218202623,131.654593262655,-259.626775288884
0.894431305095678,2.69813373898186,-259.471364723444,-262.169498462426,128.386615492231,132.433816100704,-260.820431592935
0.896581380348312,2.73195270519678,-259.832218556824,-262.56417126202,128.550132925813,132.648061983609,-261.198194909422
0.898731455600946,2.6910944951575,-259.5999235871,-262.291018082258,128.454414545971,132.491056288708,-260.945470834679
0.90088153085358,2.71227669120572,-258.983140333933,-261.695417025139,128.135431821364,132.203846858172,-260.339278679536
0.903031606106214,2.87248395036988,-258.236349714422,-261.108833664792,127.681932882026,131.990658807581,-259.672591689607
0.905181681358847,3.15428818665612,-257.609672442475,-260.763960629132,127.22769212791,131.959124407894,-259.186816535804
0.907331756611481,3.45329920523177,-257.30141021875,-260.754709423981,126.924055506759,132.104004314607,-259.028059821366
0.909481831864115,3.62115548658843,-257.421823710599,-261.042979197187,126.900334112005,132.332067341888,-259.232401453893
0.911631907116749,3.52078035525845,-257.976132451892,-261.496912807151,127.227676048317,132.508846581205,-259.736522629521
0.913781982369383,3.0696747805897,-258.870724962535,-261.940399743124,127.900525090972,132.505037261857,-260.405562352829
0.915932057622017,2.26016897517245,-259.940829405927,-262.200998381099,128.840330215377,132.230583678136,-261.070913893513
0.918082132874651,1.15970592154644,-260.992808452571,-262.152514374117,129.916551265512,131.656110147832,-261.572661413344
0.920232208127284,-0.101751219622922,-261.851029146259,-261.749277926636,130.976390182941,130.823763353507,-261.800153536448
0.922382283379918,-1.35436830197678,-262.399025525595,-261.044657223618,131.876696913786,129.845144460821,-261.721841374606
0.924532358632552,-2.42084585662948,-262.6073138126,-260.186467955971,132.514079834615,128.882811049671,-261.396890884286
0.926682433885186,-3.15437495307254,-262.543401378955,-259.389026425882,132.848888166014,128.117325736405,-260.966213902418
0.92883250913782,-3.47220575395741,-262.361084504544,-258.888878750586,132.91664512925,127.708336498314,-260.624981627565
0.930982584390454,-3.37355756408443,-262.267401585869,-258.893844021784,132.820479574977,127.76014322885,-260.580622803827
0.933132659643087,-2.935568182857,-262.470553547412,-259.534985364555,132.703060865134,128.299708590849,-261.002769455983
0.935282734895721,-2.28957825629327,-263.121074194754,-260.831495938461,132.705326225524,129.270958841084,-261.976285066608
0.937432810148355,-1.58713468179685,-264.265306300473,-262.678171618677,132.926220491135,130.54551846844,-263.471738959575
0.939582885400989,-0.966984358464407,-265.828446686638,-264.861462328174,133.397715522551,131.947238984855,-265.344954507406
0.941732960653623,-0.531287283527942,-267.634315537959,-267.103028254431,134.082801410743,133.285870485451,-267.368671896195
0.943883035906257,-0.334414896343777,-269.455678231691,-269.121263335347,134.895046564017,134.393424219502,-269.288470783519
0.946033111158891,-0.384120216415569,-271.077643245693,-270.693523029278,135.730881731054,135.154701406431,-270.885583137485
0.948183186411524,-0.652424652007381,-272.351951542939,-271.699526890931,136.502188097473,135.523551119462,-272.025739216935
0.950333261664158,-1.0901392702332,-273.225014668921,-272.134875398688,137.157576969577,135.522368064227,-272.679945033805
0.952483336916792,-1.63671818088808,-273.734891096387,-272.098172915499,137.685804638637,135.230727367305,-272.916532005943
0.954633412169426,-2.22135309000242,-273.984124787743,-271.762771697741,138.102738938873,134.770709303869,-272.873448242742
0.95678348742206,-2.76032690730353,-274.101286530692,-271.340959623389,138.430806718998,134.290316358043,-272.72112307704
0.958933562674694,-3.16053080347035,-274.20487131825,-271.044340514779,138.68270106086,133.941904855655,-272.624605916515
0.961083637927327,-3.33452828627369,-274.379501276541,-271.044972990268,138.857014781408,133.855222351997,-272.712237133405
0.963233713179961,-3.223865985438,-274.665875013686,-271.442009028248,138.944870499562,134.109071521405,-273.053942020967
0.965383788432595,-2.82199844279391,-275.058072352289,-272.236073909495,138.940035397541,134.707037733351,-273.647073130892
0.967533863685229,-2.18679966601134,-275.502871521123,-273.316071855112,138.844835593567,135.56463609455,-274.409471688117
0.969683938937863,-1.43344432564485,-275.904347449111,-274.470903123466,138.668895887378,136.518729398911,-275.187625286289
0.971834014190497,-0.70438811502433,-276.142229719369,-275.437841604344,138.423308917197,137.36672674466,-275.790035661857
0.97398408944313,-0.125496816988684,-276.107445848504,-275.981949031515,138.116471332746,137.928226107263,-276.04469744001
0.976134164695764,0.231808896717814,-275.746818250681,-275.978627147399,137.757504676982,138.105218022058,-275.86272269904
0.978284239948398,0.363425379361701,-275.099335964285,-275.462761343647,137.367955292462,137.913093361504,-275.281048653966
0.980434315201032,0.315376033113702,-274.305156648925,-274.620532682039,136.994890307906,137.467954357576,-274.462844665482
0.982584390453666,0.148889249037432,-273.577484356193,-273.72637360523,136.714297553578,136.937631427134,-273.651928980711
0.9847344657063,-0.091592582864164,-273.142942501328,-273.051349918464,136.617267542096,136.4798786678,-273.097146209896
0.986884540958934,-0.392739023654019,-273.170504873626,-272.777765849972,136.78162194864,136.192513413159,-272.974135361799
0.989034616211567,-0.767183264328591,-273.715435902711,-272.948252638383,137.24130958352,136.090534687027,-273.331844270547
0.991184691464201,-1.23509439419735,-274.69936849452,-273.464274100323,137.967231444359,136.114589853063,-274.081821297422
0.993334766716835,-1.79921029410163,-275.933139706708,-274.133929412606,138.866175000405,136.167359559252,-275.033534559657
0.995484841969469,-2.42102014347565,-277.173539855957,-274.752519712481,139.797279999716,136.165749784503,-275.963029784219
0.997634917222103,-3.01029273823981,-278.194988881705,-275.184696143465,140.602640809972,136.087201702613,-276.689842512585
0.999784992474737,-3.43954849385356,-278.852379737029,-275.412831243176,141.145964115442,135.986641374661,-277.132605490103
1.00193506772737,-3.58327109145024,-279.112315521784,-275.529044430333,141.347793306617,135.972886669442,-277.320679976058
1.00408514298,-3.3669446834385,-279.040817642088,-275.673872958649,141.203881162763,136.153464137605,-277.357345300368
1.00623521823264,-2.80511334208542,-278.755232628576,-275.950119286491,140.780172985331,136.572502972203,-277.352675957533
1.00838529348527,-2.01214919518574,-278.365019486914,-276.352870291728,140.18858434105,137.170360548271,-277.358944889321
1.01053536873791,-1.17950861173564,-277.928521427892,-276.749012816157,139.554015019814,137.784752102211,-277.338767122025
1.01268544399054,-0.525417125312631,-277.440818046417,-276.915400921104,138.983117585865,138.194991897896,-277.178109483761
1.01483551924317,-0.233527283958191,-276.851655656818,-276.618128372859,138.542591470388,138.192300544451,-276.734892014839
1.01698559449581,-0.401353047167586,-276.101084093435,-275.699731046267,138.251218570301,137.64918899955,-275.900407569851
1.01913566974844,-1.01523107043436,-275.155553143511,-274.140322073077,138.085392106973,136.562545501321,-274.647937608294
1.02128574500108,-1.95863676963417,-274.028520655668,-272.069883886034,137.993578712651,135.0556235582,-273.049202270851
1.02343582025371,-3.04899174238186,-272.777982739512,-269.72899099713,137.913487240947,133.339999627374,-271.253486868321
1.02558589550634,-4.08849657034755,-271.486472939159,-267.397976368811,137.787484754753,131.654739899232,-269.442224653985
1.02773597075898,-4.91071018432862,-270.239061851087,-265.328351666759,137.574886017708,130.208820741215,-267.783706758923
1.02988604601161,-5.40880413437063,-269.11408605949,-263.705281925119,137.26144509693,129.148238895374,-266.409683992305
1.03203612126424,-5.54156980104208,-268.1896953858,-262.648125584758,136.865632593421,128.553277891858,-265.418910485279
1.03418619651688,-5.3230155743574,-267.554646655277,-262.23163108092,136.438831114817,128.454307753281,-264.893138868099
1.03633627176951,-4.80524855028788,-267.304429356039,-262.499180805751,136.054838953163,128.846966127732,-264.901805080895
1.03848634702215,-4.06231136607533,-267.510827271098,-263.448515905022,135.786569318586,129.693102269473,-265.47967158806
1.04063642227478,-3.17836181555075,-268.172750826925,-264.994389011374,135.675556321238,130.908013597912,-266.58356991915
1.04278649752741,-2.23951293250089,-269.175745583463,-266.936232650962,135.707629257982,132.348359859231,-268.055989117213
1.04493657278005,-1.32589620984905,-270.290536750457,-268.964640540607,135.808216480153,133.819372165379,-269.627588645532
1.04708664803268,-0.500856564626325,-271.222350345223,-270.721493780597,135.861603454925,135.110318607985,-270.97192206291
1.04923672328532,0.201268035893445,-271.694776329399,-271.896044365292,135.746754146753,136.048656200593,-271.795410347345
1.05138679853795,0.781426857261071,-271.53317136894,-272.314598226201,135.37587225584,136.548012541731,-271.923884797571
1.05353687379058,1.26791211291005,-270.713374018263,-271.981286131174,134.722730952677,136.624599122042,-271.347330074719
1.05568694904322,1.69367048126407,-269.358749944755,-271.052420426019,133.832539731745,136.373045453641,-270.205585185387
1.05783702429585,2.06999198614413,-267.69124629516,-269.761238281304,132.810627154508,135.915615133724,-268.726242288232
1.05998709954848,2.37255240662528,-265.959600240835,-268.33215264746,131.793523917105,135.352352527043,-267.145876444148
1.06213717480112,2.54803398352443,-264.373666602765,-266.92170058629,130.91281630962,134.734867284907,-265.647683594528
1.06428725005375,2.53582788906238,-263.066564354956,-265.602392244018,130.265368232947,134.06911006654,-264.334478299487
1.06643732530639,2.29237914818795,-262.091116037348,-264.383495185536,129.89936844458,133.337937166862,-263.237305611442
1.06858740055902,1.80913817205845,-261.442725692771,-263.25186386483,129.816793760356,132.530501018444,-262.347294778801
1.07073747581165,1.12065765015339,-261.092564451066,-262.21322210122,129.985953400456,131.666939875686,-261.652893276143
1.07288755106429,0.301633580606619,-261.012867138561,-261.314500719167,130.355616778977,130.808067149887,-261.163683928864
1.07503762631692,-0.546465713183434,-261.181080032511,-260.634614319328,130.863772872847,130.044074303072,-260.90784717592
1.07718770156955,-1.31586340776904,-261.562561114239,-260.24669770647,131.439212261004,129.46541714935,-260.904629410354
1.07933777682219,-1.91543723533082,-262.086673090569,-260.171235855238,132.00105516295,129.127899309954,-261.128954472903
1.08148785207482,-2.29029288371306,-262.637070241445,-260.346777357732,132.463681562579,129.028242237009,-261.491923799588
1.08363792732746,-2.42967857943639,-263.06858727552,-260.638908696084,132.749132927478,129.104615058324,-261.853747985802
1.08578800258009,-2.35695647237092,-263.246858988131,-260.88990251576,132.801907730251,129.266473021694,-262.068380751945
1.08793807783272,-2.10517623183682,-263.09344154849,-260.988265316654,132.599308890164,129.441544542408,-262.040853432572
1.09008815308536,-1.69260385848801,-262.615271754276,-260.922667895788,132.153937806382,129.61503201865,-261.768969825032
1.09223822833799,-1.11425166141817,-261.903511596288,-260.78925993487,131.508881628853,129.837504136726,-261.346385765579
1.09438830359063,-0.35579027709129,-261.100421118142,-260.74463084105,130.728105697616,130.194420281979,-260.922525979596
1.09653837884326,0.577838027981192,-260.348294498328,-260.926132526309,129.885228235173,130.751985277145,-260.637213512318
1.09868845409589,1.63566020346202,-259.74356297223,-261.379223175692,129.053951384384,131.507441689577,-260.561393073961
1.10083852934853,2.71104489344092,-259.315760525347,-262.026805418788,128.302357815953,132.368925156115,-260.671282972068
1.10298860460116,3.65560969107835,-259.036806883678,-262.692416574756,127.6905985963,133.174013132917,-260.864611729217
1.10513867985379,4.3127809888952,-258.84973678091,-263.162517769806,127.268477896008,133.73764937935,-261.006127275358
1.10728875510643,4.55907304861301,-258.69685454385,-263.255927592463,127.068890747619,133.907500320538,-260.976391068157
1.10943883035906,4.33722967850212,-258.53013002341,-262.867359701912,127.096450172454,133.602294690207,-260.698744862661
1.1115889056117,3.66906199875443,-258.300505258844,-261.969567257599,127.315721630045,132.819314628177,-260.135036258221
1.11373898086433,2.64662654084292,-257.939783253907,-260.58640979475,127.646578356532,131.616518167797,-259.263096524329
1.11588905611696,1.40984627555411,-257.356322627556,-258.76616890311,127.973238176001,130.088007589332,-258.061245765333
1.1180391313696,0.120384489103908,-256.457152642081,-256.577537131185,128.168384076488,128.348960810144,-256.517344886633
1.12018920662223,-1.06162183390408,-255.191384216785,-254.129762382881,128.126503025345,126.534070274489,-254.660573299833
1.12233928187487,-1.9954006600036,-253.595641434537,-251.600240774534,127.795521047271,124.802420057265,-252.597941104536
1.1244893571275,-2.57398145025896,-251.818156956374,-249.244175506115,127.196069203317,123.335097027928,-250.531166231245
1.12663943238013,-2.73972086808989,-250.104102181498,-247.364381313408,126.421911524794,122.312330222659,-248.734241747453
1.12878950763277,-2.50120809752082,-248.738284892785,-246.237076795264,125.619746495153,121.867934348872,-247.487680844025
1.1309395828854,-1.94402471227041,-247.958294874734,-246.014270162464,124.951159793502,122.035122725097,-246.986282518599
1.13308965813803,-1.22501285820312,-247.866108826435,-246.641095968232,124.545560842319,122.708041555015,-247.253602397334
1.13523973339067,-0.544444267608157,-248.37371936876,-247.829275101152,124.459081818184,123.642415416772,-248.101497234956
1.1373898086433,-0.0990604236164874,-249.212329639583,-249.113269215967,124.6556950316,124.507104396175,-249.162799427775
1.13953988389594,-0.0284380871489238,-250.011308523992,-249.982870436843,125.01987330557,124.977216174847,-249.997089480417
1.14168995914857,-0.373829680333456,-250.420151586231,-250.046321905897,125.396990633282,124.836246112782,-250.233236746064
1.1438400344012,-1.06613789497595,-250.22372023592,-249.157582340944,125.644929065448,124.045722222984,-249.690651288432
1.14599010965384,-1.94723138313158,-249.403742826912,-247.45651144378,125.675487105022,122.754640030324,-248.430127135346
1.14814018490647,-2.81558290285752,-248.125394211454,-245.309811308596,125.470488557156,121.247114202869,-246.717602760025
1.15029026015911,-3.48156954901112,-246.660271205535,-243.178701656524,125.070920377273,119.848566053756,-244.91948643103
1.15244033541174,-3.81774979043261,-245.280282491462,-241.462532701029,124.549016140947,118.822391455298,-243.371407596246
1.15459041066437,-3.78957005155347,-244.163319076566,-240.373749025013,123.97644456406,118.29208948673,-242.26853405079
1.15674048591701,-3.45425296404474,-243.342187718606,-239.887934754562,123.398220341326,118.216840895258,-241.615061236584
1.15889056116964,-2.92652235093241,-242.709864686303,-239.783342335371,122.818193518618,118.428409992219,-241.246603510837
1.16104063642227,-2.32703320304247,-242.073931076046,-239.746897873004,122.200482139544,118.709932334981,-240.910414474525
1.16319071167491,-1.73958871976059,-241.236439700589,-239.496850980828,121.488014210175,118.878631130534,-240.366645340708
1.16534078692754,-1.19721797862123,-240.067710173773,-238.870492195152,120.632464076197,118.836637108265,-239.469101184463
1.16749086218018,-0.699793838656947,-238.548243568277,-237.84844972962,119.624018703467,118.574327945482,-238.198346648949
1.16964093743281,-0.247827383480271,-236.769969401122,-236.522142017642,118.508898392301,118.137157317081,-236.646055709382
1.17179101268544,0.132645732686823,-234.905558741261,-235.038204473948,117.386456504287,117.585425103317,-234.971881607605
1.17394108793808,0.393116967713926,-233.161989190287,-233.555106158001,116.384436111287,116.974111562858,-233.358547674144
1.17609116319071,0.491463952899131,-231.731679979474,-232.223143932373,115.620108013287,116.357303942636,-231.977411955924
1.17824123844335,0.423949802283553,-230.749222663777,-231.173172466061,115.162636430747,115.798561134172,-230.961197564919
1.18039131369598,0.236272697313,-230.259561860133,-230.495834557446,115.01164458141,115.36605362738,-230.37769820879
1.18254138894861,0.00790076152222417,-230.203420034741,-230.211320796264,115.09775963661,115.109610778893,-230.207370415503
1.18469146420125,-0.176377215151882,-230.42476569892,-230.248388483768,115.300571457036,115.036005634308,-230.336577091344
1.18684153945388,-0.249776177002901,-230.70177664966,-230.452000472657,115.475776413332,115.101112147827,-230.576888561159
1.18899161470651,-0.174780524554024,-230.79696647939,-230.622185954836,115.485873501972,115.223702715141,-230.709576217113
1.19114168995915,0.0526492563160812,-230.515237233249,-230.567886489565,115.231293988466,115.31026787294,-230.541561861407
1.19329176521178,0.399265485632476,-229.753563157905,-230.152828643538,114.677148836137,115.276047064585,-229.953195900722
1.19544184046442,0.792283437845267,-228.525750617186,-229.318034055031,113.86673358967,115.055158746438,-228.921892336109
1.19759191571705,1.12719567784191,-226.951960570263,-228.079156248105,112.912382446211,114.603175962974,-227.515558409184
1.19974199096968,1.29178358384558,-225.215403726213,-226.507187310059,111.961810071184,113.899485446952,-225.861295518136
1.20189206622232,1.20130748322879,-223.503396649739,-224.704704132967,111.151044583255,112.953005808098,-224.104050391353
1.20404214147495,0.830595489071257,-221.957555881851,-222.788151370922,110.56348019639,111.809373429997,-222.372853626387
1.20619221672759,0.229760657602743,-220.651808166521,-220.881568824124,110.211023754459,110.555664740863,-220.766688495322
1.20834229198022,-0.481739618696037,-219.600761029477,-219.119021410781,110.041250324086,109.318640896042,-219.359891220129
1.21049236723285,-1.14124868266083,-218.78567703716,-217.644428354499,109.96346285991,108.251589835919,-218.215052695829
1.21264244248549,-1.58385469489744,-218.179642108183,-216.595787413286,109.88174840154,107.505966359194,-217.387714760735
1.21479251773812,-1.68804968964684,-217.758419520554,-216.070369830907,109.7232346051,107.19116007063,-216.91439467573
1.21694259299075,-1.41138674817037,-217.493780786686,-216.082394038515,109.452583767428,107.335503645172,-216.7880874126
1.21909266824339,-0.802717150404855,-217.336477258479,-216.533760108074,109.069597204442,107.865521478835,-216.935118683277
1.22124274349602,0.012889331587465,-217.202796790165,-217.215686121753,108.594953729289,108.61428772667,-217.209241455959
1.22339281874866,0.869057387591566,-216.978048030287,-217.847105417879,108.054495321348,109.358081402735,-217.412576724083
1.22554289400129,1.60012196802172,-216.540906673037,-218.141028641059,107.470392352508,109.87057530454,-217.340967657048
1.22769296925392,2.07904454801238,-215.799427311793,-217.878471859805,106.86019138189,109.978758203909,-216.838949585799
1.22984304450656,2.24374226929573,-214.721388228347,-216.965130497643,106.238822979526,109.604436383469,-215.843259362995
1.23199311975919,2.10737999301581,-213.343548894563,-215.450928887578,105.618084450773,108.779154440297,-214.397238891071
1.23414319501183,1.75071537037684,-211.754541985095,-213.505257355472,105.001913307359,107.627986362924,-212.629899670283
1.23629327026446,1.29794681374052,-210.0587051387,-211.356651952441,104.38037916248,106.327299383091,-210.707678545571
1.23844334551709,0.881730829940252,-208.337673998823,-209.219404828763,103.727971584441,105.050567829352,-208.778539413793
1.24059342076973,0.605787208517381,-206.628629102114,-207.234416310631,103.011420946798,103.920101759574,-206.931522706373
1.24274349602236,0.514182100776916,-204.929915595082,-205.444097695859,102.207866747152,102.979139898318,-205.18700664547
1.24489357127499,0.577331365588346,-203.229197097457,-203.806528463046,101.325932865934,102.191929914317,-203.517862780251
1.24704364652763,0.704212940640295,-201.535938297482,-202.240151238123,100.415862678421,101.472182089381,-201.888044767803
1.24919372178026,0.781750006057057,-199.897714670481,-200.679464676539,99.5579823322122,100.730607341298,-200.28858967351
1.2513437970329,0.726332511926939,-198.389403959124,-199.11573647105,98.8315357235983,99.9210344914887,-198.752570215087
1.25349387228553,0.52126960006494,-197.079202764497,-197.600472364562,98.2789665822161,99.0608709823135,-197.33983756453
1.25564394753816,0.219907412787374,-195.987564836014,-196.207472248802,97.8838287116135,98.2136898307945,-196.097518542408
1.2577940227908,-0.084900205002016,-195.059481814664,-194.974581609662,97.5721910098329,97.4448407023299,-195.017031712163
1.25994409804343,-0.304752861897697,-194.165897360457,-193.861144498559,97.2353251111772,96.7781958183307,-194.013520929508
1.26209417329607,-0.389543618860734,-193.138369184903,-192.748825566043,96.763956401882,96.1796409735909,-192.943597375473
1.2642442485487,-0.339623576799244,-191.826780975301,-191.487157398502,96.0832022760501,95.5737669108512,-191.656969186901
1.26639432380133,-0.199347111632941,-190.158775640356,-189.959428528723,95.1790613759945,94.8800407085451,-190.05910208454
1.26854439905397,-0.0413154936026709,-188.176314915269,-188.134999421667,94.108815204436,94.046841964032,-188.155657168468
1.2706944743066,0.0522734531885402,-186.031265269374,-186.083538722563,92.9894959080927,93.0679060878755,-186.057401995968
1.27284454955923,0.00915002307690725,-183.937224077639,-183.946374100716,91.9640370272809,91.9777620618962,-183.941799089177
1.27499462481187,-0.215053190987341,-182.094416266122,-181.879363075135,91.1547347285548,90.8321549420738,-181.986889670629
1.2771447000645,-0.625163933573375,-180.619210387159,-179.994046453586,90.6221871603664,89.6844412600064,-180.306628420373
1.27929477531714,-1.1845859917954,-179.509538241895,-178.3249522501,90.3470621168452,88.5701831291521,-178.917245245997
1.28144485056977,-1.82261430923645,-178.660547343467,-176.837933034231,90.2415808263518,87.5076593624971,-177.749240188849
1.2835949258224,-2.44826586233008,-177.921011316772,-175.472745454442,90.1846385895512,86.5122397960561,-176.696878385607
1.28574500107504,-2.96790437263214,-177.1629157036,-174.195011330968,90.0654100381162,85.613553479168,-175.678963517284
1.28789507632767,-3.30398525628536,-176.331346482956,-173.027361226671,89.8176658696207,84.8616879851927,-174.679353854813
1.29004515158031,-3.41159828804395,-175.45167547178,-172.040077183736,89.431636879912,84.314239447846,-173.745876327758
1.29219522683294,-3.28812280320526,-174.593373561968,-171.305250758763,88.9407481825865,84.0085639777787,-172.949312160365
1.29434530208557,-2.97121760946731,-173.813242388497,-170.84202477903,88.3922299989822,83.9354035847812,-172.327633583763
1.29649537733821,-2.52460143197296,-173.11063372395,-170.586032291977,87.8176175779613,84.0307154300018,-171.848333007963
1.29864545259084,-2.01783779863225,-172.418080010498,-170.400242211866,87.2179589045653,84.191202206617,-171.409161111182
1.30079552784347,-1.50921376908314,-171.630445846968,-170.121232077885,86.5698298080255,84.3060091544008,-170.875838962426
1.30294560309611,-1.03710394313348,-170.65595697209,-169.618853028957,85.8465304576119,84.2908745429117,-170.137405000524
1.30509567834874,-0.619226392274083,-169.46170202801,-168.842475635736,85.0404642101422,84.1116246217311,-169.152088831873
1.30724575360138,-0.256519982951921,-168.088995563281,-167.832475580329,84.1727577731166,83.7879777986888,-167.960735571805
1.30939582885401,0.0604641697285178,-166.630141558651,-166.690605728379,83.2848386944612,83.375534949054,-166.660373643515
1.31154590410664,0.344048530371866,-165.179883031207,-165.523931561579,82.4179172504177,82.9339900459755,-165.351907296393
1.31369597935928,0.603766521429338,-163.789073375129,-164.392839896558,81.5926534268499,82.4983032089939,-164.090956635844
1.31584605461191,0.845305112974568,-162.445917325411,-163.291222438386,80.8003061062183,82.0682637756802,-162.868569881899
1.31799612986455,1.07253628890329,-161.093581749294,-162.166118038197,80.0105227301953,81.6193271635502,-161.629849893745
1.32014620511718,1.28792392373719,-159.672181019335,-160.960104943072,79.1921285477988,81.1240144334046,-160.316142981203
1.32229628036981,1.48919104490908,-158.15957711444,-159.648768159349,78.3351930347656,80.5689796021292,-158.904172636895
1.32444635562245,1.66556764258166,-156.586852807925,-158.252420450507,77.4606425826717,79.9589940465442,-157.419636629216
1.32659643087508,1.79863758535407,-155.019998151173,-156.818635736527,76.6106802829093,79.3086366609404,-155.91931694385
1.32874650612771,1.8679543236409,-153.519547508064,-155.387501831704,75.8257965922113,78.6277280776727,-154.453524669884
1.33089658138035,1.85492607620724,-152.102681838762,-153.957607914969,75.1238778812774,77.9062669955883,-153.030144876866
1.33304665663298,1.73895360367075,-150.730842525377,-152.469796129048,74.4959444608531,77.1043748663592,-151.600319327212
1.33519673188562,1.48916035375299,-149.330968768691,-150.820129122444,73.920904207469,76.1546447380985,-150.075548945567
1.33734680713825,1.06301653883562,-147.838309544339,-148.901326083175,73.3876465027518,74.9821713110052,-148.369817813757
1.33949688239088,0.420123288193134,-146.235512164685,-146.655635452878,72.9076944382461,73.5378793705358,-146.445573808782
1.34164695764352,-0.451810886218948,-144.564654744661,-144.112843858442,72.5082328154397,71.8305164861113,-144.338749301551
1.34379703289615,-1.51137798799902,-142.90510168065,-141.393723692651,72.2082398343244,69.9411728523258,-142.14941268665
1.34594710814879,-2.65276834377256,-141.331029660044,-138.678261316272,71.9918990019084,68.0127464862495,-140.004645488158
1.34809718340142,-3.71882322168283,-139.874975413566,-136.156152191883,71.7968993176244,66.2186644851001,-138.015563802724
1.35024725865405,-4.53663506128461,-138.519193428006,-133.982558366721,71.5279142446452,64.7229616527183,-136.250875897363
1.35239733390669,-4.96425186883958,-137.218695552841,-132.254443684002,71.0914737108405,63.6450959075811,-134.736569618422
1.35454740915932,-4.93165792749277,-135.941759193618,-131.010101266126,70.4367085605556,63.0392216693165,-133.475930229872
1.35669748441195,-4.46195871769917,-134.705682673571,-130.243723955872,69.583820695635,62.8908826190862,-132.474703314721
1.35884755966459,-3.6671514919904,-133.588142555419,-129.920991063429,68.6276470237047,63.1269197857191,-131.754566809424
1.36099763491722,-2.72068415777515,-132.704006701174,-129.983322543399,67.7123454294744,63.6313191928117,-131.343664622286
1.36314771016986,-1.81364064789,-132.152020388519,-130.338379740629,66.9828305182046,64.2623695463696,-131.245200064574
1.36529778542249,-1.10555472635208,-131.952443798362,-130.84688907201,66.5289992623572,64.8706671728291,-131.399666435186
1.36744786067512,-0.685359252893699,-132.007278501007,-131.321919248113,66.3463188769503,65.3182799976097,-131.66459887456
1.36959793592776,-0.557684589582896,-132.109841923862,-131.552157334279,66.3337632567225,65.4972363723482,-131.830999629071
1.37174801118039,-0.659363891005335,-132.008633035754,-131.349269144749,66.3339984633797,65.3449526268717,-131.678951090251
1.37389808643303,-0.894814182423841,-131.501722353998,-130.606908171574,66.1982682682108,64.8560469945751,-131.054315262786
1.37604816168566,-1.17016998831472,-130.518564406299,-129.348394417985,65.8443671973071,64.089112214835,-129.933479412142
1.37819823693829,-1.41219690720362,-129.148807787765,-127.736610880562,65.2805023474844,63.162206986679,-128.442709334163
1.38034831219093,-1.57156779808453,-127.602640756708,-126.031072958624,64.5871042773963,62.2297525802695,-126.816856857666
1.38249838744356,-1.61879414461479,-126.120687226775,-124.50189308216,63.8697406856949,61.4415494687727,-125.311290154468
1.38464846269619,-1.54123021532842,-124.87479009836,-123.333559883031,63.208010156844,60.8961648338514,-124.104174990695
1.38679853794883,-1.34485767156677,-123.903435623974,-122.558577952407,62.6241466477703,60.6068601404201,-123.23100678819
1.38894861320146,-1.05945967556367,-123.108356007,-122.048896331436,62.0839078412817,60.4947183279362,-122.578626169218
1.3910986884541,-0.742575193752057,-122.310660583744,-121.568085389992,61.5266178887481,60.41275509812,-121.939372986868
1.39324876370673,-0.476305504031322,-121.337851191084,-120.861545687053,60.9070783475578,60.1926200915108,-121.099698439069
1.39539883895936,-0.352123149205412,-120.100345068815,-119.748221919609,60.2262341090102,59.698049385202,-119.924283494212
1.397548914212,-0.444615472492747,-118.624791508239,-118.180176035746,59.5347034903659,58.8677802816268,-118.402483771993
1.39969898946463,-0.784130204966635,-117.035941014108,-116.251810809141,58.9100356095372,57.7338403020872,-116.643875911624
1.40184906471727,-1.34240400692887,-115.503565829856,-114.161161822927,58.4229849183924,56.4093789079991,-114.832363826391
1.4039991399699,-2.03860733683514,-114.182082795516,-112.143475458681,58.1103450661758,55.0524340609231,-113.162779127099
1.40614921522253,-2.76131239781467,-113.16564152745,-110.404329129635,57.9634769626321,53.8215083659101,-111.784985328542
1.40829929047517,-3.3951989579534,-112.468540693192,-109.073341735239,57.9318698255727,52.8390713886427,-110.770941214215
1.4104493657278,-3.84279056487945,-112.029376850506,-108.186586285626,57.9360837076925,52.1718978603733,-110.107981568066
1.41259944098043,-4.0365906333832,-111.731403347419,-107.694812714036,57.8839969904011,51.8291110403263,-109.713108030727
1.41474951623307,-3.94245372090132,-111.430707735748,-107.488254014847,57.6865807283249,51.7729001469729,-109.459480875298
1.4168995914857,-3.55979182183102,-110.986190957568,-107.426399135737,57.2729913896995,51.933303656953,-109.206295046653
1.41904966673834,-2.92484268722336,-110.288327898751,-107.363485211527,56.606585292987,52.2193212621519,-108.825906555139
1.42119974199097,-2.11705139886638,-109.284174582461,-107.167123183595,55.7006129906639,52.5250358923644,-108.225648883028
1.4233498172436,-1.25997476194465,-107.993143416851,-106.733168654906,54.6265590893979,52.7365969464809,-107.363156035879
1.42549989249624,-0.505663703456567,-106.505438339839,-105.999774636382,53.5055510216475,52.7470554664627,-106.25260648811
1.42764996774887,0.00104890462174868,-104.958523667436,-104.959572572058,52.4787373814071,52.4803107383397,-104.959048119747
1.4298000430015,0.169306517987473,-103.496896729047,-103.666203247035,51.66379510553,51.9177548825112,-103.581549988041
1.43195011825414,0.00143363413434835,-102.229266775318,-102.230700409452,51.1139165705918,51.1160670217933,-102.229983592385
1.43410019350677,-0.394607463921796,-101.19853874566,-100.803931281738,50.7965731047908,50.2046619089081,-101.001235013699
1.43625026875941,-0.829362257956191,-100.374610901472,-99.5452486435159,50.6019865797142,49.3579431927799,-99.959929772494
1.43840034401204,-1.0878432669608,-99.6711564386712,-98.5833131717104,50.379499852816,48.7477349523748,-99.1272348051908
1.44055041926467,-0.999577948006673,-98.9777991515948,-97.9782212035881,49.9886885498007,48.4893216277907,-98.4780101775914
1.44270049451731,-0.498234737557616,-98.1934202880529,-97.6951855504953,49.3458275128052,48.5984754064688,-97.9443029192741
1.44485056976994,0.352284778284538,-97.249006340582,-97.6012911188665,48.4483607811487,48.9767879485755,-97.4251487297242
1.44700064502258,1.37716502583516,-96.1160342741645,-97.4931992999997,47.3694346241647,49.4351821629174,-96.8046167870821
1.44915072027521,2.34816144122559,-94.8018543967329,-97.1500158379585,46.2268464777537,49.7490886395921,-95.9759351173457
1.45130079552784,3.05473741050498,-93.3355609736381,-96.3902983841431,45.1404117815666,49.722517897324,-94.8629296788906
1.45345087078048,3.36112330428852,-91.7496675036679,-95.1107908079564,44.1942720996897,49.2359570561225,-93.4302291558121
1.45560094603311,3.23377527534944,-90.0652767788121,-93.2990520541616,43.4157507517314,48.2664136647555,-91.6821644164869
1.45775102128574,2.73897597244799,-88.2890800258902,-91.0280559983382,42.7750520267211,46.8835159853931,-89.6585680121142
1.45990109653838,2.01745747765214,-86.427100287974,-88.4445577656261,42.2048214051609,45.2310076216391,-87.4358290268001
1.46205117179101,1.24374146332491,-84.511603385208,-85.7553448485329,41.6339309609415,43.4995431559289,-85.1334741168705
1.46420124704365,0.579512902058948,-82.6268255628434,-83.2063384649024,41.0236563303922,41.8929256834807,-82.9165820138729
1.46635132229628,0.133131067376269,-80.9136910881823,-81.0468221555586,40.390280010403,40.5899766114674,-80.9802566218705
1.46850139754891,-0.0632808082757545,-79.5402648124599,-79.4769840041842,39.8017728103678,39.7068515979542,-79.508624408322
1.47065147280155,-0.0531468884988587,-78.6421366817231,-78.5889897932243,39.347641785111,39.2679214523627,-78.6155632374737
1.47280154805418,0.067544221425796,-78.2557975859111,-78.3233418073369,39.0941266822427,39.1954430143813,-78.289569696624
1.47495162330682,0.18795520187548,-78.2770108388569,-78.4649660407323,39.0445278184907,39.3264606213039,-78.3709884397946
1.47710169855945,0.22310605718129,-78.469484159221,-78.6925902164023,39.1231890510198,39.4578481367918,-78.5810371878116
1.47925177381208,0.143790506879973,-78.5292676272952,-78.6730581341752,39.1927385602076,39.4084243205276,-78.6011628807352
1.48140184906472,-0.0160945488988762,-78.1853930274825,-78.1692984785836,39.1007437881907,39.0766019648424,-78.1773457530331
1.48355192431735,-0.178240689711394,-77.2980501400494,-77.119809450338,38.7381454148804,38.4707843803133,-77.2089297951937
1.48570199956998,-0.256319203747887,-75.9122236736531,-75.6559044699052,38.0842714387005,37.6997926330787,-75.7840640717791
1.48785207482262,-0.194226138488625,-74.2413112234141,-74.0470850849254,37.2177686809514,36.9264294732184,-74.1441981541698
1.49000215007525,0.00896600909943333,-72.5852714075804,-72.5942374166798,36.2881526992405,36.3016017128896,-72.5897544121301
1.49215222532789,0.295993187079278,-71.2166154259735,-71.5126086130527,35.4603111194471,35.904300900066,-71.3646120195131
1.49430230058052,0.570489103263356,-70.2812189987679,-70.8517081020313,34.8553649477523,35.7110986026473,-70.5664635503996
1.49645237583315,0.730298399396987,-69.7537872340643,-70.4840856334613,34.5117444173337,35.6071920164291,-70.1189364337628
1.49860245108579,0.702217728013902,-69.4631841416882,-70.1654018697021,34.3804832068371,35.433809798858,-69.8142930056951
1.50075252633842,0.466375893620472,-69.1714612974789,-69.6378371910993,34.3525427019292,35.0521065423599,-69.4046492442891
1.50290260159106,0.0641343292795514,-68.6675290856354,-68.7316634149149,34.3016973781779,34.3978988720972,-68.6995962502751
1.50505267684369,-0.411516623618683,-67.8341556307612,-67.4226390071426,34.12283612719,33.5055611917619,-67.6283973189519
1.50720275209632,-0.841186321015341,-66.6654075784254,-65.8242212574101,33.7532969497204,32.4915174681974,-66.2448144179178
1.50935282734896,-1.11346508952912,-65.2382343686923,-64.1247692791632,33.1758497291107,31.505652094817,-64.6815018239277
1.51150290260159,-1.15594145564924,-63.6614393596355,-62.5054979039863,32.4086904076424,30.6747782241685,-63.0834686318109
1.51365297785422,-0.950232567338997,-62.0298123751096,-61.0795798077706,31.4900224712243,30.0646736202158,-61.5546960914401
1.51580305310686,-0.527752074809696,-60.4016272119926,-59.8738751371829,30.4646896434011,29.6730615311866,-60.1377511745877
1.51795312835949,0.0454627238513082,-58.8010085019598,-58.8464712258111,29.3777728890542,29.4459669748312,-58.8237398638854
1.52010320361213,0.683455243629839,-57.2328222486284,-57.9162774922583,28.2746835024993,29.2998663679441,-57.5745498704434
1.52225327886476,1.29133668509941,-55.6943781440136,-56.985714829113,27.2015207294571,29.1385257571062,-56.3400464865633
1.52440335411739,1.77910000379073,-54.1755254485267,-55.9546254523174,26.198212722368,28.8668627280541,-55.065075450422
1.52655342937003,2.08348431388065,-52.6501824730001,-54.7336667868807,25.2833490795597,28.4085755503807,-53.6919246299404
1.52870350462266,2.19026426550914,-51.0701715380824,-53.2604358035915,24.4399536362866,27.7253500345503,-52.1653036708369
1.5308535798753,2.13968437122079,-49.3721159302392,-51.51180030146,23.6162157795092,26.8257423363404,-50.4419581158496
1.53300365512793,2.00512272937733,-47.5008451126119,-49.5059678419892,22.7478611916173,25.7555452856833,-48.5034064773005
1.53515373038056,1.85502790310912,-45.4427906406474,-47.2978185437565,21.7938813687691,24.5764232234328,-46.3703045922019
1.5373038056332,1.72140841079969,-43.255482169884,-44.9768905806836,20.7670368795421,23.3491494957417,-44.1161863752838
1.53945388088583,1.59206617607597,-41.0775413160807,-42.6696074921567,19.7427375700024,22.1308368341163,-41.8735744041187
1.54160395613846,1.42546706418349,-39.108508944777,-40.5339760089604,18.8415209402967,20.979721536572,-39.8212424768687
1.5437540313911,1.17396564141846,-37.5592270940324,-38.7331927354508,18.1926307263069,19.9535791884346,-38.1462099147416
1.54590410664373,0.802727135133319,-36.5876900873085,-37.3904172224418,17.8924814760876,19.0965721787876,-36.9890536548751
1.54805418189637,0.302149868161947,-36.2447158762718,-36.5468657444337,17.9712830040549,18.4245078062978,-36.3957908103527
1.550204257149,-0.302316277384546,-36.452390860455,-36.1500745830704,18.3773535689198,17.923879152843,-36.3012327217627
1.55235433240163,-0.942556851063165,-37.0257082535656,-36.0831514025024,18.9841325523144,17.5702972757196,-36.554429828034
1.55450440765427,-1.50857169166931,-37.7290702055606,-36.2204985138913,19.618820948615,17.355963411111,-36.974784359726
1.5566544829069,-1.86523804520445,-38.3431550143707,-36.4779169691663,20.1041965297876,17.3063394619809,-37.4105359917685
1.55880455815954,-1.88694805993206,-38.7135636513219,-36.8266155913899,20.300255855627,17.4698337657289,-37.7700896213559
1.56095463341217,-1.50226098093178,-38.7638925729511,-37.2616315920193,20.1330767769414,17.8796853055438,-38.0127620824852
1.5631047086648,-0.731747309928929,-38.4755334505814,-37.7437861406525,19.6036403802552,18.5060194153618,-38.1096597956169
1.56525478391744,0.300031568319905,-37.8527502335692,-38.1527818018891,18.7763593326247,19.2264066851045,-38.0027660177292
1.56740485917007,1.38926930648344,-36.8962637568762,-38.2855330633596,17.7534972251964,19.8374011849215,-37.5908984101179
1.5695549344227,2.30975798713674,-35.600514759429,-37.9102727465658,16.6453783861461,20.1100153668513,-36.7553937529974
1.57170500967534,2.88226116479378,-33.9737206202811,-36.8559817850748,15.5457297277436,19.8691214749343,-35.4148512026779
1.57385508492797,3.02942143901082,-32.0648592387544,-35.0942806777652,14.5177188998718,19.061851058388,-33.5795699582598
1.57600516018061,2.79330697154021,-29.9771663274195,-32.7704732989597,13.5919296779396,17.7818901352499,-31.3738198131896
1.57815523543324,2.30815719907614,-27.8565124241976,-30.1646696232738,12.7741776125608,16.236413411175,-29.0105910237357
1.58030531068587,1.74125001532743,-25.8585790807528,-27.5998290960802,12.0586645327127,14.6705395557038,-26.7292040884165
1.58245538593851,1.22911200234184,-24.1102075690181,-25.3393195713599,11.4405477833381,13.2842157868509,-24.724763570189
1.58460546119114,0.836171623012368,-22.6811806979232,-23.5173523209355,10.9225045374554,12.176761971974,-23.0992665094294
1.58675553644378,0.549240866277738,-21.5750540832429,-22.1242949495207,10.5129066084826,11.3367679078992,-21.8496745163818
1.58890561169641,0.303058341971144,-20.7384169804863,-21.0414753224575,10.2176793192576,10.6722668322143,-20.8899461514719
1.59105568694904,0.0198486276311436,-20.0820893266792,-20.1019379543104,10.031120349524,10.0608932909708,-20.0920136404948
1.59320576220168,-0.355742703828024,-19.5055120094507,-19.1497693056227,9.93062735663936,9.39701330089732,-19.3276406575367
1.59535583745431,-0.838147233520083,-18.915966759707,-18.077819526187,9.87705699661356,8.61983614633344,-18.496893142947
1.59750591270694,-1.40094841279239,-18.2377001863507,-16.8367517735583,9.81932429957154,7.71790168038296,-17.5372259799545
1.59965598795958,-1.98971386389071,-17.4121872205219,-15.4224733566312,9.70095054220629,6.71637974637022,-16.4173302885765
1.60180606321221,-2.53801639614365,-16.3965498596336,-13.8585334634899,9.46728312788861,5.66025853367314,-15.1275416615617
1.60395613846485,-2.97860488077997,-15.1682921060205,-12.1896872252406,9.07344849340026,4.6055411722303,-13.6789896656306
1.60610621371748,-3.24771670238455,-13.7387031614689,-10.4909864590843,8.49320993192671,3.62163487834989,-12.1148448102766
1.60825628897011,-3.28757936381957,-12.1668215654814,-8.87924220166188,7.72720046465051,2.79583141892115,-10.5230318835717
1.61040636422275,-3.0547350569828,-10.5583557664603,-7.50362070947749,6.80654541172154,2.22444282624734,-9.03098823796888
1.61255643947538,-2.53673902065663,-9.03826223687417,-6.50152321621754,5.7875006287654,1.98239209778045,-7.76989272654586
1.61470651472802,-1.77076832049889,-7.70296881049671,-5.93220048999782,4.7368685654978,2.08071608474947,-6.81758465024727
1.61685658998065,-0.852324758599371,-6.57667901380266,-5.72435425520329,3.71450188620102,2.43601474830196,-6.15051663450297
1.61900666523328,0.0758701764673785,-5.5994978399907,-5.67536801645808,2.76181383176166,2.87561909646273,-5.63743292822439
1.62115674048592,0.856852798243302,-4.65861303603657,-5.51546583427987,1.90088011889664,3.18615931626159,-5.08703943515822
1.62330681573855,1.36549247922104,-3.64885432851416,-5.0143468077352,1.14168092464656,3.18991964347812,-4.33160056812468
1.62545689099118,1.55009854856937,-2.53172851131519,-4.08182705988456,0.490814981372908,2.81596280422696,-3.30677778559987
1.62760696624382,1.45129282365741,-1.36146971735993,-2.81276254101734,-0.0449115531487413,2.13202768233737,-2.08711612918863
1.62975704149645,1.18853422369476,-0.262305906018757,-1.45084012971352,-0.463114158838003,1.31968717670414,-0.856573017866139
1.63190711674909,0.917844507627879,0.634290603000027,-0.283553904627852,-0.776067555313953,0.600699206127866,0.175368349186087
1.63405719200172,0.775901587547579,1.2619769849493,0.486075397401721,-1.01893928624844,0.144913095072929,0.87402619117551
1.63620726725435,0.831633669163069,1.66465744377651,0.833023774613446,-1.24814555646979,-0.000695052725188439,1.24884060919498
1.63835734250699,1.06429474806725,1.99097348781914,0.926678739751897,-1.5276341179432,0.0688080041576749,1.45882611378552
1.64050741775962,1.37637837370232,2.44082525249929,1.06444687879697,-1.90860181310081,0.155965747452677,1.75263606564813
1.64265749301226,1.63418526086773,3.18990684736975,1.55572158650202,-2.41204605411874,0.0392318371828573,2.37281421693588
1.64480756826489,1.71642038229944,4.32675097573305,2.6103305934336,-3.02158567901625,-0.446955105567079,3.46854078458332
1.64695764351752,1.55032485597919,5.82832602164671,4.27800116566752,-3.68932543881295,-1.36383815484416,5.05316359365712
1.64910771877016,1.12581086380669,7.58074506396375,6.45493420015706,-4.35327796388522,-2.66456166817519,7.0178396320604
1.65125779402279,0.490554408285508,9.43021786718315,8.93966345889764,-4.96038613773433,-4.22455452530606,9.18494066304039
1.65340786927542,-0.266481535967094,11.2362909544141,11.5027724903812,-5.48490470922352,-5.88462701317416,11.3695317223977
1.65555794452806,-1.03720801659213,12.9026481526387,13.9398561692308,-5.93272006802329,-7.48853209291148,13.4212521609348
1.65770801978069,-1.71704619001532,14.3778509055312,16.0948970955465,-6.33040235775795,-8.90597164278093,15.2363740005389
1.65985809503333,-2.22242222483142,15.6361480067087,17.8585702315401,-6.70686289093861,-10.0404962281857,16.7473591191244
1.66200817028596,-2.50068682817105,16.6557403117898,19.1564271399608,-7.07752674180938,-10.8285569840659,17.9060837258753
1.66415824553859,-2.53551443124707,17.4086041017242,19.9441185329713,-7.43654483523859,-11.2398164821092,18.6763613173478
1.66630832079123,-2.35143745096753,17.8676578641966,20.2190953151642,-7.75811020661455,-11.2852663830658,19.0433765896804
1.66845839604386,-2.01497933799479,18.0274025541657,20.0423818921605,-8.00621160808546,-11.0286806150776,19.0348922231631
1.6706084712965,-1.62482056399477,17.9260863633962,19.550906927391,-8.1506328997007,-10.5878637456929,18.7384966453936
1.67275854654913,-1.28758578303709,17.6555068915833,18.9430926746203,-8.18396055427308,-10.1153392288287,18.2992997831018
1.67490862180176,-1.08638907818918,17.3511051340017,18.4374942121908,-8.13235802790624,-9.76194164519,17.8942996730962
1.6770586970544,-1.05594278612084,17.165475454082,18.2214182402028,-8.05476633398057,-9.63868051316183,17.6934468471424
1.67920877230703,-1.175225422642,17.235500799164,18.410726221806,-8.030137688261,-9.792975822224,17.823113510485
1.68135884755966,-1.37959377723681,17.6546298145617,19.0342235917985,-8.13751801866246,-10.2069086845177,18.3444267031801
1.6835089228123,-1.58533528353286,18.4590931698502,20.0444284533831,-8.43687894315867,-10.814881868458,19.2517608116166
1.68565899806493,-1.71606195547635,19.630990037574,21.3470519930503,-8.95746404104881,-11.5315569742633,20.4890210153121
1.68780907331757,-1.72294243801785,21.1134553469123,22.8363977849302,-9.69525645444724,-12.279670111474,21.9749265659213
1.6899591485702,-1.59513663852625,22.8280543889338,24.42319102746,-10.6164588752038,-13.0091638329931,23.6256227081969
1.69210922382283,-1.35864623434522,24.6859711327721,26.0446173671174,-11.6636624492135,-13.7016318007313,25.3652942499448
1.69425929907547,-1.06315403779589,26.5908172650048,27.6539713028006,-12.7638316136044,-14.3585626702983,27.1223942839027
1.6964093743281,-0.761022895068679,28.437194204775,29.1982170998437,-13.8380856548532,-14.9796199974562,28.8177056523093
1.69855944958074,-0.487944456728532,30.1126061308491,30.6005505875776,-14.8123308370603,-15.5442475221531,30.3565783592134
1.70070952483337,-0.254766072859667,31.5100403215194,31.764806394379,-15.6276371243298,-16.0097862336193,31.6374233579492
1.702859600086,-0.0533957757243581,32.553091855956,32.6064876316804,-16.2498480401158,-16.3299417037024,32.5797897438182
1.70500967533864,0.128844567297223,33.2253735481443,33.096528980847,-16.6771090577207,-16.4838422067749,33.1609512644957
1.70715975059127,0.296515951429652,33.5876886539952,33.2911727025655,-16.9421023027124,-16.4973283755679,33.4394306782804
1.7093098258439,0.443137073664052,33.7686171398107,33.3254800661466,-17.1058771067374,-16.4411714962413,33.5470486029787
1.71145990109654,0.559399505569783,33.9272320931618,33.367832587592,-17.2433157993658,-16.4042165410111,33.6475323403769
1.71360997634917,0.645757591760795,34.2015015525746,33.5557439608139,-17.4236295721677,-16.4549931845265,33.8786227566942
1.71576005160181,0.717662061563598,34.6635725620656,33.945910500502,-17.6906173118146,-16.6141242194692,34.3047415312838
1.71791012685444,0.795101511359773,35.3010565706543,34.5059550592945,-18.048079041007,-16.8554267739674,34.9035058149744
1.72006020210707,0.881023147379395,36.032745931557,35.1517227841776,-18.4568845394682,-17.1353498183991,35.5922343578673
1.72221027735971,0.946573048390378,36.7514961681013,35.8049231197109,-18.8490346082458,-17.4291750356603,36.2782096439061
1.72436035261234,0.940021931716104,37.3741785975937,36.4341566658776,-19.1571002646549,-17.7470673670807,36.9041676317356
1.72651042786498,0.817324840543229,37.8759676786055,37.0586428380623,-19.3466462595744,-18.1206589987595,37.4673052583339
1.72866050311761,0.572625174541724,38.2940102505428,37.721385076001,-19.4333177125422,-18.5743799507297,38.0076976632719
1.73081057837024,0.246858182159485,38.69885031742,38.4519921352605,-19.4728542497898,-19.1025669765505,38.5754212263403
1.73296065362288,-0.0889152328979967,39.1460929291432,39.2350081620412,-19.5285888481226,-19.6619616974696,39.1905505455922
1.73511072887551,-0.361516263258892,39.6313785679667,39.9928948312255,-19.6349311523539,-20.1772055472422,39.8121366995961
1.73726080412814,-0.519254158840733,40.0735829017862,40.5928370606269,-19.7771643714727,-20.5560456097338,40.3332099812066
1.73941087938078,-0.544401945941979,40.3404144573784,40.8848164033203,-19.8980062557182,-20.7146091746312,40.6126154303494
1.74156095463341,-0.455461776818891,40.3095647673945,40.7650265442134,-19.9270514952878,-20.6102441605161,40.5372956558039
1.74371102988605,-0.30214407881377,39.9376270921095,40.2397711709233,-19.8177415066479,-20.2709576248685,40.0886991315164
1.74586110513868,-0.155247152164118,39.3015475925482,39.4567947447123,-19.5731502201921,-19.8060209484382,39.3791711686303
1.74801118039131,-0.0923300557803186,38.5900615189592,38.6823915747395,-19.2488657315894,-19.3873608152599,38.6362265468494
1.75016125564395,-0.179700124302083,38.0485865319195,38.2282866562216,-18.9344432038087,-19.2039933902619,38.1384365940706
1.75231133089658,-0.453680359248256,37.9036809776559,38.3573613369041,-18.7250003092038,-19.4055208480762,38.13052115728
1.75446140614922,-0.907539679238726,38.2986071906386,39.2061468698773,-18.6955337556999,-20.056843274558,38.752377030258
1.75661148140185,-1.49022105717273,39.2596288901204,40.7498499472931,-18.8847039164738,-21.1200355022329,40.0047394187067
1.75876155665448,-2.11842262740284,40.6951319840149,42.8135546114178,-19.2883546783061,-22.4659886194103,41.7543432977164
1.76091163190712,-2.69834913364837,42.4186908973915,45.1170400310398,-19.8601708818716,-23.9076945823441,43.7678654642157
1.76306170715975,-3.15024271223242,44.1861645789103,47.3364072911428,-20.517960933339,-25.2433250016876,45.7612859350266
1.76521178241238,-3.42798351635065,45.7403068464255,49.1682903627762,-21.1561616650374,-26.2981369395634,47.4542986046009
1.76736185766502,-3.52766282122267,46.8577988998736,50.3854617210963,-21.6650680393255,-26.9565622711595,48.621630310485
1.76951193291765,-3.48301019915492,47.392329542165,50.8753397413199,-21.954659671505,-27.1791749702374,49.1338346417424
1.77166200817029,-3.3505919742587,47.3063022710126,50.6568942452713,-21.977855148377,-27.003743109765,48.981598258142
1.77381208342292,-3.19077561499746,46.6842205002826,49.8749961152801,-21.7467224426426,-26.5328858651388,48.2796083077813
1.77596215867555,-3.04928542382615,45.7222942814882,48.7715797053144,-21.336504428831,-25.9104325645703,47.2469369934013
1.77811223392819,-2.94145210461975,44.6920362751569,47.6334883797766,-20.8752920852686,-25.2874702421982,46.1627623274668
1.78026230918082,-2.84214780272557,43.8822036134179,46.7243514161434,-20.5200279053462,-24.7832496094345,45.3032775147807
1.78241238443346,-2.68767581042572,43.5323631708151,46.2200389812408,-20.4223436801947,-24.4538573958333,44.8762010760279
1.78456245968609,-2.39437255716234,43.7773257375156,46.1716982946779,-20.6914765901766,-24.2830354259201,44.9745120160968
1.78671253493872,-1.89045957648266,44.6194423859343,46.5099019624169,-21.3644914047258,-24.2001807694498,45.5646721741756
1.78886261019136,-1.14912526668901,45.9360408535494,47.0851661202384,-22.3934577934302,-24.1171456934637,46.5106034868939
1.79101268544399,-0.207758920988073,47.5181066159123,47.7258655369004,-23.6551738474621,-23.9668122289442,47.6219860764063
1.79316276069662,0.837891768132867,49.1283970863771,48.2905053182443,-24.983144427255,-23.7263067750557,48.7094512023107
1.79531283594926,1.86492884699189,50.5631105212257,48.6981816742338,-26.2140196841088,-23.416626413621,49.6306460977298
1.79746291120189,2.76541799281634,51.7002196367667,48.9348016439503,-27.2328188147915,-23.084691825567,50.3175106403585
1.79961298645453,3.47658421497063,52.5199934799874,49.0434092650167,-27.998288847479,-22.7834125250231,50.7817013725021
1.80176306170716,3.98332752123862,53.0904879073106,49.1071603860719,-28.5369077142746,-22.5619164324167,51.0988241466913
1.80391313695979,4.29613808219076,53.5231609722979,49.2270228901071,-28.9096495272443,-22.4654424039582,51.3750919312025
1.80606321221243,4.42320900406378,53.9174991784406,49.4942901743769,-29.1703540912522,-22.5355405851565,51.7058946764087
1.80821328746506,4.35593489280093,54.3206580563799,49.964723163579,-29.3382964745904,-22.804394135389,52.1426906099794
1.81036336271769,4.0743930406312,54.7216742429152,50.647281202284,-29.3980336417732,-23.2864440808264,52.6844777225996
1.81251343797033,3.56654249828925,55.081095095743,51.5145525974537,-29.3238187970161,-23.9740050495822,53.2978238465983
1.81466351322296,2.84962031654808,55.3764690311845,52.5268487146364,-29.1130446738663,-24.8386141990442,53.9516588729105
1.8168135884756,1.98296792354599,55.6344684767474,53.6515005532014,-28.8087182001467,-25.8342663148277,54.6429845149744
1.81896366372823,1.06548431537132,55.9277067202895,54.8622224049182,-28.4965955178304,-26.8983690447734,55.3949645626038
1.82111373898086,0.217272347751945,56.3354942242451,56.1182218764931,-28.2763832859985,-27.9504747643706,56.2268580503691
1.8232638142335,-0.448492015218216,56.8911470249937,57.3396390402119,-28.2213275048877,-28.8940655277151,57.1153930326028
1.82541388948613,-0.854103031790834,57.5488494290685,58.4029524608594,-28.3473731986389,-29.6285277463251,57.975900944964
1.82756396473877,-0.977608829134889,58.1923802607387,59.1699890898736,-28.6073857158019,-30.0737989595043,58.6811846753062
1.8297140399914,-0.859682192640064,58.6830635635722,59.5427457562122,-28.9116906854661,-30.2012139744262,59.1129046598922
1.83186411524403,-0.596319390478925,58.9220280320031,59.518347422482,-29.1628543207621,-30.0573334064805,59.2201877272425
1.83401419049667,-0.3193080226415,58.89514243131,59.2144504539515,-29.2879172043342,-29.7668792382965,59.0547964426307
1.8361642657493,-0.166691000064344,58.6788533409865,58.8455443410508,-29.2560811704611,-29.5061176705576,58.7621988410187
1.83831434100193,-0.246669324998203,58.4048989980686,58.6515683230668,-29.0791148365352,-29.4491188240325,58.5282336605677
1.84046441625457,-0.603077097616777,58.2024360247525,58.8055131223692,-28.7996794635678,-29.704295109993,58.5039745735608
1.8426144915072,-1.19501292956327,58.1475563812747,59.342569310838,-28.4762717258557,-30.2687911202006,58.7450628460564
1.84476456675984,-1.9013521146242,58.2457878311716,60.1471399457958,-28.1722178582737,-31.02424603021,59.1964638884837
1.84691464201247,-2.5516654249363,58.4547289666093,61.0063943915456,-27.9515317708365,-31.779029908241,59.7305616790775
1.8490647172651,-2.97359456062235,58.7313227059459,61.7049172665682,-27.8788640726618,-32.3392559135953,60.218119986257
1.85121479251774,-3.03991899387521,59.0744114799917,62.1143304738669,-28.0172462430582,-32.577124733871,60.5943709769293
1.85336486777037,-2.70028954974648,59.5370413582485,62.237330907995,-28.418375904251,-32.4688102288707,60.8871861331217
1.85551494302301,-1.99057054946441,60.2019508907662,62.1925214402306,-29.1056901706509,-32.0915459948475,61.1972361654984
1.85766501827564,-1.02058350489061,61.1346830426922,62.1552665475828,-30.0570497689008,-31.5879250262367,61.6449747951375
1.85981509352827,0.0546399729517227,62.3394697968348,62.2848298238831,-31.1970548848933,-31.1150949254657,62.312149810359
1.86196516878091,1.07248016173566,63.7404565533266,62.6679763915909,-32.4064683575311,-30.7977481149276,63.2042164724587
1.86411524403354,1.89963344655471,65.1980781268057,63.298444680251,-33.5488557866802,-30.6994056168481,64.2482614035283
1.86626531928617,2.45907760263118,66.5526320948662,64.093554492235,-34.5058548487487,-30.8172384448019,65.3230932935506
1.86841539453881,2.74102713762548,67.6735218758746,64.9324947382491,-35.20727450675,-31.0957338003118,66.3030083070619
1.87056546979144,2.79546220935781,68.4925338491333,65.6970716397754,-35.6439980292455,-31.4508047152088,67.0948027444543
1.87271554504408,2.70761793274163,69.011610293439,66.3039923606974,-35.8596141130903,-31.7981872139779,67.6578013270682
1.87486562029671,2.56377468504995,69.2890059160491,66.7252312309992,-35.9263903005495,-32.0807282729746,68.0071185735242
1.87701569554934,2.42105760792218,69.4143402426237,66.9932826347015,-35.917698925273,-32.2861125133897,68.2038114386626
1.87916577080198,2.29488610865626,69.4828864594724,67.1880003508161,-35.8888862840643,-32.4465571210799,68.3354434051443
1.88131584605461,2.16791149016292,69.5759378666835,67.4080263765205,-35.8719246784232,-32.6200574431788,68.491982121602
1.88346592130725,2.01174985376822,69.7499261442698,67.7381762905016,-35.880837999019,-32.8632132183667,68.7440512173857
1.88561599655988,1.80808563478668,70.0335178980443,68.2254322632576,-35.9208017664155,-33.2086733142354,69.1294750806509
1.88776607181251,1.560693182836,70.4297880240187,68.8690948411827,-35.9952406034273,-33.6542008291733,69.6494414326007
1.88991614706515,1.29723757001004,70.9199142800288,69.6226767100187,-36.1085759250194,-34.1627195700044,70.2712954950238
1.89206622231778,1.06309023867634,71.4659582720763,70.4028680333999,-36.2645242553763,-34.6698888973618,70.9344131527381
1.89421629757041,0.909269176358789,72.0135117405617,71.1042425642029,-36.4613904584603,-35.0974866939221,71.5588771523823
1.89636637282305,0.876220718820722,72.4986752879694,71.6224545691487,-36.6874480033951,-35.373116925164,72.0605649285591
1.89851644807568,0.976194077974941,72.8639041054573,71.8877100274823,-36.9200490917161,-35.4557579747537,72.3758070664698
1.90066652332832,1.17927635447282,73.081353034577,71.9020766801042,-37.1303146945249,-35.3614001628157,72.4917148573406
1.90281659858095,1.4102197954441,73.173853198626,71.7636334031819,-37.292036497035,-35.1767068038689,72.4687433009039
1.90496667383358,1.56221201575913,73.2194378204522,71.6572258046931,-37.3908249181057,-35.047506894467,72.4383318125727
1.90711674908622,1.52776481344097,73.3301812968048,71.8024164833638,-37.4289730551229,-35.1373258349614,72.5662988900843
1.90926682433885,1.23787543614944,73.6086883287347,72.3708128925852,-37.4232818824421,-35.5664687282179,72.98975061066
1.91141689959149,0.693967808651089,74.0987840229369,73.4048162142858,-37.396375915794,-36.3554242028174,73.7518001186113
1.91356697484412,-0.0222302351412077,74.7530901282133,74.7753203633546,-37.3654299465361,-37.3987752992479,74.7642052457839
1.91571705009675,-0.766894409075054,75.4356856529419,76.2025800620169,-37.3343956219334,-38.484737235546,75.8191328574794
1.91786712534939,-1.37407472152044,75.9642460793592,77.3383208008796,-37.2950856789194,-39.3561977612,76.6512834401194
1.92001720060202,-1.70327687594225,76.1783275220938,77.8816043980361,-37.2375253230758,-39.7924406369892,77.0299659600649
1.92216727585465,-1.6811867490729,76.0069484327728,77.6881351818457,-37.1628808418499,-39.6846609654593,76.8475418073092
1.92431735110729,-1.32815081218652,75.5062976787752,76.8344484909618,-37.0890734332944,-39.0812996515741,76.1703730848685
1.92646742635992,-0.760678242918125,74.8491146246831,75.6097928676013,-37.0442181908825,-38.1852355552597,75.2294537461422
1.92861750161256,-0.161842853471212,74.2672478228786,74.4290906763498,-37.0527024847037,-37.2954667649105,74.3481692496142
1.93076757686519,0.278236642808268,73.9702438988818,73.6920072560735,-37.124240270845,-36.7068853066326,73.8311255774776
1.93291765211782,0.431048581059322,74.0752975140221,73.6442489329627,-37.2531730475407,-36.6066001759517,73.8597732234924
1.93506772737046,0.276098067439691,74.5788139628093,74.3027158953697,-37.4274560151245,-37.013308913965,74.4407649290895
1.93721780262309,-0.096278427937271,75.3776157311262,75.4738941590635,-37.6406686515945,-37.7850862935004,75.4257549450949
1.93936787787573,-0.52348540381863,76.3218892416719,76.8453746454906,-37.8992019189267,-38.6844300246546,76.5836319435812
1.94151795312836,-0.830097460533495,77.2696894871162,78.0997869476497,-38.2197960132913,-39.4649422040916,77.6847382173829
1.94366802838099,-0.884949655909787,78.119656774136,79.0046064300458,-38.6173535591131,-39.9447780429778,78.5621316020909
1.94581810363363,-0.64027502962436,78.8148595939665,79.4551346235908,-39.087292282171,-40.0477048266076,79.1349971087786
1.94796817888626,-0.145107483177885,79.3249377316421,79.47004521482,-39.5899151242321,-39.8075763489989,79.3974914732311
1.95011825413889,0.469057959274332,79.6226681559936,79.1536101967192,-40.0458630576339,-39.3422761187224,79.3881391763564
1.95226832939153,1.02555939916352,79.6739905786987,78.6484311795352,-40.3497749889311,-38.8114358901858,79.1612108791169
1.95441840464416,1.35083825724076,79.4536068933463,78.1027686361055,-40.4022225752935,-38.3759651894324,78.7781877647259
1.9565684798968,1.3193173896071,78.9811101993136,77.6617928097065,-40.1502137944603,-38.1712377100497,78.32145150451
1.95871855514943,0.885422326652157,78.3548117858752,77.4693894592231,-39.6201170562637,-38.2919835662855,77.9121006225492
1.96086863040206,0.100445799041103,77.7557669781997,77.6553211791586,-38.9281063886204,-38.7774376900587,77.7055440786791
1.9630187056547,-0.886313062490923,77.4086818373217,78.2949948998126,-38.2611843874154,-39.5906539811518,77.8518383685671
1.96516878090733,-1.84678853268808,77.5111425133394,79.3579310460275,-37.8321769903256,-40.6023597893578,78.4345367796834
1.96731885615997,-2.51946718148632,78.1614299908952,80.6808971723815,-37.8209814047044,-41.6001821769339,79.4211635816383
1.9694689314126,-2.67704687705002,79.3163426472662,81.9933895243162,-38.3196478851081,-42.3352182006831,80.6548660857912
1.97161900666523,-2.19747116052597,80.7954385406293,82.9929097011553,-39.2989836900517,-42.5951904308406,81.8941741208923
1.97376908191787,-1.11155689903787,82.3280055050909,83.4395624041288,-40.6082243030265,-42.2755596515833,82.8837839546098
1.9759191571705,0.392551425650922,83.6244467912017,83.2318953655507,-42.0084991084263,-41.4196719699499,83.4281710783762
1.97806923242313,2.01125860306831,84.4485157857219,82.4372571826536,-43.2298871943951,-40.2129992897926,83.4428864841877
1.98021930767577,3.40103384683663,84.6692753205053,81.2682414736687,-44.035154583671,-38.933603813416,82.968758397087
1.9823693829284,4.265049364868,84.2792767487767,80.0142273839087,-44.2721630568223,-37.8745890095203,82.1467520663427
1.98451945818104,4.42499350781384,83.3772277720252,78.9522342642114,-43.9011106399195,-37.2636203781988,81.1647310181183
1.98666953343367,3.85681872035728,82.1268186910568,78.2699999706995,-42.9918187057071,-37.2065906251711,80.1984093308782
1.9888196086863,2.68293980462314,80.7115565466738,78.0286167420506,-41.6972481756485,-37.6728384687137,79.3700866443622
1.99096968393894,1.12940693233581,79.3023414920978,78.172934559762,-40.2158742122168,-38.5217638137131,78.7376380259299
1.99311975919157,-0.534360183235148,78.0426833038794,78.5770434871146,-38.7541615603221,-39.5557018351749,78.309863395497
1.99526983444421,-2.05503227667138,77.0453474704741,79.1003797471455,-37.4951575969014,-40.5777060119084,78.0728636088098
1.99741990969684,-3.23933111108166,76.3905234942097,79.6298546052914,-36.575596191564,-41.4345928581865,78.0101890497506
1.99956998494947,-3.97337993032259,76.1192292176996,80.0926091480221,-36.0729246436885,-42.0329945391724,78.1059191828608
2.00172006020211,-4.21664988217106,76.2233771605222,80.4400270426933,-36.0033636391756,-42.3283384624322,78.3317021016078
2.00387013545474,-3.98003379791464,76.6412130169888,80.6212468149034,-36.3305896095371,-42.300640306409,78.6312299159461
2.00602021070737,-3.30457809334587,77.267833933226,80.5724120265719,-36.9816279199401,-41.9384950599589,78.920122979899
2.00817028596001,-2.25448428592814,77.9829139843594,80.2373982702875,-37.8642148492156,-41.2459412781078,79.1101561273234
2.01032036121264,-0.925394249547632,78.6871041299488,79.6124983794964,-38.8808549402006,-40.268946314522,79.1498012547226
2.01247043646528,0.544205209723363,79.3325012953475,78.7882960856241,-39.9383532525354,-39.1220454379504,79.0603986904858
2.01462051171791,1.97447719996455,79.9334833316997,77.9590061317352,-40.9539802658321,-37.9922644658853,78.9462447317175
2.01677058697054,3.16755258164847,80.5504100975151,77.3828575158666,-41.8589813395818,-37.1076524671091,78.9666338066909
2.01892066222318,3.95005974039014,81.2486524172235,77.2985926768334,-42.5993560788068,-36.6742664682216,79.2736225470284
2.02107073747581,4.22246596361089,82.0476414070589,77.825175443448,-43.1350536853349,-36.8013547399186,79.9364084252535
2.02322081272845,3.99638966322795,82.8846874715786,78.8882978083507,-43.4405385674033,-37.4459540725614,80.8864926399647
2.02537088798108,3.40027654217005,83.6176618726381,80.2173853304681,-43.5089692074041,-38.408554394149,81.9175236015531
2.02752096323371,2.6439255538632,84.0735924923398,81.4296669384766,-43.3587590231015,-39.3928706923067,82.7516297154082
2.02967103848635,1.95217268293263,84.1240094376083,82.1718367546757,-43.0380910602705,-40.1098320358715,83.147923096142
2.03182111373898,1.49464323414512,83.7497159650588,82.2550727309137,-42.622179599602,-40.3802147483843,83.0023943479862
2.03397118899161,1.33930495761587,83.0601759342726,81.7208709766567,-42.1997404459442,-40.1907830095204,82.3905234554646
2.03612126424425,1.44495894347695,82.2549429803286,80.8099840368516,-41.8499509619028,-39.6825125466873,81.5324635085901
2.03827133949688,1.69313397050206,81.5443116171474,79.8511776466453,-41.6187227938247,-39.0790218380716,80.6977446318963
2.04042141474952,1.94738434920517,81.067455790281,79.1200714410758,-41.5074200697431,-38.5863435459353,80.0937636156784
2.04257149000215,2.11613364807111,80.8472095813017,78.7310759332306,-41.4816716146864,-38.3074711425797,79.7891427572661
2.04472156525478,2.18976309382505,80.8012125557493,78.6114494619243,-41.4954878247872,-38.2108431840496,79.7063310088368
2.04687164050742,2.23403999859956,80.8001429922707,78.5661029936712,-41.5170914954351,-38.1660314975358,79.6831229929709
2.04902171576005,2.34726893235244,80.7404494366531,78.3931805043007,-41.5438591845028,-38.0229557859741,79.5668149704769
2.05117179101269,2.6082557171311,80.5939222711295,77.9856665539984,-41.6010889941303,-37.6887054184337,79.289794412564
2.05332186626532,3.04106287631625,80.4123367127521,77.3712738364358,-41.7266997945342,-37.1651054800598,78.891805274594
2.05547194151795,3.60627711942789,80.2918100779481,76.6855329585202,-41.949043598688,-36.5396279195461,78.4886715182341
2.05762201677059,4.21404652009204,80.3218026272874,76.1077561071954,-42.2679245736897,-35.9468547935517,78.2147793672414
2.05977209202322,4.74976337808088,80.5471976103275,75.7974342322466,-42.6484804942042,-35.5238354270829,78.172315921287
2.06192216727585,5.10451043293037,80.9595302111985,75.8550197782681,-43.0320203220644,-35.3752546726689,78.4072749947333
2.06407224252849,5.20303850979343,81.514504979662,76.3114664698686,-43.3587717447277,-35.5542139800376,78.9129857247653
2.06622231778112,5.022229544143,82.1590776286102,77.1368480844672,-43.5906535863766,-36.0573092701621,79.6479628565387
2.06837239303376,4.59553566337389,82.8502767685601,78.2547411051862,-43.722906215967,-36.8296027209062,80.5525089368732
2.07052246828639,4.00261851926762,83.5579155488043,79.5552970295367,-43.780267034036,-37.7763392551345,81.5566062891705
2.07267254353902,3.34609851218328,84.2544958475367,80.9083973353534,-43.80029717986,-38.7811494115851,82.5814465914451
2.07482261879166,2.72085770936167,84.900284990279,82.1794272809173,-43.8105713498203,-39.7292847857778,83.5398561355982
2.07697269404429,2.18618564687703,85.4314301161616,83.2452444692845,-43.8088078815193,-40.5295294112037,84.338337292723
2.07912276929693,1.75183993725671,85.7583228524983,84.0064829152416,-43.7550813948775,-41.1273214889925,84.88240288387
2.08127284454956,1.38315212203658,85.7790346285944,84.3958825065578,-43.5810933753155,-41.5063651922606,85.0874585675761
2.08342291980219,1.02268322019451,85.4057696841339,84.3830864639394,-43.2142264521642,-41.6802016218724,84.8944280740366
2.08557299505483,0.621487163608285,84.5937014792645,83.9722143156562,-42.6075943214364,-41.675363576024,84.2829578974603
2.08772307030746,0.171102876780092,83.3582095611138,83.1871066843337,-41.7646562189469,-41.5080019037768,83.2726581227237
2.08987314556009,-0.274327481597108,81.7724882922951,82.0468157738922,-40.749080405349,-41.1605716277446,81.9096520330936
2.09202322081273,-0.597400064761985,79.9492969842746,80.5466970490366,-39.6759484597563,-40.5720485568993,80.2479970166556
2.09417329606536,-0.64651373483952,78.0193926754494,78.6659064102889,-38.6864394703049,-39.6562100725642,78.3426495428691
2.096323371318,-0.29222974040305,76.1181690393909,76.410398779794,-37.9129696494939,-38.3513142600985,76.2642839095925
2.09847344657063,0.506963747014778,74.3826451505248,73.87568140351,-37.4448044487698,-36.6843588282476,74.1291632770174
2.10062352182326,1.65836949031165,72.951277083942,71.2929075936304,-37.3048232871268,-34.8172690516594,72.1220923387862
2.1027735970759,2.93453845377749,71.9563925292485,69.0218540754711,-37.445465491513,-33.0436578108468,70.4891233023598
2.10492367232853,4.0276395989301,71.5042438384352,67.4766042395051,-37.7659417186827,-31.7244823202875,69.4904240389702
2.10707374758117,4.6443131396883,71.6462022069331,67.0018890672448,-38.1452576733107,-31.1787879637783,69.324045637089
2.1092238228338,4.60682610497775,72.3517245410949,67.7448984361171,-38.4792753230363,-31.5690361655697,70.048311488606
