t,leadI,leadII,leadIII,aVR,aVL,aVF
0,488.621621621622,530.477477477477,41.8558558558559,-509.54954954955,223.382882882883,286.166666666667
0.00216309755569976,512.930076199014,552.848498431197,39.9184222321828,-532.889287315105,236.505826983416,296.38346033169
0.00432619511139952,521.603479622948,557.416995328802,35.8135157058543,-539.510237475875,242.894981958547,296.615255517328
0.00648929266709929,525.923530002596,556.637573412221,30.7140434096245,-541.280551707409,247.604743296486,293.675808410923
0.00865239022279905,529.510244283533,553.181211514909,23.6709672313756,-541.345727899221,252.919638526079,288.426089373142
0.0108154877784988,531.070325812035,549.435368226108,18.3650424140727,-540.252847019071,256.352641698981,283.90020532009
0.0129785853341986,531.605908559672,547.371675314078,15.7657667544059,-539.488791936875,257.920070902633,281.568721034242
0.0151416828898983,530.617622797808,547.543882770437,16.9262599726292,-539.080752784122,256.845681412589,282.235071371533
0.0173047804455981,529.632771461315,548.212529136106,18.5797576747909,-538.922650298711,255.526506893262,283.396143405449
0.0194678780012979,528.104809028735,547.612351865614,19.5075428368787,-537.858580447175,254.298633095928,283.559947351246
0.0216309755569976,526.99345133395,546.092834054181,19.0993827202311,-536.543142694065,253.947034306859,282.596108387206
0.0237940731126974,525.913343109406,542.281147195837,16.3678040864311,-534.097245152621,254.772769511487,279.324475641134
0.0259571706683971,523.774182518306,536.528358420557,12.7541759022513,-530.151270469432,255.510003308027,274.641267161404
0.0281202682240969,522.213737552651,531.250913779993,9.03717622734223,-526.732325666322,256.588280662654,270.144045003667
0.0302833657797967,520.80496691208,528.751283601047,7.94631668896773,-524.778125256563,256.429325111556,268.348800145008
0.0324464633354964,519.506753976255,527.737756351862,8.23100237560698,-523.622255164059,255.637875800324,267.984379363735
0.0346095608911962,516.938317523016,528.078776284307,11.1404587612908,-522.508546903661,252.898929380862,269.609617522799
0.036772658446896,515.334001629792,528.597820564034,13.2638189342414,-521.965911096913,251.035091347775,270.930819749138
0.0389357560025957,513.892967608153,527.89599329162,14.0030256834674,-520.894480449886,249.944970962343,270.949509487544
0.0410988535582955,512.571092072115,524.952350879391,12.3812588072759,-518.761721475753,250.09491663242,268.666804843333
0.0432619511139952,512.957121971611,521.183021517715,8.22589954610351,-517.070071744663,252.365611212754,264.704460531909
0.045425048669695,513.509019338877,517.891695551343,4.38267621246632,-515.70035744511,254.563171563205,261.137185881905
0.0475881462253948,513.371504446193,515.759702552358,2.38819810616462,-514.565603499276,255.491653170014,259.073950329261
0.0497512437810945,513.000983776084,515.014151313469,2.01316753738479,-514.007567544777,255.49390811935,258.513659425427
0.0519143413367943,512.460405404759,516.361109742045,3.90070433728647,-514.410757573402,254.279850533736,260.130907039666
0.054077438892494,510.985242711875,518.424803751605,7.43956103972931,-514.70502323174,251.772840836073,262.932182395667
0.0562405364481938,508.287667119336,518.039884132183,9.75221701284727,-513.163775625759,249.267725053244,263.896050572515
0.0584036340038936,504.968077355807,515.327546935176,10.3594695793694,-510.147812145492,247.304303888219,262.843508257273
0.0605667315595933,500.924358173355,510.376246153696,9.45188798034116,-505.650302163525,245.736235096507,259.914067067018
0.0627298291152931,497.432762480072,504.871476604506,7.43871412443366,-501.152119542289,244.997024177819,256.15509536447
0.0648929266709929,494.614286868333,499.503073721182,4.88878685284931,-497.058680294757,244.862750007742,252.195930287016
0.0670560242266926,493.09755238967,497.74622795225,4.64867556257985,-495.42189017096,244.224438413545,251.197451757415
0.0692191217823924,491.990573155817,498.084942259929,6.09436910411176,-495.037757707873,242.948102025853,252.08965568202
0.0713822193380921,491.993119876334,499.412775641596,7.41965576526127,-495.702947758965,242.286732055537,253.416215703428
0.0735453168937919,492.805447220578,500.922199010034,8.11675178945666,-496.863823115306,242.344347715561,254.519475399746
0.0757084144494917,493.668475498363,501.213373642727,7.54489814436386,-497.440924570545,243.061788677,254.379135893545
0.0778715120051914,493.758038901883,498.724323520431,4.96628461854783,-496.241181211157,244.395877141668,251.845304069489
0.0800346095608912,493.553249983681,494.746456055422,1.19320607174149,-494.149853019551,246.18002195597,247.969831063582
0.082197707116591,493.673942275749,492.11339040819,-1.56055186755873,-492.893666341969,247.617247071654,245.276419270316
0.0843608046722907,494.302341219143,491.542444861293,-2.75989635785021,-492.922393040218,248.531118788497,244.391274251721
0.0865239022279905,494.490818072561,492.206368648041,-2.28444942452029,-493.348593360301,248.387633748541,244.96095961176
0.0886869997836902,493.817908097612,494.041710358952,0.22380226134004,-493.929809228282,246.797052918136,247.132756310146
0.09085009733939,493.056632720556,495.92153552949,2.86490280893469,-494.489084125023,245.09586495581,249.393219169212
0.0930131948950898,491.690551979941,496.483045617354,4.7924936374128,-494.086798798648,243.449029171264,250.637769627383
0.0951762924507895,490.423370225452,494.191298148233,3.76792792278093,-492.307334186842,243.327721151336,248.979613035507
0.0973393900064893,489.498525493509,491.167899434578,1.66937394106924,-490.333212464044,243.91457577622,246.418636687824
0.099502487562189,489.093689522789,487.880665816897,-1.21302370589291,-488.487177669843,245.153356614341,243.333821055502
0.101665585117889,489.068378716221,485.751654992777,-3.31672372344349,-487.410016854499,246.192551219832,241.217465634667
0.103828682673589,488.239437145659,485.548590727294,-2.69084641836474,-486.894013936476,245.465141782012,241.428872154465
0.105991780229288,488.444907925278,487.561635229514,-0.883272695764333,-488.003271577396,244.664090310521,243.339181266875
0.108154877784988,489.135181921168,490.381624314043,1.24644239287454,-489.758403117605,243.944369764147,245.814033353459
0.110317975340688,490.44944274479,491.899463406233,1.45002066144264,-491.174453075511,244.499711041674,246.674742033838
0.112481072896388,491.948960266634,492.196780203431,0.247819936796759,-492.072870235033,245.850570164919,246.222300070114
0.114644170452087,493.043373815142,490.792837749743,-2.25053606539927,-491.918105782442,247.646954940271,244.271150842172
0.116807268007787,493.842124745164,487.606929376055,-6.23519536910845,-490.724527060609,250.038660057136,240.685867003473
0.118970365563487,494.15493193783,485.281713939973,-8.87321799785678,-489.718322938902,251.514074967843,238.204247971058
0.121133463119187,493.032451264921,485.205607169119,-7.82684409580276,-489.11902921702,250.429647680362,238.689381536658
0.123296560674886,491.943059506633,486.500842174534,-5.44221733209912,-489.221950840584,248.692638419366,240.529312421218
0.125459658230586,490.877817487137,488.52678624489,-2.35103124224719,-489.702301866013,246.614424364692,243.087877501321
0.127622755786286,490.640669640097,490.815877575349,0.175207935251706,-490.728273607723,245.232730852423,245.4955427553
0.129785853341986,491.548213604554,491.676088027728,0.127874423174262,-491.612150816141,245.71016959069,245.901981225451
0.131948950897685,493.831516200696,489.872501376036,-3.95901482466041,-491.852008788366,248.895265512678,242.956743275688
0.134112048453385,496.038282840651,487.745696226331,-8.29258661431936,-491.891989533491,252.165434727485,239.726554806006
0.136275146009085,498.459346400286,487.003929334875,-11.4554170654102,-492.731637867581,254.957381732848,237.774256134733
0.138438243564785,500.766657023692,487.00286780065,-13.7637892230421,-493.884762412171,257.265223123367,236.619539288804
0.140601341120485,501.640164713853,488.082717893977,-13.5574468198766,-494.861441303915,257.598805766865,237.26263553705
0.142764438676184,500.926907816042,489.951464624188,-10.9754431918541,-495.439186220115,255.951175503948,239.488010716167
0.144927536231884,499.595873064219,492.666138876175,-6.92973418804382,-496.131005970197,253.262803626131,242.868202344066
0.147090633787584,498.624425618818,492.216021108936,-6.40840450988276,-495.420223363877,252.516415064351,242.903808299526
0.149253731343284,497.375108311556,490.536724393231,-6.83838391832484,-493.955916352394,252.106746114941,241.849170237453
0.151416828898983,497.273770471065,487.69016284562,-9.58360762544413,-492.481966658343,253.428689048254,239.053277610088
0.153579926454683,498.280434525166,484.802148946957,-13.4782855782094,-491.541291736061,255.879360051688,235.661931684374
0.155743024010383,500.095766879271,482.694349942989,-17.4014169362821,-491.39505841113,258.748591907776,232.646466503353
0.157906121566083,501.150519709431,482.776923204549,-18.3735965048816,-491.96372145699,259.762058107156,232.201663349834
0.160069219121782,502.460636934277,485.268594693409,-17.1920422408677,-493.864615813843,259.826339587572,234.038276226271
0.162232316677482,503.416817852551,487.357281863482,-16.059535989069,-495.387049858017,259.73817692081,235.648872937207
0.164395414233182,502.763899496722,488.881697219903,-13.8822022768189,-495.822798358313,258.323050886771,237.499747471542
0.166558511788882,502.017214878694,487.56287639147,-14.4543384872239,-494.790045635082,258.235776682959,236.554268952123
0.168721609344581,501.472251748535,484.168937295339,-17.303314453196,-492.820594521937,259.387783100865,233.432811421071
0.170884706900281,501.614826216972,480.070954657512,-21.5438715594609,-490.842890437242,261.579348888217,229.263541549025
0.173047804455981,500.908414671493,476.539755061692,-24.3686596098003,-488.724084866592,262.638537140646,226.085547725946
0.175210902011681,500.12268838129,475.3133120314,-24.8093763498899,-487.718000206345,262.46603236559,225.251967840755
0.17737399956738,497.928293657987,475.228668839863,-22.6996248181237,-486.578481248925,260.313959238055,226.26452201087
0.17953709712308,496.326728300483,475.707204956056,-20.6195233444265,-486.016966628269,258.473125822455,227.543840805815
0.18170019467878,495.157835773026,475.786305355983,-19.3715304170436,-485.472070564505,257.264683095035,228.20738746947
0.18386329223448,494.034570611001,474.763411444021,-19.27115916698,-484.398991027511,256.652864888991,227.746126138521
0.18602638979018,494.565543569434,471.315296557745,-23.2502470116891,-482.94042006359,258.907895290562,224.032524773028
0.188189487345879,496.303851944169,466.907617844142,-29.3962341000267,-481.605734894156,262.850043022098,218.755691872058
0.190352584901579,499.193482784551,464.231013338697,-34.9624694458536,-481.712248061624,267.077976115202,214.634271946422
0.192515682457279,501.302461903387,462.00735395525,-39.2951079481375,-481.654907929318,270.298784925762,211.356123003556
0.194678780012979,503.111843424434,462.275523450429,-40.8363199740053,-482.693683437431,271.97408169922,210.719601738212
0.196841877568678,504.432409287924,464.362338773752,-40.0700705141722,-484.397374030838,272.251239901048,212.14613412979
0.199004975124378,506.206684715822,466.695856610066,-39.5108281057562,-486.451270662944,272.858756410789,213.592514252155
0.201168072680078,506.961316191559,466.237710412413,-40.7236057791457,-486.599513301986,273.842460985352,212.757052316634
0.203331170235778,506.971766862708,463.471929349157,-43.4998375135514,-485.221848105932,275.23580218813,209.986045917803
0.205494267791477,505.898769372641,458.211466678356,-47.6873026942852,-482.055118025499,276.793036033463,205.262081992036
0.207657365347177,503.764867760481,452.48105719229,-51.283810568191,-478.122962476385,277.524339164336,200.598623312049
0.209820462902877,501.126828076882,447.488284789838,-53.6385432870441,-474.30755643336,277.382685681963,196.924870751397
0.211983560458577,499.741783624714,445.735434349471,-54.0063492752435,-472.738608987093,276.874066449979,195.864542537114
0.214146658014276,499.541386170633,445.536752191537,-54.0046339790956,-472.539069181085,276.773010074864,195.766059106221
0.216309755569976,499.935439757358,445.121589040886,-54.8138507164722,-472.528514399122,277.374645236915,195.153869162207
0.218472853125676,501.033505955435,444.27827237058,-56.7552335848542,-472.655889163007,278.894369770144,193.761519392863
0.220635950681376,502.105078960926,441.231377030488,-60.873701930438,-471.668227995707,281.489390445682,190.178837550025
0.222799048237075,503.157316074381,435.765744850984,-67.391571223397,-469.461530462683,285.274443648889,184.187086813794
0.224962145792775,503.11481615966,428.804968825991,-74.3098473336688,-465.959892492825,288.712331746664,177.247560746161
0.227125243348475,502.813641649033,423.454533471725,-79.3591081773075,-463.134087560379,291.08637491317,172.047712647209
0.229288340904175,501.513206455823,419.279395252761,-82.233811203062,-460.396300854292,291.873508829442,168.522792024849
0.231451438459875,500.023779484451,417.312821406558,-82.7109580778929,-458.668300445505,291.367368781172,167.300931664333
0.233614536015574,499.477042885268,416.958154548499,-82.5188883367698,-458.217598716883,290.997965611019,167.219633105864
0.235777633571274,500.42879163397,416.96945935716,-83.4593322768102,-458.699125495565,291.94406195539,166.755063540175
0.237940731126974,501.663731969813,414.276147982822,-87.3875839869914,-457.969939976317,294.525657978402,163.444281997915
0.240103828682674,503.375514138252,409.87904549992,-93.4964686383315,-456.627279819086,298.435991388292,158.191288430794
0.242266926238373,505.165160144259,404.778754083909,-100.386406060349,-454.971957114084,302.775783102304,152.19617401178
0.244430023794073,506.20116595282,401.596650500033,-104.604515452787,-453.898908226427,305.402840702804,148.496067523623
0.246593121349773,506.957288356664,400.084680601774,-106.872607754889,-453.520984479219,306.914948055777,146.606036423443
0.248756218905473,506.428514748687,401.68274088241,-104.745773866277,-454.055627815548,305.587144307482,148.468483508066
0.250919316461172,504.691811556221,405.280481158131,-99.4113303980896,-454.986146357176,302.051570977155,152.934575380021
0.253082414016872,503.154133307505,408.986894397152,-94.1672389103529,-456.070513852328,298.660686108929,157.4098277434
0.255245511572572,501.491555965796,411.151684652145,-90.3398713136514,-456.321620308971,295.915713639724,160.405906669247
0.257408609128272,500.548290432539,411.921174736737,-88.6271156958016,-456.234732584638,294.58770306417,161.647029520468
0.259571706683971,499.589697730664,410.861845023774,-88.7278527068903,-455.225771377219,294.158775218777,161.066996158442
0.261734804239671,499.160231013727,409.818543601316,-89.3416874124112,-454.489387307521,294.250959213069,160.238428094452
0.263897901795371,498.576631186291,410.137721386476,-88.4389097998151,-454.357176286383,293.507770493053,160.84940579333
0.266060999351071,498.150694477484,413.882702064615,-84.267992412869,-456.016698271049,291.209343445176,164.807354825873
0.268224096906771,498.109983428297,419.587671279803,-78.5223121484935,-458.84882735405,288.316147788395,170.532679565655
0.27038719446247,498.620583145683,425.372344894202,-73.2482382514808,-461.996464019942,285.934410698582,176.062053321361
0.27255029201817,499.53355360138,430.674877845507,-68.8586757558728,-465.104215723444,284.196114678626,180.908101044817
0.27471338957387,500.470035629087,433.464273733877,-67.0057618952103,-466.967154681482,283.737898762149,183.229255919333
0.27687648712957,501.153521219703,433.06869108879,-68.0848301309137,-467.111106154247,284.619175675309,182.491930478938
0.279039584685269,501.112046508546,432.239665128838,-68.8723813797084,-466.675855818692,284.992213944127,181.683641874565
0.281202682240969,500.271307812629,432.715230529257,-67.5560772833725,-466.493269170943,283.913692548001,182.579576622942
0.283365779796669,499.927856109846,434.683256253831,-65.2445998560156,-467.305556181839,282.586227982931,184.719328198908
0.285528877352369,501.027971077407,439.361482146248,-61.6664889311587,-470.194726611827,281.347230004283,188.847496607545
0.287691974908068,502.641351788322,446.558043219493,-56.0833085688296,-474.599697503907,279.362330178576,195.237367325332
0.289855072463768,504.089023889942,451.810408614687,-52.2786152752552,-477.949716252314,278.183819582599,199.765896669716
0.292018170019468,505.415754592427,454.563190023863,-50.8525645685644,-479.989472308145,278.134159580496,201.855312727649
0.294181267575168,506.113904542284,454.681196952324,-51.43270758996,-480.397550747304,278.773306066122,201.624244681182
0.296344365130867,506.623444946369,453.686698728531,-52.9367462178382,-480.15507183745,279.780095582103,200.374976255346
0.298507462686567,506.995329845091,453.231026589462,-53.7643032556285,-480.113178217276,280.379816550359,199.733361666917
0.300670560242267,505.915966668963,453.438769533083,-52.4771971358802,-479.677368101023,279.196581902422,200.480786198601
0.302833657797967,504.047575312246,455.751639124985,-48.2959361872602,-479.899607218615,276.171755749753,203.727851468863
0.304996755353666,501.603316639266,459.330766112488,-42.2725505267781,-480.467041375877,271.937933583022,208.529107792855
0.307159852909366,499.819389630213,462.483282134982,-37.3361074952306,-481.151335882598,268.577748562722,212.573587319876
0.309322950465066,499.057714007924,463.97365773536,-35.0840562725643,-481.515685871642,267.070885140244,214.444800731398
0.311486048020766,499.042122210172,464.250930473659,-34.7911917365126,-481.646526341915,266.916656973342,214.729869368573
0.313649145576466,500.651679904666,462.832358988094,-37.8193209165719,-481.74201944638,269.235500410619,212.506519035761
0.315812243132165,503.177186648985,461.526867189467,-41.6503194595182,-482.352026919226,272.413753054252,209.938273864974
0.317975340687865,505.830880693817,462.465155592887,-43.3657251009299,-484.148018143352,274.598302897374,209.549715245979
0.320138438243565,508.307975231775,465.851521674313,-42.4564535574613,-487.079748453044,275.382214394618,211.697534058426
0.322301535799265,509.845711081038,470.484289618144,-39.3614214628942,-490.165000349591,274.603566271966,215.561434077625
0.324464633354964,510.697861826533,475.486423795019,-35.2114380315149,-493.092142810776,272.954649929024,220.137492881752
0.326627730910664,510.779486330939,478.596887927652,-32.1825984032872,-494.688187129295,271.481042367113,223.207144762182
0.328790828466364,510.839059468438,478.975947369949,-31.8631120984896,-494.907503419194,271.351085783464,223.55641763573
0.330953926022064,512.23331961214,477.361508066139,-34.8718115460007,-494.797413839139,273.55256557907,221.244848260069
0.333117023577763,513.521067928927,475.6429071452,-37.8781607837269,-494.581987537064,275.699614356327,218.882373180737
0.335280121133463,514.190766826735,474.658753150653,-39.5320136760824,-494.424759988694,276.861390251409,217.563369737285
0.337443218689163,513.869073771602,475.5614117424,-38.3076620292015,-494.715242757001,276.088367900402,218.626874856599
0.339606316244863,512.823819458014,478.11130499149,-34.7125144665244,-495.467562224752,273.768166962269,221.699395262483
0.341769413800562,511.520634666484,482.403734646573,-29.1169000199116,-496.962184656529,270.318767343198,226.643417313331
0.343932511356262,510.839669553475,484.99622534257,-25.8434442109048,-497.917947448022,268.34155688219,229.576390565832
0.346095608911962,510.342671395812,485.537557513466,-24.8051138823467,-497.940114454639,267.57389263908,230.366221815559
0.348258706467662,510.790409013346,484.58186437635,-26.2085446369966,-497.686136694848,268.499476825171,229.186659869677
0.350421804023361,511.387343744086,482.803732829382,-28.5836109147043,-497.095538286734,269.985477329395,227.110060957339
0.352584901579061,513.173793908593,480.695505929738,-32.4782879788555,-496.934649919166,272.826040943724,224.108608975441
0.354747999134761,515.828404523318,481.588235529912,-34.2401689934056,-498.708320026615,275.034286758362,223.674033268253
0.356911096690461,518.036011802246,485.481663225537,-32.5543485767082,-501.758837513892,275.295180189477,226.463657324415
0.35907419424616,519.91737647327,490.48450693869,-29.4328695345802,-505.20094170598,274.675123003925,230.525818702055
0.36123729180186,521.020322579749,494.676113769454,-26.3442088102954,-507.848218174602,273.682265695022,234.165952479579
0.36340038935756,521.555144732332,497.19501955342,-24.3601251789116,-509.375082142876,272.957634955622,236.417447187254
0.36556348691326,520.324544086918,496.872177597756,-23.4523664891623,-508.598360842337,271.88845528804,236.709905554297
0.36772658446896,518.886085426453,493.664835071279,-25.221250355174,-506.275460248866,272.053667890813,234.221792358052
0.369889682024659,518.376547732376,490.513507416315,-27.8630403160613,-504.445027574345,273.119794024219,231.325233550127
0.372052779580359,518.274821023408,489.834467774212,-28.4403532491966,-504.05464439881,273.357587136302,230.697057262508
0.374215877136059,519.55135747614,491.770280816375,-27.7810766597649,-505.660819146257,273.666217067952,231.994602078305
0.376378974691759,520.483029676485,495.344371635149,-25.1386580413367,-507.913700655817,272.810843858911,235.102856796906
0.378542072247458,520.622692420736,498.763368253052,-21.859324167684,-509.693030336894,271.24100829421,238.452022042684
0.380705169803158,520.454468195189,501.258701696261,-19.1957664989279,-510.856584945725,269.825117347058,241.031467598667
0.382868267358858,519.251065941674,500.648499402251,-18.6025665394229,-509.949782671962,268.926816240548,241.022966431414
0.385031364914558,518.102614070455,497.50158492975,-20.6010291407049,-507.802099500102,269.35182160558,238.450277894522
0.387194462470257,516.724111182538,493.583891678994,-23.140219503544,-505.154001430766,269.932165343041,235.221836087725
0.389357560025957,515.718019412874,491.26490001988,-24.4531193929942,-503.491459716377,270.085569402934,233.405890313443
0.391520657581657,513.903104737012,490.112710786498,-23.7903939505141,-502.007907761755,268.846749343763,233.161158417992
0.393683755137357,512.038188111108,492.243510962354,-19.794677148754,-502.140849536731,265.916432629931,236.2244169068
0.395846852693056,509.866621660699,495.149443293803,-14.7171783668961,-502.508032477251,262.291900013798,240.216132463454
0.398009950248756,508.011561164489,496.189695107146,-11.8218660573427,-502.100628135818,259.916713610916,242.183914524902
0.400173047804456,506.927812996599,495.598135371846,-11.3296776247535,-501.262974184223,259.128745310676,242.134228873546
0.402336145360156,506.407002340241,493.275295690628,-13.1317066496127,-499.841149015435,259.769354494927,240.071794520508
0.404499242915855,506.297048129779,489.688892095372,-16.6081560344064,-497.992970112575,261.452602082093,236.540368030483
0.406662340471555,505.406330096679,485.990752862167,-19.4155772345124,-495.698541479423,262.410953665596,233.287587813827
0.408825438027255,504.486088861376,484.642469974536,-19.8436188868397,-494.564279417956,262.164853874108,232.399425543848
0.410988535582955,504.354768935954,485.819683779332,-18.5350851566212,-495.087226357643,261.444927046287,233.642299311356
0.413151633138655,504.258925904127,488.569959445163,-15.6889664589632,-496.414442674645,259.973946181545,236.4404964931
0.415314730694354,503.378506827097,490.847387267382,-12.531119559715,-497.11294704724,257.954813193406,239.158133853834
0.417477828250054,502.195626009035,491.428928968853,-10.7666970401816,-496.812277488944,256.481161524608,240.331115964336
0.419640925805754,500.251682944389,489.692113872236,-10.559569072153,-494.971898408312,255.405626008271,239.566272400041
0.421804023361454,498.56275196231,485.182635620383,-13.3801163419276,-491.872693791346,255.971434152119,235.901259639227
0.423967120917153,497.059939964591,480.810796083081,-16.24914388151,-488.935368023836,256.65454192305,232.280826100785
0.426130218472853,496.233278175202,478.970817213446,-17.2624609617568,-487.602047694324,256.74786956848,230.854178125844
0.428293316028553,495.629944203334,479.248857336385,-16.3810868669495,-487.439400769859,256.005515535142,231.433885234718
0.430456413584253,496.270229499286,482.153345311679,-14.1168841876072,-489.211787405482,255.193556843447,234.018230562036
0.432619511139952,498.088318804524,486.434417513113,-11.6539012914108,-492.261368158819,254.871110047968,237.390258110851
0.434782608695652,499.415239990215,489.018619042116,-10.3966209480987,-494.216929516166,254.905930469157,239.310999047009
0.436945706251352,500.923997598671,488.743432780358,-12.1805648183129,-494.833715189514,256.552281208492,238.281433981023
0.439108803807052,502.565467390737,486.381340101662,-16.1841272890748,-494.4734037462,259.374797339906,235.098606406294
0.441271901362751,503.493327710005,484.117069009389,-19.3762587006158,-493.805198359697,261.43479320531,232.370405154387
0.443434998918451,504.980989435889,482.464504818055,-22.5164846178334,-493.722747126972,263.748737026861,229.974010100111
0.445598096474151,505.796593893489,483.4196408035,-22.3769530899896,-494.608117348495,264.08677349174,230.521343856755
0.447761194029851,506.932170164182,487.358615411754,-19.5735547524283,-497.145392787968,263.252862458305,233.892530329663
0.44992429158555,506.680338603807,491.043920196799,-15.6364184070083,-498.862129400303,261.158378505408,237.703750894895
0.45208738914125,504.875603632583,492.923148365909,-11.9524552666742,-498.899375999246,258.414029449628,240.485346549617
0.45425048669695,503.018116600873,492.403597888508,-10.6145187123657,-497.71085724469,256.81631765662,240.894539588071
0.45641358425265,500.851972593636,489.863157504984,-10.988815088652,-495.35756504931,255.920393841144,239.437171208166
0.45857668180835,497.920244786405,484.7671583295,-13.153086456905,-491.343701557952,255.536665621655,235.807035936297
0.460739779364049,495.780541457813,480.23740635135,-15.5431351064635,-488.008973904582,255.661838282138,232.347135622443
0.462902876919749,493.948736063132,478.822488491437,-15.1262475716952,-486.385612277284,254.537491817414,231.848120459871
0.465065974475449,493.152116698507,481.301850234999,-11.8502664635083,-487.226983466753,252.501191581008,234.725791885745
0.467229072031149,494.191646274962,483.921865637675,-10.2697806372872,-489.056755956319,252.230713456125,236.826042500194
0.469392169586848,496.301121538272,487.725161087221,-8.57596045105151,-492.013141312747,252.438540994662,239.574600318085
0.471555267142548,500.272114862254,490.77112885736,-9.50098600489412,-495.521621859807,254.886550433574,240.635071426233
0.473718364698248,506.952506638665,491.913584665749,-15.0389219729157,-499.433045652207,260.99571430579,238.437331346417
0.475881462253948,516.961117104503,493.017555152585,-23.9435619519184,-504.989336128544,270.452339528211,234.536996600333
0.478044559809647,529.398807306353,496.254687061523,-33.1441202448294,-512.826747183938,281.271463775591,231.555283408347
0.480207657365347,543.87950247627,503.209943278432,-40.6695591978383,-523.544722877351,292.274530837054,231.270192040297
0.482370754921047,559.310959707505,513.689318060617,-45.6216416468877,-536.500138884061,302.466300677196,234.033838206865
0.484533852476747,576.246793358794,526.740748886297,-49.5060444724975,-551.493771122545,312.876418915646,238.6173522069
0.486696950032446,593.199961947781,542.209691261782,-50.9902706859988,-567.704826604781,322.09511631689,245.609710287892
0.488860047588146,609.895626121492,555.660852458418,-54.2347736630732,-582.778239289955,332.065199892282,250.713039397673
0.491023145143846,624.512258814196,566.288567536512,-58.2236912776848,-595.400413175354,341.367975045941,254.032438129413
0.493186242699546,634.909961176449,574.045139368256,-60.8648218081931,-604.477550272353,347.887391492321,256.590158780032
0.495349340255246,638.716472690144,577.274819229982,-61.4416534601626,-607.995645960063,350.079063075153,257.916582884909
0.497512437810945,634.470569964191,578.281199955347,-56.1893700088439,-606.375884959769,345.329969986517,261.045914973251
0.499675535366645,623.80735030225,577.664919616888,-46.1424306853618,-600.736134959569,334.974890493806,265.761244465763
0.501838632922345,608.460491738129,576.404662604504,-32.0558291336247,-592.432577171317,320.258160435877,272.17441673544
0.504001730478045,591.046089474773,573.593778369469,-17.4523111053038,-582.319933922121,304.249200290038,278.070733632083
0.506164828033744,573.203328133333,567.760085005177,-5.44324312815525,-570.481706569255,289.323285630744,281.158420938511
0.508327925589444,557.209181274638,560.800838022687,3.59165674804956,-559.005009648662,276.808762263294,282.196247385368
0.510491023145144,544.45532769592,551.399175452519,6.94384775659955,-547.92725157422,268.75573996966,279.171511604559
0.512654120700844,535.687319310537,540.485087249529,4.79776793899157,-538.086203280033,265.444775685773,272.64142759426
0.514817218256543,529.288042856209,532.519507771491,3.23146491528269,-530.90377531385,263.028288970463,267.875486343387
0.516980315812243,525.698195534987,528.326816341833,2.62862080684545,-527.01250593841,261.534787364071,265.477718574339
0.519143413367943,524.158792614751,526.887743817587,2.72895120283601,-525.523268216169,260.714920705958,264.808347510212
0.521306510923643,523.575581379734,527.728539158202,4.15295777846836,-525.652060268968,259.711311800633,265.940748468335
0.523469608479342,522.609615858946,528.072032202765,5.4624163438192,-525.340824030856,258.573599757563,266.767224273292
0.525632706035042,521.634455712181,527.242103620118,5.60764790793712,-524.43827966615,258.013403902122,266.424875764028
0.527795803590742,520.382428712892,523.124354645152,2.74192593226064,-521.753391679022,258.820251390315,262.933140288706
0.529958901146442,518.388019737404,517.147322804113,-1.24069693329125,-517.767671270759,259.814358335348,257.953312935411
0.532121998702141,515.581631676299,511.704398395999,-3.87723328030052,-513.643015036149,259.7294324783,253.913582557849
0.534285096257841,512.722938147209,507.731913827484,-4.99102431972494,-510.227425987347,258.856981233467,251.37044475388
0.536448193813541,509.285757373482,505.913245489205,-3.37251188427717,-507.599501431343,256.32913462888,251.270366802464
0.538611291369241,506.23683991336,506.747151394819,0.510311481459269,-506.491995654089,252.86326421595,253.628731438139
0.54077438892494,503.47129402083,507.625928651787,4.15463463095659,-505.548611336308,249.658329694937,255.890281641372
0.54293748648064,501.452877530383,506.646361502703,5.19348397231977,-504.049619516543,248.129696779032,255.919922737511
0.54510058403634,499.16928015736,503.229868385173,4.06058822781341,-501.199574271267,247.554345964773,253.645228306493
0.54726368159204,497.232454588201,498.575112411188,1.34265782298689,-497.903783499695,247.944898382607,249.958885117087
0.54942677914774,495.548718265991,492.206149347733,-3.34256891825737,-493.877433806862,249.445643592124,244.431790214738
0.551589876703439,494.049697558508,488.638426066538,-5.41127149196916,-491.344061812523,249.730484525238,241.613577287285
0.553752974259139,493.225802818747,488.195795086971,-5.03000773177632,-490.710798952859,249.127905275262,241.582893677597
0.555916071814839,492.894644572733,489.763837099201,-3.13080747353126,-491.329240835967,248.012726023132,243.316514812835
0.558079169370539,492.38279457212,491.718731456967,-0.664063115152771,-492.050763014544,246.523428843636,245.527334170907
0.560242266926238,492.819692664334,493.14549896043,0.32580629609555,-492.982595812382,246.246943184119,246.735652628263
0.562405364481938,493.138560022982,492.836035300577,-0.302524722404883,-492.98729766178,246.720542372694,246.266755289086
0.564568462037638,492.830970960185,489.638456840194,-3.19251411999056,-491.234713900189,248.011742540088,243.222971360102
0.566731559593338,492.336322781534,484.603161945114,-7.73316083642004,-488.469742363324,250.034741808977,238.435000554347
0.568894657149037,491.705150669166,481.468495668289,-10.2366550008766,-486.586823168727,250.970902835021,235.615920333706
0.571057754704737,491.514649835585,480.531460017651,-10.9831898179342,-486.023054926618,251.24891982676,234.774135099858
0.573220852260437,491.375613985563,481.738663851879,-9.63695013368374,-486.557138918721,250.506282059623,236.050856859098
0.575383949816137,491.544295745969,484.780983766269,-6.76331197970018,-488.162639756119,249.153803862835,239.008835893284
0.577547047371836,491.937563292843,488.352183116643,-3.58538017620009,-490.144873204743,247.761471734522,242.383401470222
0.579710144927536,493.035055804617,489.607819719324,-3.42723608529315,-491.321437761971,248.231145944955,243.090291817015
0.581873242483236,493.565897684981,487.552519963349,-6.01337772163191,-490.559208824165,249.789637703306,240.769571120859
0.584036340038936,495.033954181329,485.242003568094,-9.79195061323537,-490.137978874712,252.412952397282,237.725026477429
0.586199437594636,496.645718519554,482.745218894034,-13.9004996255206,-489.695468706794,255.273109072537,234.422359634257
0.588362535150335,497.281742285991,481.733424744991,-15.5483175409996,-489.507583515491,256.415029913495,233.092553601996
0.590525632706035,497.475784069155,483.156222765421,-14.3195613037338,-490.316003417288,255.897672686445,234.418330730844
0.592688730261735,497.617404259235,486.89620518111,-10.7211990781249,-492.256804720173,254.16930166868,238.087503051493
0.594851827817435,497.450608663367,490.706432962396,-6.7441757009704,-494.078520812881,252.097392182169,241.981128630713
0.597014925373134,498.949811205065,492.946991616179,-6.00281958888604,-495.948401410622,252.476315396975,243.472086013646
0.599178022928834,500.584307291013,493.231468372221,-7.35283891879175,-496.907887831617,253.968573104902,242.939314726715
0.601341120484534,501.777234106062,490.467373634897,-11.3098604711647,-496.12230387048,256.543547288613,239.578756581866
0.603504218040234,501.567259484231,486.829078989833,-14.7381804943974,-494.198169237032,258.152719989314,236.045449247718
0.605667315595933,500.873698387079,484.714004667496,-16.1596937195833,-492.793851527288,258.516696053331,234.277155473956
0.607830413151633,499.827194704893,485.06142429501,-14.7657704098828,-492.444309499951,257.296482557388,235.147826942564
0.609993510707333,498.523098069452,486.935923623255,-11.5871744461974,-492.729510846353,255.055136257825,237.674374588529
0.612156608263033,497.030998817213,489.654796373183,-7.37620244403024,-493.342897595198,252.203600630622,241.139296964576
0.614319705818732,496.482311870439,492.179461184173,-4.30285068626614,-494.330886527306,250.392581278353,243.938305248953
0.616482803374432,496.081856110709,492.401134842351,-3.68072126835847,-494.24149547653,249.881288689534,244.360206786996
0.618645900930132,497.140367021408,489.861359866047,-7.27900715536128,-493.500863443727,252.209687088385,241.291176355343
0.620808998485832,498.723383269862,486.656939816989,-12.0664434528734,-492.690161543426,255.394913361368,237.295248182058
0.622972096041531,501.229518904662,485.668994808989,-15.5605240956727,-493.449256856825,258.395021500167,235.054235356658
0.625135193597231,503.869075065542,486.028574129374,-17.8405009361678,-494.948824597458,260.854788000855,234.094036596603
0.627298291152931,506.065694944848,488.992572981413,-17.0731219634349,-497.52913396313,261.569408454141,235.959725508989
0.629461388708631,506.858415683023,493.857391250309,-13.001024432714,-500.357903466666,259.929720057869,240.428183408798
0.631624486264331,507.16682177763,497.94826106798,-9.21856070964969,-502.557541422805,258.19269124364,244.364850179165
0.63378758382003,506.311285202513,498.502551085604,-7.80873411690851,-502.406918144059,257.060009659711,245.346908484348
0.63595068137573,505.146564723904,496.205534093072,-8.94103063083134,-500.676049408488,257.043797677367,243.63225173112
0.63811377893143,505.647281777043,493.448445662361,-12.1988361146821,-499.547863719702,258.923058945863,240.624804773839
0.64027687648713,506.55303943163,491.436201797886,-15.1168376337444,-498.994620614758,260.834938532687,238.159682082071
0.642439974042829,506.943944817509,490.237734325071,-16.7062104924378,-498.59083957129,261.825077654973,236.765761916316
0.644603071598529,508.039713320753,492.604914827223,-15.4347984935303,-500.322314073988,261.737255907142,238.585058166846
0.646766169154229,508.569296944201,496.223680295198,-12.3456166490026,-502.396488619699,260.457456796602,241.939031823098
0.648929266709929,508.685654050197,499.675282428308,-9.01037162188851,-504.180468239253,258.848012836043,245.33245540321
0.651092364265628,509.310888984956,501.383944168635,-7.92694481632157,-505.347416576795,258.618916900639,246.728499676157
0.653255461821328,510.577681453826,501.820531690209,-8.75714976361667,-506.199106572018,259.667415608721,246.531690963296
0.655418559377028,511.502242068078,499.437610262089,-12.0646318059898,-505.469926165084,261.783436937034,243.686489228049
0.657581656932728,513.797964160369,496.347668800819,-17.45029535955,-505.072816480594,265.624129759959,239.448686720634
0.659744754488427,516.554107516182,496.253743914603,-20.3003636015787,-506.403925715393,268.42723555888,237.976690156512
0.661907852044127,518.835817835486,498.346443114822,-20.4893747206638,-508.591130475154,269.662596278075,238.928534197079
0.664070949599827,520.230953726466,502.035036321496,-18.1959174049704,-511.132995023981,269.213435565718,241.919559458263
0.666234047155527,520.70887256635,506.61822664342,-14.0906459229292,-513.663549604885,267.399759244639,246.263790360246
0.668397144711226,520.517366239125,510.233395841559,-10.2839703975661,-515.375381040342,265.400668318345,249.974712721996
0.670560242266926,520.377596535813,510.71065492888,-9.66694160693265,-515.544125732346,265.022269071373,250.521856660974
0.672723339822626,519.465117850467,507.546948754758,-11.9181690957089,-513.506033302612,265.691643473088,247.814389829524
0.674886437378326,518.528994738296,503.887156396753,-14.6418383415426,-511.208075567524,266.585416539919,244.622659027605
0.677049534934026,518.115927311826,501.486235890295,-16.6296914215307,-509.801081601061,267.372809366678,242.428272234382
0.679212632489725,517.814452616539,500.814563820354,-16.9998887961851,-509.314508218446,267.407170706362,241.907337512084
0.681375730045425,518.404891818521,503.296066463036,-15.108825355485,-510.850479140778,266.756858587003,244.093620553775
0.683538827601125,519.916445049841,507.538581658866,-12.3778633909752,-513.727513354354,266.147154220408,247.580359133945
0.685701925156825,521.289798998018,511.985736079941,-9.30406291807634,-516.637767538979,265.296930958047,251.340836580932
0.687865022712524,523.913070117225,513.340370625909,-10.5726994913165,-518.626720371567,267.242884804271,251.383835567296
0.690028120268224,526.638116883771,514.058886022596,-12.5792308611748,-520.348501453183,269.608673872473,250.739827580711
0.692191217823924,529.977756398051,513.232508962184,-16.7452474358669,-521.605132680118,273.361501916959,248.243630763159
0.694354315379624,532.685327764008,511.278601738633,-21.4067260253756,-521.981964751321,277.046026894692,244.935937856629
0.696517412935323,534.121119482623,511.203335748303,-22.9177837343203,-522.662227615463,278.519451608472,244.142776006991
0.698680510491023,533.818242090142,514.120121663391,-19.6981204267508,-523.969181876767,276.758181258447,247.21100061832
0.700843608046723,532.246407847317,517.869857016049,-14.3765508312684,-525.058132431683,273.311479339293,251.74665309239
0.703006705602423,529.748433329866,520.066265646568,-9.68216768329796,-524.907349488217,269.715300506582,255.192048981635
0.705169803158122,528.195458357273,521.128988418,-7.06646993927222,-524.662223387636,267.630964148272,257.031259239364
0.707332900713822,527.332185432278,520.553828971875,-6.77835646040342,-523.943007202077,267.055270946341,256.887736255736
0.709495998269522,527.512599686127,517.162334092349,-10.350265593778,-522.337466889238,268.931432639952,253.406034249285
0.711659095825222,528.454742544203,513.876603986442,-14.5781385577602,-521.165673265323,271.516440550981,249.649232714341
0.713822193380921,529.952828292314,512.829315338539,-17.1235129537752,-521.391071815426,273.538170623044,247.852901192382
0.715985290936621,531.046196869656,514.226207919462,-16.8199889501946,-522.636202394559,273.933092909926,248.703109484634
0.718148388492321,531.844185133965,517.136814775433,-14.7073703585319,-524.490499954699,273.275777746248,251.21472220845
0.720311486048021,532.156435699798,521.692509015792,-10.4639266840061,-526.924472357795,271.310181191902,255.614291165893
0.722474583603721,532.654486047482,523.936829310243,-8.71765673723894,-528.295657678863,270.686071392361,257.609586286502
0.72463768115942,532.747828788043,522.873270417003,-9.87455837104051,-527.810549602523,271.311193579542,256.499356022981
0.72680077871512,533.626423043023,519.935788870489,-13.6906341725343,-526.781105956756,273.658528607779,253.122577348977
0.72896387627082,534.807972026049,517.251573787281,-17.5563982387679,-526.029772906665,276.182185132409,249.847587774257
0.73112697382652,536.480786847295,515.832828506545,-20.6479583407501,-526.15680767692,278.564372594023,247.592435082898
0.733290071382219,538.241992777014,516.418303347693,-21.8236894293207,-527.330148062353,280.032841103167,247.297306959186
0.735453168937919,538.176616925075,519.277014430455,-18.8996024946202,-528.726815677765,278.538109709848,250.188705967917
0.737616266493619,536.237809282543,522.714208015621,-13.5236012669221,-529.476008649082,274.880705274733,254.595303374349
0.739779364049319,533.742157720779,524.412353766734,-9.32980395404468,-529.077255743756,271.535980837412,257.541274906345
0.741942461605018,531.380409507349,524.03079762329,-7.34961188405816,-527.70560356532,269.365010695703,258.340592869616
0.744105559160718,529.656702244653,521.320915335331,-8.33578690932222,-525.488808789992,268.996244576988,256.492564213004
0.746268656716418,527.588196570809,517.181874885932,-10.4063216848767,-522.38503572837,268.997259127843,253.387776600528
0.748431754272118,525.538198130302,512.540084653896,-12.9981134764056,-519.039141392099,269.268155803354,249.770985588745
0.750594851827817,523.23155086721,510.503083946608,-12.7284669206019,-516.867317406909,267.980008893906,248.887308513003
0.752757949383517,521.548058690839,510.907485117082,-10.6405735737567,-516.227771903961,266.094316132298,250.133455771663
0.754921046939217,520.04921617168,512.553415858623,-7.49580031305743,-516.301316015152,263.772508242369,252.528807772783
0.757084144494917,519.225451481561,515.375625457256,-3.84982602430568,-517.300538469409,261.537638752934,255.762899716475
0.759247242050616,518.624231939599,516.624928965999,-1.99930297359947,-517.624580452799,260.311767456599,257.3128129962
0.761410339606316,517.915279379724,514.835163252626,-3.08011612709799,-516.375221316175,260.497697753411,255.877523562764
0.763573437162016,517.12769854595,510.827351745799,-6.30034680015109,-513.977525145875,261.714022673051,252.263502472824
0.765736534717716,516.2827313549,506.011181930451,-10.2715494244491,-511.146956642675,263.277140389675,247.869816253001
0.767899632273416,514.855568663725,503.306598943762,-11.5489697199622,-509.081083803744,263.202269191843,245.8788146119
0.770062729829115,512.463181779564,501.872988275194,-10.5901935043701,-507.168085027379,261.526687641967,245.641397385412
0.772225827384815,508.555863378386,502.447613705374,-6.10824967301193,-505.50173854188,257.332056525699,248.169682016181
0.774388924940515,504.62350646756,503.947625353578,-0.675881113981859,-504.285565910569,252.649693790771,251.635872119798
0.776552022496215,500.943031567875,503.691618477782,2.74858690990675,-502.317325022828,249.097222328984,253.220102693844
0.778715120051914,497.986703613106,500.533055119176,2.54635150606964,-499.259879366141,247.720176053518,251.539703312623
0.780878217607614,495.829046019648,495.796391365643,-0.0326546540052846,-495.812718692645,247.930850336827,247.881868355819
0.783041315163314,494.794605451898,491.528898113059,-3.26570733883892,-493.161751782478,249.030156395368,244.13159538711
0.785204412719014,494.309781641209,487.333669824294,-6.97611181691468,-490.821725732751,250.642946729062,240.17877900369
0.787367510274713,493.685779782769,485.622589577317,-8.06319020545209,-489.654184680043,250.874484994111,238.779699685932
0.789530607830413,493.230355902606,487.885799042403,-5.34455686020334,-490.558077472505,249.287456381405,241.2706210911
0.791693705386113,493.168123824576,491.158525682959,-2.00959814161666,-492.163324753768,247.588860983096,244.574463770671
0.793856802941813,493.122704129003,493.27694867994,0.154244550936653,-493.199826404471,246.484229789033,246.715596615438
0.796019900497512,494.170179693817,493.742441697428,-0.42773799638951,-493.956310695622,247.298958845103,246.657351850519
0.798182998053212,494.934673228013,491.380616765942,-3.55405646207112,-493.157644996977,249.244364845042,243.913280151935
0.800346095608912,494.412009237524,487.495603816077,-6.91640542144631,-490.9538065268,250.664207329485,240.289599197315
0.802509193164612,493.760389958915,483.03921397659,-10.7211759823243,-488.399801967753,252.24078297062,236.159018997133
0.804672290720311,492.744497252454,481.137526594121,-11.6069706583333,-486.941011923288,252.175733955394,234.765277967894
0.806835388276011,491.732898059367,482.45115398978,-9.2817440695876,-487.092026024574,250.507321064477,236.584704960096
0.808998485831711,490.454276248474,484.760677843775,-5.69359840469912,-487.607477046124,248.073937326587,239.533539719538
0.811161583387411,489.250925850556,487.526894329634,-1.72403152092238,-488.388910090095,245.487478685739,242.901431404356
0.813324680943111,488.912980461438,488.735331612842,-0.177648848596107,-488.82415603714,244.545314655017,244.278841382123
0.81548777849881,488.936489330335,486.645583726745,-2.29090560358918,-487.79103652854,245.613697466962,242.177339061578
0.81765087605451,489.76411576788,483.499456942094,-6.26465882578594,-486.631786354987,248.014387296833,238.617399058154
0.81981397361021,489.82784135847,480.122651004165,-9.70519035430453,-484.975246181317,249.766515856387,235.20873032493
0.82197707116591,490.684819720521,478.468578802268,-12.2162409182536,-484.576699261395,251.450530319387,233.126168942007
0.824140168721609,490.769967630882,478.882301751827,-11.8876658790549,-484.826134691354,251.328816754968,233.497317936386
0.826303266277309,490.832112304331,481.615660783414,-9.21645152091696,-486.223886543872,250.024281912624,236.199604631248
0.828466363833009,490.337155784469,484.9613669527,-5.37578883176917,-487.649261368585,247.856472308119,239.792789060465
0.830629461388709,489.16544620744,486.32258496977,-2.84286123766998,-487.744015588605,246.004153722555,241.73986186605
0.832792558944408,488.040125039283,485.424968000715,-2.61515703856759,-486.732546519999,245.327641038925,241.404905481074
0.834955656500108,488.569597434412,482.878754348631,-5.69084308578175,-485.724175891521,247.130220260097,238.593955631424
0.837118754055808,489.496341996726,479.669635072051,-9.82670692467553,-484.582988534389,249.661524460701,234.921464073688
0.839281851611508,490.983189394328,477.057323090804,-13.9258663035234,-484.020256242566,252.454527848926,231.56572839364
0.841444949167207,492.608668155105,477.852305537355,-14.7563626177505,-485.23048684623,253.682515386428,231.547971459802
0.843608046722907,493.795013731393,480.863924444485,-12.9310892869079,-487.329469087939,253.363051509151,233.966417578789
0.845771144278607,494.120548257077,484.142560643551,-9.97798761352618,-489.131554450314,252.049267935302,237.082286515013
0.847934241834307,494.087981396598,487.345921542587,-6.74205985401051,-490.716951469592,250.415020625304,240.301930844288
0.850097339390006,493.253744040163,488.603249748395,-4.65049429176753,-490.928496894279,248.952119165965,241.976377728314
0.852260436945706,493.185193511487,486.819340810326,-6.36585270116097,-490.002267160907,249.775523106324,240.226744054583
0.854423534501406,493.405318545832,483.085960046445,-10.319358499387,-488.245639296139,251.86233852261,236.383300773529
0.856586632057106,494.106287858504,480.091019075337,-14.0152687831666,-487.098653466921,254.060778320835,233.037875146085
0.858749729612805,494.617885957026,479.255961071121,-15.3619248859046,-486.936923514074,254.989905421465,231.947018092608
0.860912827168505,495.801741286865,480.80774886899,-14.9939924178749,-488.304745077928,255.39786685237,232.906878225558
0.863075924724205,496.125458321648,484.371717460603,-11.7537408610447,-490.248587891126,253.939599591346,236.308988299779
0.865239022279905,496.361721188595,488.323638857635,-8.03808233096061,-492.342680023115,252.199901759778,240.142778263337
0.867402119835605,496.534156174402,490.127299292943,-6.40685688145919,-493.330727733673,251.470506527931,241.860221205742
0.869565217391304,496.119694353906,489.282439962573,-6.83725439133354,-492.70106715824,251.47847437262,241.22259278562
0.871728314947004,497.167983028159,486.504574933487,-10.6634080946726,-491.836278980823,253.915695561416,237.920583419407
0.873891412502704,497.662913793356,483.396542550262,-14.2663712430938,-490.529728171809,255.964642518225,234.565085653584
0.876054510058404,498.834604573504,481.938633057679,-16.8959715158245,-490.386618815592,257.865288044664,232.521330770927
0.878217607614103,499.149443387259,483.305992777709,-15.8434506095496,-491.227718082484,257.496446998404,233.73127108408
0.880380705169803,499.919538963482,487.545826317969,-12.3737126455131,-493.732682640726,256.146625804498,237.586056836228
0.882543802725503,500.211432224183,491.450711125642,-8.76072109854135,-495.831071674912,254.486076661362,241.34499501355
0.884706900281203,499.614000071687,492.409573562776,-7.20442650891039,-496.011786817232,253.409213290299,242.602573526933
0.886869997836902,498.367499290744,492.298924720574,-6.06857457017048,-495.333212005659,252.218036930457,243.115175075202
0.889033095392602,497.457748438876,489.516606231713,-7.94114220716398,-493.487177335295,252.69944532302,240.787732012274
0.891196192948302,496.253460007153,484.784386247306,-11.469073759847,-490.518923127229,253.8612668835,236.657656243729
0.893359290504002,495.104361364273,481.600761099501,-13.5036002647715,-488.352561231887,254.303980814522,234.048580417365
0.895522388059702,494.535855069692,481.168305544749,-13.3675495249433,-487.85208030722,253.951702297318,233.900378009903
0.897685485615401,494.391090493952,483.554242663187,-10.8368478307646,-488.972666578569,252.613969162358,236.358697416211
0.899848583171101,495.095903603222,486.376228895431,-8.71967470779077,-490.736066249326,251.907789155506,238.82827709382
0.902011680726801,496.420775708429,489.246306652833,-7.17446905559598,-492.833541180631,251.797622382012,241.035918798618
0.9041747782825,497.928037808222,491.341015075518,-6.58702273270404,-494.63452644187,252.257530270463,242.376996171407
0.9063378758382,499.298259900709,490.168262887038,-9.12999701367062,-494.733261393874,254.21412845719,240.519132936684
0.9085009733939,499.21768313578,486.610774868546,-12.6069082672341,-492.914229002163,255.912295701507,237.001933300656
0.9106640709496,497.808093625071,483.203895701294,-14.6041979237776,-490.505994663182,256.206145774424,234.299848888758
0.9128271685053,497.049469688741,482.068187163529,-14.9812825252125,-489.558828426135,256.015376106977,233.543452319158
0.914990266060999,496.225636509413,483.40054703709,-12.8250894723237,-489.813091773252,254.525362990869,235.287728782383
0.917153363616699,496.16467940477,485.99389888559,-10.1707805191808,-491.07928914518,253.167729961976,237.911559183204
0.919316461172399,496.390346452476,489.237421682007,-7.15292477046933,-492.813884067241,251.771635611473,241.042248455769
0.921479558728099,496.825204357301,490.253905587266,-6.57129877003473,-493.539554972283,251.698251563668,241.841303408616
0.923642656283798,496.872426485984,489.374842780022,-7.4975837059618,-493.123634633003,252.185005095973,240.93862953703
0.925805753839498,497.717359898881,487.112326979551,-10.6050329193299,-492.414843439216,254.161196409105,238.25364703011
0.927968851395198,498.874341725409,484.380419029548,-14.4939226958607,-491.627380377478,256.684132210635,234.943248166844
0.930131948950898,499.988913936349,482.656709194372,-17.3322047419776,-491.32281156536,258.660559339163,232.662252226197
0.932295046506597,500.532221329053,483.559919973605,-16.9723013554475,-492.046070651329,258.75226134225,233.293809309079
0.934458144062297,500.928750854662,487.731153504531,-13.1975973501308,-494.329952179597,257.063174102396,237.2667780772
0.936621241617997,502.028624101352,491.856127233397,-10.1724968679555,-496.942375667374,256.100560484654,240.841815182721
0.938784339173697,503.101515970049,494.59655747373,-8.50495849631909,-498.84903672189,255.803237233184,243.045799488706
0.940947436729397,503.884559435751,495.245862402078,-8.63869703367277,-499.565210918915,256.261628234712,243.303582684203
0.943110534285096,504.185902633157,493.28834766379,-10.8975549693669,-498.737125148473,257.541728801262,241.195396347211
0.945273631840796,504.675992305749,489.428261785035,-15.2477305207141,-497.052127045392,259.961861413232,237.090265632161
0.947436729396496,505.303837420789,486.881158296656,-18.4226791241327,-496.092497858722,261.863258272461,234.229239586262
0.949599826952195,504.951597642292,487.723732756659,-17.2278648856332,-496.337665199475,261.089731263963,235.247933935513
0.951762924507895,504.694517628024,490.4999301873,-14.1945874407239,-497.597223907662,259.444552534374,238.152671373288
0.953926022063595,503.966576952816,493.066433060415,-10.9001438924004,-498.516505006616,257.433360422608,241.083144584008
0.956089119619295,503.975606396632,496.29036029893,-7.68524609770208,-500.132983347781,255.830426247167,244.302557100614
0.958252217174995,503.71204026824,497.022386296108,-6.68965397213208,-500.367213282174,255.200847120186,245.166366161988
0.960415314730694,504.600303014159,495.125245016052,-9.47505799810671,-499.862774015106,257.037680506133,242.825093508973
0.962578412286394,504.438127425879,491.309222330757,-13.1289050951219,-497.873674878318,258.7835162605,239.090158617818
0.964741509842094,503.2391397327,488.253965666665,-14.9851740660343,-495.746552699683,259.112156899367,236.634395800316
0.966904607397794,502.093909800919,486.294261781112,-15.7996480198069,-494.194085791016,258.946778910363,235.247306880653
0.969067704953493,501.528227061102,487.835702404258,-13.6925246568437,-494.68196473268,257.610375858973,237.071588873707
0.971230802509193,501.92583566301,491.932431598418,-9.99340406459169,-496.929133630714,255.959619863801,240.969513766913
0.973393900064893,502.48618404309,494.92240395242,-7.56378009067055,-498.704293997755,255.02498206688,243.679311930875
0.975556997620593,502.89515082748,496.023991854177,-6.87115897330307,-499.459571340828,254.883154900391,244.576416440437
0.977720095176292,503.733945118361,495.207041670122,-8.52690344823901,-499.470493394241,256.1304242833,243.340069110941
0.979883192731992,504.346133921078,492.719702169977,-11.6264317511004,-498.532918045527,257.986282836089,240.546635209438
0.982046290287692,504.252623692159,489.013239403729,-15.23938428843,-496.632931547944,259.746003990294,236.88692755765
0.984209387843392,503.914219620585,486.578256789725,-17.3359628308593,-495.246238205155,260.625091225722,234.621146979433
0.986372485399092,503.126925087325,487.772818185282,-15.3541069020432,-495.449871636304,259.240515994684,236.20935564162
0.988535582954791,503.092635486542,490.805911094341,-12.2867243922015,-496.949273290441,257.689679939372,239.25959335107
0.990698680510491,503.607921858156,493.830063748448,-9.7778581097084,-498.718992803302,256.692889983932,242.02610281937
0.992861778066191,503.713844203714,496.307378989272,-7.40646521444279,-500.010611596493,255.560154709079,244.450456887414
0.995024875621891,504.331463393387,496.494494857793,-7.83696853559462,-500.41297912559,256.084215964491,244.328763161099
0.99718797317759,504.782228922399,493.929498093377,-10.8527308290223,-499.355863507888,257.817479875711,241.538383632177
0.99935107073329,505.381373555522,490.166357655197,-15.2150159003254,-497.773865605359,260.298194727924,237.475670877436
1.00151416828899,505.008186908583,488.230321618151,-16.7778652904312,-496.619254263367,260.893026099507,235.72622816386
1.00367726584469,504.735818952501,488.438255014151,-16.2975639383502,-496.587036983326,260.516691445426,236.0703455379
1.00584036340039,504.266876679799,489.670638759053,-14.5962379207461,-496.968757719426,259.431557300272,237.537200419153
1.00800346095609,503.654465863204,492.731336074832,-10.9231297883717,-498.192900969018,257.288797825788,240.90410314323
1.01016655851179,502.667189209187,495.235323209967,-7.43186599921967,-498.951256209577,255.049527604203,243.901728605374
1.01232965606749,500.866006628601,495.441905394868,-5.42410123373281,-498.153956011735,253.145053931167,245.008902080568
1.01449275362319,499.281268499004,491.810491153054,-7.47077734595058,-495.545879826029,253.376022922477,242.169856903552
1.01665585117889,498.124657219308,487.539188755315,-10.5854684639933,-492.831922987311,254.355062841651,238.476860145661
1.01881894873459,497.820824085286,484.421805233107,-13.3990188521786,-491.121314659196,255.609921468732,235.511393190464
1.02098204629029,498.679698207278,483.497383293568,-15.1823149137102,-491.088540750423,256.931006560494,234.157534189929
1.02314514384599,501.467791844972,485.794418013974,-15.6733738309978,-493.631104929473,258.570582837985,235.060522091488
1.02530824140169,504.853445726521,491.253081501981,-13.6003642245405,-498.053263614251,259.226904975531,238.82635863872
1.02747133895739,507.324444180723,495.777365563929,-11.5470786167938,-501.550904872326,259.435761398758,242.115143473568
1.02963443651309,509.127887052996,497.728605122912,-11.3992819300848,-503.428246087954,260.263584491541,243.164661596413
1.03179753406879,509.903806206826,497.801924134827,-12.1018820719992,-503.852865170827,261.002844139413,242.850021031414
1.03396063162449,510.199949769467,494.883717229637,-15.31623253983,-502.541833499552,262.758091154649,239.783742344904
1.03612372918019,509.60561967344,490.86278856431,-18.7428311091303,-500.234204118875,264.174225391285,236.05997872759
1.03828682673589,509.7121639685,488.738607391028,-20.973556577472,-499.225385679764,265.342860272986,233.882525406778
1.04044992429159,509.249612236667,490.160005287438,-19.0896069492296,-499.704808762052,264.169609592948,235.535199169104
1.04261302184729,508.912021728501,492.81834098382,-16.0936807446803,-500.865181356161,262.50285123659,238.36233011957
1.04477611940298,508.665633393184,496.379448049815,-12.2861853433691,-502.5225407215,260.475909368277,242.046631353223
1.04693921695868,509.296277032801,498.70834370892,-10.5879333238815,-504.002310370861,259.942105178341,244.060205192519
1.04910231451438,510.02670458757,498.787136467687,-11.2395681198835,-504.406920527628,260.633136353727,243.773784173902
1.05126541207008,510.559802601096,495.872924542634,-14.6868780584619,-503.216363571865,262.623340329779,240.593023242086
1.05342850962578,510.138412239116,491.854911588743,-18.2835006503731,-500.99666191393,264.210956444745,236.785705469185
1.05559160718148,510.10101931292,490.003014641213,-20.0980046717066,-500.052016977067,265.099511992313,234.952504984753
1.05775470473718,509.533415894272,490.272356429035,-19.2610594652377,-499.902886161653,264.397237679755,235.505648481898
1.05991780229288,509.119154065052,492.630183554732,-16.4889705103195,-500.874668809892,262.804062287686,238.070606522207
1.06208089984858,509.627276277952,496.242122519005,-13.3851537589466,-502.934699398478,261.506215018449,241.428484380029
1.06424399740428,509.457813694903,498.878273735178,-10.579539959725,-504.168043715041,260.018676827314,244.149366887727
1.06640709495998,509.604288693217,499.721627477383,-9.88266121583416,-504.6629580853,259.743474954526,244.919483130774
1.06857019251568,509.441036348981,497.365425636737,-12.0756107122431,-503.403230992859,260.758323530612,242.644907462247
1.07073329007138,510.402512487129,494.565141512279,-15.8373709748496,-502.483826999704,263.119941730989,239.363885268715
1.07289638762708,512.995333357091,492.521371539049,-20.4739618180425,-502.75835244807,266.734647587567,236.023704860503
1.07505948518278,516.238468622121,492.650675990953,-23.587792631168,-504.444572306537,269.913130626645,234.531441679893
1.07722258273848,519.68607559685,496.257078796285,-23.4289968005655,-507.971577196567,271.557536198708,236.41404099786
1.07938568029418,522.472446343136,501.320595388089,-21.1518509550465,-511.896520865612,271.812148649091,240.084372216521
1.08154877784988,524.776217935606,505.556483942446,-19.2197339931606,-515.166350939026,271.997975964383,243.168374974643
1.08371187540558,526.187455109766,507.837552255432,-18.3499028543339,-517.012503682599,272.26867898205,244.743824700549
1.08587497296128,526.677125371159,507.61128231086,-19.0658430602989,-517.144203841009,272.871484215729,244.272719625281
1.08803807051698,526.494195745924,505.014734690529,-21.4794610553953,-515.754465218227,273.98682840066,241.767636817567
1.09020116807268,524.739748424052,501.22856705615,-23.5111813679028,-512.984157740101,274.125464895978,238.858692844123
1.09236426562838,522.918963520843,499.816037186743,-23.1029263340992,-511.367500353793,273.010944927471,238.356555426322
1.09452736318408,521.590074969717,500.406048307241,-21.1840266624756,-510.998061638479,271.387050816096,239.611010822383
1.09669046073978,519.539569068077,502.187445317822,-17.3521237502549,-510.863507192949,268.445846409166,242.417660783783
1.09885355829548,518.043020073244,504.298055495799,-13.7449645774446,-511.170537784521,265.893992325344,245.276545459177
1.10101665585118,516.950773085735,505.838471223356,-11.1123018623788,-511.394622154546,264.031537474057,247.363084680489
1.10317975340688,516.1536034068,505.071640590148,-11.0819628166524,-510.612621998474,263.617783111726,246.994838886748
1.10534285096258,514.76132543293,500.999943261622,-13.7613821713077,-507.880634347276,264.261353802119,243.619280545157
1.10750594851828,514.285492426097,496.947615411773,-17.3378770143237,-505.616553918935,265.81168472021,239.804869198725
1.10966904607398,513.397896238129,494.260205314972,-19.137690923157,-503.829050776551,266.267793580643,237.561257195908
1.11183214362968,512.479933462103,492.839128173412,-19.640805288691,-502.659530817758,266.060369375397,236.599161442361
1.11399524118538,512.08012024416,494.50352596791,-17.5765942762495,-503.291823106035,264.828357260204,238.46346584583
1.11615833874108,511.248006626888,497.069057418557,-14.1789492083313,-504.158532022723,262.71347791761,241.445054105113
1.11832143629678,510.100381248562,499.211650822931,-10.8887304256314,-504.656016035747,260.494555837097,244.16146019865
1.12048453385248,509.262793995093,498.614159614625,-10.6486343804678,-503.938476804859,259.95571418778,243.982762617079
1.12264763140818,508.651486141133,495.746678460937,-12.9048076801957,-502.199082301035,260.778146910664,241.420935390371
1.12481072896388,507.665014477543,491.762771670241,-15.9022428073014,-499.713893073892,261.783628642422,237.93026443147
1.12697382651958,506.674888049835,487.504360987211,-19.1705270626238,-497.089624518523,262.922707556229,234.166916962294
1.12913692407528,506.492562850854,486.017323674132,-20.475239176722,-496.254943262493,263.483901013788,232.771042248705
1.13130002163098,506.62965014883,488.173893270926,-18.4557568779043,-497.401771709878,262.542703513367,234.859068196511
1.13346311918668,506.72970246169,491.098633254171,-15.6310692075188,-498.91416785793,261.180385834604,237.733782023326
1.13562621674237,507.072881232589,493.773548986576,-13.2993322460136,-500.423215109583,260.186106739302,240.237108370281
1.13778931429807,507.053191914876,495.725819617638,-11.327372297238,-501.389505766257,259.190282106057,242.1992236602
1.13995241185377,506.228353153036,493.908797668005,-12.3195554850311,-500.068575410521,259.273954319034,240.794621091487
1.14211550940947,504.00541243527,489.610937154585,-14.3944752806854,-496.808174794927,259.199943857978,237.60823093695
1.14427860696517,502.112856749159,484.853233085392,-17.2596236637665,-493.483044917276,259.686240206463,233.796804710813
1.14644170452087,500.731586737964,483.001789595969,-17.7297971419944,-491.866688166967,259.230691939979,232.635996226987
1.14860480207657,499.723475400565,483.271462337373,-16.4520130631919,-491.497468868969,258.087744231878,233.409724637091
1.15076789963227,498.987711603223,485.089218583744,-13.8984930194787,-492.038465093483,256.443102311351,235.595362782133
1.15293099718797,498.991031389946,488.577146383463,-10.4138850064835,-493.784088886704,254.702458198215,239.08163068849
1.15509409474367,499.263610527536,490.852632609656,-8.41097791787996,-495.058121568596,253.837294222708,241.220827345888
1.15725719229937,498.922238294136,489.271507554355,-9.65073073978084,-494.096872924245,254.286484516958,239.810388407287
1.15942028985507,498.943246102021,486.226439771388,-12.7168063306329,-492.584842936704,255.830026216327,236.754816720377
1.16158338741077,499.228734731979,482.653234906201,-16.5754998257781,-490.94098481909,257.902117278879,233.038867540211
1.16374648496647,499.166940623264,480.315509743506,-18.8514308797579,-489.741225183385,259.009185751511,230.732039431874
1.16590958252217,500.472621636234,480.230272826392,-20.2423488098418,-490.351447231313,260.357485223038,229.993962008275
1.16807268007787,501.96587723657,483.409937734377,-18.5559395021935,-492.687907485473,260.260908369382,232.426999116092
1.17023577763357,502.785564348692,487.351533687029,-15.434030661663,-495.06854901786,259.109797505177,235.958751512683
1.17239887518927,502.033026836325,489.958126796512,-12.0749000398123,-495.995576816418,257.053963438068,238.94161337835
1.17456197274497,501.48379200759,489.699282890674,-11.784509116916,-495.591537449132,256.634150562253,238.957386886879
1.17672507030067,499.191842896512,487.078961367058,-12.1128815294545,-493.135402131785,255.652362212983,237.483039918802
1.17888816785637,495.357828380113,481.924661437688,-13.433166942425,-488.641244908901,254.395497661269,234.245747247632
1.18105126541207,492.019284277982,477.352359016472,-14.6669252615097,-484.685821647227,253.343104769746,231.342716877481
1.18321436296777,490.393137239264,475.09591734439,-15.2972198948736,-482.744527291827,252.845178567069,229.899348724758
1.18537746052347,489.206303924472,475.880473313592,-13.3258306108802,-482.543388619032,251.266067267676,231.277321351356
1.18754055807917,489.150569637742,477.803857673511,-11.3467119642315,-483.477213655627,250.248640800987,233.22857285464
1.18970365563487,489.65020473853,480.288252648268,-9.3619520902626,-484.969228693399,249.506078414396,235.463150279003
1.19186675319057,491.095485160658,482.101472887851,-8.99401227280657,-486.598479024255,250.044748716732,236.553730307522
1.19402985074627,494.581720005696,482.074059356862,-12.5076606488342,-488.327889681279,253.544690327265,234.783199354014
1.19619294830197,501.44862624125,481.243583125943,-20.2050431153065,-491.346104683597,260.826834678278,230.519270005318
1.19835604585767,512.673987973977,483.068871114464,-29.6051168595123,-497.87142954422,271.139552416744,226.731877127476
1.20051914341337,527.890810012764,489.263858028121,-38.6269519846427,-508.577334020442,283.258880998703,225.318453021739
1.20268224096907,547.371555620848,500.539136041381,-46.8324195794671,-523.955345831114,297.101987600158,226.853358230957
1.20484533852477,569.423986935295,516.062545379313,-53.3614415559815,-542.743266157304,311.392714245638,231.350551911666
1.20700843608047,592.813034663805,534.41627076384,-58.3967638999658,-563.614652713822,325.604899281886,238.009753431937
1.20917153363617,615.016353884258,550.783341555338,-64.2330123289198,-582.899847719798,339.624683106589,243.275164613209
1.21133463119187,633.922870611852,564.3496837736,-69.5731868382522,-599.136277192726,351.748028725052,247.388248467674
1.21349772874757,646.911205765017,573.170369521735,-73.7408362432816,-610.040787643376,360.326021004149,249.714766639227
1.21566082630327,652.338318316609,578.257311162686,-74.0810071539228,-615.297814739647,363.209662735266,252.088152004382
1.21782392385897,649.545357403071,580.619202860547,-68.9261545425232,-615.082280131809,359.235755972797,255.846524159012
1.21998702141467,640.753026933048,581.262389996977,-59.4906369360716,-611.007708465012,350.12183193456,260.885876530453
1.22215011897037,627.041781435797,582.001972344975,-45.0398090908212,-604.521876890386,336.040795263309,268.481081627077
1.22431321652607,610.010652573462,580.110346020627,-29.9003065528349,-595.060499297044,319.955479563148,275.105019733896
1.22647631408177,591.096839883554,574.947567332138,-16.1492725514157,-583.022203607846,303.623056217485,279.399147390361
1.22863941163746,572.700055580183,567.39735841066,-5.30269716952319,-570.048706995422,289.001376374853,281.047330620568
1.23080250919316,555.761246080499,556.753917304687,0.992671224187234,-556.257581692593,277.384287428156,278.873294264437
1.23296560674886,541.777623917636,544.663368539236,2.8857446216,-543.220496228436,269.445939648018,273.774556580418
1.23512870430456,530.761295510921,533.948063144607,3.18676763368615,-532.354679327764,263.787263938617,268.567415389147
1.23729180186026,522.721096655298,527.478345123797,4.75724846849914,-525.099720889548,258.981924093399,266.117796796148
1.23945489941596,517.123163677076,524.107242674725,6.98407899764857,-520.615203175901,255.069542339714,265.545660836187
1.24161799697166,514.658484337793,522.457333128741,7.798848790948,-518.557908733266,253.429817773422,265.128090959844
1.24378109452736,513.399965856031,522.87409416686,9.47412831082875,-518.137030011446,251.962918772601,266.174111238844
1.24594419208306,511.94113153613,521.557327350435,9.6161958143058,-516.749229443283,251.162467860912,265.586761582371
1.24810728963876,511.416722793584,517.624574938466,6.20785214488205,-514.520648866025,252.604435324351,261.916213541674
1.25027038719446,510.763830118526,512.052717901627,1.28888778310176,-511.408274010077,254.737471167712,256.670802842365
1.25243348475016,509.476851819705,506.635351595593,-2.8415002241116,-508.056101707649,256.159176021908,251.896925685741
1.25459658230586,506.916621431624,502.141208025375,-4.77541340624958,-504.5289147285,255.846017418937,248.682897309563
1.25675967986156,503.427115915477,499.941810105181,-3.48530581029615,-501.684463010329,253.456210862886,248.228252147442
1.25892277741726,499.529540931518,499.957530466734,0.427989535215772,-499.743535699126,249.550775698151,250.192760000975
1.26108587497296,495.604295193225,500.779472510576,5.17517731735074,-498.191883851901,245.214558937937,252.977324913963
1.26324897252866,492.739478974255,499.488268322374,6.74878934811932,-496.113873648315,242.995344813068,253.118528835247
1.26541207008436,491.188923076453,496.92495369518,5.7360306187266,-494.056938385817,242.726446228863,251.330492156953
1.26757516764006,491.137884333784,492.622728530659,1.48484419687526,-491.880306432221,244.826520068454,247.053786363767
1.26973826519576,491.370790236364,487.591682736102,-3.77910750026172,-489.481236486233,247.574948868313,241.90628761792
1.27190136275146,491.54077516258,484.460117638899,-7.08065752368157,-488.00044640074,249.310716343131,238.689730057609
1.27406446030716,492.205150028798,484.065657788687,-8.13949224011139,-488.135403908743,250.172321134455,237.963082774288
1.27622755786286,492.690039897896,486.47932583606,-6.21071406183592,-489.584682866978,249.450376979866,240.134305887112
1.27839065541856,492.773777544912,489.591707526398,-3.18207001851414,-491.182742535655,247.977923781713,243.204818753942
1.28055375297426,493.915517793905,491.593103757503,-2.32241403640199,-492.754310775704,248.118965915154,244.635344860551
1.28271685052996,494.478653610418,491.973185516873,-2.50546809354501,-493.225919563645,248.492060851981,244.733858711664
1.28487994808566,494.349342364229,489.819179921085,-4.53016244314404,-492.084261142657,249.439752403686,242.64450873897
1.28704304564136,493.714652930719,485.81568641056,-7.89896652015898,-489.76516967064,250.806809725439,238.958359945201
1.28920614319706,493.521585002153,482.353449117348,-11.1681358848048,-487.937517059751,252.344860443479,235.592656616272
1.29136924075276,492.840363150059,481.17733779523,-11.6630253548295,-487.008850472644,252.251694252444,234.7571562202
1.29353233830846,492.613333824843,482.210053735735,-10.4032800891074,-487.411693780289,251.508306956975,235.903386823314
1.29569543586416,492.177481670239,485.665337168531,-6.51214450170789,-488.921409419385,249.344813085973,239.576596333411
1.29785853341986,491.859377682659,488.997622953794,-2.86175472886424,-490.428500318227,247.360566205761,243.067934112465
1.30002163097556,491.357055251473,489.808733763208,-1.54832148826523,-490.58289450734,246.452688369869,244.130206137471
1.30218472853126,491.260594557306,487.969312042097,-3.29128251520916,-489.614953299702,247.275938536258,242.339014763444
1.30434782608696,492.000661954485,485.005884253966,-6.9947777005188,-488.503273104226,249.497719827502,239.005553276724
1.30651092364266,492.000483123369,482.302732467489,-9.69775065588033,-487.151607795429,250.849116889625,236.302490905804
1.30867402119836,492.540665028333,480.600010139631,-11.9406548887015,-486.570337583982,252.240659958517,234.329677625465
1.31083711875406,493.475225859874,482.329007156326,-11.1462187035481,-487.9021165081,252.310722281711,235.591394226389
1.31300021630976,494.697621701145,486.56262321924,-8.13499848190463,-490.630122460193,251.416310091525,239.213812368668
1.31516331386546,495.859935924402,491.543595087181,-4.31634083722184,-493.701765505791,250.088138380812,243.613627124979
1.31732641142116,496.7082437401,493.828145404481,-2.88009833561949,-495.26819457229,249.79417103786,245.474023534431
1.31948950897685,497.327375929808,493.604416779127,-3.72295915068054,-495.465896354467,250.525167540244,244.940728814223
1.32165260653255,496.968777076881,491.009723924842,-5.95905315203953,-493.989250500862,251.46391511446,242.525335386401
1.32381570408825,496.707055931643,487.495066191811,-9.21198973983235,-492.101061061727,252.959522835738,239.141538225989
1.32597880164395,497.596665227055,484.929915077961,-12.6667501490949,-491.263290152508,255.131707688075,236.131582464433
1.32814189919965,498.516097257045,485.759317590623,-12.7567796664222,-492.137707423834,255.636438461734,236.5012689621
1.33030499675535,499.727451436483,489.336370192936,-10.391081243547,-494.531910814709,255.059266340015,239.472644474694
1.33246809431105,499.801082123954,493.2978408739,-6.50324125005329,-496.549461498927,253.152161687003,243.397299811924
1.33463119186675,500.935445871306,495.918939430383,-5.01650644092314,-498.427192650845,252.975976156115,245.45121649473
1.33679428942245,501.76335420579,497.291619506161,-4.47173469962854,-499.527486855976,253.117544452709,246.409942403266
1.33895738697815,502.097441748981,495.862055625711,-6.23538612326996,-498.979748687346,254.166413936125,244.81333475122
1.34112048453385,502.34127346707,492.387291400986,-9.9539820660832,-497.364282434028,256.147627766576,241.216654667452
1.34328358208955,502.789388743737,490.391568740104,-12.3978200036331,-496.59047874192,257.593604373685,238.996874368235
1.34544667964525,502.305974259163,490.28578401259,-12.0201902465732,-496.295879135877,257.163082252868,239.132796883008
1.34760977720095,502.223313412377,492.369827381308,-9.85348603106911,-497.296570396843,256.038399721723,241.25817067512
1.34977287475665,502.162983906829,496.052103183131,-6.11088072369876,-499.10754354498,254.136932315264,244.970611229716
1.35193597231235,501.578640368221,499.009745515138,-2.56889485308335,-500.294192941679,252.073767610652,248.220425331027
1.35409906986805,501.152160866435,500.087737551172,-1.06442331526284,-500.619949208803,251.108292090849,249.511657117955
1.35626216742375,501.381209875035,498.443097435479,-2.93811243955668,-499.912153655257,252.159661157296,247.752492497961
1.35842526497945,502.088692294883,496.162142215847,-5.92655007903608,-499.125417255365,254.007621186959,245.117796068405
1.36058836253515,503.415512579833,493.146620158441,-10.2688924213923,-498.281066369137,256.842202500613,241.438863868524
1.36275146009085,505.194352758382,492.296541176238,-12.8978115821444,-498.74544696731,259.046082170263,239.699364797047
1.36491455764655,507.303096848384,494.377678430374,-12.9254184180094,-500.840387639379,260.114257633197,240.726130006182
1.36707765520225,509.382463046967,499.138458070008,-10.244004976959,-504.260460558488,259.813234011963,244.447226546525
1.36924075275795,510.359763126504,503.153395940386,-7.20636718611786,-506.756579533445,258.783065156311,247.973514377134
1.37140385031365,511.073039518692,505.54336098106,-5.52967853763181,-508.308200249876,258.301359028162,250.006841221714
1.37356694786935,511.593619862748,506.747349696096,-4.84627016665223,-509.170484779422,258.2199450147,250.950539764722
1.37573004542505,512.784030828695,505.464823685769,-7.31920714292596,-509.124427257232,260.05161898581,249.072808271421
1.37789314298075,513.652844877511,502.097374137174,-11.555470740337,-507.875109507342,262.604157808924,245.270951698418
1.38005624053645,514.557099625949,500.450130637911,-14.1069689880384,-507.50361513193,264.332034306994,243.171580824936
1.38221933809215,515.217064336983,502.219618533027,-12.9974458039557,-508.718341435005,264.107255070469,244.611086364536
1.38438243564785,515.698735481714,505.402161764547,-10.296573717167,-510.550448623131,262.997654599441,247.55279402369
1.38654553320355,516.860748810232,509.616014655624,-7.24473415460835,-513.238381732928,262.05274148242,251.185640250508
1.38870863075925,517.438680807902,513.231781436006,-4.2068993718957,-515.335231121954,260.822790089899,254.512441032055
1.39087172831495,517.59032467449,514.249789088759,-3.34053558573078,-515.920056881624,260.46543013011,255.454626751514
1.39303482587065,517.430844796655,512.291213531671,-5.13963126498379,-514.861029164163,261.28523803082,253.575791133344
1.39519792342635,517.044293186615,508.700509632778,-8.3437835538366,-512.872401409696,262.694038370226,250.178363039471
1.39736102098205,517.302483318979,506.350012909034,-10.9524704099447,-511.826248114006,264.127476864462,247.698771249545
1.39952411853775,517.761077995112,505.71514232368,-12.0459356714325,-511.738110159396,264.903506833272,246.834603326124
1.40168721609345,519.716717741987,508.223504301282,-11.4932134407052,-513.970111021634,265.604965591346,248.365145430288
1.40385031364915,522.224654110547,513.296091251472,-8.92856285907521,-517.760372681009,265.576608484811,252.183764196198
1.40601341120485,524.595368313905,517.808755962424,-6.78661235148127,-521.202062138164,265.690990332693,255.511071805471
1.40817650876055,526.325619348654,520.021671422132,-6.30394792652191,-523.173645385393,266.314783637588,256.858861747805
1.41033960631624,527.318276106396,519.475504329079,-7.84277177731633,-523.396890217738,267.580523941856,255.816366275882
1.41250270387194,527.232291839163,516.915637973962,-10.3166538652007,-522.073964906562,268.774472852182,253.299492054381
1.41466580142764,526.088911908359,513.426398145011,-12.6625137633483,-519.757655026685,269.375712835854,250.381942190831
1.41682889898334,526.335048015878,511.960422978047,-14.3746250378308,-519.147735496963,270.354836526855,248.792898970108
1.41899199653904,527.055001348728,514.40252086322,-12.6524804855084,-520.728761105974,269.853740917118,250.875020188856
1.42115509409474,528.661079663938,519.156589165303,-9.50449049863516,-523.90883441462,269.082785081287,254.826049333334
1.42331819165044,529.833265945541,522.896472595787,-6.93679334975388,-526.364869270664,268.385029647648,257.979839623017
1.42548128920614,531.769403669185,525.626003285851,-6.14340038333455,-528.697703477518,268.95640202626,259.741301451258
1.42764438676184,533.722794183491,526.537509457013,-7.18528472647847,-530.130151820252,270.454039454985,259.676112365267
1.42980748431754,534.608151692403,524.771360667031,-9.83679102537178,-529.689756179717,272.222471358887,257.46728482083
1.43197058187324,534.44385573494,521.050942036908,-13.3929136980322,-527.747398885924,273.918384716486,253.829014169438
1.43413367942894,533.243320503485,519.14608624609,-14.0972342573943,-526.194703374787,273.670277380439,252.524425994348
1.43629677698464,532.637273534249,519.646932562983,-12.9903409712659,-526.142103048616,272.813807252758,253.328295795859
1.43845987454034,531.114329070952,522.443878043019,-8.67045102793281,-526.779103556986,269.892390049442,256.886713507543
1.44062297209604,530.543129938494,525.565836174844,-4.97729376364964,-528.054483056669,267.760211851072,260.294271205597
1.44278606965174,530.666556223628,528.114534136025,-2.55202208760306,-529.390545179826,266.609289155615,262.781256024211
1.44494916720744,529.676013283638,527.813435815835,-1.86257746780348,-528.744724549736,265.769295375721,262.975429174016
1.44711226476314,528.682915460141,525.432431382255,-3.25048407788574,-527.057673421198,265.966699769013,261.090973652185
1.44927536231884,526.877484335171,521.533420391928,-5.3440639432431,-524.205452363549,266.110774139207,258.094678224342
1.45143845987454,526.640426491204,518.687751440793,-7.95267505041124,-522.664088965999,267.296550770808,255.367538195191
1.45360155743024,527.818192355716,517.961638693096,-9.85655366262063,-522.889915524406,268.837373009169,254.052542515238
1.45576465498594,529.758402303287,521.213876780911,-8.54452552237569,-525.486139542099,269.151463912831,256.334675629268
1.45792775254164,531.984921116801,525.208439818048,-6.77648129875342,-528.596680467424,269.380701207777,259.215979259647
1.46009085009734,533.609932041995,528.39400304886,-5.21592899313475,-531.001967545428,269.412930517565,261.589037027863
1.46225394765304,533.174998900159,529.638341737073,-3.53665716308637,-531.406670318616,268.355828031623,263.050842286993
1.46441704520874,532.317253224595,528.655421115891,-3.66183210870474,-530.486337170243,267.98954266665,262.496794503593
1.46658014276444,530.070295600261,524.426011851966,-5.64428374829527,-527.248153726114,267.857289674278,259.390864051835
1.46874324032014,527.89005511221,519.448110290137,-8.44194482207342,-523.669082701174,268.165999967142,255.503082734032
1.47090633787584,525.488351499766,516.355332181065,-9.1330193187008,-520.921841840415,267.310685409233,253.611156431182
1.47306943543154,522.925014401682,516.799649408816,-6.12536499286682,-519.862331905249,264.525189697275,255.337142207974
1.47523253298724,520.513866320024,518.474712636806,-2.03915368321805,-519.494289478415,261.276510001621,258.217779476794
1.47739563054294,517.40332381101,519.697247128477,2.29392331746726,-518.550285469743,257.554700246771,260.995585222972
1.47955872809864,514.322645047482,520.049193909253,5.72654886177088,-517.185919478367,254.298048092855,262.887871385512
1.48172182565434,511.533918364958,518.14481038598,6.61089202102175,-514.839364375469,252.461513171968,262.377851203501
1.48388492321004,508.958271095188,512.43240851136,3.47413741617186,-510.695339803274,252.742066839508,257.953272963766
1.48604802076574,506.808294723064,506.642310216645,-0.165984506419079,-506.725302469855,253.487139614742,253.238162855113
1.48821111832144,505.239147823247,502.956755367339,-2.28239245590862,-504.097951595293,253.760770139578,250.337181455715
1.49037421587714,503.823759493883,501.887813325996,-1.93594616788755,-502.855786409939,252.879852830885,249.975933579054
1.49253731343284,502.790747113907,502.188277464739,-0.602469649168711,-502.489512289323,251.696608381538,250.792903907785
1.49470041098854,501.766653233451,504.298662833057,2.5320095996064,-503.032658033254,249.617321816922,253.415336216332
1.49686350854424,500.208756040724,505.838914484682,5.6301584439571,-503.023835262703,247.289298798384,255.734536464319
1.49902660609994,499.07173445207,504.261495466058,5.18976101398709,-501.666614959064,246.940986719042,254.725628240022
1.50118970365563,497.971730096752,500.408663875323,2.43693377857102,-499.190196986037,247.76739815909,251.422798826947
1.50335280121133,497.168898751108,495.705605189019,-1.46329356208946,-496.437251970064,249.316096156599,247.121155813465
1.50551589876703,495.232176221218,491.462638386002,-3.7695378352156,-493.34740730361,249.500857028217,243.846550275393
1.50767899632273,493.818671313449,489.716716480943,-4.1019548325051,-491.767693897196,248.960313072977,242.807380824219
1.50984209387843,492.246721113281,490.873872130824,-1.37284898245707,-491.560296622053,246.809785047869,244.750511574183
1.51200519143413,490.82928681257,492.528883629402,1.69959681683179,-491.679085220986,244.564844997869,247.114240223117
1.51416828898983,490.064937404988,494.006939702792,3.94200229780387,-492.03593855389,243.061467553592,248.974471000298
1.51633138654553,490.047394161648,494.005064898974,3.9576707373264,-492.026229530311,243.044861712161,248.98136781815
1.51849448410123,490.304746546344,492.382759313824,2.07801276748012,-491.343752930084,244.113366889432,247.230386040652
1.52065758165693,489.952261161931,487.686698905725,-2.26556225620624,-488.819480033828,246.108911709069,242.710568324759
1.52282067921263,488.884533258096,483.178683540711,-5.70584971738487,-486.031608399404,247.295191487741,238.736416911663
1.52498377676833,488.105258680071,481.509473800999,-6.59578487907208,-484.807366240535,247.350521779572,237.456844460964
1.52714687432403,486.99619754631,482.722617348232,-4.27358019807843,-484.859407447271,245.634888872194,239.224518575077
1.52930997187973,486.456912379051,484.14833505403,-2.30857732502096,-485.302623716541,244.382744852036,240.919878864505
1.53147306943543,485.793162237826,486.809823536462,1.01666129863588,-486.301492887144,242.388250469595,243.913242417549
1.53363616699113,485.308728320384,487.941825736925,2.63309741654143,-486.625277028655,241.337815451921,245.287461576733
1.53579926454683,483.604386175622,486.336604604236,2.73221842861454,-484.970495389929,240.436083873504,244.534411516425
1.53796236210253,482.360482648422,481.923169389511,-0.437313258910649,-482.141826018966,241.398897953666,240.7429280653
1.54012545965823,482.263096021679,477.891582478122,-4.37151354355677,-480.0773392499,243.317304782618,236.760034467282
1.54228855721393,482.732331420847,475.489466238288,-7.24286518255849,-479.110898829567,244.987598301703,234.123300527865
1.54445165476963,484.425581021458,476.437858741,-7.98772228045789,-480.431719881229,246.206651650958,234.225068230271
1.54661475232533,486.742013571701,479.831599236528,-6.91041433517324,-483.286806404114,246.826213953437,236.460592450677
1.54877784988103,488.972959902858,484.469749350682,-4.50321055217609,-486.72135462677,246.738085227517,239.983269399253
1.55094094743673,490.331046012428,487.584718188032,-2.74632782439647,-488.95788210023,246.538686918412,242.419195181818
1.55310404499243,490.511768087627,488.777533996699,-1.73423409092817,-489.644651042163,246.123001089278,243.521649952885
1.55526714254813,490.91382318346,486.676384874448,-4.23743830901242,-488.795104028954,247.575630746236,241.219473282718
1.55743024010383,490.666948173896,482.981624544668,-7.68532362922775,-486.824286359282,249.176135901562,237.64815045772
1.55959333765953,490.21661176985,479.744714245613,-10.4718975242375,-484.980663007731,250.344254647044,234.636408360688
1.56175643521523,489.887936542789,479.003212642348,-10.8847239004411,-484.445574592568,250.386330221615,234.059244370953
1.56391953277093,488.837586334392,481.433750633906,-7.40383570048596,-485.135668484149,248.120711017439,237.01495746671
1.56608263032663,489.15161960692,484.558444748213,-4.5931748587077,-486.855032177566,246.872397232814,239.982634944752
1.56824572788233,489.650971052013,486.838983337341,-2.81198771467189,-488.244977194677,246.231479383342,242.013497811334
1.57040882543803,489.204950966691,488.773576472074,-0.431374494616705,-488.989263719383,244.818162730654,244.171100988729
1.57257192299373,489.14958218991,486.673496499684,-2.47608569022617,-487.911539344797,245.812833940068,242.098705404729
1.57473502054943,489.649484055864,483.249672694161,-6.39981136170303,-486.449578375012,248.024647708784,238.424930666229
1.57689811810513,490.284490539276,479.940347522439,-10.3441430168367,-485.112419030857,250.314316778056,234.798102252801
1.57906121566083,490.477789864743,479.145994374191,-11.3317954905526,-484.811892119467,250.904792677648,233.907099441819
1.58122431321653,490.348711964814,480.727490358335,-9.62122160647891,-485.538101161574,249.984966785646,235.553134375928
1.58338741077223,489.984349049494,483.502672649542,-6.48167639995171,-486.743510849518,248.233012724723,238.510498124795
1.58555050832793,489.448264827251,487.149059476933,-2.29920535031818,-488.298662152092,245.873735088785,242.424927063307
1.58771360588363,488.516694663991,488.729727404531,0.213032740540314,-488.623211034261,244.151830961725,244.471380072536
1.58987670343933,488.106950179001,487.181805953866,-0.925144225135284,-487.644378066434,244.516047202068,243.128330864365
1.59203980099502,488.078056923783,483.620659191742,-4.45739773204082,-485.849358057763,246.267727327912,239.581630729851
1.59420289855072,488.597281784687,480.751422136922,-7.84585964776534,-484.674351960804,248.221570716226,236.452781244578
1.59636599610642,489.516547247802,479.197639719536,-10.3189075282664,-484.357093483669,249.917727388034,234.439366095635
1.59852909366212,491.268092283185,480.224870969077,-11.0432213141075,-485.746481626131,251.155656798646,234.590824827485
1.60069219121782,492.546446546886,484.216463857986,-8.32998268889969,-488.381455202436,250.438214617893,237.943240584543
1.60285528877352,493.749601677147,488.480484192052,-5.26911748509525,-491.115042934599,249.509359581121,241.605683353478
1.60501838632922,493.817248339508,490.241771885964,-3.57547645354362,-492.029510112736,248.696362396526,243.33314771621
1.60718148388492,493.86661983582,490.716768132858,-3.14985170296131,-492.291693984339,248.508235769391,243.783458214949
1.60934458144062,494.442965739457,489.172347709937,-5.27061802951994,-491.807656724697,249.856791884488,241.950864840208
1.61150767899632,495.133764428911,486.154068574908,-8.97969585400369,-490.643916501909,252.056730141457,238.587186360452
1.61367077655202,495.637939561257,483.681040085497,-11.9568994757594,-489.659489823377,253.797419518508,235.862070304869
1.61583387410772,495.735752437856,483.767209087738,-11.9685433501179,-489.751480762797,253.852147893987,235.89933286881
1.61799697166342,494.996671922626,485.721192481855,-9.27547944077179,-490.35893220224,252.136075681699,238.222856520541
1.62016006921912,493.646789964044,488.227919971643,-5.41886999240137,-490.937354967844,249.532829978223,241.404524989621
1.62232316677482,491.58096215438,490.327595670467,-1.25336648391288,-490.954278912424,246.417164319146,244.537114593277
1.62448626433052,490.343386772025,491.049562300723,0.706175528697713,-490.696474536374,244.818605621664,245.87786891471
1.62664936188622,490.52077491436,489.415235466078,-1.10553944828155,-489.968005190219,245.813157181321,244.154848008898
1.62881245944192,491.730865395617,486.061182483068,-5.66968291254869,-488.896023939342,248.700274154083,240.19574978526
1.63097555699762,493.154354840179,483.613247748365,-9.54110709181401,-488.383801294272,251.347730965996,237.036070328275
1.63313865455332,493.923123556887,482.907262635984,-11.0158609209025,-488.415193096436,252.469492238895,235.945700857541
1.63530175210902,495.294673264899,484.823409694047,-10.4712635708514,-490.059041479473,252.882968417875,237.176073061598
1.63746484966472,497.106158935015,488.923459840231,-8.18269909478391,-493.014809387623,252.6444290149,240.370380372724
1.63962794722042,498.968572922377,493.536793241668,-5.4317796807083,-496.252683082023,252.200176301543,244.05250678048
1.64179104477612,500.327844201976,496.093337331657,-4.23450687031846,-498.210590766817,252.281175536147,245.929415230669
1.64395414233182,500.779587478029,495.527809247967,-5.25177823006192,-498.153698362998,253.015682854046,245.138015508953
1.64611723988752,500.298820866271,492.683656182229,-7.61516468404142,-496.49123852425,253.956992775156,242.534245749094
1.64828033744322,498.326999069909,489.527243887227,-8.79975518268179,-493.927121478568,253.563377126296,240.363744352273
1.65044343499892,496.077408544924,486.413087345334,-9.66432119959035,-491.245247945129,252.870864872257,238.374383072872
1.65260653255462,494.705715086303,486.301489232946,-8.40422585335642,-490.503602159624,251.554970469829,238.948631689795
1.65476963011032,493.43443692444,488.92160216257,-4.51283476187007,-491.178019543505,248.973635843155,242.20438370035
1.65693272766602,492.776758666893,492.45481257968,-0.321946087212552,-492.615785623286,246.549352377053,246.066433246234
1.65909582522172,492.566912487907,494.223035619144,1.65612313123717,-493.394974053525,245.455394678335,247.93957937519
1.66125892277742,493.224226193326,494.432937373035,1.20871117970916,-493.82858178318,246.007757506808,247.820824276372
1.66342202033312,493.97411872995,491.884570745513,-2.08954798443608,-492.929344737731,248.031833357193,244.897511380539
1.66558511788882,494.521423139568,488.403723921313,-6.11769921825476,-491.462573530441,250.319561178911,241.143012351529
1.66774821544452,495.191026075015,485.322937065501,-9.86808900951382,-490.256981570258,252.529557542264,237.727424027994
1.66991131300022,496.76035646545,486.046162246827,-10.7141942186228,-491.403259356139,253.737275342036,237.665984014102
1.67207441055592,498.716191138045,489.275565771553,-9.44062536649244,-493.995878454799,254.078408252269,239.91747020253
1.67423750811162,500.683957348188,493.253463144663,-7.4304942035248,-496.968710246426,254.057225775856,242.911484470569
1.67640060566732,501.579806869406,497.77764410347,-3.80216276593649,-499.678725486438,252.690984817671,246.987740668767
1.67856370322302,502.233637077565,498.91833977765,-3.31529729991496,-500.575988427608,252.77446718874,247.801521238868
1.68072680077872,502.170518569737,497.319463522751,-4.8510550469864,-499.744991046244,253.510786808362,246.234204237882
1.68288989833441,502.124451918883,494.261440137025,-7.86301178185806,-498.192946027954,254.993731850371,243.199214177584
1.68505299589011,501.010205612431,491.489248341259,-9.52095727117216,-496.249726976845,255.265581441802,240.984145535043
1.68721609344581,499.92682365535,489.73613759149,-10.1906860638603,-494.83148062342,255.058754859605,239.772725763815
1.68937919100151,498.32565542819,490.617890295843,-7.70776513234625,-494.471772862017,253.016710280268,241.455062581749
1.69154228855721,497.42720895572,493.422681724754,-4.00452723096538,-495.424945340237,250.715868093342,244.709077246894
1.69370538611291,495.961014743206,496.550366173627,0.589351430420436,-496.255690458417,247.685831656393,248.569858802024
1.69586848366861,494.350609581271,496.941993756761,2.59138417549002,-495.646301669016,245.87961270289,249.766688966125
1.69803158122431,493.175265377462,495.066571020598,1.89130564313552,-494.12091819903,245.641979867163,248.478938331867
1.70019467878001,493.127916347015,492.076868115265,-1.0510482317502,-492.60239223114,247.089482289382,245.512909941757
1.70235777633571,493.36351516314,488.814227173971,-4.54928798916916,-491.088871168556,248.956401576155,242.132469592401
1.70452087389141,493.805621707452,486.433008950075,-7.37261275737666,-490.119315328763,250.589117232414,239.530198096349
1.70668397144711,494.39844663438,487.396653739903,-7.00179289447709,-490.897550187141,250.700119764429,240.197430422713
1.70884706900281,495.911741072233,490.531369810566,-5.38037126166705,-493.221555441399,250.64605616695,242.575499274449
1.71101016655851,497.016209617309,494.440160133515,-2.57604948379384,-495.728184875412,249.796129550551,245.932055324861
1.71317326411421,497.822299124116,496.482497834201,-1.33980128991487,-497.152398479158,249.581050207015,247.571348272143
1.71533636166991,498.410618543334,497.162616682692,-1.24800186064238,-497.786617613013,249.829310201988,247.957307411025
1.71749945922561,499.650468452501,494.957435080735,-4.69303337176547,-497.303951766618,252.171750912133,245.132200854485
1.71966255678131,500.825521418789,491.727059715623,-9.09846170316661,-496.276290567206,254.961991560978,241.314299006228
1.72182565433701,502.2234389507,489.369390322073,-12.8540486286277,-495.796414636386,257.538743789664,238.257670846722
1.72398875189271,503.513856589553,489.809909655703,-13.70394693385,-496.661883122628,258.608901761701,238.052981360926
1.72615184944841,503.375035039874,492.292669649876,-11.0823653899976,-497.833852344875,257.228700214936,240.605152129939
1.72831494700411,503.003560782311,495.725633880267,-7.27792690204353,-499.364597331289,255.140743842177,244.223853489112
1.73047804455981,502.732442602979,499.0416301343,-3.69081246867887,-500.887036368639,253.211627535829,247.675408832811
1.73264114211551,502.264412472073,500.111008342404,-2.15340412966867,-501.187710407239,252.208908300871,248.978802106368
1.73480423967121,501.922823588375,497.919769054161,-4.00305453421345,-499.921296321268,252.962939061294,246.958357259974
1.73696733722691,501.943673275385,494.699569400104,-7.24410387528098,-498.321621337745,254.593888575333,243.727732762412
1.73913043478261,502.769358925549,491.268701838571,-11.5006570869782,-497.01903038206,257.135008006264,239.884022375796
1.74129353233831,503.912292892011,490.385641732125,-13.5266511598866,-497.148967312068,258.719472025949,238.429495286119
1.74345662989401,505.827080995161,492.983020341351,-12.8440606538105,-499.405050668256,259.335570824486,240.06947984377
1.74561972744971,508.575358257186,497.580263103428,-10.9950951537573,-503.077810680307,259.785226705471,243.292583974835
1.74778282500541,511.661796192415,502.82662565895,-8.83517053346492,-507.244210925683,260.24848336294,246.995727562743
1.74994592256111,513.374101323143,505.304869721009,-8.06923160213393,-509.339485522076,260.721666462638,248.617819059437
1.75210902011681,513.273035526826,504.952351060195,-8.32068446663129,-509.112693293511,260.796859996729,248.315833296782
1.75427211767251,512.929117071321,502.533817810428,-10.3952992608932,-507.731467440874,261.662208166107,246.069259274767
1.75643521522821,511.597485475461,498.337260434858,-13.2602250406027,-504.96737295516,262.428855258032,242.538517697128
1.75859831278391,510.355446215275,495.274429102775,-15.0810171125008,-502.814937659025,262.718231663888,240.096705995137
1.76076141033961,509.178795364746,496.010759011557,-13.1680363531893,-502.594777188151,261.173415858968,241.421361329184
1.76292450789531,508.320024050691,498.439258304596,-9.88076574609528,-503.379641177643,259.100394898393,244.27924627925
1.76508760545101,508.50372377732,502.372933123068,-6.13079065425251,-505.438328450194,257.317257215786,248.121071234408
1.76725070300671,510.258733152911,504.973745041975,-5.28498811093652,-507.616239097443,257.771860631924,249.844378465519
1.76941380056241,512.350084479408,506.061462829464,-6.28862164994399,-509.205773654436,259.319353064676,249.88642058976
1.77157689811811,514.957069101333,504.423920993055,-10.5331481082773,-509.690495047194,262.745108604805,246.945386442389
1.7737399956738,516.85976063339,502.148146408466,-14.7116142249248,-509.503953520928,265.785687429158,243.71826609177
1.7759030932295,518.248428228787,501.297655100337,-16.95077312845,-509.773041664562,267.599600678619,242.173440985944
1.7780661907852,518.721626223319,502.297866573472,-16.4237596498469,-510.509746398396,267.572692936583,242.937053461813
1.7802292883409,519.066986840183,504.648801975185,-14.4181848649987,-511.857894407684,266.742585852591,245.115308555093
1.7823923858966,518.508577505451,508.79602348126,-9.71255402419069,-513.652300493356,264.110565764821,249.541734728535
1.7845554834523,517.56071349752,511.55269112359,-6.00802237393009,-514.556702310555,261.784367935725,252.77233437483
1.786718581008,517.409233263085,511.943690607049,-5.46554265603567,-514.676461935067,261.43738795956,253.239073975507
1.7888816785637,516.758363931215,510.06780945624,-6.69055447497459,-513.413086693727,261.724459203095,251.688627490633
1.7910447761194,516.553487204338,507.077771979825,-9.4757152245125,-511.815629592081,263.014601214425,248.801028377656
1.7932078736751,516.133802986023,503.814886853906,-12.3189161321166,-509.974344919964,264.22635955907,245.747985360895
1.7953709712308,515.287186642567,501.973802837121,-13.3133838054458,-508.630494739844,264.300285224006,244.330209515838
1.7975340687865,513.858820327753,503.871973646508,-9.98684668124491,-508.86539698713,261.922833504499,246.942563482631
1.7996971663422,512.27602362197,506.608122879903,-5.66790074206705,-509.442073250937,258.971962182019,250.470111068918
1.8018602638979,510.31036064277,507.794615765674,-2.51574487709587,-509.052488204222,256.413052759933,252.639435444289
1.8040233614536,507.524952668489,507.309789168655,-0.215163499834318,-507.417370918572,253.870058084162,253.54731283441
1.8061864590093,504.41141511357,504.524535581656,0.113120468085583,-504.467975347613,252.149147322742,252.318828024871
1.808349556565,501.868862858136,499.790173434106,-2.0786894240307,-500.829518146121,251.973776141084,248.855742005038
1.8105126541207,500.013196888516,494.443735146865,-5.56946174165154,-497.228466017691,252.791329315084,244.437136702607
1.8126757516764,498.92900681962,491.892451433669,-7.03655538595103,-495.410729126644,252.982781102785,242.427948023859
1.8148388492321,499.218342280172,492.461818770684,-6.75652350948735,-495.840080525428,252.98743289483,242.852647630598
1.8170019467878,500.510136816227,495.038617679741,-5.47151913648582,-497.774377247984,252.990827976357,244.783549271628
1.8191650443435,501.993257457649,498.270059416131,-3.72319804151795,-500.13165843689,252.858227749583,247.273430687307
1.8213281418992,502.805547632964,500.898663306005,-1.90688432695862,-501.852105469485,252.356215979961,249.495889489523
1.8234912394549,503.128236359703,500.926040043378,-2.202196316325,-502.027138201541,252.665216338014,249.361921863527
1.8256543370106,503.904061146157,497.974302454501,-5.92975869165525,-500.939181800329,254.916909918906,246.022271881423
1.8278174345663,503.659823411611,493.928901627973,-9.7309217836376,-498.794362519792,256.695372597624,242.098989922168
1.829980532122,501.860630746996,490.70623475237,-11.1543959946255,-496.283432749683,256.507513370811,239.775919378872
1.8321436296777,500.547501157081,489.16465998762,-11.382841169461,-494.85608057235,255.965171163271,238.890909409079
1.8343067272334,499.04880925913,490.200800916604,-8.8480083425261,-494.624805087867,253.948408800828,240.676396287039
1.8364698247891,497.954998287093,493.388427844094,-4.56657044299908,-495.671713065593,251.260784365046,244.410928700547
1.8386329223448,496.34621850815,494.904428920378,-1.44178958777189,-495.625323714264,248.894004047961,246.731319666303
1.8407960199005,495.712373003765,494.660091829341,-1.05228117442346,-495.186232416553,248.382327089094,246.803905327459
1.8429591174562,494.709452376013,491.510045590651,-3.1994067853621,-493.109748983332,248.954429580688,244.155319402644
1.8451222150119,493.707320773991,487.860222851668,-5.8470979223236,-490.783771812829,249.777209348157,241.006562464672
1.8472853125676,493.24607746124,483.575485126621,-9.67059233461896,-488.41078129393,251.458334897929,236.952446396001
1.8494484101233,493.719910530228,482.60954560921,-11.110364921018,-488.164728069719,252.415137725623,235.749590344096
1.851611507679,495.686671923468,484.876278983307,-10.8103929401606,-490.281475453388,253.248532431814,237.032943021573
1.8537746052347,498.202725356542,489.232202374452,-8.97052298208945,-493.717463865497,253.586624169316,240.130839696181
1.8559377027904,500.579363749013,492.951658426786,-7.6277053222272,-496.765511087899,254.10353453562,242.661976552279
1.8581008003461,502.043782304514,495.396124109926,-6.64765819458773,-498.71995320722,254.345720249551,244.374232957669
1.8602638979018,501.761798031108,494.478640085342,-7.2831579457652,-498.120219058225,254.522477988436,243.597741069789
1.8624269954575,500.475368713326,491.107457950577,-9.36791076274903,-495.791413331951,254.921639738037,240.869773593914
1.86459009301319,498.996163843133,487.026084339639,-11.9700795034944,-493.011124091386,255.483121673314,237.528002418072
1.86675319056889,496.835950509767,484.85778779828,-11.9781627114876,-490.846869154023,254.407056610627,236.439812543396
1.86891628812459,493.90855116802,484.085738672363,-9.82281249565654,-488.997144920192,251.865681831838,237.131463088353
1.87107938568029,490.421225883716,485.413356896785,-5.00786898693138,-487.917291390251,247.714547435324,240.202743954927
1.87324248323599,487.605866975913,486.382310810885,-1.22355616502779,-486.994088893399,244.41471157047,242.579377322929
1.87540558079169,485.551094765701,487.629808229817,2.07871346411639,-486.590451497759,241.736190650792,244.854260846967
1.87756867834739,485.132056879545,486.379036776757,1.24697989721244,-485.755546828151,241.942538491166,243.813008336985
1.87973177590309,486.177005740702,483.575075518272,-2.60193022242987,-484.876040629487,244.389467981566,240.486572647921
1.88189487345879,489.100904870903,480.988309387871,-8.11259548303161,-485.044607129387,248.606750176967,236.43785695242
1.88405797101449,495.017081454396,480.721311467487,-14.2957699869097,-487.869196460941,254.656425720653,233.212770740288
1.88622106857019,502.846996937661,484.038475448182,-18.8085214894788,-493.442736192922,260.82775921357,232.614976979352
1.88838416612589,514.505048775868,492.673079846744,-21.8319689291241,-503.589064311306,268.168508852496,235.42055545881
1.89054726368159,529.767510788453,504.107960255541,-25.6595505329116,-516.937735521997,277.713530660682,239.224204861315
1.89271036123729,547.930785388545,516.505979867967,-31.4248055205784,-532.218382628256,289.677795454562,242.540587173694
1.89487345879299,567.40073140054,528.796472009649,-38.6042593908911,-548.098601705095,303.002495395716,245.096106309379
1.89703655634869,588.36465584938,539.92786104727,-48.4367948021109,-564.146258448325,318.400725325746,245.745533122579
1.89919965390439,607.717389061233,549.672973460847,-58.0444156003865,-578.69518126104,332.88090233081,245.81427893023
1.90136275146009,624.543423297926,558.406320491738,-66.1371028061874,-591.474871894832,345.340263052057,246.134608842775
1.90352584901579,636.283487440668,568.022174114264,-68.261313326404,-602.152830777466,352.272400383536,249.88043039393
1.90568894657149,641.339869573145,578.552275902547,-62.7875936705982,-609.946072737846,352.063731621872,257.882341115974
1.90785204412719,639.356958213632,585.697292857341,-53.6596653562912,-612.527125535486,346.508311784962,266.018813750525
1.91001514168289,631.425993590563,589.29110182664,-42.1348917639236,-610.358547708601,336.780442677243,273.578105031358
1.91217823923859,619.153879241631,589.482615071757,-29.6712641698738,-604.318247156694,324.412571705752,279.905675450942
1.91434133679429,604.253716155686,584.219265586618,-20.034450569068,-594.236490871152,312.144083362377,282.092407508775
1.91650443434999,588.245956659748,574.704562210836,-13.5413944489123,-581.475259435292,300.89367555433,280.581583880962
1.91866753190569,572.510449651711,564.248284301806,-8.26216534990454,-568.379366976759,290.386307500808,277.993059475951
1.92083062946139,559.675206549486,556.076522399214,-3.59868415027245,-557.87586447435,281.636945349879,276.238919124471
1.92299372701709,549.226859254724,550.382568948414,1.15570969369071,-549.804714101569,274.035574780516,275.769139321053
1.92515682457279,540.520573037947,547.037341028071,6.51676799012432,-543.778957033009,267.001902523911,276.777054509098
1.92731992212849,533.085719277478,544.866003422407,11.7802841449287,-538.975861349943,260.652717566275,278.323143783668
1.92948301968419,526.578812597271,541.930485099625,15.3516725023542,-534.254648848448,255.613570047458,278.64107880099
1.93164611723989,521.289474753048,536.275984532475,14.986509779427,-528.782729642761,253.15148248681,275.631247155951
1.93380921479559,517.158928172257,529.447520299855,12.2885921275979,-523.303224236056,252.43516802233,270.868056213726
1.93597231235129,513.874118196821,522.302558402248,8.42844020542702,-518.088338299534,252.722838995697,265.365499303837
1.93813540990699,511.476720041066,515.737071285507,4.2603512444407,-513.606895663287,253.608184398313,259.998711264974
1.94029850746269,508.646369041932,512.025916144804,3.37954710287158,-510.336142593368,252.63341096953,257.702731623838
1.94246160501839,506.040342523248,511.478602313554,5.43825979030612,-508.759472418401,250.301041366471,258.45843105193
1.94462470257409,503.057725409402,512.159773561146,9.10204815174433,-507.608749485274,246.977838628829,260.630910856445
1.94678780012979,500.880880836496,511.306141105495,10.4252602689988,-506.093510970995,245.227810283749,260.865700687247
1.94895089768549,498.751811923496,509.332341701035,10.5805297775382,-504.042076812265,244.085641072979,259.956435739286
1.95111399524119,496.927767990975,505.730526771705,8.80275878072996,-501.32914738134,244.062504605122,257.266642776217
1.95327709279688,495.866657069422,499.319577553342,3.45292048392002,-497.593117311382,246.206868292751,251.386249018631
1.95544019035258,494.551899431069,494.100273666571,-0.451625764497862,-494.32608654882,247.501762597783,246.824323951037
1.95760328790828,493.592331735822,491.641778205815,-1.95055353000731,-492.617054970819,247.771442632915,244.845612337904
1.95976638546398,493.16215342603,492.549022684357,-0.613130741672762,-492.855588055193,246.887642083851,245.967945971342
1.96192948301968,493.118346670711,493.751481855078,0.633135184366154,-493.434914262894,246.242605743173,247.192308519722
1.96409258057538,492.275905946849,495.439557846921,3.16365190007156,-493.857731896885,244.556127023389,249.301604873496
1.96625567813108,491.390899605801,496.131277199713,4.74037759391246,-493.761088402757,243.325261005944,250.435827396813
1.96841877568678,489.934514589717,493.394249730017,3.45973514029981,-491.664382159867,243.237389724709,248.426992435158
1.97058187324248,488.331268608862,488.424928902735,0.0936602938724036,-488.378098755799,244.118804157495,244.259294598304
1.97274497079818,486.62083706515,484.257788541983,-2.36304852316772,-485.439312803566,244.491942794159,240.947370009407
1.97490806835388,485.372489227953,481.216427035429,-4.15606219252464,-483.294458131691,244.764275710239,238.530182421452
1.97707116590958,485.001702737295,481.428114139262,-3.57358859803253,-483.214908438278,244.287645667664,238.927262770615
1.97923426346528,485.541555155981,482.93339371638,-2.60816143960039,-484.23747443618,244.074858297791,240.16261613839
1.98139736102098,486.205719302136,486.733574783853,0.527855481716529,-486.469647042995,242.83893191021,243.630715132785
1.98356045857668,487.230767802249,488.156332270352,0.925564468103573,-487.693550036301,243.152601667073,244.540948369228
1.98572355613238,488.51920550633,488.114098136401,-0.405107369928828,-488.316651821365,244.462156438129,243.854495383236
1.98788665368808,489.729719972915,486.192180332988,-3.53753963992727,-487.960950152951,246.633629806421,241.32732034653
1.99004975124378,490.613206436792,482.898387079772,-7.71481935701996,-486.755796758282,249.164012896906,237.591783861376
1.99221284879948,492.068482179963,480.494432534533,-11.5740496454296,-486.281457357248,251.821265912696,234.460191444552
1.99437594635518,493.941074776745,481.171327149592,-12.7697476271523,-487.556200963169,253.355411201948,234.20078976122
1.99653904391088,495.577931063073,484.637072810199,-10.9408582528738,-490.107501936636,253.259394657973,236.848107278663
1.99870214146658,497.04273666758,488.517306811184,-8.5254298563961,-492.780021739382,252.784083261988,239.995938477394
2.00086523902228,497.30134730323,492.159740128902,-5.14160717432816,-494.730543716066,251.221477238779,243.509066477287
2.00302833657798,497.760248881075,493.467366400152,-4.29288248092291,-495.613807640614,251.026565680999,244.587241959615
2.00519143413368,496.744394287669,491.179854768958,-5.56453951871146,-493.962124528314,251.15446690319,242.807657625123
2.00735453168938,496.273135334902,487.349078919686,-8.92405641521583,-491.811107127294,252.598595875059,239.212511252235
2.00951762924508,495.929189915625,483.742742326768,-12.1864475888568,-489.835966121197,254.057818752241,235.778147368956
2.01168072680078,494.867694852295,483.2719296615,-11.5957651907953,-489.069812256898,253.231730021545,235.838082235352
2.01384382435648,494.90343790981,485.089559657355,-9.8138782524552,-489.996498783583,252.358658081133,237.63784070245
2.01600692191218,495.199680970178,488.037082890176,-7.1625980800024,-491.618381930177,251.18113952509,240.437242405087
2.01817001946788,495.145735915692,492.079407895115,-3.06632802057669,-493.612571905404,249.106031968134,244.506539937269
2.02033311702358,495.106364452775,493.408736418336,-1.69762803443854,-494.257550435556,248.401996243607,245.855554191949
2.02249621457928,495.347785647007,491.947532676546,-3.40025297046066,-493.647659161777,249.374019308734,244.273639853043
2.02465931213498,495.794141617812,488.719832507438,-7.07430911037363,-492.256987062625,251.434225364093,240.822761698532
2.02682240969068,496.390067962269,485.82380316533,-10.5662647969389,-491.106935563799,253.478166379604,237.628769184196
2.02898550724638,497.635469738568,484.52062277537,-13.114846963198,-491.078046256969,255.375158350883,235.702887906086
2.03114860480208,498.544418488724,486.000910569792,-12.5435079189322,-492.272664529258,255.543963203828,236.72870132543
2.03331170235778,499.477965299624,489.782851539909,-9.69511375971484,-494.630408419767,254.586539529669,240.043868890097
2.03547479991348,500.159308640486,493.623702511504,-6.53560612898235,-496.891505575995,253.347457384734,243.544048191261
2.03763789746918,501.196895269141,496.156767522378,-5.04012774676301,-498.676831395759,253.118511507952,245.558319887807
2.03980099502488,501.413859000966,496.114415802388,-5.29944319857822,-498.764137401677,253.356651099772,245.407486301905
2.04196409258058,500.761739997273,493.922255967663,-6.83948402960948,-497.341997982468,253.800612013441,243.541385969027
2.04412719013628,500.82610741705,490.161072034732,-10.6650353823181,-495.493589725891,255.745571399684,239.748018326207
2.04629028769198,501.413398002276,487.956307729017,-13.4570902732585,-494.684852865646,257.435244137767,237.249608727879
2.04845338524767,502.652497023344,489.048736314921,-13.6037607084232,-495.850616669132,258.128128865883,237.722487803249
2.05061648280337,503.286689534875,492.547600651032,-10.7390888838422,-497.917145092953,257.012889209358,240.904255883595
2.05277958035907,504.289863423636,496.181849899734,-8.10801352390217,-500.235856661685,256.198938473769,244.036918187916
2.05494267791477,504.75186744289,499.374596562152,-5.3772708807374,-502.063232002521,255.064569161814,246.998662840707
2.05710577547047,505.359214418304,500.894334245171,-4.464880173133,-503.126774331737,254.912047295718,248.214727036019
2.05926887302617,505.532326623677,499.031787022119,-6.50053960155827,-502.282056822898,256.016433112618,246.26562371028
2.06143197058187,505.118359067674,495.511168806305,-9.60719026136928,-500.31476393699,257.362774664522,242.951989272468
2.06359506813757,505.086383630311,492.941667471122,-12.1447161591888,-499.014025550716,258.61554989475,240.398475655967
2.06575816569327,505.063046555978,492.146957730538,-12.9160888254407,-498.605002143258,258.989567690709,239.615434452548
2.06792126324897,505.046014137244,493.72819345798,-11.3178206792635,-499.387103797612,258.181917408254,241.205186389358
2.07008436080467,505.033583132233,496.773342014322,-8.26024111791111,-500.903462573278,256.646912125072,244.256550448206
2.07224745836037,505.024510440446,500.616762043326,-4.40774839711997,-502.820636241886,254.716129418783,248.104506823103
2.07441055591607,506.908982275806,502.341233429177,-4.56774884662894,-504.625107852491,255.738365561217,248.886742291274
2.07657365347177,509.905289609975,502.249047098586,-7.65624251138888,-506.077168354281,258.780766060682,247.296402293599
2.07873675102747,512.902594540757,501.101140630368,-11.8014539103892,-507.001867585563,262.352024225573,244.649843359989
2.08089984858317,515.90062756123,499.723035801443,-16.1775917597867,-507.811831681337,266.039109660508,241.772722020828
2.08306294613887,518.358879549697,499.527703188278,-18.8311763614195,-508.943291368988,268.595027955558,240.348263413429
2.08522604369457,520.693331916878,502.356859224528,-18.3364726923495,-511.525095570703,269.514902304614,242.010193266089
2.08738914125027,521.316492628259,506.312794666333,-15.0036979619264,-513.814643647296,268.160095295093,245.654548352203
2.08955223880597,521.230990178723,509.740321998514,-11.4906681802093,-515.485656088619,266.360829179466,249.124826909152
2.09171533636167,520.628274323317,511.431412894932,-9.19686142838492,-516.029843609124,264.912567875851,251.117275733273
2.09387843391737,519.91822968837,511.855176445228,-8.06305324314224,-515.886703066799,263.990641465756,251.896061601043
2.09604153147307,519.940320446004,509.46289552133,-10.4774249246735,-514.701607983667,265.208872685339,249.492735298328
2.09820462902877,519.686287036366,505.825810666464,-13.860476369902,-512.756048851415,266.773381703134,245.982667148281
2.10036772658447,520.041194754108,503.711619301987,-16.3295754521207,-511.876407028048,268.185385103114,243.691021924933
2.10253082414017,520.300221947261,504.870151986426,-15.4300699608349,-512.585186966843,267.865145954048,244.720041012795
2.10469392169587,521.029583758883,508.147105776352,-12.8824779825312,-514.588344767617,266.956030870707,247.63231389691
2.10685701925157,523.452997429495,512.700019838886,-10.7529775906089,-518.076508634191,267.102987510052,250.973521124139
2.10902011680727,526.032179478671,517.103560732796,-8.92861874587584,-521.567870105734,267.480399112274,254.08747099346
2.11118321436297,528.184735687587,519.236832852498,-8.94790283508871,-523.710784270042,268.566319261338,255.144465008705
2.11334631191867,529.215453041517,517.822069926862,-11.3933831146552,-523.51876148419,270.304418078086,253.214343406103
2.11550940947437,529.427403275856,514.898420510811,-14.5289827650455,-522.162911893334,271.978193020451,250.184718872883
2.11767250703007,529.31193762591,512.494456933969,-16.8174806919402,-520.903197279939,273.064709158925,247.838488121015
2.11983560458577,528.68735331481,511.55040768614,-17.1369456286707,-520.118880500475,272.91214947174,247.206731028734
2.12199870214147,528.231504335192,513.56296132564,-14.6685430095519,-520.897232830416,271.450023672372,249.447209158044
2.12416179969717,528.709274424708,518.003529428293,-10.7057449964151,-523.3564019265,269.707509710562,253.648892215939
2.12632489725287,530.408753016053,522.325075321262,-8.08367769479139,-526.366914168657,269.246215355422,257.120698813235
2.12848799480857,532.189419332747,524.668660110741,-7.52075922200515,-528.429039721744,269.855089277376,258.573950444368
2.13065109236427,533.218871370843,523.947705004451,-9.27116636639255,-528.583288187647,271.245018868618,257.338269319029
2.13281418991997,533.970210546024,521.530426915503,-12.4397836305207,-527.750318730764,273.204997088272,254.545321642491
2.13497728747567,534.248414563935,518.68556667062,-15.5628478933157,-526.466990617278,274.905631228626,251.561359388652
2.13714038503137,533.911147614497,517.149575516541,-16.7615720979558,-525.530361565519,275.336359856226,250.194001709293
2.13930348258706,533.394839214637,519.000260244705,-14.3945789699317,-526.197549729671,273.894709092284,252.302840637387
2.14146658014276,532.207546100626,521.97190826857,-10.2356378320561,-527.089727184598,271.221591966341,255.868135218257
2.14362967769846,531.070851384805,524.410903331163,-6.65994805364289,-527.740877357984,268.865399719224,258.87547763876
2.14579277525416,530.241241807466,526.190988726872,-4.05025308059385,-528.216115267169,267.14574744403,261.070367823139
2.14795587280986,528.555131563386,525.599079512167,-2.95605205121922,-527.077105537776,265.755591807302,261.321513730474
