t,leadI,leadII,leadIII,aVR,aVL,aVF
0,183.48041687911,7.91859624432267,-175.561820634788,-95.6995065617165,179.521118756949,-83.8216121952325
0.00216356555603635,112.534340326021,11.9216774585193,-100.612662867502,-62.2280088922703,106.573501596762,-44.3454927044913
0.0043271311120727,83.0654798538718,12.7464350375378,-70.319044816334,-47.9059574457048,76.6922623351029,-28.7863048893981
0.00649069666810904,61.7127293290243,16.7321378976578,-44.9805914313666,-39.222433613341,53.3466603801954,-14.1242267668544
0.00865426222414539,48.358175310695,20.6902412645695,-27.6679340461256,-34.5242082876323,38.0130546784103,-3.48884639077805
0.0108178277801817,39.7197650991028,16.6837488491892,-23.0360162499136,-28.201756974146,31.3778906745082,-3.1761337003622
0.0129813933362181,34.9855094234051,15.8592235920153,-19.1262858313898,-25.4223665077102,27.0558976273974,-1.63353111968725
0.0151449588922544,30.2386017655546,17.4407437636698,-12.7978580018848,-23.8396727646122,21.5182298837197,2.32144288089251
0.0173085244482908,27.9109782956228,17.4528287418896,-10.4581495537331,-22.6819035187562,19.1845639246779,3.49733959407826
0.0194720900043271,24.8025477953681,12.7070011257948,-12.0955466695733,-18.7547744605815,18.4490472324707,0.305727228110742
0.0216356555603635,23.2126681246217,11.9327415190694,-11.2799266055523,-17.5727048218456,17.246297365087,0.326407456758551
0.0237992211163998,21.4886528321458,12.7371399930234,-8.75151283912236,-17.1128964125846,15.1200828356341,1.99281357695053
0.0259627866724362,20.4617271565924,10.3476173916209,-10.1141097649715,-15.4046722741067,15.2879184607819,0.116753813324721
0.0281263522284725,15.5117607159404,11.1231685376336,-4.38859217830684,-13.317464626787,9.95017644712363,3.36728817966337
0.0302899177845089,14.7428482630236,10.3081820417134,-4.43466622131012,-12.5255151523685,9.58875724216684,2.93675791020165
0.0324534833405452,15.0170224078259,8.70903040486635,-6.30799200295951,-11.8630264063461,10.6625072053927,1.20051920095342
0.0346170488965816,14.6040292817668,7.12818635382309,-7.47584292794369,-10.8661078177949,11.0399361048552,-0.173828287060302
0.0367806144526179,13.2569869181705,7.15011504477252,-6.10687187339799,-10.2035509814715,9.68192939578425,0.521621585687267
0.0389441800086543,10.7872125013699,6.37667409637491,-4.41053840499497,-8.58194329887239,7.59887545318242,0.98306784568997
0.0411077455646906,8.00156111115697,2.41266508712805,-5.58889602402892,-5.20711309914251,6.79522856759294,-1.58811546845044
0.043271311120727,9.10020945798894,7.16797700037319,-1.93223245761575,-8.13409322918107,5.51622095780235,2.61787227137872
0.0454348766767633,8.83508185999242,3.96418556453482,-4.8708962954576,-6.39963371226362,6.85298907772501,-0.453355365461392
0.0475984422327997,6.61109981138499,2.35140379617762,-4.25969601520738,-4.4812518037813,5.43539791329619,-0.95414610951488
0.049762007788836,4.7533196524648,0.761868098167652,-3.99145155429715,-2.75759387531623,4.37238560338097,-1.61479172806475
0.0519255733448723,6.924093952417,3.16780689446959,-3.75628705794741,-5.0459504234433,5.34019050518221,-0.294240081738907
0.0540891389009087,5.59538783478216,0.0192067105062841,-5.57618112427587,-2.80729727264422,5.58578447952901,-2.77848720688479
0.056252704456945,4.54271470200931,0.0346061427178318,-4.50810855929148,-2.28866042236357,4.5254116306504,-2.23675120828682
0.0584162700129814,2.30958497363343,0.0264534308485176,-2.28313154278491,-1.16801920224097,2.29635825820917,-1.1283390559682
0.0605798355690177,2.46640134838122,-0.00132824004217641,-2.4677295884234,-1.23253655416952,2.46706546840231,-1.23452891423279
0.0627434011250541,-0.134313431681238,-0.0305390413055744,0.103774390375664,0.0824262364934062,-0.119043911028451,0.0366176745350446
0.0649069666810904,1.02646473074179,-0.0407417963746448,-1.06720652711643,-0.492861467183572,1.04683562892911,-0.553974161745539
0.0670705322371268,0.182132925720881,-0.0234919281823042,-0.205624853903186,-0.0793204987692886,0.193878889812033,-0.114558391042745
0.0692340977931631,0.843422178882603,0.011103194120488,-0.832318984762115,-0.427262686501545,0.837870581822359,-0.410607895320813
0.0713976633491995,0.993062290262191,0.0403852003721933,-0.952677089889998,-0.516723745317192,0.972869690076094,-0.456145944758902
0.0735612289052358,0.513534674845628,0.0440835901117175,-0.46945108473391,-0.278809132478673,0.491492879789769,-0.212683747311096
0.0757247944612722,-0.311635080825154,0.0182877309639801,0.329922811789134,0.146673674930587,-0.320778946307144,0.174105271376557
0.0778883600173085,-0.966005184092993,-0.0211377213902128,0.944867462702781,0.493571452741603,-0.955436323397887,0.461864870656284
0.0800519255733449,-1.02533149331664,-0.0484139521739959,0.976917541142639,0.536872722745316,-1.00112451722964,0.464251794484322
0.0822154911293812,-0.433794960640048,-0.044786311646253,0.389008648993795,0.23929063614315,-0.411401804816921,0.172111168673771
0.0843790566854176,0.449155809620297,-0.0113642552152676,-0.460520064835565,-0.218895777202515,0.454837937227931,-0.235942160025416
0.0865426222414539,1.06818267991922,0.0308904131257041,-1.03729226679352,-0.549536546522464,1.05273747335637,-0.503200926833908
0.0887061877974903,1.02307060243981,0.0544153924339872,-0.968655210005819,-0.538742997436896,0.995862906222812,-0.457119908785916
0.0908697533535266,0.328427717355077,0.0430947649403579,-0.285332952414719,-0.185761241147718,0.306880334884898,-0.121119093737181
0.093033318909563,-0.586959120330813,0.00324674102278567,0.590205861353599,0.291856189654014,-0.588582490842206,0.296726301188192
0.0951968844655993,-1.14594480492725,-0.0399042553377226,1.10604054958953,0.592924530132488,-1.12599267725839,0.533068147125904
0.0973604500216357,-0.988447515156426,-0.0582927797094613,0.930154735446965,0.523370147432944,-0.959301125301695,0.435930977868752
0.099524015577672,-0.204153823674423,-0.0393217565736171,0.164832067100806,0.12173779012402,-0.184492945387614,0.0627551552635944
0.101687581133708,0.718275339130033,0.00555891458077348,-0.712716424549259,-0.361917126855403,0.715495881839646,-0.353578754984243
0.103851146689745,1.19684508061177,0.0478133260902987,-1.14903175452147,-0.622329203351035,1.17293841756662,-0.550609214215587
0.106014712245781,0.924761732329834,0.0600509587426212,-0.864710773587213,-0.492406345536228,0.894736252958523,-0.402329907422296
0.108178277801817,0.0676807306887056,0.0338263640175744,-0.0338543666711312,-0.05075354735314,0.0507675486799184,-1.40013267783679e-05
0.110341843357854,-0.837442874575951,-0.0145836656181782,0.822859208957773,0.426013270097065,-0.830151041766862,0.404137771669797
0.11250540891389,-1.21988603956525,-0.0543449399875498,1.1655410995777,0.637115489776399,-1.19271356957147,0.555598079795075
0.114668974469926,-0.836156850837483,-0.0597823098529968,0.776374540984486,0.44796958034524,-0.806265695910985,0.358296115565745
0.116832540025963,0.0745665421766139,-0.0269933327429253,-0.101559874919539,-0.0237866047168443,0.0880632085480765,-0.0642766038312322
0.118996105581999,0.939985955927147,0.0234089511623429,-0.916577004764804,-0.481697453544745,0.928281480345975,-0.44658402680123
0.121159671138035,1.21536253024861,0.0593177736771005,-1.1560447565715,-0.637340151962853,1.18570364341005,-0.548363491447202
0.123323236694072,0.727338986526721,0.0576511352400004,-0.66968785128672,-0.392495060883361,0.69851341890672,-0.30601835802336
0.125486802250108,-0.21666579314575,0.0192142876008434,0.235880080746594,0.0987257527724535,-0.226272936946172,0.127547184173719
0.127650367806145,-1.02263399817139,-0.0316764306484294,0.990957567522957,0.527155214409908,-1.00679578284717,0.479640568437264
0.129813933362181,-1.18467493749129,-0.0626366010005851,1.1220383364907,0.623655769245936,-1.15335663699099,0.529700867745059
0.131977498918217,-0.603311803608573,-0.0538773343778462,0.549434469230727,0.32859456899321,-0.57637313641965,0.24777856742644
0.134141064474254,0.353367141335618,-0.0108712751176996,-0.364238416453318,-0.171247933108959,0.358802778894468,-0.187554845785509
0.13630463003029,1.083289905153,0.0390939616049773,-1.04419594354803,-0.56119193337899,1.06374292435051,-0.502550990971524
0.138468195586326,1.13012413596317,0.0642843219434423,-1.06583981401973,-0.597204228953306,1.09798197499145,-0.500777746038142
0.140631761142363,0.469136670399447,0.0487201338606225,-0.420416536538824,-0.258928402130035,0.444776603469135,-0.185848201339101
0.142795326698399,-0.480211816275392,0.00232298537625245,0.482534801651644,0.23894441544957,-0.481373308963518,0.242428893513948
0.144958892254435,-1.12095574780823,-0.0454380984104999,1.07551764939773,0.583196923109367,-1.09823669860298,0.515039775493617
0.147122457810472,-1.05469912859676,-0.0643119886129319,0.990387139983829,0.559505558604846,-1.02254313429029,0.463037575685448
0.149286023366508,-0.329724235468923,-0.0424625295112543,0.287261705957668,0.186093382490088,-0.308492970713295,0.122399588223207
0.151449588922544,0.593602500001753,0.00610615791852148,-0.587496342083231,-0.299854328960137,0.590549421042492,-0.290695092082355
0.153613154478581,1.13562486974767,0.050553497783841,-1.08507137196383,-0.593089183765754,1.11034812085575,-0.517258937089993
0.155776720034617,0.961867109040252,0.0628275181138123,-0.899039590926439,-0.512347313577032,0.930453349983345,-0.418106036406313
0.157940285590653,0.189661527194064,0.035396977645528,-0.154264549548536,-0.112529252419796,0.1719630383713,-0.0594337859515039
0.16010385114669,-0.690829203847734,-0.0141339969737741,0.67669520687396,0.352481600410754,-0.683762205360847,0.331280604950093
0.162267416702726,-1.12814961872898,-0.0543496928646989,1.07379992586428,0.591249655796839,-1.10097477229663,0.50972511649979
0.164430982258762,-0.855374224874444,-0.0599837412745069,0.795390483599937,0.457678983074476,-0.825382354237191,0.367703371162715
0.166594547814799,-0.0530766127691878,-0.0278127450431417,0.0252638677260461,0.0404446789061648,-0.039170240247617,-0.00127443865854781
0.168758113370835,0.770055973575076,0.0215258150590729,-0.748530158516003,-0.395790894317075,0.75929306604554,-0.363502171728465
0.170921678926871,1.10009363615611,0.0567957437838603,-1.04329789237225,-0.578444689969983,1.07169576426418,-0.493251074294192
0.173085244482908,0.739063702654974,0.0559663731299509,-0.683097329525023,-0.397515037892462,0.711080516089998,-0.313565478197536
0.175248810038944,-0.0764590177745035,0.0199851997526139,0.0964442175271174,0.0282369090109448,-0.0864516176508105,0.0582147086398657
0.177412375594981,-0.830274621279326,-0.0280968802690829,0.802177741010244,0.429185750774205,-0.816226181144785,0.38704043037058
0.179575941151017,-1.05357702426494,-0.0579132905946847,0.995663733670255,0.555745157429812,-1.0246203789676,0.468875221537785
0.181739506707053,-0.616716317024228,-0.050982411563268,0.56573390546096,0.333849364293748,-0.591225111242594,0.257375746948846
0.18390307226309,0.195991796598736,-0.0121672028543219,-0.208158999453058,-0.0919122968722073,0.202075398025897,-0.11016310115369
0.186066637819126,0.871232195942909,0.033712634848961,-0.837519561093948,-0.452472415395935,0.854375878518428,-0.401903463122493
0.188230203375162,0.991121825003238,0.0577685273200125,-0.933353297683226,-0.524445176161625,0.962237561343232,-0.437792385181607
0.190393768931199,0.491916525310291,0.0452493801921997,-0.446667145118091,-0.268582952751245,0.469291835214191,-0.200708882462946
0.192557334487235,-0.303213938458996,0.00458264928297985,0.307796587741975,0.149315644588008,-0.305505263100485,0.156189618512478
0.194720900043271,-0.893339056958464,-0.0382868674095923,0.855052189548872,0.465812962184028,-0.874195623253668,0.40838266106964
0.196884465599308,-0.915504160974181,-0.0564635873388507,0.85904057363533,0.485983874156516,-0.887272367304756,0.40128849314824
0.199048031155344,-0.367946015934229,-0.038985735832382,0.328960280101847,0.203465875883306,-0.348453148018038,0.144987272134733
0.20121159671138,0.396461628481201,0.00257789270533702,-0.393883735775864,-0.199519760593269,0.395172682128532,-0.195652921535263
0.203375162267417,0.897564248438889,0.0417782427060644,-0.855786005732825,-0.469671245572477,0.876675127085857,-0.40700388151338
0.205538727823453,0.829618181145458,0.0541277845226511,-0.775490396622807,-0.441872982834054,0.802554288884132,-0.360681306050078
0.207702293379489,0.24770499037677,0.0324026645874697,-0.2153023257893,-0.14005382748212,0.231503658083035,-0.0914498306009152
0.209865858935526,-0.474688065060313,-0.00915957636708279,0.46552848869323,0.241923820713698,-0.470108276876771,0.228184456163074
0.212029424491562,-0.885324437106207,-0.0441855794460777,0.841138857660129,0.464755008276142,-0.863231647383168,0.398476639107026
0.214192990047598,-0.736355692002777,-0.0509090957724889,0.685446596230288,0.393632393887633,-0.710901144116533,0.3172687502289
0.216356555603635,-0.133660257453096,-0.0256973980953155,0.10796285935778,0.0796788277742057,-0.120811558405438,0.0411327306312324
0.218520121159671,0.537416302045368,0.0150439036402432,-0.522372398405124,-0.276230102842805,0.529894350225246,-0.253664247382441
0.220683686715707,0.858372028571356,0.0455422630613705,-0.812829765509985,-0.451957145816363,0.835600897040671,-0.383643751224307
0.222847252271744,0.638504101358506,0.0469662032442057,-0.5915378981143,-0.342735152301356,0.615020999736403,-0.272285847435047
0.22501081782778,0.0278181943779592,0.0190480962624675,-0.00877009811549166,-0.0234331453202134,0.0182941462467254,0.00513899907348793
0.227174383383817,-0.584676973836131,-0.0201478298292021,0.564529144006929,0.302412401832667,-0.57460305892153,0.272190657088864
0.229337948939853,-0.81868727351165,-0.0459101602975293,0.77277711321412,0.432298716904589,-0.795732193362885,0.363433476458296
0.231501514495889,-0.538664111399361,-0.0424613427265829,0.496202768672778,0.290562727062972,-0.517433440036069,0.226870712973098
0.233665080051926,0.0682801626119745,-0.0126102677198521,-0.0808904303318266,-0.0278349474460612,0.0745852964719006,-0.0467503490258393
0.235828645607962,0.616935881132069,0.0244216205454153,-0.592514260586654,-0.320678750838742,0.604725070859361,-0.284046320020619
0.237992211163998,0.768378273518284,0.0453733690024394,-0.723004904515845,-0.406875821260362,0.745691589017064,-0.338815767756703
0.240155776720035,0.439187514138678,0.0375541321581738,-0.401633381980504,-0.238370823148426,0.420410448059591,-0.182039624911165
0.242319342276071,-0.15354519103167,0.00651463619437819,0.160059827226048,0.073515277418646,-0.156802509128859,0.0832872317102133
0.244482907832107,-0.635016102174473,-0.0278457487016432,0.60717035347283,0.331430925438058,-0.621093227823651,0.289662302385593
0.246646473388144,-0.709591850015737,-0.0440320929480224,0.665559757067715,0.37681197148188,-0.687575803541726,0.310763832059846
0.24881003894418,-0.3421345000226,-0.0323964844623965,0.309738015560204,0.187265492242498,-0.325936257791402,0.138670765548903
0.250973604500216,0.227309538468984,-0.000866311185276157,-0.22817584965426,-0.113221613641854,0.227742694061622,-0.114521080419768
0.253137170056253,0.640018816890026,0.0304271175903428,-0.609591699299683,-0.335222967240184,0.624805258094854,-0.28958229085467
0.255300735612289,0.6444372973492,0.0419968812419073,-0.602440416107293,-0.343217089295554,0.623438856728246,-0.280221767432693
0.257464301168325,0.249249112089513,0.0271286445225525,-0.22212046756696,-0.138188878306033,0.235684789828236,-0.0974959115222038
0.259627866724362,-0.289287497974743,-0.00425491481218734,0.285032583162556,0.146771206393465,-0.28716004056865,0.140388834175184
0.261791432280398,-0.633246433632588,-0.032194881602462,0.601051552030126,0.332720657617525,-0.617148992831357,0.284428335213832
0.263954997836434,-0.574924145018082,-0.0393834180757761,0.535540726942305,0.307153781546929,-0.555232435980193,0.248078654433265
0.266118563392471,-0.161950876487082,-0.0218763333749064,0.140074543112175,0.091913604930994,-0.151012709799628,0.0590991048686344
0.268282128948507,0.339526565575255,0.00879334302047417,-0.330733222554781,-0.174159954297865,0.335129894065018,-0.160969939767153
0.270445694504543,0.616130934062367,0.0331961113719185,-0.582934822690448,-0.324663522717143,0.599532878376408,-0.274869355659265
0.27260926006058,0.502914238605976,0.0363079941552377,-0.466606244450738,-0.269611116380607,0.484760241528357,-0.21514912514775
0.274772825616616,0.0813402183646916,0.0167489351091537,-0.0645912832555379,-0.0490445767369226,0.0729657508101147,-0.0239211740731921
0.276936391172653,-0.378354611978754,-0.0127154296379941,0.36563918234076,0.195535020808374,-0.371996897159757,0.176461876351383
0.279099956728689,-0.59016964264035,-0.0334915176218142,0.556678125018535,0.311830580131082,-0.573423883829442,0.261593303698361
0.281263522284725,-0.430087740561852,-0.0328837387428446,0.397204001819007,0.231485739652348,-0.413645871190429,0.182160131538081
0.283427087840762,-0.00821502471032248,-0.0118386244552113,-0.00362359974488886,0.0100268245827669,-0.00229571248271681,-0.00773111210005011
0.285590653396798,0.406325743694808,0.0160073410436806,-0.390318402651127,-0.211166542369244,0.398322073172968,-0.187155530803723
0.287754218952834,0.556869920911123,0.0331514103154801,-0.523718510595643,-0.295010665613302,0.540294215753383,-0.245283550140082
0.289917784508871,0.357922068625666,0.0292176429737665,-0.328704425651899,-0.193569855799716,0.343313247138783,-0.149743391339066
0.292081350064907,-0.0569043701198454,0.00722030594759655,0.0641246760674419,0.0248420320861244,-0.0605145230936436,0.0356724910075192
0.294244915620943,-0.424167480183703,-0.0186722014447072,0.405495278738995,0.221419840814205,-0.414831379461349,0.193411538647144
0.29640848117698,-0.517703615810847,-0.0322520293523486,0.485451586458498,0.274977822581598,-0.501577601134673,0.226599778553075
0.298572046733016,-0.287682341297139,-0.0254083626546298,0.262273978642509,0.156545351975884,-0.274978159969824,0.11843280799394
0.300735612289052,0.113744443071578,-0.00295221871604753,-0.116696661787625,-0.055396112177765,0.115220552429601,-0.0598244402518363
0.302899177845089,0.432731367169999,0.0207272127181195,-0.41200415445188,-0.226729289944059,0.422367760810939,-0.19563847086688
0.305062743401125,0.474071482392969,0.0308723422694039,-0.443199140123565,-0.252471912331186,0.458635311258267,-0.206163398927081
0.307226308957161,0.220421588738158,0.0215447533245117,-0.198876835413646,-0.120983171031335,0.209649212075902,-0.0886660410445672
0.309389874513198,-0.162244474262799,-0.00092294627341463,0.161321527989384,0.0815837102681066,-0.161783001126091,0.0801992908579846
0.311553440069234,-0.432948614018336,-0.0222008015894854,0.41074781242885,0.227574707803911,-0.421848213223593,0.194273505419682
0.31371700562527,-0.427277274982588,-0.029091365211084,0.398185909771504,0.228184320096836,-0.412731592377046,0.18454727228021
0.315880571181307,-0.156988809618915,-0.0177050626573634,0.139283746961552,0.0873469361381394,-0.148136278290234,0.0607893421520943
0.318044136737343,0.202521487916624,0.00437656830036621,-0.198144919616257,-0.103449028108495,0.200333203766441,-0.0968841756579456
0.320207702293379,0.42579181421767,0.0231299208165808,-0.402661893401089,-0.224460867517125,0.414226853809379,-0.189765986292254
0.322371267849416,0.378510770720163,0.0269860274784794,-0.351524743241684,-0.202748399099321,0.365017756980924,-0.162269357881602
0.324534833405452,0.0980428997294084,0.0139566855781086,-0.0840862141512998,-0.0559997926537585,0.0910645569403541,-0.0350647642865956
0.326698398961489,-0.234836016319019,-0.00739240130529534,0.227443615013723,0.121114208812157,-0.231139815666371,0.110025606854214
0.328861964517525,-0.412243307777836,-0.0235576006214629,0.388685707156373,0.21790045419965,-0.400464507467105,0.182564053267455
0.331025530073561,-0.328838663309331,-0.0246295685601782,0.304209094749152,0.176734115934754,-0.316523879029241,0.139789763094487
0.333189095629598,-0.0440705322525467,-0.0103563756024964,0.0337141566500503,0.0272134539275216,-0.0388923444512985,0.0116788905237769
0.335352661185634,0.259560176391465,0.00996478897461592,-0.249595387416849,-0.13476248268304,0.254577781904157,-0.119815299221116
0.33751622674167,0.393270293326835,0.02353081600267,-0.369739477324165,-0.208400554664753,0.3815048853255,-0.173104330660748
0.339679792297707,0.279202044221471,0.0220904305984416,-0.25711161362303,-0.150646237409956,0.26815682892225,-0.117510591512294
0.341843357853743,-0.00459378529948685,0.00695080139350386,0.0115445866929907,-0.0011785080470085,-0.00806918599623879,0.00924769404324729
0.344006923409779,-0.277149146566482,-0.0120968997898693,0.265052246776612,0.144623023178175,-0.271100696671547,0.126477673493372
0.346170488965816,-0.369806411546779,-0.0230987063068773,0.346707705239902,0.196452558926828,-0.35825705839334,0.161804499466512
0.348334054521852,-0.230419070066267,-0.0194315892949463,0.210987480771321,0.124925329680607,-0.220703275418794,0.0957779457381874
0.350497620077888,0.0477470361661457,-0.0037773395679647,-0.0515243757341104,-0.0219848482990905,0.0496357059501281,-0.0276508576510376
0.352661185633925,0.28811673482963,0.0137990694824922,-0.274317665347138,-0.150957902156061,0.281217200088384,-0.130259297932323
0.354824751189961,0.342739210852024,0.0223111568310324,-0.320428054020991,-0.182525183841528,0.331583632436507,-0.149058448594979
0.356988316745997,0.183191390307605,0.0167102524935464,-0.166481137814058,-0.0999508214005756,0.174836264060831,-0.0748854426602559
0.359151882302034,-0.0852976933202806,0.000865002383830107,0.0861626957041107,0.0422163454682252,-0.0857301945121956,0.0435138490439704
0.36131544785807,-0.293015356555442,-0.0150873151666299,0.277928041388812,0.154051335861036,-0.285471698972127,0.131420363111091
0.363479013414106,-0.31290267647768,-0.021217729258146,0.291684947219534,0.167060202867913,-0.302293811848607,0.135233608980694
0.365642578970143,-0.138112967445351,-0.0139778479560386,0.124135119489312,0.0760454077006949,-0.131124043467332,0.0550786357666369
0.367806144526179,0.11724738753483,0.00176458905355443,-0.115482798481275,-0.0595059882941922,0.116365093008053,-0.0568591047138605
0.369969710082216,0.292420408989437,0.0159820623089536,-0.276438346680483,-0.154201235649195,0.28442937783496,-0.130228142185765
0.372133275638252,0.281073856350549,0.0198669090962107,-0.261206947254338,-0.15047038272338,0.271140401802443,-0.120670019079064
0.374296841194288,0.0956800480583704,0.011280219754253,-0.0843998283041175,-0.0534801339063117,0.090039938181244,-0.0365598042749323
0.376460406750325,-0.143674932614779,-0.00409626022865694,0.139578672386122,0.0738855964217179,-0.14162680250045,0.0677412060787325
0.378623972306361,-0.286918749858736,-0.0165071038376577,0.270411646021079,0.151712926848197,-0.278665197939908,0.126952271091711
0.380787537862397,-0.247972548079678,-0.0183056243884774,0.229666923691201,0.133139086234078,-0.238819735885439,0.105680649651362
0.382951103418434,-0.05630122196835,-0.00865795559859456,0.0476432663697555,0.0324795887834723,-0.0519722441690527,0.0194926553855805
0.38511466897447,0.164723095982758,0.00612042429421594,-0.158602671688542,-0.0854217601384868,0.16166288383565,-0.0762411236971629
0.387278234530506,0.277100768529859,0.016688791083632,-0.260411977446227,-0.146894779806745,0.268756372988043,-0.121861593181298
0.389441800086543,0.214263014441709,0.0165789809089088,-0.1976840335328,-0.115420997675309,0.205973523987255,-0.0905525263119458
0.391605365642579,0.0203067217872148,0.00614677449892834,-0.0141599472882865,-0.0132267481430716,0.0172333345377507,-0.00400658639467907
0.393768931198615,-0.180588225268886,-0.00783234783535523,0.172755877433531,0.0942102865521205,-0.176672051351208,0.0824617647990877
0.395932496754652,-0.263555383333854,-0.0165554396474239,0.24699994368643,0.140055411490639,-0.255277663510142,0.115222252019503
0.398096062310688,-0.180556760373592,-0.0147301547104579,0.165826605663134,0.0976434575420251,-0.173191683018363,0.0755482254763383
0.400259627866724,0.0120436500396861,-0.00377791448757572,-0.0158215645272618,-0.0041328677760552,0.013932607283474,-0.00979973950741877
0.402423193422761,0.19151259860539,0.00923156269752402,-0.182281035907866,-0.100372080651457,0.186896817256628,-0.0865247366051712
0.404586758978797,0.246867208428884,0.0161369202167111,-0.230730288212173,-0.131502064322798,0.238798748320529,-0.107296683997731
0.406750324534833,0.147415521228618,0.0128003828966095,-0.134615138332009,-0.0801079520626139,0.141015329780313,-0.0609073777176996
0.40891389009087,-0.0405543402710742,0.00157847274847102,0.0421328130195452,0.0194879337613016,-0.0413435766453097,0.0218556428840081
0.411077455646906,-0.197779167038201,-0.0103214288144264,0.187457738223775,0.104050297926314,-0.192618452630988,0.0885681547046741
0.413241021202942,-0.227615104869538,-0.0154643951042646,0.212150709765274,0.121539749986902,-0.219882907317406,0.0983431573305046
0.415404586758979,-0.115353767150569,-0.0108289973021431,0.104524769848426,0.063091382226356,-0.109939268499497,0.0468478862731414
0.417568152315015,0.0650897536451667,0.00042833558899557,-0.0646614180561711,-0.0327590446170811,0.0648755858506689,-0.0321165412335878
0.419731717871052,0.199708207679191,0.0111088385224015,-0.188599369156789,-0.105408523100796,0.19415378841799,-0.0887452653171938
0.421895283427088,0.206371357625116,0.0145701558937616,-0.191801201731355,-0.110470756759439,0.199086279678236,-0.0886155229187966
0.424058848983124,0.0848402086114709,0.00885345272740883,-0.0759867558840621,-0.0468468306694399,0.0804134822477665,-0.0335666515783266
0.426222414539161,-0.0855717863548839,-0.00222301945566613,0.0833487668992178,0.043897402905275,-0.0844602766270509,0.0405628737217758
0.428385980095197,-0.197655308608352,-0.0116040409723944,0.186051267635958,0.104629674790373,-0.191853288122155,0.0872236133317816
0.430549545651233,-0.183700795157622,-0.0134875159250554,0.170213279232567,0.0985941555413388,-0.176957037195094,0.0783628816537557
0.43271311120727,-0.0562979803496094,-0.00690931071499859,0.0493886696346108,0.031603645532304,-0.0528433249921101,0.0212396794598061
0.434876676763306,0.101978941176253,0.00378976032575126,-0.0981891808505014,-0.052884350751002,0.100084061013377,-0.0471997102623751
0.437040242319342,0.192010060813944,0.011820556337038,-0.180189504476906,-0.101915308575491,0.186099782645425,-0.0841844740699338
0.439203807875379,0.160159281261398,0.0122507131009605,-0.147908568160437,-0.0862049971811792,0.154033924710918,-0.0678289275297384
0.441367373431415,0.0301033728152626,0.0050301507899878,-0.0250732220252748,-0.0175667618026252,0.0275882974202687,-0.0100215356176435
0.443530938987451,-0.114346640780852,-0.00511646029864235,0.10923018048221,0.0597315505397472,-0.111788410631531,0.0520568600917837
0.445694504543488,-0.183194835723056,-0.0117751437533959,0.17141969196966,0.0974849897382261,-0.177307263846358,0.0798222741081323
0.447858070099524,-0.136291149645539,-0.0108947831919917,0.125396366453547,0.0735929664187652,-0.130843758049543,0.0572507916307776
0.45002163565556,-0.00658316075319818,-0.0032473928069629,0.00333576794623528,0.00491527678008054,-0.00495946434971673,4.41875696361917e-05
0.452185201211597,0.122768257181697,0.00619487217355602,-0.116573385008141,-0.0644815646776263,0.119670821094919,-0.0551892564172923
0.454348766767633,0.171663073983901,0.0114877843542194,-0.160175289629682,-0.0915754291690604,0.165919181806792,-0.0743437526377313
0.456512332323669,0.112625309293592,0.00945537088615376,-0.103169938407438,-0.0610403400898727,0.107897623850515,-0.0468572837606421
0.458675897879706,-0.0139892616367555,0.00159002579948396,0.0155792874362394,0.00619961791863576,-0.0147842745364975,0.0085846566178617
0.460839463435742,-0.127396320212609,-0.00702078546008675,0.120375534752523,0.0672085528363481,-0.123885927482566,0.0566773746462179
0.463003028991778,-0.157896595222859,-0.0109816411697583,0.146914954053101,0.0844391181963087,-0.15240577463798,0.0679666564416714
0.465166594547815,-0.0896699122450148,-0.00796845464204936,0.0817014576029654,0.0488191834435321,-0.0856856849239901,0.036866501480458
0.467330160103851,0.0313985978070984,-8.4249821851449e-05,-0.0314828476289498,-0.0156571739926235,0.0314407227180241,-0.0157835487254006
0.469493725659888,0.128443355702733,0.00759423637959589,-0.120849119323137,-0.0680187960411645,0.124646237512935,-0.0566274414717707
0.471657291215924,0.142401551354645,0.0102829608345812,-0.132118590520064,-0.0763422560946131,0.137260070937354,-0.0609178148427413
0.47382085677196,0.0679056350652113,0.00646997128871349,-0.0614356637764978,-0.0371878031769624,0.0646706494208546,-0.0274828462438922
0.475984422327997,-0.045492778740598,-0.00124695288220326,0.0442458258583948,0.0233698658114006,-0.0448693022994964,0.0214994364880958
0.478147987884033,-0.126181831719984,-0.00791970671530182,0.118262125004682,0.0670507692176428,-0.122221978362333,0.05517120914469
0.480311553440069,-0.125702778760701,-0.00942088750106352,0.116281891259638,0.0675618331308823,-0.120992335010169,0.0534305018792871
0.482475118996106,-0.0477777719552845,-0.00499533661133482,0.0427824353439497,0.0263865542833097,-0.0452801036496171,0.0188935493663074
0.484638684552142,0.056188004219776,0.00238429292927404,-0.053803711290502,-0.029286148574525,0.054995857755139,-0.025709709180614
0.486802250108178,0.120942754255175,0.00800627584140088,-0.112936478413774,-0.0644745150482881,0.116939616334475,-0.0524651012861868
0.488965815664215,0.108336448101176,0.00842716665048,-0.0999092814506956,-0.0583818073758278,0.104122864775936,-0.0457410574001078
0.491129381220251,0.0296874636745226,0.00357886824004384,-0.0261085954344787,-0.0166331659572832,0.0278980295545007,-0.0112648635972174
0.493292946776287,-0.0634731696451844,-0.00331266456132679,0.0601605050838576,0.0333929171032556,-0.061816837364521,0.0284239202612654
0.495456512332324,-0.113112545903752,-0.00786769224633816,0.105244853657414,0.0604901190750452,-0.109178699780583,0.048688580705538
0.49762007788836,-0.0908410557109497,-0.00733572505758853,0.0835053306533611,0.0490883903842691,-0.0871731931821554,0.0380848027978863
0.499783643444396,-0.0139824863302158,-0.00225312645238347,0.0117293598778323,0.00811780639129962,-0.012855923104024,0.00473811671272442
0.501947209000433,0.0674131644839887,0.00402161785882481,-0.0633915466251639,-0.0357173911714068,0.0654023555545763,-0.0296849643831696
0.504110774556469,0.103127955365088,0.00752233508862543,-0.0956056202764621,-0.0553251452268565,0.0993667878207748,-0.0440416425939183
0.506274340112505,0.0737469390779159,0.00618212243537421,-0.0675648166425416,-0.039964530756645,0.0706558778602288,-0.0306913471035837
0.508437905668542,0.000948093542613215,0.0010481965251004,0.00010010298248718,-0.000998145033856805,0.000423995280063018,0.000574149753793788
0.510601471224578,-0.0681505739400818,-0.00450577673566556,0.0636447972044162,0.0363281753378737,-0.065897685572249,0.0295695102343753
0.512765036780614,-0.0914688742171196,-0.00699304241777548,0.0844758317993441,0.0492309583174475,-0.0879723530082319,0.0387413946907843
0.514928602336651,-0.0575646233894464,-0.00500287969912871,0.0525617436903177,0.0312837515442875,-0.055063183539882,0.0237794319955945
0.517092167892687,0.00920155773328239,9.0573570242637e-06,-0.00919250037625812,-0.00460530754515333,0.00919702905477026,-0.00459172150961693
0.519255733448724,0.0659053902281342,0.00476516797036606,-0.0611402222577682,-0.0353352790992501,0.0635228062429512,-0.028187527143701
0.52141929900476,0.0786490725444798,0.00630679022116686,-0.0723422823233129,-0.0424779313828233,0.0754956774338963,-0.033017746051073
0.523582864560796,0.0427724103548875,0.00383469781057303,-0.0389377125443145,-0.0233035540827303,0.040855061449601,-0.0175515073668707
0.525746430116833,-0.0163308638117055,-0.000895732183742439,0.0154351316279631,0.00861329799772398,-0.0158829977198343,0.00726969972211032
0.527909995672869,-0.0609724384252696,-0.0048054296095071,0.0561670088157625,0.0328889340173883,-0.058569723620516,0.0256807896031277
0.530073561228905,-0.0652049989068936,-0.00549421493981179,0.0597107839670818,0.0353496069233527,-0.0624578914369877,0.027108284513635
0.532237126784942,-0.0298036996775041,-0.00271358931460542,0.0270901103628987,0.0162586444960548,-0.0284469050202014,0.0121882605241466
0.534400692340978,0.0203886076707452,0.00159358338749699,-0.0187950242832482,-0.0109910955291211,0.0195918159769967,-0.0086007204478756
0.536564257897014,0.0537163379482535,0.0046378720651222,-0.0490784658831313,-0.0291771050066879,0.0513974019156924,-0.0222202969090046
0.538727823453051,0.0516829156761321,0.00458898103400857,-0.0470939346421235,-0.0281359483550703,0.0493884251591278,-0.0212524768040575
0.540891389009087,0.0190345844002171,0.00167395155698451,-0.0173606328432326,-0.0103542679786008,0.0181976086217249,-0.00784334064312405
0.543054954565123,-0.0214117209820365,-0.00208964227499904,0.0193220787070375,0.0117506816285178,-0.020366899844537,0.00861621821601921
0.54521852012116,-0.044563947458974,-0.00427937178184392,0.04028457567713,0.0244216596204089,-0.042424261568052,0.0180026019476431
0.547382085677196,-0.0386247516162243,-0.0036270040820771,0.0349977475341472,0.0211258778491507,-0.0368112495751857,0.015685371726035
0.549545651233232,-0.0107722821978666,-0.000747615850181111,0.0100246663476855,0.00575994902402386,-0.0103984742727761,0.00463852524875219
0.551709216789269,0.0195266093088904,0.00237671846248646,-0.017149890846404,-0.0109516638856884,0.0183382500776472,-0.00738658619195875
0.553872782345305,0.0339943714964424,0.00375208507849881,-0.0302422864179435,-0.0188732282874706,0.032118328957193,-0.0132451006697224
0.556036347901341,0.0265531444661851,0.00264554829858313,-0.023907596167602,-0.0145993463823841,0.0252303703168935,-0.0106310239345094
0.558199913457378,0.00524495538774843,-3.7089689282138e-05,-0.00528204507703056,-0.00260393284923314,0.0052635002323895,-0.00265956738315635
0.560363479013414,-0.0149477779154327,-0.0024537559395901,0.0124940219758426,0.0087007669275114,-0.0137208999456376,0.00502013301812625
0.56252704456945,-0.0225267346147258,-0.00308297824248384,0.0194437563722419,0.0128048564286048,-0.0209852454934838,0.00818038906487904
0.564690610125487,-0.0159562131677669,-0.00168222484702128,0.0142739883207456,0.00881921900739407,-0.0151151007442562,0.00629588173686215
0.566854175681523,-0.00259343427778926,0.00065622440280699,0.00324965868059625,0.000968604937491136,-0.00292154647919276,0.00195294154170162
0.56901774123756,0.00797361305980582,0.002326016853022,-0.00564759620678382,-0.00514981495641391,0.00681060463329482,-0.00166078967688091
0.571181306793596,0.010706046996069,0.00230317872915353,-0.00840286826691544,-0.00650461286261125,0.00955445763149221,-0.00304984476888095
0.573344872349632,0.00727263955429128,0.000773923543532453,-0.00649871601075882,-0.00402328154891186,0.00688567778252505,-0.00286239623361319
0.575508437905669,0.00286529406168143,-0.0010910276952507,-0.00395632175693213,-0.000887133183215366,0.00341080790930678,-0.00252367472609141
0.577672003461705,0.00102070051393949,-0.00200507394046182,-0.00302577445440131,0.000492186713261168,0.0020232374841704,-0.00251542419743157
0.579835569017741,0.000912411142902886,-0.00144716095425605,-0.00235957209715893,0.00026737490567658,0.00163599162003091,-0.00190336652570749
0.581999134573778,-0.000877651440270868,4.42847743002094e-05,0.000921936214571078,0.00041668333298533,-0.000899793827420973,0.000483110494435644
0.584162700129814,-0.00601164849674975,0.00132858361649555,0.0073402321132453,0.0023415324401271,-0.00667594030499752,0.00433440786487043
0.58632626568585,-0.0115930171434184,0.00150860039797517,0.0131016175413936,0.00504220837272163,-0.012347317342406,0.00730510896968438
0.588489831241887,-0.0117796751474518,0.000551788252092202,0.012331463399544,0.00561394344767978,-0.0120555692734979,0.00644162582581808
0.590653396797923,-0.00292951686833318,-0.00074023500035497,0.00218928186797821,0.00183487593434407,-0.00255939936815569,0.000724523433811618
0.592816962353959,0.0118869186314557,-0.00136232520469806,-0.0132492438361538,-0.00526229671337885,0.0125680812338048,-0.00730578452042593
0.594980527909996,0.0232465899816692,-0.000859954440244498,-0.0241065444219137,-0.0111933177707123,0.0236765672017914,-0.0124832494310791
0.597144093466032,0.0213700794378908,0.000344760265692714,-0.0210253191721981,-0.0108574198517917,0.0211976993050444,-0.0103402794532527
0.599307659022068,0.00393615331080956,0.00128570232783246,-0.0026504509829771,-0.00261092781932101,0.00329330214689333,-0.000682374327572321
0.601471224578105,-0.0202517170796298,0.00119235207099231,0.0214440691506221,0.00952968250431876,-0.020847893115126,0.0113182106108072
0.603634790134141,-0.0354446053725737,8.75645081426894e-05,0.0355321698807164,0.0176785204322155,-0.0354883876266451,0.0178098671944295
0.605798355690177,-0.0291980313521068,-0.00120414329133995,0.0279938880607669,0.0152010873217234,-0.0285959597064369,0.0133948723847135
0.607961921246214,-0.00202411975894526,-0.00165734409792323,0.000366775661022032,0.00184073192843425,-0.00119544770998365,-0.000645284218450599
0.61012548680225,0.0307788633292934,-0.000825541655997553,-0.031604404985291,-0.0149766608366479,0.0311916341572922,-0.0162149733206443
0.612289052358286,0.0476264442388365,0.000775870405993577,-0.0468505738328429,-0.024201157322415,0.0472385090358397,-0.0230373517134247
0.614452617914323,0.0348339587706438,0.00198905224545559,-0.0328449065251882,-0.0184115055080497,0.033839432647916,-0.0154279271398663
0.616616183470359,-0.002824951657091,0.00183751097124069,0.00466246262833169,0.000493720342925158,-0.00374370714271135,0.00324998679978619
0.618779749026396,-0.0430624189996117,0.000275442465835306,0.043337861465447,0.0213934882668882,-0.0432001402325293,0.0218066519656411
0.620943314582432,-0.0592251414658961,-0.00169434288543377,0.0575307985804624,0.030459742175665,-0.0583779700231793,0.0279182278475143
0.623106880138468,-0.0379188325286267,-0.00266440567301763,0.035254426855609,0.0202916191008221,-0.0365866296921178,0.0162950105912957
0.625270445694505,0.0105275911497325,-0.00181489370447125,-0.0123424848542038,-0.00435634872263065,0.0114350380019682,-0.00707868927933753
0.627434011250541,0.0566295093626322,0.000438053959415027,-0.0561914554032172,-0.0285337816610236,0.0564104823829247,-0.0278767007219011
0.629597576806577,0.0696854548354031,0.00262963217551676,-0.0670558226598864,-0.0361575435054599,0.0683706387476447,-0.0322130952421848
0.631761142362614,0.0381767075147729,0.00319850022501559,-0.0349782072897573,-0.0206876038698942,0.0365774574022651,-0.0158898535323708
0.63392470791865,-0.0208997096163578,0.00158497751370585,0.0224846871300636,0.00965736605132596,-0.0216921983732107,0.0120348323218847
0.636088273474686,-0.070954584010512,-0.00128925695028253,0.0696653270602295,0.0361219204803973,-0.0703099555353708,0.0341880350549735
0.638251839030723,-0.0784819197879478,-0.00354249686133188,0.0749394229266159,0.0410122083246399,-0.0767106713572819,0.035698463032642
0.640415404586759,-0.035424792397241,-0.0035640761066417,0.0318607162905993,0.0194944342519413,-0.0336427543439201,0.0141483200919788
0.642578970142795,0.033661135892126,-0.00115028290208554,-0.0348114187942116,-0.0162554264950202,0.0342362773431688,-0.0179808508481486
0.644742535698832,0.0854756699086148,0.0022474226214787,-0.0832282472871361,-0.0438615462650468,0.0843519585978755,-0.0404904123328287
0.646906101254868,0.0851362562992494,0.00439392531361135,-0.080742330985638,-0.0447650908064304,0.0829392936424437,-0.0381742028360133
0.649069666810904,0.0295806440100404,0.00373925736608878,-0.0258413866439516,-0.0166599506880646,0.027711015326996,-0.0110510646389314
0.651233232366941,-0.0484433807717946,0.000520379619481907,0.0489637603912765,0.0239615005761564,-0.0487035705815356,0.0247420700053792
0.653396797922977,-0.0996120881437071,-0.00327767998337119,0.0963344081603359,0.0514448840635392,-0.0979732481520215,0.0465283640884824
0.655560363479013,-0.0892335094772612,-0.00514640121215881,0.0840871082651024,0.04718995534471,-0.0866603088711818,0.0394703535264718
0.65772392903505,-0.020666184758695,-0.00370833149290922,0.0169578532657858,0.0121872581258021,-0.0188120190122404,0.00662476088643827
0.659887494591086,0.0648004138256518,0.000288331225558139,-0.0645120826000936,-0.032544372525605,0.0646562482128727,-0.0321118756872677
0.662051060147122,0.112783044531683,0.00434210833457419,-0.108440936197109,-0.0585625764331285,0.110611990364396,-0.0520494139312672
0.664214625703159,0.090436345145037,0.00576514027303152,-0.0846712048720055,-0.0481007427090343,0.0875537750085213,-0.039453032299487
0.666378191259195,0.00880835559969469,0.0034623383054823,-0.00534601729421239,-0.00613534695258849,0.00707718644695354,-0.000941839494365045
0.668541756815232,-0.082222125521934,-0.00125306331129824,0.0809690622106357,0.0417375944166161,-0.0815955938662849,0.0398579994496688
0.670705322371268,-0.12442646603562,-0.00540093103056254,0.119025535005057,0.064913698533091,-0.121726000520338,0.0568123019872472
0.672868887927304,-0.0884969837290854,-0.0062192548337342,0.0822777288953512,0.0473581192814098,-0.0853873563122183,0.0380292370308085
0.675032453483341,0.0057636614977197,-0.00299944479530858,-0.00876310629302828,-0.00138210835120556,0.00726338389537399,-0.00588127554416843
0.677196019039377,0.100150046351589,0.00234530747227068,-0.0978047388793182,-0.0512476769119298,0.0989773926154536,-0.0477297157035238
0.679359584595413,0.134017440837583,0.00641378607646571,-0.127603654761118,-0.0702156134570245,0.13081054779935,-0.0605949343423259
0.68152315015145,0.0832663374596166,0.00648280514789827,-0.0767835323117184,-0.0448745713037575,0.0800249348856675,-0.0351503635819101
0.683686715707486,-0.0227245940453462,0.00232509018325182,0.0250496842285981,0.0101997519310472,-0.0238871391369722,0.0136873872059249
0.685850281263522,-0.117994810281299,-0.00353169027332302,0.114463120007976,0.0607632502773112,-0.116228965144638,0.0554657148673266
0.688013846819559,-0.141085630102404,-0.00734103085237012,0.133744599250033,0.0742133304773869,-0.137415114676219,0.0632017841988317
0.690177412375595,-0.0747000137525888,-0.00653570000074339,0.0681643137518454,0.0406178568766661,-0.0714321637522171,0.030814306875551
0.692340977931631,0.041662423781459,-0.00145189362306153,-0.0431143174045205,-0.0201052650791987,0.0423883705929897,-0.022283105513791
0.694504543487668,0.135154784942428,0.00477500154405325,-0.130379783398375,-0.0699648932432409,0.132767284170402,-0.062802390927161
0.696668109043704,0.145231053214856,0.00814503674887193,-0.137086016465984,-0.0766880449818638,0.14115853484042,-0.0644704898585559
0.69883167459974,0.0628609576951982,0.00636441441439285,-0.0564965432808053,-0.0346126860547955,0.0596787504880018,-0.0250660644332062
0.700995240155777,-0.0620906329209261,0.000399325438760348,0.0624899583596864,0.0308456537410829,-0.0622902956403063,0.0314446418992234
0.703158805711813,-0.151035247677382,-0.00603535743282906,0.144999890244553,0.0785353025551054,-0.148017568960967,0.0694822664058618
0.705322371267849,-0.146137703932239,-0.00879142960736011,0.137346274324879,0.0774645667697997,-0.141741989128559,0.0642774223587595
0.707485936823886,-0.0479186244544214,-0.00596249855377375,0.0419561259006477,0.0269405615040976,-0.0449373751775345,0.017996813673437
0.709649502379922,0.083462956407484,0.000806848819396684,-0.0826561075880873,-0.0421349026134403,0.0830595319977856,-0.0409246293843453
0.711813067935958,0.16506746620654,0.00727146059247476,-0.157796005614065,-0.0861694633995073,0.161431735910302,-0.0752622725107951
0.713976633491995,0.143584530050203,0.00925023359799877,-0.134334296452205,-0.076417381824101,0.138959413251204,-0.0625420314271029
0.716140199048031,0.0301446936452644,0.00533085921562612,-0.0248138344296383,-0.0177377764304453,0.0274792640374513,-0.00974148760700608
0.718303764604068,-0.105190156854558,-0.00213533418483716,0.103054822669721,0.0536627455196976,-0.104122489762139,0.0504597442424419
0.720467330160104,-0.176727045653231,-0.00844191558066617,0.168285130072564,0.0925844806169484,-0.172506087862898,0.0799216072459491
0.72263089571614,-0.137453400746197,-0.00949687944237901,0.127956521303818,0.0734751400942881,-0.132704961025008,0.0592298209307196
0.724794461272177,-0.00990545770228848,-0.00447780320214951,0.00542765450013897,0.00719163045221899,-0.00766655610121372,0.000474925648994731
0.726958026828213,0.12665826899588,0.00355025726470131,-0.123108011731178,-0.0651042631302905,0.124883140363529,-0.0597788772332386
0.729121592384249,0.18555092949468,0.00950655555922158,-0.176044373935458,-0.0975287425269507,0.180797651715069,-0.0832689091881183
0.731285157940286,0.127733790125365,0.00951304255642021,-0.118220747568945,-0.0686234163408925,0.122977268847155,-0.0543538525062622
0.733448723496322,-0.012348869276234,0.00341884014722732,0.0157677094234614,0.00446501456450336,-0.0140582893498477,0.00959327478534435
0.735612289052358,-0.147247710814067,-0.00501227127609105,0.142235439537976,0.0761299910450788,-0.144741575176021,0.0686115841309423
0.737775854608395,-0.191152489393324,-0.0104277359601256,0.180724753433198,0.100790112676725,-0.185938621413261,0.0851485087365364
0.739939420164431,-0.114524018660258,-0.00928728256260843,0.10523673609765,0.0619056506114333,-0.109880377378954,0.0479747267675207
0.742102985720467,0.0360975709465755,-0.00217625067066159,-0.0382738216172371,-0.016960660137957,0.0371856962819063,-0.0202250361439494
0.744266551276504,0.166352630538614,0.00647977869086917,-0.159872851847745,-0.0864162046147418,0.16311274119318,-0.0766965365784381
0.74643011683254,0.193234205745937,0.0111715519461965,-0.182062653799741,-0.102202878846067,0.187648429772839,-0.0854455509267721
0.748593682388576,0.0980290119731361,0.00881546247043439,-0.0892135495027017,-0.0534222372217853,0.0936212807379189,-0.0401990435161337
0.750757247944613,-0.0607651335768672,0.000778433784303679,0.0615435673611709,0.0299933498962818,-0.061154350469019,0.0311610005727373
0.752920813500649,-0.183399853056905,-0.00791023106688046,0.175489621990024,0.0956550420618925,-0.179444737523464,0.0837896954615718
0.755084379056685,-0.191597524465393,-0.0117089391670121,0.179888585298381,0.101653231816202,-0.185743054881887,0.0840898230656843
0.757247944612722,-0.0785546544923758,-0.00810093339043274,0.0704537211019431,0.0433277939414043,-0.0745041877971595,0.0311763938557552
0.759411510168758,0.0857387182301314,0.000740945021345742,-0.0849977732087857,-0.0432398316257386,0.0853682457194585,-0.04212841409372
0.761575075724794,0.1978668057894,0.0092614631024746,-0.188605342686925,-0.103564134445937,0.193236074238163,-0.0896719397922254
0.763738641280831,0.186149572738056,0.0120166213798899,-0.174132951358167,-0.0990830970589732,0.180141262048111,-0.0810581649891383
0.765902206836867,0.056498929744465,0.00715447865166841,-0.0493444510927966,-0.0318267041980667,0.0529216904186308,-0.0210949862205641
0.768065772392904,-0.11038682552198,-0.00234397687894621,0.108042848643034,0.056365401200463,-0.109214837082507,0.0528494358820437
0.77022933794894,-0.209297841793028,-0.010493016923042,0.198804824869986,0.109895429358035,-0.204051333331507,0.0941559039734721
0.772392903504976,-0.176906523639311,-0.0120778738075991,0.164828649831712,0.0944921987234548,-0.170867586735511,0.0763753880120562
0.774556469061013,-0.0323401454842306,-0.0059940193461787,0.0263461261380519,0.0191670824152047,-0.0293431358111413,0.0101760533959366
0.776720034617049,0.134078541880763,0.00398967002764617,-0.130088871853117,-0.0690341059542045,0.13208370686694,-0.0630496009127352
0.778883600173085,0.217318435099342,0.0115674131075346,-0.205751021991808,-0.114442924103438,0.211534728545575,-0.0970918044421365
0.781047165729122,0.163993512641498,0.0118830774355488,-0.152110435205949,-0.0879382950385234,0.158051973923724,-0.0701136788852002
0.783210731285158,0.00662263695239704,0.00464409133926677,-0.00197854561313027,-0.00563336414583191,0.00430059128276366,0.00133277286306825
0.785374296841194,-0.156202741145175,-0.00563520940552719,0.150567531739648,0.0809189752753512,-0.153385136442412,0.0724661611670604
0.787537862397231,-0.221646797748482,-0.0124513269501671,0.209195470798315,0.117049062349325,-0.215421134273398,0.0983720719240738
0.789701427953267,-0.14764112419752,-0.0114300465761979,0.136211077621322,0.079535585386859,-0.141926100909421,0.0623905155225622
0.791864993509303,0.0200595778035025,-0.00313511138521356,-0.0231946891887161,-0.00846223320914447,0.0216271334961093,-0.0131649002869648
0.79402855906534,0.176186621621309,0.00723727396068025,-0.168949347660629,-0.0917119477909948,0.172567984640969,-0.0808560368499744
0.796192124621376,0.22210255678579,0.0131166318370143,-0.208985924948775,-0.117609594311402,0.215544240867283,-0.0979346465558806
0.798355690177412,0.12817857974009,0.0107241196892845,-0.117454460050805,-0.0694513497146873,0.122816519895448,-0.0533651701807605
0.800519255733449,-0.0470806529155747,0.00150245691753731,0.048583109833112,0.0227890979990187,-0.0478318813743434,0.0250427833753247
0.802682821289485,-0.193512985801905,-0.00875336860758256,0.184759617194322,0.101133177204744,-0.189136301498113,0.0880031242933698
0.804846386845521,-0.218612229363928,-0.0135412762622255,0.205070953101702,0.116076752813077,-0.211841591232815,0.0957648384197383
0.807009952401558,-0.106023865781522,-0.00977801137237995,0.0962458544091419,0.0579009385769509,-0.101134860095332,0.043233921518381
0.809173517957594,0.0738016974866776,0.00021460988612431,-0.0735870876005533,-0.037008153686401,0.0736943925436155,-0.0366862388572145
0.81133708351363,0.207735716534699,0.0101431275440366,-0.197592588990662,-0.108939422039368,0.202664152762681,-0.0937247307233129
0.813500649069667,0.211211341451894,0.0137099667364464,-0.197501374715447,-0.11246065409417,0.20435635808367,-0.0918957039895004
0.815664214625703,0.0816711387950938,0.00861143135261104,-0.0730597074424827,-0.0451412850738524,0.0773654231187883,-0.0322241380449358
0.81782778018174,-0.0995898788166404,-0.00197413822438955,0.0976157405922509,0.050782008520515,-0.0986028097044457,0.0478208011839307
0.819991345737776,-0.218492967595912,-0.011369546889305,0.207123420706607,0.114931257242609,-0.21280819415126,0.0978769369086512
0.822154911293812,-0.200043146740175,-0.0136146354400204,0.186428511300155,0.106828891090098,-0.193235829020165,0.0864069379300671
0.824318476849849,-0.0556758290737791,-0.00725048394877256,0.0484253451250065,0.0314631565112758,-0.0520505870993928,0.020587430588117
0.826482042405885,0.123837234311328,0.00373276573950688,-0.120104468571821,-0.0637850000254176,0.121970851441575,-0.0581858514161573
0.828645607961921,0.225517665908139,0.0124001072422443,-0.213117558665894,-0.118958886575192,0.219317612287017,-0.100358725711825
0.830809173517958,0.185354013355426,0.0132546787095859,-0.17209933464584,-0.0993043460325059,0.178726674000633,-0.0794223279681271
0.832972739073994,0.0286379361553108,0.00572686857993346,-0.0229110675753773,-0.0171824023676221,0.0257745018653441,-0.00859209949772194
0.83513630463003,-0.145978596202497,-0.00544703494313993,0.140531561259357,0.0757128155728184,-0.143255078730927,0.0675422631581085
0.837299870186067,-0.228645014120356,-0.0132077506794209,0.215437263440935,0.120926382399888,-0.222041138780645,0.101114756380757
0.839463435742103,-0.16748565325876,-0.0126369600659484,0.154848693192811,0.090061306662354,-0.161167173225785,0.0711058665634315
0.841627001298139,-0.00118406160544366,-0.00407690824145123,-0.00289284663600757,0.00263048492344744,0.000854392515281957,-0.0034848774387294
0.843790566854176,0.165508068451542,0.00707470646792764,-0.158433361983615,-0.086291387459735,0.161970715217578,-0.0756793277578435
0.845954132410212,0.227816782678125,0.0137716817667157,-0.214045100911409,-0.12079423222242,0.220930941794767,-0.100136709572347
0.848117697966248,0.146864469204875,0.0117755792330314,-0.135088889971844,-0.0793200242189533,0.14097667958836,-0.0616566553694062
0.850281263522285,-0.0260512404907988,0.00234043825171146,0.0283916787425102,0.0118554011195437,-0.0272214596166545,0.0153660584971108
0.852444829078321,-0.181993548305728,-0.00857602708456269,0.173417521221165,0.0952847876951453,-0.177705534763447,0.0824207470683013
0.854608394634357,-0.223082286376397,-0.0140779681582195,0.209004318218178,0.118580127267308,-0.216043302297287,0.0974631750299791
0.856771960190394,-0.123988383719092,-0.0106914162027464,0.113296967516345,0.067339899960919,-0.118642675617718,0.0513027756567993
0.85893552574643,0.0524441998627529,-0.000559591828543654,-0.0530037916912966,-0.0259423040171046,0.0527239957770248,-0.0267816917599201
0.861099091302467,0.195088853842463,0.00991491227579775,-0.185173941566665,-0.10250188305913,0.190131397704564,-0.0876295146454336
0.863262656858503,0.214596048119346,0.014119923089943,-0.200476125029403,-0.114357985604644,0.207536086574374,-0.0931781009697298
0.865426222414539,0.0994115909498297,0.00941146661897075,-0.0900001243308589,-0.0544115287844002,0.0947058576403443,-0.0402943288559441
0.867589787970576,-0.0774000622111517,-0.00122247794048195,0.0761775842706698,0.0393112700758168,-0.0767888232409107,0.0374775531650939
0.869753353526612,-0.204543100930313,-0.0110600063074442,0.193483094622869,0.107801553618879,-0.199013097776591,0.0912115441577123
0.871916919082648,-0.202612258650103,-0.0138982593093714,0.188713999340731,0.108255258979737,-0.195663128995417,0.08740787001568
0.874080484638685,-0.0737277332188498,-0.0079679913530756,0.0657597418657742,0.0408478622859627,-0.069743737542312,0.0288958752563493
0.876244050194721,0.100370249729123,0.00296289849498597,-0.0974073512341369,-0.0516665741120544,0.0988888004816299,-0.0472222263695755
0.878407615750757,0.210207065430859,0.0119855870588302,-0.198221478372029,-0.111096326244845,0.204214271901444,-0.0931179456565994
0.880571181306794,0.187476241930897,0.0134210114697769,-0.17405523046112,-0.100448626700337,0.180765736196009,-0.0803171094956718
0.88273474686283,0.0475520479188981,0.00639750891630632,-0.0411545390025918,-0.0269747784176022,0.044353293460745,-0.0173785150431427
0.884898312418866,-0.120867924027309,-0.00462035901754639,0.116247565009763,0.0627441415224279,-0.118557744518536,0.0558136029961083
0.887061877974903,-0.212036365966994,-0.0126722882116207,0.199364077755373,0.112354327089307,-0.205700221861184,0.0933458947718763
0.889225443530939,-0.169613228464352,-0.0127032315111965,0.156909996953155,0.0911582299877742,-0.163261612708754,0.0721033827209794
0.891389009086975,-0.0215030559893607,-0.00473966412432218,0.0167633918650385,0.0131213600568414,-0.0191332239271996,0.00601186387035817
0.893552574643012,0.138481483286069,0.00615633196499242,-0.132325151321076,-0.0723189076255305,0.135403317303572,-0.0630844096780419
0.895716140199048,0.210091405839284,0.0131076175566142,-0.19698378828267,-0.111599511697949,0.203537597060977,-0.0919380853630278
0.897879705755084,0.149514820309308,0.0117664688033702,-0.137748351505937,-0.0806406445563389,0.143631585907622,-0.0629909413512835
0.900043271311121,-0.00381562995144174,0.0030360100559495,0.00685164000739124,0.000389809947746121,-0.00533363497941649,0.00494382503167037
0.902206836867157,-0.152885597353343,-0.00753619675703303,0.14534940059631,0.0802108970551878,-0.149117498974826,0.0689066019196382
0.904370402423193,-0.204534116278224,-0.0132862569500342,0.19124785932819,0.108910186614129,-0.197890987803207,0.088980801189078
0.90653396797923,-0.127723599436041,-0.0106380536073581,0.117085545828683,0.0691808265216997,-0.122404572632362,0.0532237461106625
0.908697533535266,0.0278328115006491,-0.00132874273110593,-0.029161554231755,-0.0132520343847716,0.0284971828662021,-0.0152451484814305
0.910861099091303,0.163849467941941,0.00873023101330462,-0.155119236928636,-0.0862898494776226,0.159484352435288,-0.0731945029576657
0.913024664647339,0.195621643838672,0.0132101366049057,-0.182411507233767,-0.104415890221789,0.18901657553622,-0.0846006853144305
0.915188230203375,0.104816383455921,0.00935020850926601,-0.0954661749466548,-0.0570832959825934,0.100141279201288,-0.0430579832186944
0.917351795759412,-0.0500259877241162,-0.000340570986459606,0.0496854167376566,0.0251832793552879,-0.0498557022308864,0.0246724228755985
0.919515361315448,-0.171242093162494,-0.00971443935021064,0.161527653812284,0.0904782662563524,-0.166384873487389,0.0759066072310364
0.921678926871484,-0.183697219201636,-0.0128882837020242,0.170808935499612,0.0982927514518301,-0.177253077350624,0.0789603258987939
0.923842492427521,-0.0813866682572086,-0.0079390177045802,0.0734476505526284,0.0446628429808944,-0.0774171594049185,0.0327543164240241
0.926006057983557,0.0699359253571201,0.00193223199295329,-0.0680036933641668,-0.0359340786750367,0.0689698093606434,-0.0330357306856067
0.928169623539593,0.175034413254152,0.0104711952750512,-0.164563217979101,-0.0927528042646016,0.169798815616626,-0.0770460113520247
0.93033318909563,0.169178530044001,0.0123364525111911,-0.156842077532809,-0.0907574912775958,0.163010303788405,-0.0722528125108092
0.932496754651666,0.0580268148610636,0.00644328820973341,-0.0515835266513301,-0.0322350515353985,0.0548051707561969,-0.0225701192207984
0.934660320207702,-0.0871790866218804,-0.00340957531335953,0.0837695113085209,0.04529433096762,-0.0854742989652007,0.0401799679975807
0.936823885763739,-0.175298314327892,-0.0109896779553177,0.164308636372575,0.093143996141605,-0.169803475350233,0.0766594792086284
0.938987451319775,-0.152543994413666,-0.011576550096265,0.140967444317401,0.0820602722549653,-0.146755719365533,0.0646954471105679
0.941151016875811,-0.0353105376398971,-0.00490334012898165,0.0304071975109155,0.0201069388844394,-0.0328588675754063,0.0127519286909669
0.943314582431848,0.101457559018432,0.00474002824291721,-0.096717530775515,-0.0530987936306747,0.0990875448969736,-0.0459887512662989
0.945478147987884,0.172202565994188,0.0112660923846652,-0.160936473609523,-0.0917343291894266,0.166569519801855,-0.0748351906124289
0.94764171354392,0.134317391074384,0.0106358780210741,-0.12368151305331,-0.0724766345477293,0.128999452063847,-0.0565228175161181
0.949805279099957,0.0137762332499822,0.00335976492865444,-0.0104164683213278,-0.00856799908931832,0.012096350785655,-0.00352835169633666
0.951968844655993,-0.112566215168586,-0.00589602813357886,0.106670187035007,0.0592311216510825,-0.109618201101797,0.0503870794507142
0.954132410212029,-0.166005863783609,-0.011303668490377,0.154702195293233,0.0886547661369932,-0.160354029538421,0.0716992634014278
0.956295975768066,-0.115051347913637,-0.00954621608217157,0.105505131831465,0.062298781997904,-0.110278239872551,0.0479794578746467
0.958459541324102,0.00608834488877649,-0.00185219122705038,-0.00794053611582687,-0.00211807683086306,0.00701444050230168,-0.00489636367143863
0.960623106880139,0.12039692171478,0.00685577253813164,-0.113541149176648,-0.0636263471264557,0.116969035445714,-0.0533426883192582
0.962786672436175,0.15704723535017,0.0111124418015874,-0.145934793548582,-0.0840798385758786,0.151491014449376,-0.0674111758734975
0.964950237992211,0.0953102176069273,0.00834277880046827,-0.086967438806459,-0.0518264982036978,0.0911388282066931,-0.0393123300029954
0.967113803548247,-0.023859611584921,0.00041809689761896,0.02427770848254,0.011720757343651,-0.0240686600337305,0.0123479026900795
0.969277369104284,-0.124939711394195,-0.00760378007177221,0.117335931322423,0.0662717457329838,-0.121137821358309,0.0548660756253254
0.97144093466032,-0.145734147921488,-0.0107088251966107,0.135025322724877,0.0782214865590494,-0.140379735323183,0.0621582487641333
0.973604500216357,-0.0756528807216123,-0.0070630790700225,0.0685898016515898,0.0413579798958174,-0.072121341186601,0.0307633612907836
0.975768065772393,0.0391894826879311,0.000908295653352876,-0.0382811870345782,-0.020048889170642,0.0387353348612547,-0.0186864456906127
0.977931631328429,0.126280928646865,0.00813124661325659,-0.118149682033608,-0.0672060876300608,0.122215305340237,-0.0550092177101759
0.980095196884466,0.132528721029209,0.0101149877544165,-0.122413733274792,-0.0713218543918127,0.127471227152001,-0.056149372760188
0.982258762440502,0.0566160102880661,0.00574573588718202,-0.0508702744008841,-0.0311808730876241,0.0537431423444751,-0.022562269256851
0.984422327996538,-0.0518141986388264,-0.00209700725614082,0.0497171913826856,0.0269556029474836,-0.050765695010756,0.0238100920632724
0.986585893552575,-0.124598453427862,-0.00843618813725527,0.116162265290607,0.0665173207825586,-0.120380359359234,0.0538630385766757
0.988749459108611,-0.117932501342504,-0.00935806264844694,0.108574438694057,0.0636452819954756,-0.113253470018281,0.0496081880228052
0.990913024664647,-0.0386983090720772,-0.004429264403062,0.0342690446690152,0.0215637867375696,-0.0364836768705462,0.0149198901329766
0.993076590220684,0.0615604049383293,0.00312314313054046,-0.0584372618077888,-0.0323417740344349,0.059998833373059,-0.0276570593386242
0.99524015577672,0.120154197352369,0.0085233683287639,-0.111630829023606,-0.0643387828405667,0.115892513187988,-0.0515537303474208
0.997403721332756,0.102470294031,0.0084692111615368,-0.0940010828694628,-0.0554697525962682,0.0982356884502312,-0.042765935853963
0.999567286888793,0.0223461923671928,0.00315088663240955,-0.0191953057347832,-0.0127485394998012,0.020770749050988,-0.00802220955118684
1.00173085244483,-0.0683483448979403,-0.00396756276062169,0.0643807821373186,0.036157953829281,-0.0663645635176294,0.0302066096883484
1.00389441800087,-0.113284148192895,-0.00840401595930027,0.104880132233595,0.0608440820760977,-0.109082140213245,0.0482380581371473
1.0060579835569,-0.0866735665985951,-0.00748257411683009,0.079190992481765,0.0470780703577126,-0.08293227954018,0.0358542091824674
1.00822154911294,-0.00794133657518026,-0.00194540002682359,0.00599593654835668,0.00494336830100193,-0.00696863656176847,0.00202526826076655
1.01038511466897,0.072192112250825,0.00461735954734645,-0.0675747527034786,-0.0384047358990857,0.0698834324771518,-0.0314786965780661
1.01254868022501,0.104386310644849,0.00809534358755355,-0.0962909670572951,-0.0562408271162011,0.100338638851072,-0.0440978117348708
1.01471224578105,0.0710639461734652,0.00643414519097606,-0.0646298009824891,-0.0387490456822206,0.0678468735779772,-0.0290978278957565
1.01687581133708,-0.00420955094640933,0.000844138832717964,0.0050536897791273,0.00168270605684568,-0.00463162036276831,0.00294891430592263
1.01903937689312,-0.0731970035017259,-0.00506613753825755,0.0681308659634684,0.0391315705199917,-0.0706639347325972,0.0315323642126054
1.02120294244916,-0.0939069511154474,-0.00761988527962788,0.0862870658358195,0.0507634181975377,-0.0900970084756335,0.0393335902780958
1.02336650800519,-0.0561373199520442,-0.00536060261698835,0.0507767173350558,0.0307489612845163,-0.05345701864355,0.0227080573590337
1.02553007356123,0.0138824600750611,0.000125940207209573,-0.0137565198678515,-0.00700420014113534,0.0138194899714563,-0.00681528983032098
1.02769363911727,0.0715540994057041,0.00531407909752464,-0.0662400203081795,-0.0384340892516144,0.0688970598569418,-0.0304629706053274
1.0298572046733,0.0823256004205281,0.00700467653876093,-0.0753209238817672,-0.0446651384796445,0.0788232621511477,-0.0341581236715031
1.03202077022934,0.0423490215196203,0.00429813664618573,-0.0380508848734346,-0.023323579082903,0.0401999531965275,-0.0168763741136244
1.03418433578537,-0.0209411057291368,-0.000943020565134644,0.0199980851640022,0.0109420631471357,-0.0204695954465695,0.00952753229943377
1.03634790134141,-0.0675322889465602,-0.00536780405336902,0.0621644848931911,0.0364500464999646,-0.0648483869198757,0.0283983404199111
1.03851146689745,-0.070139299503348,-0.00628030432707335,0.0638589951762746,0.0382098019152107,-0.0669991473398113,0.0287893454246006
1.04067503245348,-0.0301005442276869,-0.003281309810673,0.0268192344170139,0.01669092701918,-0.0284598893223504,0.0117689623031705
1.04283859800952,0.0253391439286731,0.00159101492718657,-0.0237481290014865,-0.0134650794279298,0.0245436364650798,-0.01107855703715
1.04500216356556,0.0614680251224389,0.00524002743160261,-0.0562279976908363,-0.0333540262770208,0.0588480114066376,-0.0254939851296169
1.04716572912159,0.0578465889122786,0.00547985881567467,-0.052366730096604,-0.0316632238639767,0.0551066595044413,-0.0234434356404646
1.04932929467763,0.0197281682487498,0.00234198553631392,-0.0173861827124359,-0.0110350768925319,0.0185571754805928,-0.00752209858806098
1.05149286023367,-0.0271195538154456,-0.00205996410726041,0.0250595897081852,0.014589758961353,-0.0260895717618154,0.0114998128004624
1.0536564257897,-0.0537531675216325,-0.00494902914840481,0.0488041383732277,0.0293510983350186,-0.0512786529474301,0.0219275546124114
1.05581999134574,-0.045931742581871,-0.0046378212089502,0.0412939213729208,0.0252847818954106,-0.0436128319773959,0.0183280500819853
1.05798355690177,-0.011493822277947,-0.00150835806363748,0.00998546421430954,0.00650109017079225,-0.0107396432461283,0.00423855307533603
1.06014712245781,0.0264112516011385,0.00234623569697118,-0.0240650159041673,-0.0143787436490548,0.0252381337526529,-0.0108593901035981
1.06231068801385,0.0448213202283342,0.00451795479979428,-0.04030336542854,-0.0246696375140643,0.0425623428284371,-0.0178927053143728
1.06447425356988,0.0348497307387111,0.00378892358290695,-0.0310608071558042,-0.019319327160809,0.0329552689472577,-0.0136359417864486
1.06663781912592,0.00557842633936723,0.000804113036708696,-0.00477431330265853,-0.00319126968803796,0.00517636982101288,-0.00198510013297492
1.06880138468196,-0.0234230871540158,-0.00245251871042742,0.0209705684435884,0.0129378029322216,-0.0221968277988021,0.00925902486658048
1.07096495023799,-0.035133113588668,-0.0039739717751639,0.0311591418135041,0.0195535426819159,-0.033146127701086,0.0135925850191701
1.07312851579403,-0.0250123662599429,-0.00296701712075146,0.0220453491391914,0.0139896916903472,-0.0235288576995671,0.00953916600921998
1.07529208135007,-0.0020778812479042,-0.000247743643806484,0.00183013760409772,0.00116281244585534,-0.00195400942600096,0.000791196980145617
1.0774556469061,0.0184354525893138,0.00238761695727715,-0.0160478356320367,-0.0104115347732955,0.0172416441106752,-0.00683010933737975
1.07961921246214,0.0251609037904684,0.00334730918691149,-0.0218135946035569,-0.01425410648869,0.0234872491970127,-0.00923314270832271
1.08178277801817,0.0167760447509261,0.00220398442254994,-0.0145720603283762,-0.00949001458673802,0.0156740525396511,-0.00618403795291312
1.08394634357421,0.00100178559164978,-0.000147958009392363,-0.00114974360104214,-0.000426913791128707,0.00107576459634596,-0.000648850805217251
1.08610990913025,-0.0117898024678511,-0.0021660501862783,0.00962375228157279,0.0069779263270647,-0.0107067773747119,0.00372885104764724
1.08827347468628,-0.0153733745326439,-0.00267021342463755,0.0127031611080064,0.00902179397864072,-0.0140382678203251,0.0050164738416844
1.09043704024232,-0.0104314325781887,-0.00152872974689096,0.00890270283129778,0.00598008116253985,-0.00966706770474326,0.00368698654220341
1.09260060579836,-0.0022748753202271,0.000376220371096587,0.00265109569132369,0.000949327474565259,-0.0024629855057754,0.00151365803121014
1.09476417135439,0.00387644500505155,0.00180747798893836,-0.00206896701611319,-0.00284196149699495,0.00297270601058237,-0.000130744513587414
1.09692773691043,0.00622052022423333,0.00197585341885935,-0.00424466680537398,-0.00409818682154634,0.00523259351480366,-0.00113440669325731
1.09909130246646,0.00619539103405463,0.000966278182125774,-0.00522911285192885,-0.0035808346080902,0.00571225194299174,-0.00213141733490154
1.1012548680225,0.00574109682128393,-0.000436414960951979,-0.00617751178223591,-0.00265234093016598,0.00595930430175992,-0.00330696337159394
1.10341843357854,0.00487898861876718,-0.00133596685693416,-0.00621495547570134,-0.00177151088091651,0.00554697204723426,-0.00377546116631775
1.10558199913457,0.00188052942954922,-0.00129721087762964,-0.00317774030717886,-0.000291659275959791,0.00252913486836404,-0.00223747559240425
1.10774556469061,-0.00420535093362023,-0.000537010945707538,0.0036683399879127,0.00237118093966389,-0.00393684546076646,0.00156566452110258
1.10990913024665,-0.0111701443143361,0.000333980431323414,0.0115041247456595,0.00541808194150634,-0.0113371345299978,0.00591905258849146
1.11207269580268,-0.0140299554412624,0.000779125485791963,0.0148090809270544,0.00662541497773522,-0.0144195181841584,0.00779410320642316
1.11423626135872,-0.008558417069641,0.000665990816756395,0.0092244078863974,0.0039462131264423,-0.0088914124780192,0.0049451993515769
1.11639982691476,0.00451627266708129,0.000256059402988423,-0.00426021326409287,-0.00238616603503486,0.00438824296558708,-0.00200207693055222
1.11856339247079,0.0182662188873753,-8.01529371925073e-05,-0.0183463718245678,-0.0090930329750914,0.0183062953559716,-0.00921326238088016
1.12072695802683,0.023123830877279,-0.000167137272462236,-0.0232909681497412,-0.0114783468024084,0.0232073995135101,-0.0117290527111017
1.12289052358286,0.0134988172611546,-0.000111586652573529,-0.0136104039137282,-0.00669361530429055,0.0135546105874414,-0.00686099528315084
1.1250540891389,-0.00710024458883746,-0.00013287513558173,0.00696736945325573,0.00361655986220959,-0.00703380702104659,0.003417247158837
1.12721765469494,-0.0266787017029183,-0.000308486376839826,0.0263702153260784,0.013493594039879,-0.0265244585144983,0.0130308644746193
1.12938122025097,-0.031716690808684,-0.000468278144154686,0.0312484126645293,0.0160924844764193,-0.0314825517366066,0.0153900672601873
1.13154478580701,-0.0164537247903225,-0.000339867988082681,0.0161138568022398,0.00839679638920258,-0.0162837907962811,0.00788699440707856
1.13370835136305,0.0118486902002578,0.000170987646533749,-0.011677702553724,-0.00600983892339577,0.0117631963769909,-0.00575335745359515
1.13587191691908,0.0360143796563836,0.000810630330358317,-0.0352037493260253,-0.0184125049933709,0.0356090644912044,-0.0171965594978335
1.13803548247512,0.0393875875360725,0.00109494058210891,-0.0382926469539636,-0.0202412640590907,0.038840117245018,-0.0185988531859273
1.14019904803116,0.0172485145790009,0.000666331683993288,-0.0165821828950076,-0.00895742313149709,0.0169153487370043,-0.00795792560550716
1.14236261358719,-0.0185770744193009,-0.000367955250264974,0.018209119169036,0.00947251483478295,-0.0183930967941684,0.00892058195938549
1.14452617914323,-0.0458508195730133,-0.00140100960707472,0.0444498099659386,0.023625914590044,-0.045150314769476,0.021524400179432
1.14668974469926,-0.0457518844846894,-0.00168128774731575,0.0440705967373736,0.0237165861160026,-0.0449112406110315,0.0211946544950289
1.1488533102553,-0.0157865890811615,-0.000850546778110854,0.0149360423030506,0.00831856792963616,-0.015361315692106,0.00704274776246988
1.15101687581134,0.027031923758948,0.000715508551739509,-0.0263164152072085,-0.0138737161553438,0.0266741694830783,-0.0128004533277345
1.15318044136737,0.055750457978356,0.00205127578560358,-0.0536991821927524,-0.0289008668819798,0.0547248200855542,-0.0258239532035744
1.15534400692341,0.0504732505621752,0.00219742219000473,-0.0482758283721704,-0.0263353363760899,0.0493745394671728,-0.0230392030910829
1.15750757247945,0.0120515064824461,0.000880569708678284,-0.0111709367737678,-0.00646603809556217,0.0116112216281069,-0.00514518353254475
1.15967113803548,-0.0368999067006224,-0.00119987986456983,0.0357000268360526,0.0190498932825961,-0.0362999667683375,0.0172500734857414
1.16183470359152,-0.0652749582440713,-0.00273097422330699,0.0625439840207643,0.0340029662336891,-0.0639094711324178,0.0299065048987286
1.16399826914756,-0.0532739627871072,-0.00261609394963064,0.0506578688374766,0.0279450283683689,-0.0519659158122919,0.024020887443923
1.16616183470359,-0.00610656251083731,-0.000750125041731825,0.00535643746910548,0.00342834377628457,-0.00573149998997139,0.00230315621368683
1.16832540025963,0.0478186609437194,0.00180230613976833,-0.0460163548039511,-0.0248104835417439,0.0469175078738352,-0.0221070243320914
1.17048896581566,0.0739993857366289,0.0034085750092912,-0.0705908107273377,-0.03870398037296,0.0722950982319833,-0.0335911178590233
1.1726525313717,0.0539432235849557,0.00291358843398402,-0.0510296351509716,-0.0284284060094698,0.0524864293679636,-0.0240580233584938
1.17481609692774,-0.00190812229187265,0.000458773845303545,0.00236689613717619,0.000724674223284552,-0.00213750921452442,0.00141283499123987
1.17697966248377,-0.0593890052207146,-0.00249968765274324,0.0568893175679714,0.0309443464367289,-0.058139161394343,0.0271948149576141
1.17914322803981,-0.0815257642825471,-0.00405252872006762,0.0774732355624795,0.0427891465013074,-0.0794994999225133,0.0367103534212059
1.18130679359585,-0.0523432650368436,-0.00307049238857946,0.0492727726482642,0.0277068787127115,-0.0508080188425539,0.0231011401298423
1.18347035915188,0.0117808818170081,-1.18929871223347e-05,-0.0117927748041304,-0.00588449441494288,0.0117868283105693,-0.00590233389562638
1.18563392470792,0.0711881363220453,0.00326537998675067,-0.0679227563352946,-0.037226758154398,0.0695554463286699,-0.032328688174272
1.18779749026395,0.0874956031933096,0.00463231328693347,-0.0828632899063761,-0.0460639582401215,0.0851794465498429,-0.0391154883097213
1.18996105581999,0.0484130842091149,0.00307231493638506,-0.0453407692727299,-0.02574269957275,0.0468769267409224,-0.0211342271681724
1.19212462137603,-0.0232359511252585,-0.000579532079000035,0.0226564190462585,0.0119077416021293,-0.0229461850857585,0.0110384434836292
1.19428818693206,-0.0827833878169273,-0.00407009289651789,0.0787132949204094,0.0434267403567226,-0.0807483413686683,0.0373216010119458
1.1964517524881,-0.0916010222507652,-0.00511943891937592,0.0864815833313892,0.0483602305850705,-0.0890413027910772,0.0406810722060067
1.19861531804414,-0.0421697291819823,-0.00290994546810799,0.0392597837138743,0.0225398373250452,-0.0407147564479283,0.0181749191228832
1.20077888360017,0.0359428178961794,0.00129929263447001,-0.0346435252617094,-0.0186210552653247,0.0352931715789444,-0.0166721163136197
1.20294244915621,0.0937461162183739,0.004882866550904,-0.0888632496674699,-0.0493144913846389,0.0913046829429219,-0.0419901915582829
1.20510601471225,0.093594151069302,0.00548837969203999,-0.088105771377262,-0.049541265380671,0.090849961223282,-0.041308695842611
1.20726958026828,0.0337071321566195,0.002579935482213,-0.0311271966744065,-0.0181435338194163,0.032417164415513,-0.0142736305960967
1.20943314582432,-0.0495271611674138,-0.00212650620847406,0.0474006549589398,0.025826833687944,-0.0484639080631768,0.0226370743752329
1.21159671138035,-0.103665283132826,-0.00567209352513347,0.0979931896076927,0.0546686883289798,-0.100829236370259,0.0461605480412796
1.21376027693639,-0.0932945374408717,-0.00571740303111326,0.0875771344097584,0.0495059702359925,-0.0904358359253151,0.0409298656893226
1.21592384249243,-0.0231925616723172,-0.00208459714029582,0.0211079645320214,0.0126385794063065,-0.0221502631021693,0.00951168369586279
1.21808740804846,0.0635830159240228,0.00303631134641314,-0.0605467045776097,-0.033309663635218,0.0620648602508163,-0.0287551966155983
1.2202509736045,0.112160317953002,0.00640655379721672,-0.105753764155785,-0.0592834358751094,0.108957041054394,-0.0496736051792843
1.22241453916054,0.0905943646988563,0.00578927183694694,-0.0848050928619093,-0.0481918182679016,0.0876997287803828,-0.0395079105124812
1.22457810471657,0.0108608382051263,0.00143191713691498,-0.00942892106821131,-0.00614637767102064,0.0101448796366688,-0.00399850196564816
1.22674167027261,-0.0776857698924006,-0.00400068432492625,0.0736850855674744,0.0408432271086634,-0.0756854277299375,0.0348422006212741
1.22890523582865,-0.118892874191475,-0.00705642992367429,0.111836444267801,0.0629746520575748,-0.115364659229638,0.0523900071720633
1.23106880138468,-0.0854613486816604,-0.00569179823492308,0.0797695504467373,0.0455765734582917,-0.0826154495641988,0.0370388761059071
1.23323236694072,0.00299347591586353,-0.000635290299849536,-0.00362876621571307,-0.001179092808007,0.0033111210657883,-0.0021320282577813
1.23539593249675,0.0914055792961466,0.0049893509049562,-0.0864162283911904,-0.0481974651005514,0.0889109038436685,-0.0407134387431171
1.23755949805279,0.123577132534728,0.00759427051819996,-0.115982862016528,-0.065585701526464,0.119779997275628,-0.0541942957491641
1.23972306360883,0.07793925828922,0.00541823281547634,-0.0725210254737436,-0.0416787455523482,0.0752301418814818,-0.0335513963291336
1.24188662916486,-0.0180256422053149,-0.000286917044089429,0.0177387251612255,0.00915627962470216,-0.0178821836832702,0.00872590405856802
1.2440501947209,-0.104320783742158,-0.00597076349372928,0.0983500202484285,0.0551457736179435,-0.101335401995293,0.0461896283773496
1.24621376027694,-0.125988353712961,-0.00799587209312573,0.117992481619836,0.0669921129030435,-0.121990417666398,0.0549983047633549
1.24837732583297,-0.0681460776071789,-0.00496747854861091,0.063178599058568,0.0365567780778949,-0.0656623383328735,0.0291055602549786
1.25054089138901,0.0338517473545776,0.00131195865425963,-0.032539788700318,-0.0175818530044186,0.0331957680274478,-0.0156139150230292
1.25270445694505,0.116030906818968,0.00691311232040561,-0.109117794498563,-0.0614720095696869,0.112574350658765,-0.0511023410890785
1.25486802250108,0.125969442635839,0.00824105217701866,-0.117728390458821,-0.067105247406429,0.12184891654733,-0.054743669140901
1.25703158805712,0.0562698998459319,0.00434412416762514,-0.0519257756783068,-0.0303070120067785,0.0540978377621194,-0.0237908257553408
1.25919515361315,-0.0500607809256642,-0.00241343491126974,0.0476473460143944,0.026237107918467,-0.0488540634700293,0.0226169555515623
1.26135871916919,-0.126168848001893,-0.00778533846378376,0.118383509538109,0.0669770932328384,-0.122276178770001,0.0552990855371628
1.26352228472523,-0.123435350015057,-0.00831429029413955,0.115121059720918,0.0658748201545985,-0.119278204867988,0.0534033847133891
1.26568585028126,-0.0425627117142194,-0.00355829753328296,0.0390044141809364,0.0230605046237512,-0.0407835629475779,0.0177230583238267
1.2678494158373,0.0662274024803775,0.00356213025550787,-0.0626652722248696,-0.0348947663679427,0.0644463373526236,-0.0295515709846809
1.27001298139334,0.134411902288878,0.00855811681776748,-0.12585378547111,-0.0714850095533225,0.130132843879994,-0.0586478343266713
1.27217654694937,0.118375206794307,0.00820521776028333,-0.110169989034024,-0.0632902122772954,0.114272597914166,-0.0509823856368704
1.27434011250541,0.0273322892858995,0.0026253451342327,-0.0247069441516668,-0.0149788172100661,0.0260196167187832,-0.0110407995087171
1.27650367806145,-0.0819249958778751,-0.00472693422901065,0.0771980616488644,0.0433259650534429,-0.0795615287633697,0.0362355637099269
1.27866724361748,-0.140491285504124,-0.00920477832337077,0.131286507180753,0.0748480319137474,-0.135888896342439,0.0610408644286912
1.28083080917352,-0.110852157947477,-0.00790894217145882,0.102943215776019,0.0593805500594681,-0.106897686861748,0.0475171368022799
1.28299437472955,-0.0109324811011837,-0.00156534927669318,0.00936713182449054,0.00624891518893845,-0.0101498064628371,0.00390089127389868
1.28515794028559,0.0967386057211482,0.00587581645230461,-0.0908627892688436,-0.0513072110867264,0.0938006974949959,-0.0424934864082695
1.28732150584163,0.144199893963636,0.00970214298650779,-0.134497750977129,-0.0769510184750721,0.139348822470383,-0.0623978039953104
1.28948507139766,0.101000933369747,0.00742619777829821,-0.0935747355914487,-0.0542135655740226,0.0972878344805978,-0.0430742689065753
1.2916486369537,-0.00624780038339078,0.000402499500618636,0.00665029988400942,0.00292265044138607,-0.0064490501337001,0.00352639969231403
1.29381220250974,-0.110277360653239,-0.00697682445011065,0.103300536203129,0.0586270925516749,-0.106788948428184,0.0481618558765089
1.29597576806577,-0.145398085494867,-0.0100312382611318,0.135366847233735,0.0777146618779992,-0.140382466364301,0.0626678044863015
1.29813933362181,-0.0890232624912467,-0.00676331848038071,0.082259944010866,0.0478932904858137,-0.0856416032510564,0.0377483127652427
1.30030289917785,0.0237965230656999,0.000835660820767892,-0.0229608622449321,-0.0123160919432339,0.023378692655316,-0.0110626007120821
1.30246646473388,0.12218600990606,0.00799907280774016,-0.11418693709832,-0.0650925413569003,0.11818647350219,-0.05309393214529
1.30463003028992,0.144017332738399,0.0101778812038158,-0.133839451534583,-0.0770976069711072,0.138928392136491,-0.0618307851653836
1.30679359584595,0.075181303814254,0.00593203576601253,-0.0692492680482414,-0.0405566697901333,0.0722152859312477,-0.0316586161411145
1.30895716140199,-0.0412910358996434,-0.0021190880183478,0.0391719478812956,0.0217050619589956,-0.0402314918904695,0.0185264299314739
1.31112072695803,-0.132155232334241,-0.00891369269767897,0.123241539636562,0.0705344625159601,-0.127698385985402,0.0571639234694416
1.31328429251406,-0.140061667183325,-0.0101331072720025,0.129928559911322,0.0750973872276635,-0.134995113547323,0.0598977263196598
1.3154478580701,-0.0597893188984933,-0.00494910938956976,0.0548402095089236,0.0323692141440316,-0.0573147642037085,0.0249455500596769
1.31761142362614,0.058310735375206,0.00341616420525268,-0.0548945711699533,-0.0308634497902293,0.0566026532725796,-0.0257392034823503
1.31977498918217,0.139930419945608,0.0096947123366655,-0.130235707608942,-0.0748125661411366,0.135083063777275,-0.0602704976361383
1.32193855473821,0.133606901375313,0.00989343359874978,-0.123713467776563,-0.0717501674870314,0.128660184575938,-0.0569100170889067
1.32410212029424,0.0432038707056746,0.00383580375107361,-0.039368066954601,-0.0235198372283741,0.0412859688301378,-0.0177661316017637
1.32626568585028,-0.0744495079193057,-0.00469466627308421,0.0697548416462214,0.0395720870961949,-0.0721021747827636,0.0325300876865686
1.32842925140632,-0.145318689202011,-0.0103198413612053,0.134998847840806,0.0778192652816084,-0.140158768521409,0.0623395032398004
1.33059281696235,-0.12479768504946,-0.00946094987265921,0.115336735176801,0.0671293174610595,-0.12006721011313,0.0529378926520707
1.33275638251839,-0.025812867242029,-0.00261722766266453,0.0231956395793644,0.0142150474523467,-0.0245042534106967,0.01028920595835
1.33491994807443,0.0893275710995743,0.0059227471018034,-0.0834048239977709,-0.0476251591006888,0.0863661975486726,-0.0387410384479837
1.33708351363046,0.148193931406783,0.0107711353599025,-0.13742279604688,-0.0794825333833427,0.142808363726832,-0.0633258303434889
1.3392470791865,0.113842516495131,0.00884323541454232,-0.104999281080588,-0.0613428759548365,0.10942089878786,-0.048078022833023
1.34141064474254,0.00802380199322284,0.00132155931093349,-0.00670224268228935,-0.00467268065207817,0.0073630223377561,-0.00269034168567793
1.34357421029857,-0.102602360623042,-0.00706989816728548,0.0955324624557561,0.0548361293951635,-0.0990674115393989,0.0442312821442353
1.34573777585461,-0.14849977643435,-0.0110355207655056,0.137464255668844,0.0797676485999277,-0.142982016051597,0.0632143674516694
1.34790134141064,-0.101006891290735,-0.00805310650044335,0.092953784790292,0.0545299988955893,-0.0969803380405137,0.0424503391449243
1.35006490696668,0.00974843804497008,2.08183706002594e-05,-0.00972761967436982,-0.00488462820778517,0.00973802885966995,-0.00485340065188478
1.35222847252272,0.113978144687147,0.00810786358385106,-0.105870281103296,-0.0610430041354991,0.109924212895222,-0.0488812087597225
1.35439203807875,0.146250409889193,0.0111051648581775,-0.135145245031015,-0.0786777873736851,0.140697827460104,-0.0620200400864189
1.35655560363479,0.0866048248612618,0.0071082032637535,-0.0794966215975083,-0.0468565140625076,0.083050723229385,-0.0361942091668774
1.35871916919083,-0.027093818292843,-0.00137824411798565,0.0257155741748573,0.0142360312054143,-0.0264046962338501,0.0121686650284358
1.36088273474686,-0.1232140910406,-0.00901147740210471,0.114202613638495,0.0661127842213522,-0.118708352339547,0.0525955681181951
1.3630463003029,-0.141529250441903,-0.0109776806170895,0.130551569824813,0.0762534655294962,-0.136040410133358,0.0597869446038619
1.36520986585894,-0.0709890315444236,-0.00603043045393444,0.0649586010904892,0.038509730999179,-0.0679738163174564,0.0294640853182774
1.36737343141497,0.0436190820999751,0.00271873704726141,-0.0409003450527137,-0.0231689095736183,0.0422597135763444,-0.0190908040027261
1.36953699697101,0.130130563663852,0.0097593986315657,-0.120371165032286,-0.0699449811477087,0.125250864348069,-0.0553058832003601
1.37170056252704,0.134485559526045,0.0106561614208205,-0.123829398105225,-0.0725708604734328,0.129157478815635,-0.056586618342202
1.37386412808308,0.054540079712011,0.0048452707846119,-0.0496948089273991,-0.0296926752483115,0.0521174443197051,-0.0224247690713936
1.37602769363912,-0.0589589969672716,-0.0040109574070256,0.054948039560246,0.0314849771871486,-0.0569535182637588,0.0254685410766102
1.37819125919515,-0.13461348358137,-0.0103347218826345,0.124278761698735,0.0724741027320022,-0.129446122640053,0.0569720199080505
1.38035482475119,-0.125329117800619,-0.0101490459715073,0.115180071829112,0.0677390818860633,-0.120254594814866,0.0525155129288024
1.38251839030723,-0.0376548689918041,-0.00358099343459827,0.0340738755572059,0.0206179312132012,-0.035864372274505,0.0152464410613038
1.38468195586326,0.0727865888589234,0.00522513931778815,-0.0675614495411352,-0.0390058640883558,0.0701740192000293,-0.0311681551116735
1.3868455214193,0.136616650115313,0.0107254456100086,-0.125891204505304,-0.0736710478626608,0.131253927310309,-0.0575828794476479
1.38900908697534,0.114323159933954,0.00946981913464554,-0.104853340799309,-0.0618964895342999,0.109588250366631,-0.0476917608323316
1.39117265253137,0.0207347911210785,0.00226778335750667,-0.0184670077635718,-0.0115012872392926,0.0196008994423251,-0.00809961220303256
1.39333621808741,-0.0848220680402821,-0.00633396657812728,0.0784881014621548,0.0455780173092047,-0.0816550847512184,0.0360770674420138
1.39549978364344,-0.136161982921742,-0.0109247845565817,0.12523719836516,0.0735433837391617,-0.130699590643451,0.0571562069042891
1.39766334919948,-0.101775809669125,-0.00863655948035883,0.0931392501887657,0.0552061845747417,-0.0974575299289451,0.0422513453542034
1.39982691475552,-0.00417394012689483,-0.000936819318612924,0.00323712080828191,0.00255537972275388,-0.00370553046758837,0.00115015074483449
1.40199048031155,0.0948401944749672,0.00731336464884518,-0.0875268298261221,-0.0510767795619062,0.0911835121505447,-0.0401067325886384
1.40415404586759,0.133337709420662,0.0109313179946873,-0.122406391425975,-0.0721345137076748,0.127872050423319,-0.0557375367156439
1.40631761142363,0.0880302993477095,0.00767134902573869,-0.0803589503219708,-0.0478508241867241,0.0841946248348402,-0.0363438006481161
1.40848117697966,-0.0116522695827257,-0.000380670052224042,0.0112715995305017,0.00601646981747488,-0.0114619345566137,0.00544546473913882
1.4106447425357,-0.102675882455689,-0.00814318478241508,0.0945326976732743,0.0554095336190522,-0.0986042900644819,0.0431947564454296
1.41280830809174,-0.128294584764702,-0.0107489705810141,0.117545614183688,0.069521777672858,-0.122920099474195,0.0533983218013368
1.41497187364777,-0.0734542909267421,-0.00659956486730835,0.0668547260594337,0.0400269278970252,-0.0701545084930879,0.0301275805960627
1.41713543920381,0.0263977366307518,0.00165434246112595,-0.0247433941696259,-0.0140260395459389,0.0255705654001888,-0.01154452585425
1.41929900475984,0.108227901138934,0.00880775985031114,-0.099420141288623,-0.0585178304946226,0.103824021213779,-0.0453061907191559
1.42146257031588,0.121240290398261,0.0103868279179825,-0.110853462480278,-0.0658135591581216,0.116046876439269,-0.0502333172811479
1.42362613587192,0.0584286381592528,0.00544907593126401,-0.0529795622279888,-0.0319388570452584,0.0557041001936208,-0.0237652431483624
1.42578970142795,-0.0397552451665398,-0.00285564116690611,0.0368996039996337,0.0213054431667229,-0.0383274245830867,0.0170219814163638
1.42795326698399,-0.111460588173429,-0.00929631561741867,0.10216427255601,0.0603784518954237,-0.106812430364719,0.0464339784692957
1.43011683254003,-0.112432210786999,-0.0098587940824625,0.102573416704536,0.0611455024347305,-0.107502813745767,0.0463573113110368
1.43228039809606,-0.0433359414814441,-0.00424937085145725,0.0390865706299869,0.0237926561664507,-0.0412112560557155,0.0174185998892648
1.4344439636521,0.0514647013430068,0.00395862938173344,-0.0475060719612734,-0.0277116653623701,0.0494853866521401,-0.02177372128977
1.43660752920814,0.112403555748188,0.0096032258847478,-0.10280032986344,-0.0610033908164679,0.107601942805814,-0.0465985519893462
1.43877109476417,0.10216883448778,0.00918310328186028,-0.0929857312059194,-0.05567596888482,0.0975772828468496,-0.0419013139620296
1.44093466032021,0.0285492480596964,0.00303064493009042,-0.025518603129606,-0.0157899464948934,0.0270339255946512,-0.0112439790997578
1.44309822587624,-0.0613198038590174,-0.00494073428971918,0.0563790695692983,0.0331302690743683,-0.0588494367141579,0.0257191676397895
1.44526179143228,-0.111149430206535,-0.0097281049194582,0.101421325287077,0.0604387675629965,-0.106285377746806,0.0458466101838092
1.44742535698832,-0.090780064056894,-0.0083817022767912,0.0823983617801028,0.0495808831668426,-0.0865892129184984,0.0370083297516558
1.44958892254435,-0.0144212395355607,-0.00182287518949355,0.0125983643460671,0.00812205736252712,-0.0135098019408139,0.00538774457828679
1.45175248810039,0.069172970198169,0.00578337816712354,-0.0633895920310454,-0.0374781741826463,0.0662812811146072,-0.0288031069319609
1.45391605365643,0.107849725986588,0.00967573575602905,-0.098173990230559,-0.0587627308713085,0.103011858108573,-0.044249127237265
1.45607961921246,0.078616748308835,0.00747952413199075,-0.0711372241768443,-0.0430481362204129,0.0748769862428397,-0.0318288500224268
1.4582431847685,0.00127422973447295,0.000654912658975663,-0.00061931707549729,-0.000964571196724308,0.000946773404985121,1.77977917391868e-05
1.46040675032453,-0.0749383964282576,-0.00647247781990632,0.0684659186083513,0.040705437124082,-0.0717021575183045,0.0309967203942225
1.46257031588057,-0.102709010261393,-0.00945583812155181,0.0932531721398407,0.0560824241914722,-0.0979810912006166,0.0418986670091444
1.46473388143661,-0.0660397693906371,-0.00650367710432568,0.0595360922863114,0.0362717232474814,-0.0627879308384743,0.0265162075909929
1.46689744699264,0.0106087352465093,0.000446379738783388,-0.0101623555077259,-0.00552755749264635,0.0103855453771176,-0.00485798788447127
1.46906101254868,0.0785931875471461,0.0069987978468966,-0.0715943897002495,-0.0427959926970213,0.0750937886236978,-0.0322977959266764
1.47122457810472,0.0959775646161047,0.00908268474992032,-0.0868948798661844,-0.0525301246830125,0.0914362222411445,-0.038906097558132
1.47338814366075,0.0534090255967398,0.00548257495223209,-0.0479264506445077,-0.0294458002744859,0.0506677381206237,-0.0212219378461378
1.47555170921679,-0.0209914205258738,-0.00145691700085499,0.0195345035250188,0.0112241687633644,-0.0202629620254463,0.00903879326208193
1.47771527477283,-0.0801765555137835,-0.00735814795152781,0.0728184075622557,0.0437673517326557,-0.0764974815380196,0.0327301298053639
1.47987884032886,-0.0879427929683558,-0.00857457954850439,0.0793682134198514,0.0482586862584301,-0.0836555031941036,0.0353968169356735
1.4820424058849,-0.0410726487163641,-0.00444503658278184,0.0366276121335823,0.022758842649573,-0.0388501304249732,0.0160912877754002
1.48420597144093,0.0296903810344403,0.00235608534485179,-0.0273342956895885,-0.0160232331896461,0.0285123383620144,-0.0124891051723684
1.48636953699697,0.0797871414249601,0.00755141951137885,-0.0722357219135813,-0.0436692804681695,0.0760114316692707,-0.0323421512011012
1.48853310255301,0.0789196595013239,0.00795321532202679,-0.0709664441792971,-0.0434364374116753,0.0749430518403105,-0.0315066144286352
1.49069666810904,0.0293567822034914,0.00341938369592812,-0.0259373985075633,-0.0163880829497098,0.0276470903555274,-0.0112590074058176
1.49286023366508,-0.0365792180421589,-0.00312731801635484,0.033451900025804,0.0198532680292569,-0.0350155590339815,0.0151622910047246
1.49502379922112,-0.0775785749814602,-0.00758446171463664,0.0699941132668236,0.0425815183480484,-0.0737863441241419,0.0312048257760935
1.49718736477715,-0.0692404657018511,-0.00724293241227275,0.0619975332895783,0.0382416990570619,-0.0656189994957147,0.0273773004386528
1.49935093033319,-0.0185562241291485,-0.00243256492326181,0.0161236592058866,0.0104943945262051,-0.0173399416675175,0.00684554714131241
1.50151449588923,0.0415910117649495,0.00375853648819286,-0.0378324752767567,-0.0226747741265712,0.0397117435208531,-0.0170369693942819
1.50367806144526,0.0737534367303705,0.00746780262567854,-0.066285634104692,-0.0406106196780245,0.0700195354175313,-0.0294089157395067
1.5058416270013,0.0592442910390037,0.00646990256871796,-0.0527743884702858,-0.0328570968038608,0.0560093397546447,-0.0231522429507839
1.50800519255733,0.00892620754983229,0.001509333902234,-0.00741687364759829,-0.00521777072603314,0.00817154059871529,-0.00295376987268215
1.51016875811337,-0.0447188858157043,-0.00424244431298879,0.0404764415027155,0.0244806650643465,-0.0425976636592099,0.0181169985948633
1.51233232366941,-0.0685558350314768,-0.00721622539033722,0.0613396096411396,0.037886030210907,-0.0649477223363082,0.0270616921254012
1.51449588922544,-0.0492664270561535,-0.00566126453633894,0.0436051625198145,0.0274638457962462,-0.046435794787984,0.0189719489917378
1.51665945478148,-0.000675551701814301,-0.000671506815428203,4.04488638609758e-06,0.000673529258621252,-0.000339798294100199,-0.000333730964521053
1.51882302033752,0.0460147173582065,0.00457666563605164,-0.0414380517221548,-0.0252956914971291,0.0437263845401807,-0.0184306930430516
1.52098658589355,0.0622628489359202,0.00684821428463629,-0.0554146346512839,-0.0345555316102782,0.0588387417936021,-0.0242832101833238
1.52315015144959,0.0396281296737726,0.00484423917011552,-0.0347838905036571,-0.022236184421944,0.0372060100887148,-0.0149698256667708
1.52531371700563,-0.00603862836832712,-6.26777762415753e-05,0.00597595059208554,0.00305065307228435,-0.00600728948020633,0.00295663640792198
1.52747728256166,-0.0455860636064109,-0.00476372533965408,0.0408223382667569,0.0251748944730325,-0.0432042009365839,0.0180293064635514
1.5296408481177,-0.0551751190876224,-0.00638528931044504,0.0487898297771774,0.0307802041990337,-0.0519824744323999,0.0212022702333662
1.53180441367373,-0.0306269996168755,-0.00404525232517417,0.0265817472917013,0.0173361259710248,-0.0286043734542884,0.0112682474832636
1.53396797922977,0.0111145169954075,0.000679077377784333,-0.0104354396176232,-0.00589679718659594,0.0107749783065154,-0.00487818111991944
1.53613154478581,0.0435914290589224,0.00481087281504545,-0.038780556243877,-0.0242011509369839,0.0411859926513997,-0.0169848417144158
1.53829511034184,0.0476068905364418,0.00585125142549986,-0.0417556391109419,-0.0267290709809708,0.0446812648236918,-0.017952193842721
1.54045867589788,0.022528276695611,0.0032890933191466,-0.0192391833764643,-0.0129086850073788,0.0208837300360376,-0.00797504502865887
1.54262224145392,-0.0145074154675531,-0.00116802684190608,0.013339388625647,0.00783772115472957,-0.0139234020466,0.00608568089187045
1.54478580700995,-0.040234046963478,-0.00472975628731,0.0355042906761681,0.022481901625394,-0.0378691688198231,0.015387267194429
1.54694937256599,-0.0398758234540761,-0.00527136316147829,0.0346044602925979,0.0225735933077772,-0.037240141873337,0.0146665485655598
1.54911293812203,-0.0155573010623643,-0.00259813543902475,0.0129591656233396,0.00907771825069453,-0.0142582333428519,0.0051805150921574
1.55127650367806,0.0162297555461607,0.00152457149670977,-0.014705184049451,-0.00887716352143526,0.0154674697978059,-0.0065903062763706
1.5534400692341,0.0357543915285094,0.00453595929646431,-0.0312184322320451,-0.0201451754124869,0.0334864118802773,-0.0133412364677904
1.55560363479013,0.0322928899416086,0.00467149125319184,-0.0276213986884168,-0.0184821905974002,0.0299571443150127,-0.0114749537176125
1.55776720034617,0.00989335467163379,0.00199164281555089,-0.0079017118560829,-0.00594249874359234,0.00889753326385835,-0.00295503452026601
1.55993076590221,-0.0163493384746924,-0.00174854589336388,0.0146007925813286,0.00904894218402816,-0.0154750655280105,0.00642612334398234
1.56209433145824,-0.0304216731066002,-0.00424841522085081,0.0261732578857494,0.0173350441637255,-0.0282974654961748,0.0109624213324493
1.56425789701428,-0.0251526674914168,-0.00407723892078517,0.0210754285706316,0.014614953206101,-0.0231140480310242,0.00849909482492322
1.56642146257032,-0.00566505031530178,-0.00148518508646228,0.00417986522883951,0.00357511770088203,-0.00492245777207064,0.00134734007118861
1.56858502812635,0.014985883232534,0.00184449687931231,-0.0131413863532217,-0.00841519005592313,0.0140636347928778,-0.00564844473695468
1.57074859368239,0.0245245959786342,0.00388871948399918,-0.020635876494635,-0.0142066577313167,0.0225802362366346,-0.00837357850531792
1.57291215923842,0.0187243225966511,0.00351309558828074,-0.0152112270083704,-0.0111187090924659,0.0169677748025107,-0.00584906571004482
1.57507572479446,0.00294738529462899,0.00109017771128582,-0.00185720758334317,-0.00201878150295741,0.00240229643898608,-0.000383514936028677
1.5772392903505,-0.012306018606617,-0.00182145464428817,0.0104845639623288,0.00706373662545256,-0.0113952912844729,0.00433155465902031
1.57940285590653,-0.0183616767480152,-0.00348036219899795,0.0148813145490173,0.0109210194735066,-0.0166214956485162,0.00570047617500966
1.58156642146257,-0.0132435521537532,-0.00300163108663285,0.0102419210671203,0.00812259162019302,-0.0117427366104368,0.00362014499024374
1.58372998701861,-0.00176052363491355,-0.000813561700373434,0.000946961934540118,0.00128704266764349,-0.00135374278472684,6.6700117083342e-05
1.58589355257464,0.00851689955847533,0.00169256018311851,-0.00682433937535682,-0.00510472987079692,0.00767061946691608,-0.00256588959611916
1.58805711813068,0.0122314302802644,0.00304790638110149,-0.00918352389916295,-0.00763966833068296,0.0107074770897137,-0.00306780875903073
1.59022068368672,0.00890571660333112,0.00256275980581131,-0.00634295679751981,-0.00573423820457122,0.00762433670042547,-0.00189009849585425
1.59238424924275,0.00207031642731963,0.000657632011299937,-0.00141268441601969,-0.00136397421930978,0.00174150042166966,-0.000377526202359876
1.59454781479879,-0.00385866801782389,-0.0014745621213175,0.00238410589650639,0.0026666150695707,-0.00312138695716514,0.000454771887594445
1.59671138035482,-0.00642272945958763,-0.00261613842936638,0.00380659103022126,0.00451943394447701,-0.00511466024490444,0.000595226300427439
1.59887494591086,-0.00586035835503223,-0.00221309788283552,0.00364726047219671,0.00403672811893387,-0.00475380941361447,0.000717081294680594
1.6010385114669,-0.00379051608336784,-0.000620019090492734,0.00317049699287511,0.00220526758693029,-0.00348050653812147,0.00127523895119119
1.60320207702293,-0.00140398949177797,0.00118719991706269,0.00259118940884066,0.000108394787357644,-0.00199758945030932,0.00188919466295167
1.60536564257897,0.00120563494340117,0.00220921829675592,0.00100358335335474,-0.00170742662007855,0.000101025795023215,0.00160640082505533
1.60752920813501,0.00420725328594117,0.00196543342017837,-0.0022418198657628,-0.00308634335305977,0.00322453657585199,-0.000138193222792215
1.60969277369104,0.00678658865993519,0.000693823148452021,-0.00609276551148317,-0.00374020590419361,0.00643967708570918,-0.00269947118151558
1.61185633924708,0.00699091097923894,-0.000852493960956358,-0.0078434049401953,-0.00306920850914129,0.00741715795971712,-0.00434794945057583
1.61401990480312,0.00317702797242161,-0.00184985661742469,-0.00502688458984631,-0.000663585677498461,0.00410195628113396,-0.0034383706036355
1.61618347035915,-0.00399409347664905,-0.00182832602255024,0.00216576745409881,0.00291120974959965,-0.00307993046537393,0.000168720715774283
1.61834703591519,-0.0108809805131448,-0.000867895907352853,0.0100130846057919,0.00587443821024882,-0.0104470325594684,0.00457259434921954
1.62051060147122,-0.0126158633186756,0.00049396593578041,0.013109829254456,0.00606094869144758,-0.0128628462865658,0.00680189759511819
1.62267416702726,-0.00651709559051694,0.00155854504912776,0.0080756406396447,0.00247927527069459,-0.00729636811508082,0.00481709284438623
1.6248377325833,0.00521584744024701,0.00180584773942047,-0.00340999970082654,-0.00351084758983374,0.00431292357053678,-0.000802075980703038
1.62700129813933,0.0158596527890653,0.00112725990234336,-0.014732392886722,-0.00849345634570434,0.0152960228378937,-0.00680256649218931
1.62916486369537,0.0179959843301517,-0.00013581488647457,-0.0181317992166262,-0.00893008472183855,0.018063891773389,-0.00913380705155041
1.63132842925141,0.00864727998496732,-0.00135286425410017,-0.0100001442390675,-0.00364720786543358,0.00932371211201741,-0.00567650424658383
1.63349199480744,-0.00781579153883894,-0.0018974729402751,0.00591831859856385,0.00485663223955702,-0.00686705506870139,0.00201042282914437
1.63565556036348,-0.0214796608982509,-0.00145365109784925,0.0200260098004017,0.0114666559980501,-0.0207528353493263,0.00928617935127621
1.63781912591952,-0.0228609685000345,-0.000197924276002118,0.0226630442240323,0.0115294463880183,-0.0227620063620334,0.0112325599740151
1.63998269147555,-0.00944599668573358,0.00124689134512858,0.0106928880308622,0.0040995526703025,-0.0100694423582979,0.00596988968799537
1.64214625703159,0.0116881546989894,0.00209811987469052,-0.00959003482429892,-0.00689313728683998,0.0106390947616442,-0.0037459574748042
1.64430982258762,0.0274775271765213,0.00182616673180183,-0.0256513604447195,-0.0146518469541616,0.0265644438106204,-0.0119125968564588
1.64647338814366,0.0269617146064909,0.000484212690477217,-0.0264775019160136,-0.013722963648484,0.0267196082612522,-0.0129966446127682
1.6486369536997,0.00884067696769161,-0.00125072535020164,-0.0100914023178933,-0.00379497580874499,0.00946603964279243,-0.00567106383404745
1.65080051925573,-0.0166822695070829,-0.00239834183092328,0.0142839276761596,0.00954030566900307,-0.0154830985916212,0.00594279292261815
1.65296408481177,-0.033578134189608,-0.00222199704257841,0.0313561371470296,0.0179000656160932,-0.0324671356683188,0.0145670700522256
1.65512765036781,-0.030078174400469,-0.000701803171596193,0.0293763712288728,0.0153899887860326,-0.0297272728146709,0.0143372840286383
1.65729121592384,-0.00680948465870287,0.00137014540528107,0.00817963006398393,0.0027196696267109,-0.0074945573613434,0.0047748877346325
1.65945478147988,0.0226080777610685,0.00278466105738244,-0.019823416703686,-0.0126963694092255,0.0212157472323773,-0.0085193778231518
1.66161834703592,0.0395038541133187,0.00261721696534319,-0.0368866371479755,-0.0210605355393309,0.0381952456306471,-0.0171347100913161
1.66378191259195,0.032026170119573,0.000831974115774627,-0.0311941960037984,-0.0164290721176738,0.0316101830616857,-0.0151811109440119
1.66594547814799,0.00338140795246737,-0.00160641209382274,-0.00498782004629011,-0.000887497929322318,0.00418461399937874,-0.00329711607005642
1.66810904370402,-0.0292427989055906,-0.00324003409994151,0.0260027648056491,0.0162414165027661,-0.0276227818556199,0.0113813653528538
1.67027260926006,-0.0449836265576286,-0.00298761208395294,0.0419960144736756,0.0239856193207908,-0.0434898205156521,0.0195042011948613
1.6724361748161,-0.0326629839862962,-0.000859178333933119,0.0318038056523631,0.0167610811601147,-0.0322333948193297,0.015472313659215
1.67459974037213,0.00136525255141358,0.00195621775071382,0.000590965199300244,-0.0016607351510637,0.000387143676056666,0.00127359147500703
1.67676330592817,0.0363385366276276,0.00374443307544926,-0.0325941035521784,-0.0200414848515385,0.034466320089903,-0.0144248352383646
1.67892687148421,0.0497617030667053,0.00330951214494304,-0.0464521909217623,-0.0265356076058242,0.0481069469942338,-0.0215713393884096
1.68109043704024,0.0318915637743852,0.000771586264280798,-0.0311199775101044,-0.016331575019333,0.0315057706422448,-0.0151741956229118
1.68325400259628,-0.00730592902233192,-0.0024117867833345,0.00489414223899742,0.00485885790283321,-0.00610003563066467,0.00124117772783146
1.68541756815232,-0.0436305731668427,-0.00427552377637891,0.0393550493904638,0.0239530484716108,-0.0414928112786533,0.0175397628070424
1.68758113370835,-0.0536057910063497,-0.00356060530863041,0.0500451856977193,0.0285831981574901,-0.0518254883520345,0.0232422901945445
1.68974469926439,-0.0296632336742977,-0.000561506462647798,0.0291017272116499,0.0151123700684727,-0.0293824804429738,0.014270110374501
1.69190826482042,0.0142742477979213,0.00296112228412036,-0.0113131255138009,-0.00861768504102083,0.0127936866558611,-0.00417600161484029
1.69407183037646,0.0508460832844059,0.00480941849525317,-0.0460366647891527,-0.0278277508898295,0.0484413740367793,-0.0206136231469498
1.6962353959325,0.0563143520736533,0.00372070702967072,-0.0525936450439825,-0.030017529551662,0.0544539985588179,-0.0244364690071559
1.69839896148853,0.0259788475960718,0.000225670238926034,-0.0257531773571458,-0.0131022589174989,0.0258660124766088,-0.0127637535591099
1.70056252704457,-0.0220677478786153,-0.00358839056772074,0.0184793573108946,0.012828069223168,-0.0202735525947549,0.00744548337158691
1.70272609260061,-0.0577129907635122,-0.00532147916243165,0.0523915116010805,0.0315172349629719,-0.0550522511822963,0.0235350162193244
1.70488965815664,-0.0577228404214654,-0.00377245899955332,0.0539503814219121,0.0307476497105094,-0.0558366109216887,0.0250889612111794
1.70705322371268,-0.0208883711998188,0.000234628320967311,0.0211229995207861,0.0103268714394257,-0.0210056853603024,0.0106788139208767
1.70921678926871,0.0304546607796692,0.00427443090711963,-0.0261802298725495,-0.0173645458433944,0.0283174453261093,-0.0109528994827149
1.71138035482475,0.0639686899377062,0.00578714487646521,-0.058181545061241,-0.0348779174070857,0.0610751174994736,-0.0261972000923879
1.71354392038079,0.0577087013566589,0.00370193589480338,-0.0540067654618555,-0.0307053186257311,0.0558577334092572,-0.0251524147835261
1.71570748593682,0.0144889278023644,-0.000813541076696905,-0.0153024688790613,-0.00683769336283372,0.0148956983407128,-0.00805800497787908
1.71787105149286,-0.0391815259771176,-0.00499737380307989,0.0341841521740377,0.0220894498900988,-0.0366828390755777,0.0145933891854789
1.7200346170489,-0.06936836294904,-0.00618275721728543,0.0631856057317546,0.0377755600831627,-0.0662769843403973,0.0285014242572346
1.72219818260493,-0.0561949925496863,-0.00349914068150667,0.0526958518681796,0.0298470666155965,-0.054445422208933,0.0245983555933365
1.72436174816097,-0.00692139037239291,0.00150082268235074,0.00842221305474366,0.00271028384502109,-0.00767180171356829,0.0049615178685472
1.72652531371701,0.0479813935707232,0.00573334772242645,-0.0422480458482967,-0.0268573706465748,0.0451147197095099,-0.0182573490629351
1.72868887927304,0.0736926398474666,0.00648635688763866,-0.067206282959828,-0.0400894983675526,0.0704494614036473,-0.0303599630360947
1.73085244482908,0.0531525343440341,0.0031583728319477,-0.0499941615120864,-0.0281554535879909,0.0515733479280602,-0.0234178943400693
1.73301601038511,-0.00163435433328857,-0.00228213023669389,-0.000647775903405312,0.00195824228499123,-0.000493289214941631,-0.0014649530700496
1.73517957594115,-0.05658235117901,-0.00645725148817515,0.0501250996908348,0.0315198013335926,-0.0533537254349224,0.0218339241013298
1.73734314149719,-0.076754372632557,-0.00667842621963314,0.0700759464129238,0.041716399426095,-0.0734151595227404,0.0316987600966453
1.73950670705322,-0.0486005426476147,-0.00267845789715775,0.045922084750457,0.0256395002723862,-0.0472613136990359,0.0216218134266496
1.74167027260926,0.0109653041296755,0.00313945588354329,-0.00782584824613223,-0.00705238000660941,0.00939557618790388,-0.00234319618129447
1.7438338381653,0.064716105814805,0.00714356748273099,-0.057572538332074,-0.035929836648768,0.0611443220734395,-0.0252144854246715
1.74599740372133,0.0784043250589941,0.00674255387693577,-0.0716617711820583,-0.0425734394679649,0.0750330481205262,-0.0324596086525613
1.74816096927737,0.042605745543604,0.00206283131958742,-0.0405429142240166,-0.0223342884315957,0.0415743298838103,-0.0192400414522146
1.75032453483341,-0.0208322032661438,-0.00405167831150616,0.0167805249546376,0.012441940788825,-0.0188063641103907,0.00636442332156575
1.75248810038944,-0.0721263536381411,-0.00776718959568041,0.0643591640424607,0.0399467716169108,-0.0682427588403009,0.0282959872233901
1.75465166594548,-0.0785356164327272,-0.00666600062001704,0.0718696158127101,0.0426008085263721,-0.0752026161227187,0.0326018075963466
1.75681523150151,-0.0352800316924379,-0.00131947402204783,0.0339605576703901,0.0182997528572429,-0.034620294681414,0.0163205418241711
1.75897879705755,0.030977141804406,0.0049952153600104,-0.0259819264443956,-0.0179861785822082,0.0284795341244008,-0.0104933555421926
1.76114236261359,0.0785766808604906,0.00830423944627079,-0.0702724414142198,-0.0434404601533807,0.0744245611373552,-0.0309841009839745
1.76330592816962,0.0770867985095424,0.00644014819964874,-0.0706466503098937,-0.0417634733545956,0.0738667244097181,-0.0321032510551225
1.76546949372566,0.0267767233701368,0.00046070202528809,-0.0263160213448487,-0.0136187126977125,0.0265463723574928,-0.0129276596597803
1.7676330592817,-0.0411316469071877,-0.00594475676995624,0.0351868901372315,0.023538201838572,-0.0381592685222096,0.0146210666836376
1.76979662483773,-0.0838577572421399,-0.00873284484775548,0.0751249123943844,0.0462953010449477,-0.0794913348182621,0.0331960337733145
1.77196019039377,-0.0740434886450019,-0.0060608172000064,0.0679826714449955,0.0400521529225042,-0.0710130800449987,0.0309609271224946
1.77412375594981,-0.0172856082481595,0.000497183021564318,0.0177827912697238,0.0083942126132976,-0.0175341997589417,0.00913998714564408
1.77628732150584,0.0510250086929558,0.00687405362046058,-0.0441509550724952,-0.0289495311567082,0.0475879818827255,-0.0186384507260173
1.77845088706188,0.0877936089107299,0.0090338557400677,-0.0787597531706622,-0.0484137323253988,0.0832766810406961,-0.0348629487152973
1.78061445261791,0.0694385281287039,0.00552844384717072,-0.0639100842815331,-0.0374834859879373,0.0666743062051185,-0.0291908202171812
1.78277801817395,0.00702690054187968,-0.00153437111178704,-0.00856127165366672,-0.00274626471504632,0.0077940860977732,-0.00504782138272688
1.78494158372999,-0.0603925796998987,-0.00775673924499904,0.0526358404548996,0.0340746594724489,-0.0565142100773992,0.0224395506049503
1.78710514928602,-0.0902467887506696,-0.00919147485703187,0.0810553138936377,0.0497191318038507,-0.0856510513221536,0.0359319195183029
1.78926871484206,-0.0633506807264404,-0.00484811029842106,0.0585025704280194,0.0340993955124307,-0.0609266255772299,0.0268272300647991
1.7914322803981,0.00375566712339086,0.00262813363352863,-0.00112753348986223,-0.00319190037845974,0.00244160030662654,0.000750300071833199
1.79359584595413,0.0689837915144123,0.00856715547371625,-0.060416636040696,-0.0387754734940643,0.0647002137775542,-0.0259247402834899
1.79575941151017,0.0911222993069377,0.00919378314807053,-0.0819285161588672,-0.0501580412275041,0.0865254077329025,-0.0363673665053983
1.79792297706621,0.0559019314211468,0.00402942758976476,-0.051872503831382,-0.0299656795054558,0.0538872176262644,-0.0239215381208086
1.80008654262224,-0.0148023957264561,-0.00375350674513568,0.0110488889813205,0.00927795123579591,-0.0129256423538883,0.00364769111809239
1.80225010817828,-0.0765696445019718,-0.00928115793170004,0.0672884865702718,0.0429254012168359,-0.0719290655361218,0.0290036643192859
1.80441367373431,-0.0903701638065078,-0.00903314335368316,0.0813370204528246,0.0497016535800955,-0.0858535921296662,0.0361519385495707
1.80657723929035,-0.0472534878151102,-0.00308627509644909,0.0441672127186611,0.0251698814557796,-0.0457103502668856,0.020540468811106
1.80874080484639,0.0258455736041643,0.00488404657982023,-0.0209615270243441,-0.0153648100919923,0.0234035503142542,-0.00803874022226192
1.81090437040242,0.0829494463351291,0.00987687483721798,-0.0730725714979111,-0.0464131605861735,0.0780110089165201,-0.0315978483303466
1.81306793595846,0.0879865842106684,0.00870646903083003,-0.0792801151798384,-0.0483465266207492,0.0836333496952534,-0.0352868230745042
1.8152315015145,0.0376006253512958,0.00203640490627184,-0.035564220445024,-0.0198185151287838,0.0365824228981599,-0.0167639077693761
1.81739506707053,-0.0366175807993153,-0.00599263224719153,0.0306249485521238,0.0213051065232534,-0.0336212646757196,0.0123161581524661
1.81955863262657,-0.0879566014312551,-0.0103353952649999,0.0776212061662552,0.0491459983481275,-0.0827889037987552,0.0336429054506276
1.82172219818261,-0.0840136697965831,-0.00821535061488598,0.0757983191816971,0.0461145102057345,-0.0799059944891401,0.0337914842834055
1.82388576373864,-0.0271665512888143,-0.000900923775484081,0.0262656275133302,0.0140337375321492,-0.0267160894010722,0.0126823518689231
1.82604932929468,0.046858891751026,0.00705229112493379,-0.0398066006260922,-0.0269555914379799,0.0433327461885591,-0.0163771547505792
1.82821289485071,0.0914632855789373,0.0106413651178597,-0.0808219204610776,-0.0510523253483985,0.0861426030200075,-0.0350902776716089
1.83037646040675,0.0785377642281281,0.00756603465288485,-0.0709717295752433,-0.0430518994405065,0.0747547469016857,-0.0317028474611792
1.83254002596279,0.0161954902499699,-0.000296330802134611,-0.0164918210521045,-0.00794957972391763,0.0163436556510372,-0.00839407592711955
1.83470359151882,-0.0563257307941537,-0.00803702026937186,0.0482887105247818,0.0321813755317628,-0.0523072206594677,0.020125845127705
1.83686715707486,-0.0933838768712288,-0.0107834720120526,0.0826004048591762,0.0520836744416407,-0.0879921408652025,0.0359084664235618
1.8390307226309,-0.0716864420410684,-0.00676925700459716,0.0649171850364713,0.0392278495228328,-0.0683018135387699,0.0290739640159371
1.84119428818693,-0.00494521536467196,0.00152950055165561,0.00647471591632757,0.00170785740650817,-0.00570996564049977,0.00400210823399159
1.84335785374297,0.0647971491580165,0.0089225779381552,-0.0558745712198613,-0.0368598635480859,0.0603358601889389,-0.0234759966408531
1.845521419299,0.0936770543704637,0.010754803833039,-0.0829222505374247,-0.0522159291017513,0.0882996524539442,-0.0360837233521929
1.84768498485504,0.0636242856276381,0.00583993543634693,-0.0577843501912912,-0.0347321105319925,0.0607043179094647,-0.0259722073774721
1.84984855041108,-0.00632073698976692,-0.002771479840753,0.00354925714901393,0.00454610841525996,-0.00493499706939042,0.000388888654130465
1.85201211596711,-0.0720813133373257,-0.00968722020518226,0.0623940931321435,0.040884266771254,-0.0672377032347346,0.0263534364634806
1.85417568152315,-0.0923465184056714,-0.0105530697458279,0.0817934486598435,0.0514497940757497,-0.0870699835327575,0.0356201894570078
1.85633924707919,-0.0545475899553218,-0.00479673148157259,0.0497508584737492,0.0296721607184472,-0.0521492242145355,0.0224770634960883
1.85850281263522,0.0173409244519889,0.00399472803402108,-0.0133461964179678,-0.010667826243005,0.0153435604349783,-0.00467573419197337
1.86066637819126,0.0780208220983354,0.0103123594246857,-0.0677084626736497,-0.0441665907615105,0.0728646423859925,-0.028698051624482
1.8628299437473,0.0894403297061764,0.0101806768200491,-0.0792596528861273,-0.0498105032631127,0.0843499912961518,-0.0345394880330391
1.86499350930333,0.0446781733331948,0.00366149557199083,-0.041016677761204,-0.0241698344525928,0.0428474255471994,-0.0186775910946066
1.86715707485937,-0.0278636847970145,-0.00517209504156484,0.0226915897554496,0.0165178899192897,-0.0252776372762321,0.0087597473569424
1.8693206404154,-0.08249690204363,-0.0107831238108468,0.0717137782327832,0.0466400129272384,-0.0771053401382066,0.0304653272109682
1.87148420597144,-0.0850489073494483,-0.00964466001582729,0.075404247333621,0.0473467836826378,-0.0802265773415347,0.0328797936588969
1.87364777152748,-0.0342564976533463,-0.00245861312407044,0.0317978845292758,0.0183575553887084,-0.033027191091311,0.0146696357026027
1.87581133708351,0.0376544165375495,0.00627763394202715,-0.0313767825955223,-0.0219660252397883,0.0345155995665359,-0.0125495743267476
1.87797490263955,0.0854323685060879,0.0110888005612664,-0.0743435679448215,-0.0482605845336772,0.0798879682254547,-0.0316273836917775
1.88013846819559,0.0793017664316731,0.0089564679275489,-0.0703452985041242,-0.044129117179611,0.0748235324678986,-0.0306944152882876
1.88230203375162,0.0235343199915936,0.00121427238193439,-0.0223200476096592,-0.012374296186764,0.0229271838006264,-0.0105528876138624
1.88446559930766,-0.0465022355362306,-0.00728737500362232,0.0392148605326082,0.0268948052699264,-0.0428585480344194,0.015963742764493
1.8866291648637,-0.0867932783750079,-0.0112231486665334,0.0755701297084745,0.0490082135207707,-0.0811817040417412,0.0321734905209705
1.88879273041973,-0.0723631142124463,-0.00813161125196792,0.0642315029604784,0.0402473627322071,-0.0682973085864624,0.0280499458542552
1.89095629597577,-0.0127671087710727,4.4322727790899e-05,0.0128114314988636,0.00636139302164091,-0.0127892701349682,0.00642787711332726
1.8931198615318,0.0542258116100785,0.00818003668209721,-0.0460457749279813,-0.0312029241460879,0.0501357932690299,-0.0189328691229421
1.89528342708784,0.0865892430003971,0.0111845716961972,-0.0754046713041999,-0.0488869073482971,0.0809969571522985,-0.0321100498040014
1.89744699264388,0.064426457111672,0.00718918529074344,-0.0572372718209286,-0.0358078212012077,0.0608318644663003,-0.0250240432650926
1.89961055819991,0.00220646162354055,-0.00128976975797977,-0.00349623138152032,-0.000458345932780386,0.00285134650253043,-0.00239300056975005
1.90177412375595,-0.0606782173172143,-0.00893765120140889,0.0517405661158055,0.0348079342593116,-0.0562093917165099,0.0214014574571983
1.90393768931199,-0.0848724112632039,-0.0109761453024128,0.0738962659607911,0.0479242782828083,-0.0793843386119975,0.0314600603291891
1.90610125486802,-0.0557083993634482,-0.00615128177869552,0.0495571175847526,0.0309298405710718,-0.0526327584741004,0.0217029179030286
1.90826482042406,0.00790724139250194,0.00249528902506167,-0.00541195236744028,-0.00520126520878181,0.00665959687997111,-0.0014583316711893
1.9104283859801,0.0657506541274452,0.00954608505658735,-0.0562045690708579,-0.0376483695920163,0.0609776115991515,-0.0233292420071353
1.91259195153613,0.0817351739339225,0.0106054987956873,-0.0711296751382352,-0.0461703363648049,0.0764324245360788,-0.030262088171274
1.91475551709217,0.0464418365493878,0.00504230882253936,-0.0413995277268484,-0.0257420726859636,0.0439206821381181,-0.0181786094521545
1.9169190826482,-0.0173517262297658,-0.00363552301724394,0.0137162032125219,0.0104936246235049,-0.0155339647211438,0.00504034009763896
1.91908264820424,-0.0693749579022632,-0.0099954381319206,0.0593795197703426,0.0396851980170919,-0.0643772388363029,0.024692040819211
1.92124621376028,-0.0773066793095192,-0.0100845547768471,0.0672221245326722,0.0436956170431831,-0.0722644019210957,0.0285687848779125
1.92340977931631,-0.0368687630305276,-0.0038882406307603,0.0329805223997673,0.020378501830644,-0.0349246427151475,0.0145461408845035
1.92557334487235,0.0259290493968621,0.00468728864914232,-0.0212417607477197,-0.0153081690230022,0.0235854050722909,-0.00827723604928871
1.92773691042839,0.0715248248562833,0.0102803089950311,-0.0612445158612522,-0.0409025669256572,0.0663846703587677,-0.0254821034331105
1.92990047598442,0.0717482856444911,0.00942913530950485,-0.0623191503349863,-0.040588710476998,0.0670337179897387,-0.0264450075127407
1.93206404154046,0.0272329210754924,0.00271582092265421,-0.0245171001528382,-0.0149743709990733,0.0258750106141653,-0.010900639615092
1.93422760709649,-0.0334709766282196,-0.00563025860511652,0.0278407180231031,0.0195506176166681,-0.0306558473256614,0.0111052297089933
1.93639117265253,-0.0722157396876096,-0.0103999181862349,0.0618158215013747,0.0413078289369223,-0.0670157805944922,0.0257079516575699
1.93855473820857,-0.0652481070189738,-0.00865844734595541,0.0565896596730184,0.0369532771824646,-0.0609188833459961,0.0239656061635315
1.9407183037646,-0.0177725210667076,-0.00155174535404798,0.0162207757126597,0.00966213321037781,-0.0169966483896837,0.00733451517930584
