t,leadI,leadII,leadIII,aVR,aVL,aVF
0,487,1018,531,-752.5,-22,774.5
0.00216122757726389,489,1019,530,-754,-20.5,774.5
0.00432245515452777,488.448348977145,1012.59891126321,524.150562286067,-750.523630120179,-17.8511066544611,768.37473677464
0.00648368273179166,484.584190892748,1007.74796021015,523.1637693174,-746.166075551448,-19.289789212326,765.455864763774
0.00864491030905554,490.353051475396,1022.81186236565,532.45881089025,-756.582456920521,-21.0528797074267,777.635336627948
0.0108061378863194,493.809113316355,1036.30322386079,542.494110544436,-765.056168588573,-24.3424986140405,789.398667202614
0.0129673654635833,489.897462375301,1033.24995636039,543.35249398509,-761.573709367847,-26.7275158048945,788.301225172741
0.0151285930408472,483.195933113669,1019.35675336539,536.160820251719,-751.276343239529,-26.4824435690253,777.758786808554
0.0172898206181111,480.108141006928,1019.29874653124,539.190605524313,-749.703443769084,-29.5412322586923,779.244676027776
0.019451048195375,481.433713301408,1017.05540804838,535.621694746973,-749.244560674894,-27.0939907227826,776.338551397677
0.0216122757726389,479.378413128675,1009.51446191115,530.136048782476,-744.446437519913,-25.3788178269004,769.825255346813
0.0237735033499027,484.799351828479,1010.2690290057,525.469677177217,-747.534190417088,-20.335162674369,767.869353091457
0.0259347309271666,492.996495414789,1027.31068055471,534.31418513992,-760.153587984749,-20.6588448625655,780.812432847314
0.0280959585044305,499.084071072696,1038.88349836587,539.799427293178,-768.983784719285,-20.3576781102411,789.341462829526
0.0302571860816944,493.847531091642,1032.06488358431,538.217352492668,-762.956207337975,-22.1849107005131,785.141118038488
0.0324184136589583,486.257371183748,1021.51363012466,535.256258940907,-753.885500654201,-24.4994438785796,778.384944532781
0.0345796412362222,485.399749859243,1017.8759979941,532.476248134862,-751.637873926674,-23.5382491378093,775.176123064483
0.0367408688134861,483.738763120188,1020.43514781735,536.696384697161,-752.086955468768,-26.4788107884865,778.565766257255
0.03890209639075,480.857406737765,1008.23796435484,527.38055761707,-744.5476855463,-23.2615754396523,767.809260985953
0.0410633239680138,485.720733326327,1013.22635192011,527.505618593785,-749.473542623219,-20.8924426337292,770.365985256949
0.0432245515452777,493.207818884961,1031.99645575304,538.788636868077,-762.602137318999,-22.7904089915581,785.392546310557
0.0453857791225416,494.349715064171,1035.4837344384,541.134019374224,-764.916724751283,-23.3921521550263,788.30887690631
0.0475470066998055,490.871865732801,1023.01074317302,532.138877440223,-756.941304452912,-20.6335058537115,777.574810306624
0.0497082342770694,489.964566414797,1018.92967025884,528.965103844045,-754.447118336819,-19.5002687146241,773.947387051443
0.0518694618543333,491.557570385232,1020.13970470432,528.58213431909,-755.848637544777,-18.5122819669293,774.360919511706
0.0540306894315971,488.679088024355,1014.15648990714,525.477401882786,-751.417788965748,-18.3991569292155,769.816945894963
0.056191917008861,484.795447789754,1008.1795130078,523.384065218047,-746.487480398778,-19.2943087141462,765.781789112924
0.0583531445861249,488.079963224352,1017.16626148313,529.086298258775,-752.623112353739,-20.5031675172116,773.126279870951
0.0605143721633888,492.817658374158,1034.2545376831,541.436879308946,-763.536098028631,-24.3096104673941,787.845708496025
0.0626755997406527,490.043965069467,1032.57580245421,542.531837384746,-761.30988376184,-26.2439361576395,787.55381991948
0.0648368273179166,487.380829678514,1019.73952141416,532.358691735648,-753.560175546338,-22.4889310285668,776.049106574905
0.0669980548951805,487.116133868003,1019.27226973865,532.156135870644,-753.194201803325,-22.5200010013203,775.714202804645
0.0691592824724444,490.262427168097,1019.73873373239,529.476306564295,-755.000580450245,-19.6069396980992,774.607520148344
0.0713205100497082,489.427872544024,1009.80491676282,520.377044218795,-749.616394653422,-15.4745858373853,765.090980490807
0.0734817376269721,489.42585272533,1007.65889469271,518.233041967384,-748.542373709022,-14.4035946210273,762.945968330049
0.075642965204236,495.663337959502,1024.44957185551,528.786233896013,-760.056454907508,-16.5614479682554,776.617902875764
0.0778041927814999,499.628041997711,1034.63278222532,535.00474022761,-767.130412111516,-17.6883491149492,784.818761226465
0.0799654203587638,492.30483109362,1028.72845614707,536.423625053447,-760.516643620344,-22.0593969799136,782.576040600258
0.0821266479360277,483.374898838066,1018.6193255489,535.244426710835,-750.997112193483,-25.9347639363846,776.931876129868
0.0842878755132915,481.447431389343,1020.07968220125,538.632250811904,-750.763556795295,-28.5924097112806,779.355966506576
0.0864491030905554,482.608157968833,1016.51474078106,533.906582812232,-749.561449374949,-25.6492124216996,775.210661796648
0.0886103306678193,477.544049899924,1007.95126132593,530.407211426006,-742.747655612927,-26.4315807630409,769.179236375968
0.0907715582450832,484.940767817216,1010.67204110586,525.73127328864,-747.806404461536,-20.3952527357119,768.201657197248
0.0929327858223471,494.982477569182,1027.31768448889,532.335206919706,-761.150081029035,-18.6763646752619,779.826445704296
0.095094013399611,502.240977496584,1037.05515972263,534.814182226048,-769.648068609608,-16.2866023647321,785.93467097434
0.0972552409768749,498.218139557478,1024.67962809207,526.461488534597,-761.448883824776,-14.1216744885594,775.570558313335
0.0994164685541388,497.882124957738,1018.77302950211,520.890904544368,-758.327577229922,-11.5043897933148,769.831967023237
0.101577696131403,495.91144317826,1021.82847582963,525.917032651366,-758.869959503943,-15.0027947365529,773.872754240496
0.103738923708667,491.862868320431,1017.56963521763,525.7067668972,-754.716251769031,-16.9219492883844,771.638201057416
0.10590015128593,488.230791267799,1008.07079635732,519.840005089525,-748.150793812562,-15.804606910863,763.955400723425
0.108061378863194,492.988501630599,1015.90094414766,522.912442517063,-754.444722889131,-14.961970443232,769.406693332362
0.110222606440458,503.788728413774,1033.08315216976,529.294423755986,-768.435940291767,-12.752847671106,781.188787962873
0.112383834017722,503.088565361349,1034.7836514744,531.695086113055,-768.936108417876,-14.3032603758528,783.239368793729
0.114545061594986,497.484178891409,1022.19881393597,524.714635044557,-759.841496413688,-13.6152280765738,773.456724490261
0.11670628917225,493.022387610426,1021.04289310438,528.020505493952,-757.032640357402,-17.4990589417632,774.531699299165
0.118867516749514,494.051399572556,1020.00598460248,525.954585029922,-757.028692087517,-15.9515927286831,772.9802848162
0.121028744326778,491.786440193576,1012.20728235703,520.420842163452,-751.996861275303,-14.317200984938,766.314062260241
0.123189971904042,494.507326295105,1012.60338121442,518.096054919318,-753.555353754764,-11.7943643121064,765.349718066871
0.125351199481305,504.352154527235,1021.81004023255,517.457885705313,-763.081097379892,-6.55286558903896,769.633962968931
0.127512427058569,511.774087116363,1036.18428382127,524.410196704908,-773.979185468817,-6.31805479427277,780.29724026309
0.129673654635833,510.323680274796,1028.31599987221,517.992319597419,-769.319840073505,-3.83431966131172,773.154159734817
0.131834882213097,504.220618267822,1020.765515447,516.544897179175,-762.49306685741,-6.16213945567665,768.655206313086
0.133996109790361,506.565541392775,1020.99761310278,514.432071710004,-763.781577247777,-3.93326515861446,767.714842406391
0.136157337367625,506.904841299546,1019.32057926459,512.415737965048,-763.112710282071,-2.75544833275097,765.868158614822
0.138318564944889,505.761698718305,1011.94466568819,506.182966969888,-758.853182203249,-0.21063412579133,759.06381632904
0.140479792522153,507.444590585636,1009.62463611718,502.180045531541,-758.534613351406,2.63227252704746,755.902340824359
0.142641020099416,514.739520448476,1026.69043970425,511.950919255773,-770.714980076362,1.39430059635151,769.320679480011
0.14480224767668,518.925622724085,1033.40525908914,514.479636365058,-776.165440906614,2.22299317951354,773.9424477271
0.146963475253944,514.426072834734,1024.43476707674,510.008694242006,-769.430419955737,2.20868929636413,767.221730659373
0.149124702831208,511.701261708528,1018.62287344486,506.921611736333,-765.162067576695,2.38982498609755,762.772242590597
0.151285930408472,511.202323920464,1022.08051830292,510.878194382455,-766.641421111691,0.16206476900453,766.479356342687
0.153447157985736,504.190475775372,1018.71230666433,514.521830888954,-761.451391219849,-5.16567755679102,766.61706877664
0.155608385563,501.011649200206,1009.34409662713,508.332447426925,-755.177872913669,-3.66039911335963,758.838272027028
0.157769613140264,501.112676452081,1015.04475885471,513.93208240263,-758.078717653396,-6.40970297527423,764.48842062867
0.159930840717528,508.667750834095,1030.83586029486,522.168109460763,-769.751805564477,-6.750179313334,776.501984877811
0.162092068294791,512.039301495794,1032.87585635172,520.836554855928,-772.457578923758,-4.39862668006674,776.856205603825
0.164253295872055,508.62883942972,1020.82591582719,512.197076397467,-764.727377628453,-1.7841184838735,766.511496112327
0.166414523449319,505.814761611624,1019.69517176591,513.880410154285,-762.754966688767,-4.03282427133053,766.787790960097
0.168575751026583,504.602927235563,1021.75497388038,517.152046644822,-763.178950557974,-6.27455970462978,769.453510262603
0.170736978603847,498.106178283454,1016.44612516767,518.339946884221,-757.276151725564,-10.1168843003835,767.393036025947
0.172898206181111,491.818939664241,1007.94798269511,516.129043030865,-749.883461179673,-12.1550516833117,762.038512862985
0.175059433758375,493.210016060713,1019.445618347,526.235602286288,-756.327817203857,-16.5127931127873,772.840610316645
0.177220661335639,497.880467252451,1032.60368413288,534.723216880431,-765.242075692667,-18.4213748139896,783.663450506656
0.179381888912903,494.547170465411,1029.95249144862,535.405320983206,-762.249830957014,-20.4290752588972,782.678906215911
0.181543116490166,490.397556422307,1024.07862036555,533.681063943244,-757.238088393929,-21.6417537604687,778.879842154398
0.18370434406743,490.338465510896,1017.65137630843,527.312910797534,-753.994920909663,-18.4872226433187,772.482143552982
0.185865571644694,490.423453845971,1019.65524626303,529.231792417057,-755.0393500545,-19.4041692855432,774.443519340043
0.188026799221958,482.786249750607,1013.03177570801,530.245525957404,-747.909012729309,-23.7296381033984,771.638650832707
0.190188026799222,478.301633649605,1010.06535382579,531.763720176185,-744.183493737698,-26.73104326329,770.914537000988
0.192349254376486,479.423177668584,1023.17711471923,543.753937050651,-751.30014619391,-32.1653796910331,783.465525884943
0.19451048195375,479.290179455879,1034.57793532651,555.287755870627,-756.934057391193,-37.9987882073742,794.932845598567
0.196671709531014,474.889405456769,1028.22411919723,553.334713740463,-751.556762327001,-39.2226541418472,790.779416468848
0.198832937108278,468.820447002758,1016.52288080986,547.702433807104,-742.67166390631,-39.4409934021731,782.112657308483
0.200994164685541,474.885303431873,1018.99503177959,544.109728347716,-746.940167605731,-34.6122124579218,781.552380063652
0.203155392262805,478.631078651462,1018.5959727822,539.964894130742,-748.613525716833,-30.6669077396397,779.280433456473
0.205316619840069,478.585310120091,1010.98034963502,532.395039514924,-744.782829877553,-26.9048646974164,771.687694574969
0.207477847417333,481.43084540838,1013.64046525506,532.209619846678,-747.535655331719,-25.389387219149,772.925042550868
0.209639074994597,491.552104801619,1027.51014981312,535.958045011496,-759.531127307367,-22.2029701049382,781.734097412305
0.211800302571861,496.055855692214,1034.73832127061,538.682465578397,-765.397088481412,-21.3133049430916,786.710393424504
0.213961530149125,494.146785451156,1022.49595546843,528.349170017275,-758.321370459793,-17.1011922830597,775.422562742853
0.216122757726389,492.655787427408,1017.30060614493,524.644818717521,-754.978196786168,-15.9945156450568,770.972712431225
0.218283985303652,492.54246207451,1020.15307002425,527.610607949744,-756.347766049381,-17.5340729376171,773.881838986998
0.220445212880916,488.874519560689,1016.66810558409,527.793586023402,-752.77131257239,-19.4595332313562,772.230845803747
0.22260644045818,485.104838294403,1009.84330735256,524.738469058155,-747.47407282348,-19.816815381876,767.290888205356
0.224767668035444,487.232809983205,1015.39757490182,528.164764918613,-751.315192442511,-20.4659774677043,771.781169910216
0.226928895612708,493.1135493567,1031.76800582159,538.654456464889,-762.440777589144,-22.7704535540945,785.211231143238
0.229090123189972,492.916084678627,1031.34290169803,538.426817019402,-762.129493188328,-22.7553661703874,784.884859358716
0.231251350767236,484.700696760654,1020.44099055233,535.740293791679,-752.570843656493,-25.5197985155124,778.090642172006
0.2334125783445,481.072709074961,1019.15451941013,538.081810335174,-750.113614242548,-28.5045506301065,778.618164872654
0.235573805921764,480.712654162577,1020.64040411634,539.92774995376,-750.676529139457,-29.6075478955915,780.284077035048
0.237735033499027,478.701146360491,1017.2477962541,538.546649893612,-747.974471307297,-29.9227517665603,777.897223073857
0.239896261076291,473.241505826118,1010.01803581042,536.7765299843,-741.629770818269,-31.7675120790907,773.397282897359
0.242057488653555,475.321442630067,1020.81089844265,545.489455812583,-748.066170536359,-35.0840065912581,783.150177127617
0.244218716230819,477.812242281657,1033.47889547434,555.666653192685,-755.645568877999,-38.927205455514,794.572774333513
0.246379943808083,475.29093257938,1026.97609508624,551.685162506858,-751.133513832809,-38.1971149637386,789.330628796548
0.248541171385347,474.859574690562,1017.5388173853,542.67924269474,-746.199196037932,-33.909834002089,780.109030040021
0.250702398962611,480.719862909522,1020.62279341886,539.902930509336,-750.67132816419,-29.5915337999073,780.262861964097
0.252863626539875,484.315971631843,1021.11214753733,536.796175905492,-752.714059584589,-26.2401021368243,778.954161721413
0.255024854117139,486.366115437447,1011.80984214068,525.443726703238,-749.087978789066,-19.5388056328957,768.626784421962
0.257186081694402,492.902792879721,1015.68460187403,522.781808994307,-754.293697376875,-14.9395080572928,769.233205434167
0.259347309271666,513.527006546591,1025.20839816653,511.681391619936,-769.367702356559,0.922807463327104,768.444894893232
0.26150853684893,538.019197327022,1034.43010876239,496.410911435369,-786.224653044706,20.8041429458262,765.42051009888
0.263669764426194,563.288898728747,1023.30860420146,460.019705472717,-793.298751465105,51.6345966280148,741.664154837091
0.265830992003458,596.20585678761,1017.95148756157,421.745630773963,-807.078672174591,87.2301130068234,719.848559167767
0.267992219580722,638.113343529732,1022.13291279337,384.019569263639,-830.123128161552,127.046887133046,703.076241028506
0.270153447157986,670.308414935832,1020.58660218646,350.278187250628,-845.447508561145,160.015113842602,685.432394718543
0.27231467473525,686.648094116739,1011.01840517113,324.37031105439,-848.833249643934,181.138891531175,667.694358112759
0.274475902312514,693.849603409312,1013.70093580951,319.851332400201,-853.775269609413,186.999135504555,666.776134104857
0.276637129889777,688.128236580419,1027.87820667349,339.749970093076,-858.003221626957,174.189133243671,683.814088383285
0.278798357467041,661.254122192322,1029.72395161301,368.469829420683,-845.489036902664,146.392146385819,699.096890516844
0.280959585044305,616.392877694705,1019.06693723116,402.674059536452,-817.729907462931,106.859409079127,710.870498383804
0.283120812621569,571.758039646829,1018.57577522752,446.817735580692,-795.166907437175,62.4701520330688,732.696755404106
0.285282040198833,537.333304253924,1024.09959016915,486.766285915225,-780.716447211537,25.2835091693496,755.432938042187
0.287443267776097,504.879015040827,1018.25122172453,513.372206683699,-761.565118382677,-4.24659582143602,765.811714204113
0.289604495353361,474.374487369296,1012.33383489982,537.959347530523,-743.354161134558,-31.7924300806133,775.146591215171
0.291765722930625,462.317199515957,1017.67314674213,555.355947226174,-739.995173129044,-46.5193738551084,786.514546984152
0.293926950507888,460.264850830999,1031.28471378476,571.01986295376,-745.774782307879,-55.3775060613806,801.15228836926
0.296088178085152,456.836829883724,1027.84237190075,571.005542017028,-742.339600892238,-57.0843560666516,799.42395695889
0.298249405662416,460.191244055632,1016.78967971755,556.598435661917,-738.49046188659,-48.2035958031427,786.694057689733
0.30041063323968,472.386921475464,1020.01406487028,547.627143394817,-746.200493172873,-37.6201109596767,783.82060413255
0.302571860816944,486.468736436336,1023.12658533238,536.65784889604,-754.797660884356,-25.0945562298521,779.892217114208
0.304733088394208,490.820096508517,1014.64493671299,523.824840204474,-752.732516610754,-16.5023718479787,769.234888458733
0.306894315971472,490.371980074397,1011.10821487197,520.736234797572,-750.740097473183,-15.1821273615874,765.92222483477
0.309055543548736,491.570552521989,1023.99352976324,532.42297724125,-757.782041142613,-20.4262123596304,778.208253502244
0.311216771126,492.291847421985,1033.00063584905,540.70878842706,-762.646241635515,-24.2084705025374,786.854712138052
0.313377998703263,478.668480614548,1025.3087299103,546.640249295749,-751.988605262423,-33.9858843406004,785.974489603023
0.315539226280527,471.73287123894,1017.75234332475,546.019472085812,-744.742607281846,-37.143300423436,781.885907705282
0.317700453857791,470.985184962217,1019.74407178872,548.758886826505,-745.364628375469,-38.8868509321442,784.251479307614
0.319861681435055,470.750259719888,1021.12592539002,550.375665670128,-745.938092554952,-39.8127029751197,785.750795530072
0.322022909012319,468.763529506228,1011.4258982427,542.662368736471,-740.094713874463,-36.9494196151216,777.044133489585
0.324184136589583,474.633814355257,1014.36800706967,539.734192714415,-744.500910712465,-32.5501891795789,777.051099892044
0.326345364166847,482.494234648609,1025.92315424977,543.428919601158,-754.208694449189,-30.4673424762744,784.676036925463
0.328506591744111,491.696267277446,1031.97534941123,540.279082133779,-761.835808344336,-24.2914074281665,786.127215772502
0.330667819321375,489.809375325749,1020.85796162014,531.04858629439,-755.333668472944,-20.6196054843206,775.953273957264
0.332829046898638,488.623785062987,1018.01147198111,529.387686918124,-753.317628522049,-20.3819509275683,773.699579449617
0.334990274475902,487.704287268586,1022.18429454735,534.480007278764,-754.944290907968,-23.387860005089,778.332150913057
0.337151502053166,484.061529489015,1019.1668700714,535.105340582387,-751.614199780208,-25.5219055466863,777.136105326894
0.33931272963043,477.326864013454,1011.07777468393,533.750910670472,-744.20231934869,-28.2120233285087,772.414342677199
0.341473957207694,479.387504294453,1016.78294298631,537.395438691855,-748.08522364038,-29.0039671987011,777.089190839081
0.343635184784958,484.938124157871,1030.83082802807,545.892703870201,-757.884476092971,-30.477289856165,788.361765949136
0.345796412362222,483.508215168906,1027.53731185803,544.029096689125,-755.522763513468,-30.2604407601099,785.783204273578
0.347957639939486,481.469265694268,1020.18373912243,538.714473428159,-750.826502408347,-28.6226038669457,779.449106275293
0.35011886751675,483.1199383701,1019.30630170105,536.186363330954,-751.213120035577,-26.5332124804268,777.746332516004
0.352280095094013,485.864332354392,1022.83397344295,536.969641088555,-754.349152898669,-25.5526543670815,779.901807265751
0.354441322671277,482.78674357839,1015.63961730987,532.852873731478,-749.213180444129,-25.0330650765438,774.246245520673
0.356602550248541,483.343763941793,1013.03597535262,529.69221141083,-748.189869647208,-23.1742237345186,771.364093381726
0.358763777825805,488.447034864202,1020.84681614415,532.39978127995,-754.646925504177,-21.976373207874,776.623298712051
0.360925005403069,492.769458605693,1034.2376410502,541.468182444509,-763.503549827948,-24.3493619194082,787.852911747356
0.363086232980333,491.983757750797,1029.21904774779,537.235289996993,-760.601402749293,-22.6257661230982,783.227168872391
0.365247460557597,489.634371255713,1016.65250150733,527.018130251621,-753.143436381524,-18.6918794979535,771.835315879477
0.367408688134861,493.887275166275,1020.1608830422,526.273607875929,-757.024079104239,-16.1931663548269,773.217245459066
0.369569915712124,495.644051776874,1021.45214135744,525.808089580568,-758.548096567158,-15.0820189018471,773.630115469005
0.371731143289388,490.590119976609,1013.16289132511,522.5727713485,-751.876505650858,-15.9913256859455,767.867831336804
0.373892370866652,491.087273097316,1011.47467374598,520.387400648664,-751.280973421648,-14.6500637756736,765.931037197322
0.376053598443916,499.548801753532,1027.8572815561,528.308479802567,-763.703041654816,-14.3798390245175,778.082880679334
0.37821482602118,502.780265781595,1029.87468344748,527.094417665882,-766.327474614536,-12.1570759421435,778.48455055668
0.380376053598444,500.275104209862,1024.68812712098,524.413022911114,-762.481615665419,-12.0689593506262,774.550575016045
0.382537281175708,499.421236466625,1019.49456297289,520.073326506265,-759.457899719757,-10.3260450198204,769.783944739578
0.384698508752972,505.690436282064,1022.99023058536,517.299794303301,-764.340333433714,-5.80467901061843,770.145012444333
0.386859736330236,505.917589081422,1023.9817356401,518.064146558682,-764.949662360763,-6.07327873862994,771.022941099393
0.389020963907499,500.667010104169,1012.22687984301,511.559869738844,-756.446944973591,-5.44642981733733,761.893374790929
0.391182191484763,501.515460658487,1015.2073442331,513.691883574616,-758.361402445795,-6.08821145806439,764.44961390386
0.393343419062027,507.367561181136,1028.17426882897,520.806707647832,-767.770915005052,-6.71957323334766,774.4904882384
0.395504646639291,507.039880616898,1030.05902152198,523.01914090508,-768.549451069438,-7.98963014409071,776.539081213529
0.397665874216555,497.813111702754,1018.71124875078,520.898137048027,-758.262180226767,-11.5425126726366,769.804692899403
0.399827101793819,496.818818125193,1016.54871982074,519.729901695543,-756.683768972964,-11.4555417851754,768.13931075814
0.401988329371083,500.11570407524,1024.17167127542,524.055967200183,-762.143687675332,-11.9701315624714,774.113819237803
0.404149556948347,500.697793089118,1017.61248204441,516.914688955289,-759.155137566762,-8.10844793308559,767.263585499848
0.406310784525611,497.33291253426,1012.39436484329,515.061452309027,-754.863638688773,-8.86426988738378,763.727908576157
0.408472012102874,504.456947501565,1018.86517587797,514.408228376403,-761.661061689767,-4.97564043741863,766.636702127185
0.410633239680138,513.465811880491,1029.21685424053,515.751042360039,-771.34133306051,-1.14261523977416,772.483948300285
0.412794467257402,516.537777369337,1026.12650826533,509.588730895995,-771.332142817335,3.47452323667085,767.857619580664
0.414955694834666,509.658689998596,1015.78478630045,506.126096301859,-762.721738149525,1.76629684836837,760.955441301157
0.41711692241193,506.613522272922,1018.37310403222,511.759581759301,-762.493313152573,-2.57302974318969,765.066342895762
0.419278149989194,506.312431506172,1024.33785182556,518.025420319393,-765.325141665868,-5.85649440661052,771.181636072479
0.421439377566458,504.595916003674,1019.93048574553,515.334569741856,-762.263200874602,-5.36932686909125,767.632527743693
0.423600605143722,501.800034239049,1011.92919089673,510.129156657684,-756.864612567891,-4.16456120931787,761.029173777209
0.425761832720986,505.516183214308,1021.85905093536,516.342867721053,-763.687617074835,-5.41334225337266,769.100959328208
0.427923060298249,506.646651553113,1031.72012724038,525.073475687266,-769.183389396746,-9.21341206707672,778.396801463823
0.430084287875513,505.757173194044,1021.75525894962,515.998085755574,-763.756216071831,-5.12045628076498,768.876672352596
0.432245515452777,509.271514066318,1015.18291101422,505.911396947899,-762.227212540268,1.68005855920956,760.547153981058
0.434406743030041,517.518789309636,1020.38791666701,502.869127357371,-768.953352988321,7.32483097613232,761.628522012189
0.436567970607305,523.708884592667,1021.30739067054,497.59850607787,-772.508137631603,13.0551892573986,759.452948374204
0.438729198184569,521.229582020518,1013.52604764961,492.296465629095,-767.377814835065,14.4665581957115,752.911256639353
0.440890425761833,524.761522565209,1013.94176406202,489.180241496814,-769.351643313617,17.7906405341975,751.561002779419
0.443051653339097,530.624907281599,1027.47473309631,496.849825814709,-779.049820188953,16.8875407334447,762.162279455509
0.445212880916361,532.446627830027,1028.54530987413,496.098682044098,-780.495968852076,18.1739728929645,762.321995959112
0.447374108493624,523.210196752297,1020.55756784696,497.347371094658,-771.883882299626,12.9314128288195,758.952469470807
0.449535336070888,521.489992110215,1017.83779170711,496.347799596899,-769.663891908664,12.5710962566578,757.092795652006
0.451696563648152,521.289117201406,1028.03905640419,506.749939202781,-774.664086802797,7.26958899931276,767.394497803484
0.453857791225416,514.718927989735,1019.29088874453,504.571960754796,-767.004908367133,5.07348361746955,761.931424749663
0.45601901880268,507.63874332761,1013.01249053377,505.37374720616,-760.32561693069,1.13249806072491,759.193118869965
0.458180246379944,508.522600960743,1019.10155447616,510.578953515417,-763.812077718451,-1.02817627733697,764.840253995788
0.460341473957208,512.885675250144,1029.10119414447,516.215518894322,-770.993434697305,-1.6649218220889,772.658356519394
0.462502701534472,514.047540062304,1026.09641858346,512.048878521152,-770.071979322879,0.999330770575966,769.072648552303
0.464663929111735,513.936315120817,1018.2019448714,504.265629750581,-766.069129996107,4.83534268511835,761.233787310989
0.466825156688999,520.215861205761,1018.48620540988,498.270344204123,-769.351033307823,10.9727585008192,758.378274807004
0.468986384266263,527.535154551302,1024.78038682602,497.245232274715,-776.15777068866,15.1449611382934,761.012809550366
0.471147611843527,527.262085627432,1018.67395428032,491.41186865289,-772.968019953878,17.9251084872711,755.042911466606
0.473308839420791,530.441247040108,1010.78360730661,480.342360266503,-770.61242717336,25.0494433868024,745.562983786557
0.475470066998055,536.610562735945,1021.90168056162,485.291117825674,-779.256121648782,25.6597224551357,753.596399193646
0.477631294575319,541.856051401721,1032.27091717744,490.414865775715,-787.063484289579,25.7205928130031,761.342891476576
0.479792522152583,537.553003227886,1024.85076771612,487.297764488238,-781.201885472005,25.1276193698241,756.07426610218
0.481953749729847,528.218605132667,1017.03846154504,488.819856412368,-772.628533338851,19.6993743601491,752.929158978702
0.48411497730711,527.219032375311,1021.6142324409,494.395200065586,-774.416632408104,16.4119161548626,758.004716253241
0.486276204884374,526.387440721712,1028.40340645282,502.015965731111,-777.395423587267,12.1857374953,765.209686091967
0.488437432461638,520.079196150263,1016.02167261251,495.942476462243,-768.050434381385,12.06835984401,755.982074537375
0.490598660038902,521.285847640638,1014.02097566466,492.735128024026,-767.653411652651,14.2753598083061,753.378051844345
0.492759887616166,530.592801771914,1024.68150369651,494.088701924597,-777.637152734213,18.2520499236585,759.385102810554
0.49492111519343,536.443206522971,1030.83929222927,494.396085706297,-783.64124937612,21.0235604083372,762.617688967783
0.497082342770694,536.598417353807,1019.55840160269,482.959984248885,-778.078409478249,26.8192165524611,751.259192925788
0.499243570347958,535.159300484255,1017.25154007722,482.092239592967,-776.205420280739,26.5335304456437,749.671889835095
0.501404797925222,540.270266594973,1023.5855421183,483.315275523331,-781.927904356638,28.4774955358207,753.450408820818
0.503566025502485,539.719521756604,1026.80624627171,487.086724515109,-783.262884014158,26.3163986207471,756.946485393411
0.505727253079749,534.092736349447,1011.92559944881,477.832863099359,-773.009167899127,28.1299366250438,744.879231274083
0.507888480657013,536.6750167367,1016.57666531954,479.901648582843,-776.625841028121,28.3866840769288,748.239156951193
0.510049708234277,541.325282111275,1026.77494271626,485.449660604985,-784.050112413767,27.937810753145,756.112301660622
0.512210935811541,543.537254140791,1028.96547801135,485.428223870555,-786.251366076069,29.0545151351179,757.196850940951
0.514372163388805,538.127229821608,1019.84498418234,481.717754360735,-778.986107001975,28.2047377304361,750.781369271539
0.516533390966069,538.802699396462,1017.59994098811,478.797241591653,-778.201320192288,30.0027289024045,748.198591289884
0.518694618543333,540.906592307497,1022.86754644641,481.960954138913,-781.887069376953,29.472819084292,752.414250292661
0.520855846120597,538.455000988198,1019.39653652141,480.941535533208,-778.925768754802,28.7567327274953,750.169036027307
0.52301707369786,533.648834159694,1017.01943224659,483.370598086893,-775.33413320314,25.1391180364005,750.195015166739
0.525178301275124,537.57477161173,1020.05527526863,482.480503656898,-778.815023440179,27.5471339774161,751.267889462763
0.527339528852388,542.327486432181,1030.60005608235,488.272569650172,-786.463771257267,27.0274583910041,759.436312866263
0.529500756429652,537.977699429757,1026.01374861018,488.036049180421,-781.995724019968,24.9708251246681,757.024898895299
0.531661984006916,527.217699793466,1018.16806909478,490.950369301316,-772.692884444124,18.1336652460751,754.559219198049
0.53382321158418,522.814248345107,1018.67257132956,495.858322984456,-770.743409837335,13.4779626803252,757.26544715701
0.535984439161444,520.922295932564,1023.08812414387,502.165828211303,-772.005210038215,9.37823386063036,762.626976177585
0.538145666738708,514.119001100323,1016.6721067052,502.553105604876,-765.395553902761,5.78294774772371,759.612606155037
0.540306894315971,511.107540534485,1013.48951499735,502.381974462862,-762.298527765915,4.3627830358115,757.935744730104
0.542468121893235,515.500796785727,1024.82235947781,509.321562692082,-770.161578131768,3.08961704682235,767.071961084946
0.544629349470499,519.174613292076,1028.82440472545,509.649791433371,-773.999509008762,4.76241092935243,769.237098079409
0.546790577047763,517.062198067003,1021.65815109872,504.595953031718,-769.360174582863,6.23312251764258,763.12705206522
0.548951804625027,512.986253589849,1016.8255651911,503.839311601251,-764.905909390475,4.5734709942991,760.332438396175
0.551113032202291,511.877363864768,1022.89589087588,511.018527011114,-767.386627370325,0.429418426827169,766.957208943498
0.553274259779555,508.381370851127,1022.09311870269,513.711747851566,-765.23724477691,-2.66518850021936,767.902433277129
0.555435487356819,500.979441451081,1016.22492999888,515.245488547803,-758.602185724982,-7.13302354836128,765.735209273343
0.557596714934083,499.156792777638,1014.3610216128,515.204228835163,-756.758907195219,-8.02371802876257,764.782625223982
0.559757942511346,503.139961807505,1026.21390414309,523.073942335583,-764.676932975297,-9.96699026403883,774.643923239336
0.56191917008861,504.386026319268,1031.54654256767,527.160516248397,-767.966284443466,-11.3872449645649,779.353529408031
0.564080397665874,499.491948670546,1017.60867237768,518.116723707134,-758.550310524113,-9.31238751829432,767.862698042407
0.566241625243138,498.435193701624,1016.77346098981,518.338267288183,-757.604327345715,-9.95153679327939,767.555864138994
0.568402852820402,500.639208507867,1023.66758012412,523.028371616258,-762.153394315996,-11.1945815541956,773.347975870191
0.570564080397666,499.280776800881,1022.06190991722,522.78113311634,-760.671343359052,-11.7501781577293,772.421521516781
0.57272530797493,495.217280594082,1013.63810259089,518.420821996808,-754.427691592486,-11.6017707013631,766.029462293849
0.574886535552194,494.682504282325,1019.36901442911,524.686510146787,-757.025759355719,-15.0020029322309,772.02776228795
0.577047763129457,503.326749790839,1028.59710333786,525.270353547019,-765.961926564348,-10.9718018780901,776.933728442438
0.579208990706721,502.124706257551,1026.01552446451,523.890818206957,-764.07011536103,-10.8830559747032,774.953171335733
0.581370218283985,497.396207551271,1018.48791390573,521.091706354463,-757.942060728502,-11.8477494015961,769.789810130098
0.583531445861249,495.317089101695,1018.67979475545,523.362705653756,-756.998441928573,-14.0228082760303,771.021250204603
0.585692673438513,496.013656301978,1026.48590206582,530.472245763842,-761.249779183899,-17.2292947309321,778.479073914832
0.587853901015777,489.027042030139,1018.37398069736,529.346938667223,-753.70051136375,-20.1599483185419,773.860459682292
0.590015128593041,487.189437178168,1013.33405795405,526.144620775877,-750.261747566106,-19.4775917988549,769.739339364961
0.592176356170305,493.462936469523,1020.98393155649,527.520995086971,-757.223434013009,-17.0290293087241,774.252463321733
0.594337583747569,498.67818469117,1028.55835378623,529.880169095065,-763.618269238702,-15.6009922019473,779.21926144065
0.596498811324833,492.425141725863,1024.82632543415,532.40118370829,-758.625733580008,-19.9880209912135,778.613754571221
0.598660038902096,488.90310749157,1016.60684164497,527.703734153399,-752.75497456827,-19.4003133309143,772.155287899184
0.60082126647936,490.411490375466,1022.00571712362,531.594226748155,-756.208603749544,-20.5913681863441,776.799971935888
0.602982494056624,492.830796197451,1023.08938434485,530.258588147394,-757.960090271148,-18.7138959749711,776.673986246119
0.605143721633888,492.780705925604,1015.68891867721,522.908212751608,-754.234812301407,-15.0637534130021,769.29856571441
0.607304949211152,491.767889259371,1013.48119031111,521.713301051734,-752.624539785238,-14.9727058961817,767.59724568142
0.609466176788416,503.215648742715,1026.53799840407,523.322349661353,-764.876823573391,-10.0533504593191,774.93017403271
0.61162740436568,508.374502460422,1028.91397679718,520.539474336758,-768.644239628801,-6.08248593816813,774.726725566969
0.613788631942944,500.767459719626,1019.58726332632,518.819803606696,-760.177361522974,-9.02617194353491,769.203533466509
0.615949859520208,495.049536056683,1015.07225814459,520.022722087904,-755.060897100635,-12.4865930156103,767.547490116246
0.618111087097471,494.528952519703,1024.1444718587,529.615519338993,-759.336712189199,-17.5432834096452,776.879995598845
0.620272314674735,494.268510390934,1021.52270310953,527.2541927186,-757.895606750234,-16.4928411638329,774.388447914067
0.622433542251999,486.931120052937,1015.58460057018,528.653480517245,-751.257860311559,-20.8611802321541,772.119040543713
0.624594769829263,487.007493070599,1015.91139639849,528.903903327886,-751.459444734542,-20.9482051286435,772.407649863186
0.626755997406527,493.464667106702,1032.38696320152,538.92229609482,-762.925815154112,-22.7288144940595,785.654629648171
0.628917224983791,496.211281921946,1026.88556970234,530.674287780397,-761.548425812145,-17.2315029292257,778.77992874137
0.631078452561055,492.466394328596,1018.02441535398,525.55802102538,-755.245404841286,-16.5458133483919,771.791218189677
0.633239680138319,495.844322229379,1018.68417301793,522.839850788549,-757.264247623653,-13.4977642795849,770.762011903238
0.635400907715582,500.222961443943,1029.54165848941,529.318697045464,-764.882309966675,-14.5478678007604,779.430177767435
0.637562135292846,497.068950006702,1021.06960890334,524.000658896636,-759.06927945502,-13.4658544449672,772.535133899987
0.63972336287011,492.391581995414,1012.55740480096,520.165822805549,-752.474493398188,-13.8871204050678,766.361613803256
0.641884590447374,495.590299386458,1018.22354315034,522.633243763878,-756.906921268396,-13.5214721887101,770.428393457106
0.644045818024638,499.303068556915,1027.99771470689,528.694646149972,-763.650391631901,-14.6957887965286,778.346180428429
0.646207045601902,494.856377144287,1024.98151460891,530.125137464622,-759.918945876598,-17.6343801601678,777.553326036766
0.648368273179166,487.837434660372,1016.63000536168,528.79257070131,-752.233720011027,-20.4775680204689,772.711288031496
0.65052950075643,492.957715565584,1021.97771259976,529.019997034176,-757.467714082672,-18.0311407342957,775.498854816968
0.652690728333694,500.271168460129,1025.74832214347,525.477153683337,-763.009745301797,-12.6029926116038,775.612737913401
0.654851955910957,500.617333874968,1019.26226017982,518.644926304856,-759.939797027396,-9.01379621494414,768.95359324234
0.657013183488221,498.500451084932,1012.93132049661,514.430869411682,-755.715885790773,-7.96520916337511,763.681094954148
0.659174411065485,502.374498361785,1022.81815358403,520.443655222246,-762.596325972908,-9.03457843023034,771.630904403139
0.661335638642749,510.47578405043,1029.10134736481,518.625563314376,-769.788565707618,-4.07488963197289,773.863455339591
0.663496866220013,508.328773302845,1019.74284175866,511.414068455813,-764.035807530751,-1.54264757648406,765.578455107235
0.665658093797277,507.775255262515,1016.57388959207,508.798634329551,-762.17457242729,-0.511689533517881,762.686261960808
0.667819321374541,511.182666405902,1022.34041139287,511.157744986964,-766.761538899384,0.0124607094690532,766.749078189915
0.669980548951805,505.877140275131,1024.69821638259,518.821076107456,-765.287678328859,-6.47196791616255,771.759646245021
0.672141776529068,501.443581402326,1016.72694802366,515.28336662133,-759.085264712991,-6.91989260950186,766.005157322493
0.674303004106332,502.393787944391,1015.70866482833,513.314876883944,-759.051226386362,-5.46054446977661,764.511770856139
0.676464231683596,507.927018033645,1025.02822156954,517.101203535897,-766.477619801594,-4.58709275112585,771.06471255272
0.67862545926086,507.725070830337,1028.7283067307,521.003235900368,-768.226688780521,-6.63908253501529,774.865771315536
0.680786686838124,501.879751082374,1018.88568742855,517.005936346178,-760.382719255463,-7.56309263190172,767.945811887365
0.682947914415388,498.383442785461,1016.77124539548,518.387802610022,-757.577344090472,-10.0021799122802,767.579524002752
0.685109141992652,500.090371263285,1025.18003039833,525.089659135047,-762.635200830809,-12.4996439358809,775.13484476669
0.687270369569916,500.869507729136,1020.5833161131,519.713808383961,-760.726411921117,-9.42215032741228,770.148562248529
0.68943159714718,497.676227104885,1013.09568418732,515.419457082432,-755.385955646101,-8.87161498877333,764.257570634874
0.691592824724444,503.809949893007,1017.60663810815,513.796688215141,-760.708294000578,-4.99336916106705,765.701663161645
0.693754052301707,510.934765846899,1027.20891790269,516.274152055791,-769.071841874795,-2.66969310444586,771.74153497924
0.695915279878971,512.348207942666,1026.1376254874,513.789417544734,-769.242916715033,-0.720604801034256,769.963521516067
0.698076507456235,504.825248828301,1016.93371106125,512.108462232951,-760.879479944777,-3.64160670232474,764.521086647102
0.700237735033499,505.458210105193,1021.88252414283,516.424314037634,-763.67036712401,-5.4830519662205,769.153419090231
0.702398962610763,506.668502183503,1024.03160560842,517.363103424921,-765.350053895963,-5.34730062070929,770.697354516673
0.704560190188027,499.676859375599,1017.8863203694,518.2094609938,-758.781589872499,-9.26630080910013,768.047890681599
0.706721417765291,495.569123897367,1013.76376496485,518.194641067484,-754.666444431109,-11.3127585850581,765.979203016167
0.708882645342555,498.457153485689,1021.07572283677,522.618569351077,-759.766438161228,-12.0807079326937,771.847146093921
0.711043872919819,505.171463284611,1029.97026477539,524.798801490777,-767.57086403,-9.8136691030827,777.384533133082
0.713205100497082,502.691102600761,1022.93020710876,520.239104508003,-762.810654854762,-8.77400095362145,771.584655808384
0.715366328074346,500.541552335092,1015.27078739653,514.729235061437,-757.906169865811,-7.09384136317203,765.000011228983
0.71752755565161,504.739276707565,1020.37273807067,515.63346136311,-762.55600738912,-5.44709232777245,768.003099716892
0.719688783228874,506.492424002509,1023.65187230515,517.159448302637,-765.072148153828,-5.33351215006422,770.405660303892
0.721850010806138,502.298961018311,1017.1680822904,514.869121272093,-759.733521654357,-6.2850801268911,766.018601781249
0.724011238383402,505.02816460551,1014.84508601916,509.816921413652,-759.936625312336,-2.39437840407135,762.331003716407
0.726172465960666,509.102793462083,1024.4611663685,515.358372906421,-766.781979915294,-3.12778972216864,769.909769637462
0.72833369353793,508.82770390337,1028.1982278013,519.370523897928,-768.512965852334,-5.27140999727925,773.784375849614
0.730494921115193,499.207439617365,1019.82757699497,520.620137377604,-759.517508306167,-10.7063488801191,770.223857186286
0.732656148692457,496.953846769766,1016.97906286842,520.025216098651,-756.966454819091,-11.5356846644425,768.502139483533
0.734817376269721,499.864744627075,1022.61041444031,522.745669813233,-761.237579533692,-11.4404625930791,772.678042126771
0.736978603846985,503.691839297695,1024.044542436,520.352703138301,-763.868190866845,-8.3304319203026,772.198622787148
0.739139831424249,502.211054606928,1015.00715486342,512.79610025649,-758.609104735173,-5.29252282478132,763.901627559954
0.741301059001513,505.13607994491,1017.19034742519,512.054267480282,-761.163213685051,-3.45909376768611,764.622307452737
0.743462286578777,512.37349393927,1028.12593808906,515.752444149794,-770.249716014167,-1.68947510526209,771.939191119429
0.745623514156041,512.760565418618,1027.1030998514,514.342534432787,-769.931832635011,-0.790984507084659,770.722817142096
0.747784741733305,511.00712750002,1017.43537992779,506.428252427773,-764.221253713907,2.28943753612356,761.931816177783
0.749945969310568,512.895559719684,1018.80338019909,505.907820479405,-765.849469959387,3.49386962013995,762.355600339247
0.752107196887832,515.732865137576,1026.03524480082,510.302379663239,-770.884054969196,2.71524273716886,768.168812232027
0.754268424465096,507.551625912688,1020.53901593901,512.987390026324,-764.04532092585,-2.71788205681764,766.763202982668
0.75642965204236,500.685784349181,1011.96451497368,511.278730624501,-756.325149661431,-5.29647313765975,761.621622799091
0.758590879619624,501.660325827844,1020.38740772659,518.727081898744,-761.023866777216,-8.53337803545008,769.557244812666
0.760752107196888,504.001103101537,1029.53358618716,525.532483085622,-766.767344644348,-10.7656899920424,777.53303463639
0.762913334774152,500.312172288056,1024.12011512976,523.807942841706,-762.216143708909,-11.7478852768252,773.964028985734
0.765074562351416,495.530365670243,1015.21308455656,519.682718886314,-755.3717251134,-12.0761766080356,767.447901721436
0.767235789928679,498.149896537795,1020.27140681959,522.121510281796,-759.210651678692,-11.9858068720007,771.196458550693
0.769397017505943,501.719310012432,1027.28063117692,525.561321164488,-764.499970594676,-11.9210055760277,776.420976170704
0.771558245083207,501.039200378827,1017.70414888487,516.664948506047,-759.371674631851,-7.81287406361002,767.184548695461
0.773719472660471,502.779318040872,1017.30836207119,514.529044030318,-760.043840056032,-5.87486299472283,765.918703050754
0.775880700237735,509.320017781739,1022.83354490719,513.513527125455,-766.076781344467,-2.09675467185815,768.173536016325
0.778041927814999,514.974285409813,1029.47721707828,514.502931668466,-772.225751244046,0.235676870673728,771.990074373372
0.780203155392263,508.706309488935,1017.95288264679,509.246573157859,-763.329596067865,-0.27013183446229,763.599727902327
0.782364382969527,506.59266237511,1017.39226378915,510.799601414036,-761.992463082128,-2.10346951946303,764.095932601591
0.784525610546791,508.498073640008,1021.75096911572,513.252895475709,-765.124521377863,-2.37741091785011,767.501932295713
0.786686838124054,507.374929955256,1025.19218849911,517.817258543858,-766.283559227185,-5.22116429430059,771.504723521486
0.788848065701318,501.866709762985,1015.13543093789,513.268721174902,-758.501070350436,-5.70100570595861,764.202076056394
0.791009293278582,504.606323857692,1016.02031023073,511.413986373037,-760.313317044211,-3.40383125767227,763.717148301883
0.793170520855846,511.716088968148,1024.86225313784,513.146164169689,-768.289171052992,-0.715037600770586,769.004208653763
0.79533174843311,513.096869531009,1028.9727272615,515.87585773049,-771.034798396254,-1.38949409974077,772.424292495994
0.797492976010374,504.296190695501,1016.21314151717,511.916950821671,-760.254666106336,-3.81038006308484,764.065046169421
0.799654203587638,503.355757932614,1015.80303883768,512.447280905066,-759.579398385147,-4.54576148622607,764.125159871373
0.801815431164902,507.546880267333,1024.65611928126,517.109239013928,-766.101499774297,-4.78117937329739,770.882679147594
0.803976658742166,502.395376515528,1022.03998810281,519.644611587284,-762.21768230917,-8.62461753587769,770.842299845048
0.80613788631943,499.078461318055,1013.47598388284,514.397522564784,-756.277222600447,-7.65953062336467,763.936753223812
0.808299113896693,504.918929359292,1018.82447428733,513.905544928037,-761.871701823311,-4.49330778437212,766.365009607683
0.810460341473957,511.563193573339,1029.87285682935,518.309663256014,-770.718025201346,-3.37323484133731,774.091260042683
0.812621569051221,511.670477642019,1025.33013860778,513.659660965762,-768.5003081249,-0.994591661871596,769.494899786772
0.814782796628485,508.410424414736,1014.45350596106,506.043081546326,-761.431965187899,1.18367143420483,760.248293753694
0.816944024205749,510.600426818575,1019.09796616618,508.4975393476,-764.849196492375,1.05144373548717,763.797752756888
0.819105251783013,517.150824986035,1026.51950493333,509.368679947296,-771.835164959682,3.89107251936957,767.944092440313
0.821266479360277,515.092822030721,1021.27619608427,506.183374053548,-768.184509057495,4.4547239885863,763.729785068909
0.823427706937541,513.77950388095,1015.09321706724,501.31371318629,-764.436360474095,6.23289534732999,758.203465126765
0.825588934514804,516.507295179014,1019.18286136355,502.675566184534,-767.845078271281,6.91586449723968,760.929213774041
0.827750162092068,519.91298584457,1029.50995865407,509.596972809503,-774.711472249321,5.15800651753352,769.553465731788
0.829911389669332,518.184120538384,1022.21706928018,504.032948741795,-770.200594909281,7.07558589829432,763.125009010987
0.832072617246596,517.285614480269,1016.0376869229,498.75207244263,-766.661650701584,9.26677101881978,757.394879682764
0.83423384482386,519.035841194333,1021.703983994,502.668142799671,-770.369912594169,8.18384919733109,762.186063396838
0.836395072401124,521.010240717269,1027.06054908346,506.050308366192,-774.035394900365,7.47996617553827,766.555428724827
0.838556299978388,513.650307689759,1016.45916156847,502.80885387871,-765.054734629114,5.4207269055243,759.63400772359
0.840717527555652,515.208932157121,1013.13314408335,497.924211926231,-764.171038120237,8.64236011544534,755.528678004792
0.842878755132916,522.052462589923,1025.43689822261,503.384435632689,-773.744680406267,9.33401347861673,764.410666927651
0.845039982710179,522.410161829225,1027.6180447684,505.207882939176,-775.014103298813,8.60113944502416,766.412963853788
0.847201210287443,520.671901630415,1019.21303678076,498.541135150342,-769.942469205586,11.0653832400363,758.877085965549
0.849362437864707,518.831953853111,1015.94758790469,497.115634051577,-767.3897708789,10.8581599007672,756.531610978132
0.851523665441971,526.337096792358,1024.99861232257,498.661515530215,-775.667854557466,13.8377906310717,761.830063926394
0.853684893019235,527.228066233063,1021.38109287389,494.153026640825,-774.304579553475,16.5375197961192,757.767059757356
0.855846120596499,521.465440219992,1014.31197420395,492.846533983957,-767.88870721197,14.3094531180178,753.579254093953
0.858007348173763,523.251324529762,1017.43682249351,494.185497963745,-770.344073511635,14.5329132830085,755.811160228626
0.860168575751027,526.305622183425,1027.93110092186,501.625478738431,-777.11836155264,12.3400717224969,764.778289830143
0.86232980332829,526.384158907039,1025.42577570072,499.041616793676,-775.904967303877,13.6712710566818,762.233696247195
0.864491030905554,519.638451055837,1015.9582175317,496.319766475868,-767.798334293771,11.6593422899845,756.138992003786
0.866652258482818,519.969246189957,1018.94447923881,498.975233048851,-769.456862714382,10.497006570553,758.959856143829
0.868813486060082,524.118661431446,1026.43869536758,502.320033936132,-775.278678399512,10.8993137476571,764.379364651855
0.870974713637346,517.893722033534,1021.84322968947,503.949507655934,-769.868475861501,6.97210718879961,762.896368672701
0.87313594121461,515.883239252281,1014.24535353046,498.362114278179,-765.06429639137,8.76056248705089,756.303733904319
0.875297168791874,519.738897830646,1019.5552783011,499.81638047045,-769.647088065871,9.96125868009824,759.685829385773
0.877458396369138,525.820829922353,1027.21372082985,501.392890907492,-776.517275376099,12.2139695074304,764.303305868669
0.879619623946402,521.796803724233,1026.49105748369,504.69425375946,-774.143930603963,8.55127498238619,765.592655621577
0.881780851523665,518.166633936631,1015.9294645153,497.762830578672,-767.048049225967,10.2019016789791,756.846147546988
0.883942079100929,519.406125007572,1019.5411022375,500.13497722993,-769.473613622537,9.6355738888206,759.838039733716
0.886103306678193,519.322478398888,1025.65235689873,506.329878499845,-772.487417648811,6.49629994952159,765.991117699289
0.888264534255457,511.488845123394,1016.98463239547,505.495787272076,-764.236738759432,2.99652892565939,761.240209833773
0.890425761832721,504.018590124903,1013.59602154841,509.577431423506,-758.807305836655,-2.7794206493017,761.586726485957
0.892586989409985,506.266944910394,1025.87507744965,519.608132539258,-766.071011180023,-6.67059381443175,772.741604994455
0.894748216987249,508.537276622519,1027.9535308342,519.416254211678,-768.245403728358,-5.43948879457986,773.684892522938
0.896909444564513,506.256871058335,1019.30229664495,513.045425586613,-762.779583851642,-3.39427726413857,766.17386111578
0.899070672141777,502.499389218672,1014.2719299849,511.772540766224,-758.385659601784,-4.63657577377626,763.02223537556
0.90123189971904,505.730754413642,1025.1193085493,519.388554135655,-765.425031481469,-6.82889986100673,772.253931342476
0.903393127296304,505.669854744288,1025.54936502993,519.879510285638,-765.609609887108,-7.10482777067494,772.714437657783
0.905554354873568,502.123717454918,1015.41472377245,513.291006317535,-758.769220613686,-5.58364443130858,764.352865044994
0.907715582450832,500.762695939057,1018.28121498625,517.518519047196,-759.521955462655,-8.37791155406956,767.899867016725
0.909876810028096,504.58165951701,1024.76605109334,520.184391576328,-764.673855305174,-7.80136602965888,772.475221334833
0.91203803760536,504.687153453885,1030.3699511221,525.682797668214,-767.528552287991,-10.4978221071646,778.026374395156
0.914199265182624,500.016479812875,1015.67767769044,515.661197877566,-757.847078751657,-7.8223590323455,765.669437784003
0.916360492759888,504.397029757926,1017.87222765465,513.475197896723,-761.134628706287,-4.53908406939843,765.673712775686
0.918521720337152,510.744114971679,1029.05805538231,518.31394041063,-769.901085176994,-3.78491271947541,773.685997896469
0.920682947914415,513.524663094116,1021.33347833025,507.808815236136,-767.429070712183,2.85792392898986,764.571146783194
0.922844175491679,512.113228456312,1014.74723683198,502.634008375664,-763.430232644144,4.73961004032401,758.69062260382
0.925005403068943,512.012867256617,1019.02693852619,507.014071269568,-765.519902891401,2.49939799352416,763.020504897877
0.927166630646207,507.597273458912,1028.62550788261,521.0282344237,-768.111390670762,-6.71548048239407,774.826871153156
0.929327858223471,500.601636774042,1022.69565707099,522.094020296947,-761.648646922515,-10.7461917614528,772.394838683968
0.931489085800735,490.468782047946,1016.11613908673,525.647357038787,-753.29246056734,-17.5892874954202,770.88174806276
0.933650313377999,493.659520276068,1018.31267248966,524.653152213587,-755.986096382862,-15.4968159687594,771.482912351621
0.935811540955263,496.975532553763,1026.87839651246,529.902863958693,-761.92696453311,-16.4636657024649,778.390630235575
0.937972768532527,496.932216499562,1020.51490452115,523.582688021593,-758.723560510358,-13.3252357610154,772.048796271373
0.94013399610979,495.846183438819,1012.35513174623,516.508948307409,-754.100657592523,-10.3313824342949,764.432040026818
0.942295223687054,501.561461636032,1021.29435920601,519.732897569981,-761.427910421022,-9.08571796697424,770.513628387997
0.944456451264318,508.753145139186,1028.10335168876,519.350206549575,-768.428248413974,-5.29853070519454,773.726779119169
0.946617678841582,506.010944236999,1021.59166390495,515.580719667948,-763.801304070973,-4.7848877154745,768.586191786448
0.948778906418846,506.319077543018,1014.86209485147,508.543017308451,-760.590586197244,-1.11196988271615,761.70255607996
0.95094013399611,511.093757336236,1022.01600312806,510.922245791827,-766.554880232149,0.0857557722043794,766.469124459945
0.953101361573374,505.920395222943,1025.38646005227,519.466064829329,-765.653427637608,-6.77283480319301,772.426262440801
0.955262589150638,496.636074032986,1017.70588680068,521.069812767691,-757.170980416831,-12.2168693673528,769.387849784184
0.957423816727901,490.337203098025,1016.39130425008,526.05410115206,-753.364253674055,-17.8584490270179,771.222702701073
0.959585044305165,494.997568215061,1024.43249314488,529.434924929821,-759.715030679971,-17.2186783573803,776.933709037352
0.961746271882429,495.170075567952,1028.11344988788,532.943374319925,-761.641762727915,-18.8866493759865,780.528412103901
0.963907499459693,493.647357919569,1017.67681610106,524.029458181486,-755.662087010312,-15.1910501309584,770.853137141271
0.966068727036957,495.956961635397,1016.95437308022,520.997411444823,-756.455667357808,-12.5202249047133,768.975892262521
0.968229954614221,503.209890673248,1024.35030224167,521.140411568422,-763.780096457459,-8.96526044758707,772.745356905046
0.970391182191485,507.936878621683,1024.65220668992,516.715328068235,-766.2945426558,-4.38922472327596,770.683767379076
0.972552409768749,515.38094277783,1017.51375679374,502.132814015909,-766.447349785785,6.62406438096031,759.823285404824
0.974713637346013,533.338471682042,1015.65478936973,482.31631768769,-774.496630525887,25.5110769971761,748.985553528711
0.976874864923276,564.360343065701,1025.8185114384,461.458168372699,-795.08942725205,51.4510873465013,743.638339905549
0.97903609250054,596.045619213326,1025.90914016358,429.863520950254,-810.977379688453,83.0910491315361,727.886330556917
0.981197320077804,622.906243858271,1014.59965506475,391.693411206476,-818.752949461509,115.606416325898,703.146533135611
0.983358547655068,660.070293965839,1023.10118061445,363.030886648607,-841.585737290142,148.519703658616,693.066033631527
0.985519775232332,694.38235589987,1028.74222964677,334.359873746897,-861.562292773319,180.011241076487,681.551051696832
0.987681002809596,710.230066390429,1019.98878280037,309.758716409945,-865.109424595402,200.235674990242,664.87374960516
0.98984223038686,705.920725427,1014.44162590866,308.520900481665,-860.181175667832,198.699912472668,661.481263195165
0.992003457964124,690.181670979485,1020.72470783799,330.543036858502,-855.453189408736,179.819317060491,675.633872348244
0.994164685541387,667.838942890743,1026.9680896004,359.129146709655,-847.403516245571,154.354898090544,693.048618155027
0.996325913118651,626.005418682552,1023.95490969257,397.949491010018,-824.98016418756,114.027963836267,710.952200351294
0.998487140695915,578.329271913015,1015.73923855052,437.409966637508,-797.03425523177,70.4596526377537,726.574602594016
1.00064836827318,540.50450829972,1023.78872152485,483.284213225129,-782.146614912285,28.6101475372953,753.536467374989
1.00280959585044,512.280349957983,1025.8876975504,513.60734759242,-769.084023754193,-0.663498817218624,769.747522571411
1.00497082342771,489.421841982576,1021.09601100482,531.674169022244,-755.258926493698,-21.1261635198341,776.385090013532
1.00713205100497,473.149584136794,1014.77994770782,541.630363571031,-743.964765922309,-34.2403897171183,778.205155639428
1.00929327858223,469.230225256218,1025.98666172486,556.756436468647,-747.608443490542,-43.7631056062145,791.371549096756
1.0114545061595,468.282410428012,1027.65103152211,559.368621094095,-747.96672097506,-45.5431053330412,793.509826308101
1.01361573373676,464.286857596804,1021.87986843452,557.593010837711,-743.08336301566,-46.6530766204535,789.736439636113
1.01577696131403,468.708411373887,1016.24686425246,547.538452878575,-742.477637813175,-39.4150207523437,781.892658565518
1.01793818889129,480.521274455084,1024.40036043548,543.879085980397,-752.460817445282,-31.6789057626567,784.139723207939
1.02009941646855,491.126900493113,1028.71901798792,537.592117494808,-759.922959240516,-23.2326085008475,783.155567741364
1.02226064404582,493.73432518135,1014.50010384645,520.765778665098,-754.117214513899,-13.5157267418738,767.632941255773
1.02442187162308,499.764557198124,1014.48684454324,514.722287345121,-757.125700870684,-7.47886507349847,764.604565944182
1.02658309920035,506.818436465655,1024.76491593698,517.946479471321,-765.791676201316,-5.56402150283293,771.355697704149
1.02874432677761,503.895964003282,1024.95512691137,521.059162908089,-764.425545457327,-8.58159945240351,773.00714490973
1.03090555435487,492.184017282919,1017.36472772519,525.180710442266,-754.774372504052,-16.4983465796734,771.272719083726
1.03306678193214,489.505332488162,1019.98400619321,530.478673705043,-754.744669340684,-20.4866706084406,775.231339949124
1.0352280095094,490.55181603604,1025.30463743483,534.752821398795,-757.928226735437,-22.1005026813774,780.028729416815
1.03738923708667,489.206649241394,1025.43058093292,536.223931691527,-757.318615087157,-23.5086412250668,780.827256312224
1.03955046466393,484.082170805756,1014.84046042641,530.75828962065,-749.461315616081,-23.3380594074467,772.799375023528
1.04171169224119,484.104290784582,1018.22193252245,534.117641737865,-751.163111653514,-25.0066754766418,776.169787130156
1.04387291981846,485.480581440664,1027.53625215407,542.055670713402,-756.508416797365,-28.2875446363692,784.795961433734
1.04603414739572,486.466899347113,1022.29271024314,535.825810896026,-754.379804795126,-24.6794557744562,779.059260569582
1.04819537497298,486.504910935211,1016.92664111119,530.421730175978,-751.7157760232,-21.9584096203839,773.674185643584
1.05035660255025,491.728741927483,1020.51223442573,528.783492498249,-756.120488176607,-18.5273752853831,774.64786346199
1.05251783012751,504.884295357416,1027.06029784404,522.176002486627,-765.972296600729,-8.6458535646056,774.618150165335
1.05467905770478,506.661044112616,1020.53628169038,513.875237577768,-763.5986629015,-3.60709673257634,767.205759634076
1.05684028528204,503.70610503242,1013.49089251518,509.784787482763,-758.598498773801,-3.03934122517171,761.637839998973
1.0590015128593,508.741366659583,1020.45406648851,511.71269982893,-764.597716574048,-1.48566658467348,766.083383158721
1.06116274043657,509.007202913677,1028.90721424459,519.900011330914,-768.957208579134,-5.4464042086185,774.403612787752
1.06332396801383,500.201426219529,1019.19547753985,518.994051320316,-759.698451879687,-9.39631255039308,769.09476443008
1.0654851955911,494.491771398389,1015.81262221293,521.320850814542,-755.15219680566,-13.4145397080766,768.566736513737
1.06764642316836,496.032963376808,1022.25088234134,526.217918964536,-759.141922859077,-15.092477793864,774.234400652941
1.06980765074562,498.556880927398,1025.48732584193,526.930444914537,-762.022103384666,-14.1867819935698,776.208885378236
1.07196887832289,494.29306750873,1019.71400749681,525.420939988075,-757.003537502768,-15.5639362396724,772.56747374244
1.07413010590015,493.30128808388,1014.55663477642,521.255346692544,-753.928961430152,-13.9770293043319,767.905990734484
1.07629133347742,501.210564375581,1025.52997687903,524.319412503447,-763.370270627305,-11.5544240639331,774.924694691238
1.07845256105468,502.355343082225,1024.83076350179,522.475420419567,-763.593053292009,-10.0600386686712,773.65309196068
1.08061378863194,497.722578901562,1017.38584065752,519.663261755956,-757.55420977954,-10.9703414271965,768.524551206737
1.08277501620921,496.043254386056,1016.03282472674,519.989570340684,-756.038039556398,-11.9731579773139,768.011197533712
1.08493624378647,502.19065539307,1025.55572751682,523.365072123752,-763.873191454946,-10.5872083653415,774.460399820287
1.08709747136373,505.730596287729,1024.64571885668,518.915122568952,-765.188157572205,-6.59226314061175,771.780420712817
1.089258698941,502.237049653889,1016.51850425078,514.281454596888,-759.377776952333,-6.02220247149938,765.399979423833
1.09141992651826,510.424561995431,1019.84553998745,509.420977992022,-765.135050991442,0.501792001704075,764.633258989738
1.09358115409553,520.406368244128,1026.83761385421,506.431245610082,-773.621991049169,6.98756131702316,766.634429732145
1.09574238167279,522.229088701302,1025.58808729699,503.358998595687,-773.908587999145,9.43504505280771,764.473542946338
1.09790360925005,516.58720307452,1016.40077975219,499.81357667767,-766.493991413355,8.38681319842465,758.10717821493
1.10006483682732,514.138308484795,1022.26591775746,508.127609272661,-768.202113121126,3.005349606067,765.196763515059
1.10222606440458,516.117428443689,1024.91020242974,508.792773986047,-770.513815436713,3.66232722882125,766.851488207891
1.10438729198185,512.686985397175,1021.9934972582,509.306511861027,-767.340241327689,1.69023676807399,765.650004559615
1.10654851955911,508.870872995683,1014.52479816826,505.653925172574,-761.69783558197,1.60847391155465,760.089361670416
1.10870974713637,509.931693371908,1020.90978343721,510.978090065297,-765.420738404557,-0.523198346694357,765.943936751251
1.11087097471364,514.794571755258,1028.85604695204,514.061475196781,-771.825309353649,0.366548279238486,771.45876107441
1.1130322022909,509.625948010415,1020.57779295713,510.951844946717,-765.101870483773,-0.662948468151455,765.764818951925
1.11519342986817,510.241625415033,1016.65175671673,506.4101313017,-763.446691065883,1.91574705666619,761.530944009217
1.11735465744543,516.545273116525,1025.00340399013,508.458130873601,-770.774338553325,4.04357112146204,766.730767431863
1.11951588502269,521.132504051282,1024.98451844503,503.852014393744,-773.058511248153,8.64024482876891,764.418266419385
1.12167711259996,516.112799602982,1018.06687169978,501.954072096795,-767.089835651379,7.07936375309373,760.010471898286
1.12383834017722,511.971480010361,1014.92912389315,502.957643882789,-763.450301951755,4.50691806378615,758.943383887969
1.12599956775448,513.559093900897,1023.11612785484,509.557033953938,-768.337610877866,2.00102997347955,766.336580904387
1.12816079533175,513.705002833739,1027.41848558915,513.713482755407,-770.561744211443,-0.00423996083429756,770.565984172277
1.13032202290901,511.265371138344,1019.53894698581,508.273575847466,-765.402159062077,1.4958976454389,763.906261416638
1.13248325048628,510.632008264379,1014.27541201072,503.643403746346,-762.453710137552,3.49430225901654,758.959407878535
1.13464447806354,518.823280244207,1028.61895499562,509.795674751413,-773.721117619914,4.51380274639712,769.207314873517
1.1368057056408,521.370986514999,1023.72713430347,502.356147788469,-772.549060409234,9.50741936326534,763.041641045968
1.13896693321807,522.68420227792,1016.51162661796,493.827424340037,-769.597914447938,14.4283889689414,755.169525478997
1.14112816079533,523.791483365345,1015.66641020921,491.874926843867,-769.728946787279,15.9582782607392,753.770668526539
1.1432893883726,531.048884361034,1026.82312890616,495.774244545131,-778.9360066336,17.6373199079519,761.298686725648
1.14545061594986,528.958701350765,1026.64463502698,497.685933676219,-777.801668188874,15.636383837273,762.165284351601
1.14761184352712,520.032852082702,1016.09222377638,496.059371693678,-768.062537929541,11.9867401945117,756.075797735029
1.14977307110439,521.54637380447,1015.11168960198,493.565315797514,-768.329031703227,13.9905290034785,754.338502699749
1.15193429868165,527.834174459629,1026.50471453739,498.670540077766,-777.169444498512,14.5818171909316,762.58762730758
1.15409552625891,527.236895298061,1023.42252865671,496.185633358645,-775.329711977383,15.5256309697079,759.804081007675
1.15625675383618,519.86097282626,1013.90470445561,494.043731629346,-766.882838640933,12.9086205984568,753.974218042476
1.15841798141344,521.21375127822,1019.41342522001,498.199673941795,-770.313588249117,11.5070386682125,758.806549580905
1.16057920899071,522.893807964835,1027.46261345634,504.568805491506,-775.178210710588,9.16250123666464,766.015709473924
1.16274043656797,522.605431420793,1021.9154819976,499.310050576811,-772.260456709199,11.6476904219912,760.612766287208
1.16490166414523,521.401991505937,1016.76410056185,495.362109055909,-769.083046033891,13.019941225014,756.063104808877
1.1670628917225,523.864246658021,1020.71418286214,496.849936204117,-772.289214760079,13.5071552269522,758.782059533127
1.16922411929976,524.130610140878,1026.21524743118,502.084637290305,-775.172928786031,11.0229864252866,764.149942360744
1.17138534687703,520.706177012501,1020.5348156529,499.828638640402,-770.620496332702,10.4387691860497,760.181727146653
1.17354657445429,519.72203357906,1015.61567543733,495.893641858272,-767.668854508196,11.9141958603938,755.754658647802
1.17570780203155,527.866933345523,1021.61427208886,493.747338743338,-774.740602717192,17.0597973010927,757.6808054161
1.17786902960882,537.021230466511,1026.72151334243,489.700282875918,-781.87137190447,23.660473795297,758.210898109173
1.18003025718608,534.898280709068,1020.84783226222,485.949551553154,-777.873056485645,24.4743645779571,753.398691907688
1.18219148476335,537.280779379728,1018.77767080259,481.496891422865,-778.02922509116,27.8919439784314,750.137281112729
1.18435271234061,539.385146430703,1022.48886068176,483.103714251055,-780.93700355623,28.140716089824,752.796287466406
1.18651393991787,540.0433538906,1027.58390001755,487.540546126948,-783.813626954074,26.2514038818257,757.562223072248
1.18867516749514,532.374981938707,1017.70433895375,485.329357015039,-775.039660446227,23.522812461834,751.516847984393
1.1908363950724,530.305955621995,1015.72723834023,485.42128271823,-773.016596981111,22.4423364518826,750.574260529228
1.19299762264967,535.431468498463,1026.61632275233,491.184854253867,-781.023895625396,22.1233071222981,758.900588503098
1.19515885022693,538.412651283067,1025.53501315186,487.122361868791,-781.973832217462,25.645144707138,756.328687510324
1.19732007780419,537.447964826001,1019.06234524263,481.614380416628,-778.255155034315,27.9167922046864,750.338362829628
1.19948130538146,536.988882096959,1016.10782541128,479.118943314318,-776.548353754118,28.9349693913202,747.613384362798
1.20164253295872,540.62592479232,1026.79807725321,486.172152460888,-783.712001022764,27.226886165716,756.485114857048
1.20380376053598,539.080430382748,1022.69943670165,483.619006318901,-780.889933542198,27.7307120319232,753.159221510275
1.20596498811325,531.262407407379,1014.58997061774,483.327563210364,-772.92618901256,23.9674220985075,748.958766914053
1.20812621569051,534.503224903125,1021.04209684338,486.538871940252,-777.772660873251,23.9821764814362,753.790484391815
1.21028744326778,539.558834943752,1027.78550595128,488.226671007527,-783.672170447515,25.6660819681127,758.006088479403
1.21244867084504,545.160124844889,1025.1707309544,480.010606109508,-785.165427899643,32.5747593676903,752.590668531952
1.2146098984223,539.397118298696,1015.14551006934,475.748391770647,-777.27131418402,31.8243632640246,745.446950919996
1.21677112599957,540.238802637014,1017.44030760612,477.201504969101,-778.839555121565,31.5186488339565,747.320906287608
1.21893235357683,544.413135953144,1027.13066611311,482.717530159967,-785.771901033127,30.8478028965885,754.924098136538
1.2210935811541,535.739567948533,1023.02398231002,487.284414361485,-779.381775129276,24.2275767935238,755.154198335752
1.22325480873136,529.808687838208,1013.63258198312,483.823894144909,-771.720634910662,22.9923968466496,748.728238064013
1.22541603630862,535.065797435179,1021.08378944165,486.017992006474,-778.074793438416,24.5239027143524,753.550890724064
1.22757726388589,539.944453368876,1028.69943643545,488.754983066575,-784.321944902164,25.5947351511503,758.727209751013
1.22973849146315,536.493323561502,1022.17545158296,485.68212802146,-779.334387572232,25.4055977700212,753.928789802211
1.23189971904042,531.090037799527,1015.53491079762,484.444872998093,-773.312474298574,23.3225824007171,749.989891897857
1.23406094661768,530.745711192353,1021.23960644415,490.493895251797,-775.992658818251,20.1259079702783,755.866750847973
1.23622217419494,534.437181240191,1025.14715071898,490.709969478788,-779.792165979585,21.8636058807014,757.928560098884
1.23838340177221,531.255963862278,1018.10263255599,486.846668693717,-774.679298209136,22.2046475842802,752.474650624856
1.24054462934947,532.050219809901,1013.09493920383,481.044719393933,-772.572579506868,25.502750207984,747.069829298884
1.24270585692673,535.647491318711,1022.22015486503,486.572663546318,-778.93382309187,24.5374138861965,754.396409205674
1.244867084504,535.567877843888,1026.12772155687,490.559843712979,-780.847799700377,22.5040170654543,758.343782634923
1.24702831208126,529.895914998638,1018.16268023293,488.26676523429,-774.029297615783,20.8145748821742,753.214722733609
1.24918953965853,524.530295752485,1015.29723716904,490.76694141656,-769.913766460765,16.8816771679626,753.032089292802
1.25135076723579,528.151080876078,1024.86912756456,496.718046688487,-776.510104220322,15.7165170937957,760.793587126526
1.25351199481305,523.771125006901,1025.82948966345,502.058364656554,-774.800307335178,10.8563801751734,763.943927160004
1.25567322239032,515.996805212974,1016.55146874517,500.554663532193,-766.27413697907,7.7210708403905,758.553066138679
1.25783444996758,511.964219643447,1017.85471641143,505.890496767979,-764.909468027436,3.03686143773405,761.872606589702
1.25999567754485,513.810326174147,1025.84524072524,512.034914551094,-769.827783449694,0.887705811526189,768.940077638168
1.26215690512211,515.454670255945,1025.2994188148,509.844748558857,-770.377044535374,2.80496084854406,767.57208368683
1.26431813269937,509.739896320337,1014.82738344285,505.087487122516,-762.283639881595,2.32620459891035,759.957435282684
1.26647936027664,514.606738989606,1018.24769757132,503.640958581711,-766.427218280462,5.48289020394759,760.944328076514
1.2686405878539,522.021386128602,1025.70901047833,503.687624349731,-773.865198303467,9.16688088943533,764.698317414032
1.27080181543116,522.400896184529,1021.43325325246,499.032357067933,-771.917074718495,11.6842695582979,760.232805160197
1.27296304300843,516.039336250724,1013.98496862872,497.945632377997,-765.012152439722,9.04685193636334,755.965300503359
1.27512427058569,509.300059259456,1017.60054987406,508.300490614602,-763.450304566757,0.499784322426535,762.95052024433
1.27728549816296,506.681355851713,1028.37005692344,521.688701071722,-767.525706387574,-7.50367261000451,775.029378997579
1.27944672574022,498.310548104723,1024.51746555939,526.206917454667,-761.414006832056,-13.9481846749721,775.362191507028
1.28160795331748,492.406278267011,1015.58146695683,523.175188689821,-753.993872611922,-15.3844552114046,769.378327823326
1.28376918089475,495.918233245405,1020.92936598737,525.011132741961,-758.423799616385,-14.5464497482782,772.970249364664
1.28593040847201,501.985933769273,1028.40375125691,526.417817487633,-765.19484251309,-12.2159418591797,777.41078437227
1.28809163604928,498.620292614236,1018.55029211197,519.929999497737,-758.585292363105,-10.6548534417505,769.240145804856
1.29025286362654,495.85239263748,1013.76055307394,517.908160436465,-754.806472855712,-11.0278838994929,765.834356755205
1.2924140912038,495.875818782353,1020.75228072069,524.876461938336,-758.314049751521,-14.5003215779914,772.814371329512
1.29457531878107,494.77491715875,1026.4801533124,531.705236153646,-760.627535235573,-18.4651594974482,779.092694733022
1.29673654635833,488.910192177436,1018.43687481934,529.526682641906,-753.673533498389,-20.3082452322346,773.981778730624
1.2988977739356,487.529507047749,1014.74022643944,527.210719391688,-751.134866743593,-19.8406061719695,770.975472915562
1.30105900151286,494.180990755543,1024.73121897482,530.550228219279,-759.456104865183,-18.184618731868,777.640723597051
1.30322022909012,496.457468949958,1026.67254265147,530.215073701513,-761.565005800714,-16.8788023757779,778.443808176492
1.30538145666739,489.137087142219,1015.7156644178,526.578577275577,-752.426375780007,-18.7207450666788,771.147120846686
1.30754268424465,488.429027213649,1015.90397836434,527.47495115069,-752.166502788994,-19.5229619685203,771.689464757515
1.30970391182191,492.351250927356,1024.68189675979,532.330645832432,-758.516573843572,-19.9896974525378,778.50627129611
1.31186513939918,490.227467539131,1025.2225416133,534.995074074173,-757.725004576218,-22.3838032675208,780.108807843738
1.31402636697644,486.65516065278,1016.74475534307,530.089594690286,-751.699957997923,-21.7172170187526,773.417175016676
1.31618759455371,486.192784708703,1015.19902366804,529.006238959334,-750.69590418837,-21.4067271253153,772.102631313685
1.31834882213097,491.180062541962,1024.02101577252,532.840953230554,-757.600539157239,-20.8304453442963,778.430984501535
1.32051004970823,490.438739201212,1023.73962403972,533.300884838505,-757.089181620464,-21.4310728186469,778.520254439111
1.3226712772855,488.1449321616,1015.63082294446,527.485890782858,-751.887877553029,-19.6704793106289,771.558356863658
1.32483250486276,489.610857904516,1017.23057885574,527.619720951226,-753.420718380129,-19.0044315233548,772.425149903484
1.32699373244003,497.421828832758,1025.7641286586,528.342299825845,-761.59297874568,-15.4602354965439,777.053214242224
1.32915496001729,496.079267896623,1023.83093603019,527.751668133571,-759.955101963408,-15.8362001184741,775.791302081882
1.33131618759455,492.703223032497,1013.96234926845,521.259126235955,-753.332786150475,-14.2779516017286,767.610737752203
1.33347741517182,493.286513387271,1017.61869320739,524.332179820119,-755.45260329733,-15.5228332164241,770.975436513754
1.33563864274908,498.825987839488,1026.28151493426,527.455527094776,-762.553751386876,-14.3147696276439,776.86852101452
1.33779987032635,494.192194501669,1019.98615794713,525.793963445461,-757.089176224399,-15.8008844718958,772.890060696295
1.33996109790361,488.775220419574,1014.7253008281,525.95008040853,-751.750260623839,-18.5874299944779,770.337690618317
1.34212232548087,491.135210589043,1021.25867124257,530.123460653524,-756.196940915806,-19.4941250322405,775.691065948046
1.34428355305814,495.839277671283,1028.56562848366,532.726350812373,-762.20245307747,-18.4435365705446,780.645989648014
1.3464447806354,491.621654525044,1020.81196047766,529.190305952618,-756.216807501353,-18.7843257137868,775.00113321514
1.34860600821266,488.434569300526,1014.46338318758,526.02881388705,-751.448976244051,-18.7971222932618,770.246098537313
1.35076723578993,490.588923916968,1021.46233530255,530.873411385581,-756.025629609759,-20.1422437343065,776.167873344065
1.35292846336719,493.725213495117,1027.23852596736,533.513312472239,-760.481869731237,-19.8940494885607,780.375919219797
1.35508969094446,490.776682469808,1018.04896666589,527.27228419608,-754.412824567848,-18.2478008631359,772.660625430984
1.35725091852172,490.074905580241,1015.2228739026,525.147968322363,-752.648889741423,-17.5365313710611,770.185421112484
1.35941214609898,496.688362261269,1023.35894879825,526.670586536985,-760.023655529761,-14.991112137858,775.014767667619
1.36157337367625,503.539340149437,1026.92501760805,523.385677458615,-765.232178878745,-9.92316865458855,775.155347533333
1.36373460125351,500.089239583731,1019.86569472299,519.776455139259,-759.97746715336,-9.84360777776419,769.821074931125
1.36589582883078,501.748147002293,1014.34559640496,512.59744940267,-758.046871703628,-5.42465120018869,763.471522903816
1.36805705640804,504.90619985723,1025.09118919104,520.184989333806,-764.998694524133,-7.63939473828805,772.638089262422
1.3702182839853,505.191936518981,1025.85157690377,520.659640384789,-765.521756711375,-7.73385193290386,773.255608644279
1.37237951156257,499.633298421929,1018.54212697147,518.908828549542,-759.0877126967,-9.63776506380685,768.725477760507
1.37454073913983,496.999380266807,1015.0278920901,518.028511823297,-756.013636178455,-10.514565778245,766.5282019567
1.3767019667171,498.988707858699,1024.89789137773,525.909183519026,-761.943299618212,-13.4602378301634,775.403537448376
1.37886319429436,499.654029752522,1025.01598965654,525.361959904022,-762.335009704533,-12.8539650757501,775.188974780283
1.38102442187162,496.016860190519,1015.61364983628,519.596789645761,-755.815255013399,-11.7899647276211,767.605219741021
1.38318564944889,498.71740315235,1021.39420167922,522.676798526865,-760.055802415783,-11.9796976872575,772.035500103041
1.38534687702615,502.686271073502,1025.88393188292,523.197660809417,-764.285101478211,-10.2556948679575,774.540796346168
1.38750810460341,500.896128507928,1023.39410053685,522.497972028922,-762.145114522389,-10.8009217604967,772.946036282886
1.38966933218068,493.871422666045,1013.00668062958,519.135257963531,-753.43905164781,-12.6319176487431,766.070969296553
1.39183055975794,494.400735366297,1018.78831423895,524.387578872651,-756.594524802623,-14.9934217531771,771.5879465558
1.39399178733521,499.753154253444,1028.32832543392,528.57517118048,-764.040739843684,-14.4110084635182,778.451748307202
1.39615301491247,500.326902058029,1027.20399585427,526.877093796237,-763.765448956148,-13.2750958691037,777.040544825251
1.39831424248973,495.442962272756,1014.46051406775,519.017551794995,-754.951738170254,-11.7872947611195,766.739032931373
1.400475470067,496.992001452746,1021.13672723549,524.144725782743,-759.064364344118,-13.5763621649983,772.640726509116
1.40263669764426,500.921112768983,1025.51967303231,524.59856026333,-763.220392900648,-11.8387237471734,775.059116647821
1.40479792522153,495.465577090715,1021.52369803891,526.058120948195,-758.494637564812,-15.2962719287404,773.790909493553
1.40695915279879,492.852886281383,1013.86048230083,521.007596019449,-753.356684291108,-14.0773548690333,767.434039160141
1.40912038037605,495.981280202488,1020.91197788954,524.93069768705,-758.446629046014,-14.4747087422811,772.921337788295
1.41128160795332,498.774306435053,1027.31767080589,528.543364370832,-763.045988620469,-14.8845289678896,777.930517588359
1.41344283553058,493.802111433601,1018.11252437144,524.310412937836,-755.957317902519,-15.2541507521173,771.211468654636
1.41560406310785,490.528367028083,1013.7406703054,523.212303277313,-752.134518666739,-16.3419681246153,768.476486791355
1.41776529068511,495.288488550541,1025.95443820057,530.665949650024,-760.621463375554,-17.6887305497415,778.310193925295
1.41992651826237,495.479722945348,1025.70898830787,530.22926536252,-760.594355626608,-17.3747712085862,777.969126835194
1.42208774583964,494.132344305972,1019.68149848995,525.549154183975,-756.906921397959,-15.7084049390016,772.615326336961
1.4242489734169,492.498806983913,1016.05027550907,523.551468525157,-754.274541246491,-15.526330770622,769.800872017113
1.42641020099416,503.421599896173,1025.79161521415,522.370015317976,-764.606607555161,-9.47420771090162,774.080815266062
1.42857142857143,507.092198660696,1026.9915430788,519.899344418106,-767.04187086975,-6.40357287870484,773.445443748454
1.43073265614869,501.37998181266,1018.49190582068,517.111924008019,-759.93594381667,-7.86597109767951,767.801914914349
1.43289388372596,501.190035560724,1019.30530579254,518.11527023182,-760.247670676634,-8.46261733554843,768.710288012182
1.43505511130322,500.468437514139,1025.22779060608,524.759353091941,-762.848114060109,-12.1454577889013,774.993571849011
1.43721633888048,497.697365014207,1023.72726650928,526.029901495072,-760.712315761743,-14.1662682404325,774.878584002176
1.43937756645775,491.301380225348,1015.64283115857,524.341450933217,-753.472105691957,-16.5200353539348,769.992141045891
1.44153879403501,497.712389953349,1017.41522463127,519.702834677918,-757.563807292309,-10.9952223622846,768.559029654593
1.44370002161228,502.306455297368,1027.75780743729,525.451352139922,-765.032131367328,-11.5724484212772,776.604579788606
1.44586124918954,501.723870260709,1024.49607880509,522.772208544383,-763.109974532901,-10.5241691418371,773.634143674738
1.4480224767668,498.444594272912,1015.77920784444,517.334613571526,-757.111901058675,-9.44500964930683,766.556910707982
1.45018370434407,500.392646394617,1019.80537937231,519.412732977695,-760.099012883465,-9.51004329153903,769.609056175004
1.45234493192133,503.11998743188,1027.4542609985,524.334273566618,-765.287124215189,-10.6071430673688,775.894267282558
1.4545061594986,497.425500317719,1020.96313589381,523.537635576091,-759.194318105764,-13.0560676291863,772.250385734951
1.45666738707586,494.945685948784,1012.80563101094,517.85994506216,-753.875658479863,-11.4571295566882,765.332788036552
1.45882861465312,499.188880367947,1020.42984246781,521.240962099861,-759.809361417878,-11.0260408659572,770.835402283835
1.46098984223039,504.613771150174,1027.42937194366,522.815600793483,-766.021571546915,-9.10091482165467,775.12248636857
1.46315106980765,502.190780976971,1020.46529225259,518.274511275619,-761.32803661478,-8.04186514932388,769.369901764104
1.46531229738491,501.219308521662,1016.40455576546,515.185247243794,-758.811932143559,-6.98296936106561,765.794901504625
1.46747352496218,506.824976586871,1020.69127028719,513.866293700318,-763.75812343703,-3.52065855672322,767.278781993753
1.46963475253944,508.116056373006,1030.33724446489,522.221188091887,-769.22665041895,-7.05256585944062,776.27921627839
1.47179598011671,501.003759121569,1019.99813649781,518.994377376242,-760.500947809689,-8.99530912733667,769.496256937026
1.47395720769397,496.207320739142,1016.34636827666,520.139047537521,-756.276844507903,-11.9658633991892,768.242707907092
1.47611843527123,498.69314007101,1023.49673893972,524.803598868712,-761.094939505366,-13.0552293988512,774.150168904217
1.4782796628485,500.288162225827,1025.73033501589,525.442172790068,-763.00924862086,-12.5770052821205,775.586253902981
1.48044089042576,494.834909670461,1020.60369263247,525.768782962007,-757.719301151465,-15.4669366457729,773.186237797237
1.48260211800303,494.754903408687,1016.41484337565,521.65993996696,-755.584873392167,-13.4525182791368,769.037391671303
1.48476334558029,499.039695463178,1029.29609574069,530.256400277511,-764.167895601933,-15.6083524071669,779.7762480091
1.48692457315755,498.280485012751,1023.81670248665,525.5362174739,-761.048593749701,-13.6278662305742,774.676459980275
1.48908580073482,494.754539308643,1016.50552500088,521.750985692235,-755.630032154761,-13.4982231917958,769.128255346557
1.49124702831208,496.118364245838,1017.2008973298,521.082533083957,-756.659630787817,-12.4820844190593,769.141715206876
1.49340825588935,499.893014735281,1027.94886499804,528.055850262763,-763.920939866663,-14.0814177637411,778.002357630404
1.49556948346661,500.310041733666,1025.71447820179,525.404436468121,-763.012259967726,-12.5471973672278,775.559457334954
1.49773071104387,494.752991242574,1014.38909383174,519.636102589167,-754.571042537157,-12.4415556732964,767.012598210454
1.49989193862114,496.780613217859,1018.54727003423,521.76665681637,-757.663941626043,-12.4930217992557,770.156963425299
1.5020531661984,497.906889820421,1027.06043465851,529.153544838088,-762.483662239464,-15.6233275088335,778.106989748298
1.50421439377566,494.108292550922,1023.35100170768,529.242709156759,-758.729647129302,-17.5672083029181,776.29685543222
1.50637562135293,496.094755250496,1015.04360603201,518.948850781517,-755.569180641254,-11.4270477655106,766.996228406765
1.50853684893019,501.472887148688,1017.97418171793,516.501294569241,-759.723534433309,-7.51420371027655,767.237738143585
1.51069807650746,507.500924858356,1026.28123296337,518.780308105018,-766.891078910865,-5.63969162333075,772.530770534196
1.51285930408472,500.819981496234,1021.90882431925,521.088842823012,-761.36440290774,-10.1344306633891,771.49883357113
1.51502053166198,496.182493143882,1013.40599107438,517.2234979305,-754.794242109132,-10.5205023933092,765.314744502441
1.51718175923925,498.159896729464,1020.32979684117,522.169900111709,-759.244846785319,-12.005001691122,771.249848476441
1.51934298681651,498.273305261783,1025.55127209356,527.27796683178,-761.912288677673,-14.5023307849989,776.414619462672
1.52150421439378,494.806318987824,1019.38032147482,524.574002486998,-757.093320231322,-14.8838417495871,771.97716198091
1.52366544197104,494.091696793991,1014.92873841817,520.837041624178,-754.51021760608,-13.3726724150932,767.882890021173
1.5258266695483,496.944056724529,1021.08960151232,524.145544787794,-759.016829118426,-13.6007440316327,772.617573150058
1.52798789712557,502.348585448049,1026.21515448943,523.866569041384,-764.281869968741,-10.7589917966675,775.040861765409
1.53014912470283,498.261756057662,1018.8772077976,520.615451739941,-758.569481927632,-11.1768478411396,769.746329768772
1.5323103522801,494.358429867328,1013.7812010897,519.422771222376,-754.069815478516,-12.5321706775238,766.60198615604
1.53447157985736,499.589378233149,1024.14681896748,524.557440734334,-761.868098600316,-12.4840312505926,774.352129850909
1.53663280743462,497.925426313324,1026.67977657219,528.754350258868,-762.302601442758,-15.4144619727716,777.71706341553
1.53879403501189,494.495996818511,1015.57451962468,521.078522806167,-755.035258221594,-13.2912629938282,768.326521215422
1.54095526258915,495.69130212985,1014.19514524051,518.503843110659,-754.943223685179,-11.4062704904047,766.349494175584
1.54311649016641,501.249650905187,1023.89841104609,522.648760140903,-762.574030975638,-10.6995546178581,773.273585593496
1.54527771774368,500.567199708929,1026.77669431855,526.209494609625,-763.671947013741,-12.8211474503478,776.493094464089
1.54743894532094,495.972619715736,1020.27896505722,524.306345341485,-758.125792386478,-14.1668628128748,772.292655199353
1.54960017289821,495.199958448459,1015.42586956754,520.225911119076,-755.312914007997,-12.5129763353087,767.825890343306
1.55176140047547,500.741839912125,1026.4003238358,525.658483923678,-763.571081873964,-12.4583220057767,776.029403879741
1.55392262805273,501.972800128378,1024.65800817152,522.685208043147,-763.315404149951,-10.3562039573847,773.671608107336
1.55608385563,494.490233318305,1013.60917989616,519.118946577854,-754.049706607231,-12.3143566297745,766.364063237006
1.55824508320726,496.809678412255,1016.59674530367,519.787066891417,-756.703211857963,-11.4886942395809,768.191906097544
1.56040631078453,504.146391859044,1026.77695837489,522.630566515842,-765.461675116965,-9.24208732839901,774.703762445364
1.56256753836179,504.335245466821,1024.22753406024,519.892288593423,-764.281389763532,-7.77852156330067,772.059911326833
1.56472876593905,503.194489008761,1014.65703302379,511.462544015034,-758.925761016277,-4.13402750313668,763.059788519414
1.56688999351632,507.509897453134,1019.99065410811,512.480756654979,-763.750275780624,-2.48542960092232,766.235705381546
1.56905122109358,511.411740497675,1027.54898700537,516.137246507693,-769.480363751522,-2.36275300500921,771.843116756531
1.57121244867084,511.61736399821,1020.85098401656,509.23362001835,-766.234174007384,1.19187198993001,765.042302017455
1.57337367624811,510.026341162734,1012.84317278399,502.81683162126,-761.434756973365,3.60475477073715,757.830002202627
1.57553490382537,512.274795082973,1025.61420737324,513.339412290269,-768.944501228108,-0.532308603647948,769.476809831756
1.57769613140264,511.539117482578,1026.35072084345,514.811603360874,-768.944919163016,-1.63624293914791,770.581162102163
1.5798573589799,506.956107596711,1020.19501204148,513.238904444773,-763.575559819097,-3.14139842403085,766.716958243128
1.58201858655716,505.14077344348,1017.39186369253,512.251090249047,-761.266318568003,-3.55515840278326,764.821476970787
1.58417981413443,509.980140958116,1022.89812150058,512.917980542462,-766.439131229347,-1.46891979217321,767.90805102152
1.58634104171169,510.269105158528,1028.3503367387,518.081231580169,-769.309720948612,-3.90606321082061,773.215784159433
1.58850226928896,506.082140892947,1018.90576635148,512.823625458534,-762.493953622213,-3.3707422827934,765.864695905007
1.59066349686622,502.295808051968,1013.4657828333,511.169974781328,-757.880795442632,-4.43708336467995,762.317878807312
1.59282472444348,510.73582691867,1024.62961044356,513.89378352489,-767.682718681116,-1.57897830310998,769.261696984226
1.59498595202075,513.092434888688,1028.52685331094,515.43441842225,-770.809644099813,-1.17099176678141,771.980635866594
1.59714717959801,508.506582363286,1019.31052060468,510.803938241391,-763.908551483982,-1.14867793905211,765.057229423034
1.59930840717528,506.702134802494,1014.4861819477,507.784047145203,-760.594158375095,-0.540956171354935,761.13511454645
1.60146963475254,516.336140943,1025.50656724191,509.17042629891,-770.921354092455,3.58285732204547,767.33849677041
1.6036308623298,518.550678303959,1023.82972353623,505.279045232269,-771.190200920094,6.63581653584521,764.554384384249
1.60579208990707,516.809143774016,1015.49782659139,498.688682817375,-766.153485182703,9.06023047832048,757.093254704383
1.60795331748433,515.188548021467,1016.37723646363,501.188688442167,-765.78289224255,6.99992978965025,758.7829624529
1.6101145450616,517.993693971352,1024.97434024551,506.980646274155,-771.484017108429,5.50652384859814,765.977493259831
1.61227577263886,516.184888148455,1026.41715394692,510.232265798464,-771.301021047687,2.97631117499543,768.324709872691
1.61443700021612,511.549359781043,1015.17833319289,503.628973411846,-763.363846486966,3.96019318459872,759.403653302367
1.61659822779339,508.851448489485,1018.70717607896,509.855727589479,-763.779312284224,-0.502139549996684,764.281451834221
1.61875945537065,513.179347529456,1029.24117409563,516.061826566171,-771.210260812542,-1.44123951835729,772.651500330899
1.62092068294791,512.246677150376,1024.30738998562,512.060712835245,-768.277033567999,0.0929821575653023,768.184051410433
1.62308191052518,508.099693481486,1013.07749488508,504.977801403592,-760.588594183282,1.56094603894701,759.027648144335
1.62524313810244,507.570610726707,1019.15619147899,511.585580752283,-763.363401102849,-2.00748501278804,765.370886115637
1.62740436567971,510.542248455059,1026.21036603374,515.668117578676,-768.376307244397,-2.56293456180862,770.939241806206
1.62956559325697,501.730096290948,1022.57836088559,520.848264594639,-762.154228588268,-9.55908415184541,771.713312740113
1.63172682083423,496.172114952979,1014.30466069601,518.132545743032,-755.238387824495,-10.9802153950264,766.218603219521
1.6338880484115,495.252975002119,1021.54633367208,526.293358669959,-758.399654337098,-15.5201918339204,773.919846171019
1.63604927598876,495.276930096387,1025.66496982786,530.38803973147,-760.470949962122,-17.5555548175416,778.026504779663
1.63821050356603,491.749277786612,1018.33479872787,526.585520941256,-755.04203825724,-17.4181215773221,772.460159834562
1.64037173114329,491.14026790364,1013.04332855545,521.903060651806,-752.091798229543,-15.381396374083,767.473194603626
1.64253295872055,498.011059362852,1021.23065654814,523.219597185292,-759.620857955498,-12.6042689112196,772.225126866718
1.64469418629782,501.246877370669,1027.01123625105,525.76435888038,-764.12905681086,-12.2587407548556,776.387797565715
1.64685541387508,498.105375293417,1020.53161562251,522.426240329094,-759.318495457964,-12.1604325178388,771.478927975803
1.64901664145235,491.368949289888,1015.7816899292,524.412740639316,-753.575319609546,-16.5218956747141,770.09721528426
1.65117786902961,491.698847988071,1022.39719625704,530.698348268973,-757.048022122558,-19.4997501404512,776.547772263009
1.65333909660687,488.968658026292,1025.77675630494,536.808098278645,-757.372707165615,-23.9197201261766,781.292427291791
1.65550032418414,482.576176280674,1015.60557039184,533.029394111166,-749.090873336257,-25.2266089152461,774.317482251503
1.6576615517614,480.819313897691,1015.37150903944,534.552195141744,-748.095411468563,-26.8664406220262,774.96185209059
1.65982277933866,487.150568854648,1025.94048265932,538.789913804676,-756.545525756986,-25.819672475014,782.365198232
1.66198400691593,489.260398541485,1025.42910703004,536.168708488555,-757.344752785763,-23.4541549735349,780.798907759298
1.66414523449319,484.797899160217,1018.97462204992,534.176722889703,-751.886260605069,-24.6894118647431,776.575672469812
1.66630646207046,488.265952492577,1017.54053109883,529.274578606251,-752.903241795703,-20.5043130568367,773.407554852539
1.66846768964772,493.820227841845,1025.63530428934,531.815076447493,-759.727766065592,-18.9974243028237,778.725190368416
1.67062891722498,493.973247627725,1024.7004203524,530.727172724678,-759.336833990064,-18.3769625484768,777.71379653854
1.67279014480225,489.562166206241,1016.67051260746,527.108346401217,-753.11633940685,-18.7730900974879,771.889429504337
1.67495137237951,489.897972141169,1019.77960931767,529.881637176498,-754.838790729418,-19.9918325176642,774.830623247082
1.67711259995678,496.0430073775,1028.72827363525,532.685266257745,-762.385640506373,-18.3211294401225,780.706769946495
1.67927382753404,496.107860987864,1024.85169332445,528.743832336582,-760.479777156155,-16.3179856743594,776.797762830514
1.6814350551113,493.131800288775,1015.46725097688,522.335450688103,-754.299525632826,-14.601825199664,768.90135083249
1.68359628268857,493.602004892439,1019.19225313801,525.590248245574,-756.397129015226,-15.9941216765677,772.391250691794
1.68575751026583,494.430103628399,1027.74106692302,533.310963294617,-761.085585275708,-19.4404298331089,780.526015108816
1.68791873784309,491.6581563464,1021.86366810016,530.205511753762,-756.760912223281,-19.2736777036811,776.034589926963
1.69007996542036,484.211255950477,1012.95002963478,528.738773684308,-748.580642792631,-22.2637588669157,770.844401659547
1.69224119299762,486.268601735653,1021.77139778166,535.502796046008,-754.019999758657,-24.6170971551774,778.637096913835
1.69440242057489,485.168287499125,1027.1808155234,542.012528024274,-756.174551511262,-28.4221202625744,784.596671773836
1.69656364815215,483.66925270484,1019.81606261645,536.146809911608,-751.742657660644,-26.2387786033839,777.981436264027
1.69872487572941,481.169281591611,1016.33451050805,535.165228916439,-748.75189604983,-26.9979736624139,775.749869712244
1.70088610330668,487.027596406338,1022.13993090338,535.112334497042,-754.583763654859,-24.0423690453521,778.626132700211
1.70304733088394,493.184826514891,1025.46160065442,532.276774139527,-759.323213584655,-19.5459738123178,778.869187396973
1.70520855846121,486.081290575114,1018.92622489284,532.844934317729,-752.503757733978,-23.3818218713079,775.885579605286
1.70736978603847,486.435679494605,1013.62695215099,527.191272656388,-750.031315822799,-20.3777965808911,770.40911240369
1.70953101361573,497.675144333605,1024.71360834669,527.038464013087,-761.194376340148,-14.681659839741,775.876036179889
1.711692241193,511.777352370224,1025.22684228478,513.449489914555,-768.502097327502,-0.836068772165731,769.338166099667
1.71385346877026,530.194751362768,1018.99039270647,488.795641343702,-774.592572034619,20.6995550095331,753.893017025086
1.71601469634753,561.649721568354,1016.55489473566,454.90517316731,-789.102308152008,53.3722742005219,735.730033951487
1.71817592392479,599.726136310212,1026.7467045071,427.020568196884,-813.236420408654,86.3527840566638,726.88363635199
1.72033715150205,632.620579389193,1025.86866772649,393.248088337296,-829.244623557842,119.686245525949,709.558378031893
1.72249837907932,659.951475008798,1015.49973923769,355.548264228893,-837.725607123244,152.201605389952,685.524001733291
1.72465960665658,684.992532032514,1016.55283465553,331.560302623014,-850.772683344021,176.71611470475,674.056568639271
1.72682083423384,701.545052700367,1025.9915687607,324.446516060334,-863.768310730534,188.549268320017,675.219042410517
1.72898206181111,696.2923781236,1025.09187384272,328.799495719121,-860.69212598316,183.74644120224,676.945684780921
1.73114328938837,669.057264086416,1016.97231630201,347.915052215593,-843.014790194213,160.571105935411,682.443684258802
1.73330451696564,637.917866209501,1017.87405173975,379.956185530247,-827.895958974624,128.980840339627,698.915118634998
1.7354657445429,602.494092403496,1026.42803144428,423.933939040783,-814.461061923888,89.2800766813565,725.180985242531
1.73762697212016,560.287828427564,1022.30857731321,462.020748885645,-791.298202870386,49.1335397709591,742.164663099427
1.73978819969743,516.500822489693,1016.16378931108,499.66296682139,-766.332305900388,8.41892783415153,757.913378066237
1.74194942727469,485.602671831553,1020.33074399892,534.728072167372,-752.966707915239,-24.5627001679094,777.529408083148
1.74411065485196,462.099787764914,1028.09662666652,565.996838901609,-745.098207215719,-51.9485255683475,797.046732784067
1.74627188242922,446.447440527639,1021.18968851921,574.742247991574,-733.818564523425,-64.1474037319675,797.965968255393
1.74843311000648,436.364725676722,1015.19112385884,578.826398182122,-725.777924767783,-71.2308362526998,797.008761020483
1.75059433758375,442.192373800355,1020.77580303912,578.583429238765,-731.484088419738,-68.1955277192051,799.679616138943
1.75275556516101,453.778127530653,1027.81187316924,574.033745638591,-740.795000349949,-60.1278090539686,800.922809403917
1.75491679273828,460.454460193137,1019.31280012343,558.85833993029,-739.883630158282,-49.2019398685765,789.085570026859
1.75707802031554,468.200422702775,1016.16185198338,547.961429280602,-742.181137343076,-39.8805032889134,782.061640631989
1.7592392478928,484.037103148748,1023.37158231921,539.33447917046,-753.704342733978,-27.6486880108561,781.353030744834
1.76140047547007,495.083386555592,1029.80995961307,534.726573057475,-762.44667308433,-19.8215932509415,782.268266335271
1.76356170304733,494.935187410339,1019.1833510746,524.248163664264,-757.059269242471,-14.6564881269624,771.715757369433
1.76572293062459,495.387778012256,1014.79989481919,519.412116806932,-755.093836415722,-12.0121693973378,767.10600581306
1.76788415820186,500.815095430189,1024.63630810491,523.821212674717,-762.725701767548,-11.5030586222641,774.228760389812
1.77004538577912,493.954181907892,1028.82410490987,534.869923001979,-761.389143408882,-20.4578705470433,781.847013955925
1.77220661335639,480.489123924138,1017.56171004428,537.072586120138,-749.025416984207,-28.2917310980001,777.317148082207
1.77436784093365,475.875570008216,1015.52190780844,539.646337800226,-745.698738908329,-31.8853838960048,777.584122804334
1.77652906851091,477.208440444166,1025.02819617224,547.819755728074,-751.118318308203,-35.305657641954,786.423975950157
1.77869029608818,476.232688142623,1024.19024566164,547.957557519022,-750.211466902134,-35.8624346881993,786.073901590333
1.78085152366544,471.872877813356,1015.77071295136,543.897835138001,-743.821795382356,-36.012478662323,779.834274044679
1.78301275124271,476.37323953801,1019.68031755729,543.307078019282,-748.026778547651,-33.4669192406357,781.493697788287
1.78517397881997,484.692070219202,1026.786715395,542.0946451758,-755.739392807102,-28.7012874782992,784.440680285402
1.78733520639723,484.667975097732,1028.59779875562,543.929823657891,-756.632886926677,-29.6309242800799,786.263811206757
1.7894964339745,484.42037763429,1015.60053406481,531.180156430519,-750.010455849549,-23.3798893981148,773.390345247664
1.79165766155176,484.980649656367,1017.95902336102,532.978373704658,-751.469836508696,-23.9988620241454,775.468698532841
1.79381888912903,490.145698427016,1026.77878356572,536.633085138702,-758.462240996366,-23.2436933558431,781.70593435221
1.79598011670629,492.158395614791,1023.65118212265,531.492786507857,-757.904788868719,-19.667195446533,777.571984315252
1.79814134428355,488.225423621735,1014.41355596005,526.188132338318,-751.319489790894,-18.9813543582914,770.300844149185
1.80030257186082,493.671556943421,1019.37755607592,525.705999132499,-756.524556509671,-16.017221094539,772.54177760421
1.80246379943808,492.275541371064,1026.76424087907,534.488699508007,-759.519891125067,-21.1065790684714,780.626470193539
1.80462502701534,488.374768608477,1019.67865656863,531.303887960157,-754.026712588555,-21.4645596758401,775.491272264396
1.80678625459261,485.11901124695,1014.96549514149,529.84648389454,-750.04225319422,-22.363736323795,772.405989518015
1.80894748216987,484.396791041732,1020.96365662657,536.566865584836,-752.68022383415,-26.085037271552,778.765261105702
1.81110870974714,490.306761134214,1027.15144439901,536.844683264799,-758.729102766614,-23.2689610652924,781.998063831906
1.8132699373244,485.701056346163,1020.61161134503,534.910554998871,-753.156333845599,-24.6047493263542,777.761083171953
1.81543116490166,480.238495891945,1018.36342625861,538.124930366669,-749.30096107528,-28.9432172373619,778.244178312642
1.81759239247893,489.078707838374,1022.33278153789,533.25407369952,-755.705744688134,-22.087682930573,777.793427618707
1.81975362005619,494.046556789971,1026.42533870395,532.378781913976,-760.235947746959,-19.1661125620028,779.402060308962
1.82191484763346,489.880459641351,1015.76989872405,525.889439082702,-752.825179182702,-18.0044897206756,770.829668903377
1.82407607521072,491.420600430677,1013.73171138177,522.311110951093,-752.576155906224,-15.4452552602078,768.021411166432
1.82623730278798,500.835361199043,1022.86240379337,522.02704259433,-761.848882496208,-10.5958406976433,772.444723193852
1.82839853036525,503.883637793371,1029.08441758314,525.200779789765,-766.484027688254,-10.6585709981971,777.142598686451
1.83055975794251,499.327995835227,1017.7655512854,518.437555450172,-758.546773560313,-9.55477980747281,768.101553367786
1.83272098551978,500.833777258801,1014.65869576158,513.82491850278,-757.746236510191,-6.49557062198977,764.241807132181
1.83488221309704,507.441699856344,1025.92113128331,518.479431426968,-766.681415569828,-5.51886578531224,772.20028135514
1.8370434406743,505.394549685261,1024.79657877674,519.402029091477,-765.095564230999,-7.00373970310795,772.099303934107
1.83920466825157,496.772164901606,1017.43993205003,520.667767148425,-757.106048475819,-11.9478011234098,769.053849599228
1.84136589582883,495.376509548281,1017.71662019703,522.340110648749,-756.546564872656,-13.4818005502337,770.028365422889
1.84352712340609,495.917450208622,1026.06217005521,530.144719846585,-760.989810131914,-17.1136348189814,778.103444950896
1.84568835098336,496.866741785292,1022.86463837989,525.997896594593,-759.865690082589,-14.5655774046506,774.43126748724
1.84784957856062,496.48508785216,1015.85455753911,519.369469686951,-756.169822695636,-11.4421909173957,767.612013613031
1.85001080613789,502.023174080544,1021.04767370858,519.024499628037,-761.535423894562,-8.50066277374651,770.036086668309
1.85217203371515,508.139713115171,1025.51656458329,517.376851468121,-766.828138849231,-4.61856917647503,771.446708025706
1.85433326129241,509.95303750912,1022.16279464286,512.209757133739,-766.057916075989,-1.12835981230984,767.186275888299
1.85649448886968,508.998207449568,1015.14639630191,506.148188852344,-762.07230187574,1.425009298612,760.647292577128
1.85865571644694,511.774119731252,1020.51757674603,508.743457014782,-766.145848238643,1.51533135823507,764.630516880408
1.86081694402421,516.642748828433,1027.08476559802,510.442016769591,-771.863757213228,3.10036602942102,768.763391183807
1.86297817160147,513.577867143119,1021.9596605564,508.38179341328,-767.768763849759,2.59803686491938,765.17072698484
1.86513939917873,509.122258612223,1016.16383407885,507.041575466623,-762.643046345535,1.04034157280012,761.602704772735
1.867300626756,510.472631442753,1021.9776605229,511.505029080146,-766.225145982825,-0.516198818696409,766.741344801522
1.86946185433326,511.357155810893,1027.83115411148,516.473998300586,-769.594154961187,-2.55842124484644,772.152576206033
1.87162308191053,503.542204399582,1019.17038382692,515.628179427337,-761.356294113251,-6.04298751387751,767.399281627129
1.87378430948779,502.121124801481,1015.23091855504,513.109793753559,-758.676021678261,-5.49433447603906,764.1703561543
1.87594553706505,507.257151671819,1023.54020581037,516.28305413855,-765.398678741094,-4.5129512333657,769.911629974459
1.87810676464232,509.328057860505,1027.69548103662,518.367423176112,-768.511769448561,-4.51968265780363,773.031452106364
1.88026799221958,503.005561480788,1017.97402572358,514.968464242795,-760.489793602185,-5.98145138100369,766.471244983189
1.88242921979684,504.463434022434,1019.87672348583,515.413289463394,-762.170078754131,-5.47492772047985,767.645006474611
1.88459044737411,509.867403524641,1023.81997198492,513.952568460278,-766.84368775478,-2.04258246781853,768.886270222599
1.88675167495137,514.79964260624,1028.76061194829,513.960969342052,-771.780127277266,0.419336632094087,771.360790645172
1.88891290252864,508.148470246133,1016.44857677401,508.300106527874,-762.29852351007,-0.0758181408704672,762.374341650941
1.8910741301059,505.811285191475,1019.66127472284,513.849989531366,-762.736279957158,-4.01935216994536,766.755632127103
1.89323535768316,513.616281793071,1026.14508621993,512.528804426856,-769.880684006499,0.543738683107449,769.336945323392
1.89539658526043,515.574037989343,1025.99927137889,510.425233389543,-770.786654684114,2.57440229989982,768.212252384214
1.89755781283769,511.835448890791,1015.59125411954,503.755805228749,-763.713351505165,4.03982183102073,759.673529674144
1.89971904041496,513.414593116593,1016.82540798926,503.41081487267,-765.120000552928,5.0018891219616,760.118111430966
1.90188026799222,518.957852230895,1025.93208360325,506.974231372357,-772.444967917074,5.99181042926921,766.453157487804
1.90404149556948,521.698852768678,1022.50076053827,500.801907769593,-772.099806653475,10.4484724995424,761.651334153932
1.90620272314675,520.194301458231,1015.6130498829,495.418748424667,-767.903675670564,12.3877765167819,755.515899153782
1.90836395072401,520.072169177089,1019.13868046132,499.06651128423,-769.605424819204,10.5028289464296,759.102595872774
1.91052517830128,527.554239814568,1028.74976008469,501.19552027012,-778.151999949628,13.179359772224,764.972640177405
1.91268640587854,525.307074603439,1022.320959286,497.013884682563,-773.814016944721,14.1465949604382,759.667421984283
1.9148476334558,521.146241176206,1017.28508474363,496.138843567419,-769.215662959916,12.5036988043934,756.711964155522
1.91700886103307,524.80115229579,1020.58343465255,495.782282356761,-772.692293474171,14.5094349695144,758.182858504656
1.91917008861033,530.496191072413,1028.90383452821,498.407643455796,-779.700012800311,16.044273808308,763.655738992003
1.92133131618759,527.234496276032,1021.61684467779,494.382348401761,-774.425670476913,16.4260739371355,757.999596539777
1.92349254376486,525.888578083593,1013.03185601907,487.143277935477,-769.460217051331,19.3726500740582,750.087566977273
1.92565377134212,531.647696050872,1022.12905453357,490.4813584827,-776.888375292222,20.5831687840861,756.305206508136
1.92781499891939,532.763152336981,1028.01882472314,495.25567238616,-780.390988530061,18.7537399754103,761.637248554651
1.92997622649665,523.76833478683,1019.29449201587,495.526157229038,-771.531413401349,14.1210887788961,757.410324622453
1.93213745407391,522.174307897989,1014.35535160142,492.181043703428,-768.264829749702,14.9966320972805,753.268197652422
1.93429868165118,525.301301690665,1024.55058338438,499.249281693714,-774.925942537522,13.026009998476,761.899932539046
1.93645990922844,528.246721294306,1025.44408267845,497.197361384144,-776.845401986378,15.524679955081,761.320722031297
1.93862113680571,526.739098664354,1016.69116391479,489.952065250436,-771.715131289572,18.3935167069588,753.321614582613
1.94078236438297,527.334400974419,1013.85500220979,486.520601235374,-770.594701592106,20.4068998695229,750.187801722583
1.94294359196023,533.155679751379,1022.98606161255,489.830381861173,-778.070870681965,21.6626489451033,756.408221736862
1.9451048195375,536.184071215734,1026.88498597586,490.700914760123,-781.534528595795,22.7415782278055,758.79295036799
1.94726604711476,530.3019594041,1018.54887172963,488.246912325526,-774.425415566863,21.0275235392871,753.397892027576
1.94942727469203,530.8512478892,1018.76601752881,487.914769639613,-774.808632709006,21.4682391247935,753.340393584213
1.95158850226929,536.663621258106,1025.10825503659,488.444633778482,-780.885938147347,24.1094937398116,756.776444407535
1.95374972984655,535.431339912262,1025.74743928018,490.316099367919,-780.589389596221,22.5576202721712,758.03176932405
1.95591095742382,529.564158702986,1018.38864205705,488.824483354065,-773.976400380019,20.3698376744607,753.606562705558
1.95807218500108,532.409710197703,1017.88344315986,485.473732962152,-775.146576678779,23.4679886177755,751.678588061004
1.96023341257834,537.28686926071,1026.1157612804,488.82889201969,-781.701315270555,24.2289886205097,757.472326650045
1.96239464015561,534.99857068716,1024.61813036263,489.619559675469,-779.808350524895,22.6895055058453,757.118845019049
1.96455586773287,530.324877229955,1013.70270650853,483.377829278574,-772.013791869241,23.4735239756905,748.540267893551
1.96671709531014,538.116596311994,1017.22540789016,479.108811578161,-777.671002101075,29.5038923669165,748.167109734158
1.9688783228874,542.465886673285,1026.63685026544,484.170963592154,-784.551368469362,29.1474615405656,755.403906928797
1.97103955046466,542.008221452386,1024.04971083119,482.0414893788,-783.028966141786,29.9833660367932,753.045600104993
1.97320077804193,529.873273135067,1015.14261647956,485.269343344493,-772.507944807314,22.3019648952873,750.205979912027
1.97536200561919,529.913459873418,1019.70296517335,489.789505299937,-774.808212523386,20.0619772867408,754.746235236646
1.97752323319646,529.879284384037,1026.06125518298,496.181970798947,-777.97026978351,16.8486567925448,761.121612990965
1.97968446077372,525.647398294993,1022.72368491057,497.076286615576,-774.185541602781,14.2855558397086,759.899985763073
1.98184568835098,521.150436593501,1019.14030504066,497.989868447161,-770.145370817081,11.5802840731698,758.565086743911
1.98400691592825,527.569911758724,1021.18471422451,493.614802465784,-774.377312991616,16.9775546464699,757.399758345146
1.98616814350551,531.316218860638,1027.86384901901,496.547630158369,-779.590033939823,17.3842943511346,762.205739588688
1.98832937108277,524.253651488055,1019.04849505037,494.794843562314,-771.651073269212,14.7294039628705,756.921669306341
1.99049059866004,521.97443121146,1017.31310082621,495.338669614748,-769.643766018834,13.3178807983556,756.325885220478
1.9926518262373,524.526254725505,1023.70289837285,499.176643647342,-774.114576549176,12.6748055390814,761.439771010095
1.99481305381457,520.687858937556,1026.56804406727,505.880185129718,-773.627951502415,7.40383690391877,766.224114598496
1.99697428139183,514.209903012206,1020.75259079911,506.542687786908,-767.481246905661,3.83360761264925,763.647639293011
1.99913550896909,510.577569668391,1015.94242302551,505.36485335712,-763.259996346951,2.60635815563575,760.653638191315
2.00129673654636,513.854094495996,1025.01236204005,511.158267544055,-769.433228268023,1.34791347597059,768.085314792053
2.00345796412362,512.5343200712,1029.70557399306,517.171253921862,-771.119947032131,-2.31846692533134,773.438413957462
2.00561919170089,504.907866042796,1016.34135363156,511.433487588763,-760.624609837177,-3.26281077298393,763.887420610161
2.00778041927815,502.843222291179,1015.80231393232,512.959091641141,-759.32276811175,-5.05793467498052,764.38070278673
2.00994164685541,504.778404142824,1026.24966589761,521.471261754783,-765.514035020216,-8.34642880597937,773.860463826195
2.01210287443268,503.712097415435,1024.79717351099,521.085076095556,-764.254635463213,-8.68648934006058,772.941124803274
2.01426410200994,497.034739697543,1015.43532763543,518.400587937883,-756.235033666484,-10.68292412017,766.917957786654
2.01642532958721,497.533199580905,1015.9779026241,518.444703043196,-756.755551102503,-10.4557517311458,767.211302833649
2.01858655716447,499.701707372796,1027.06101889747,527.359311524675,-763.381363135134,-13.8288020759395,777.210165211073
2.02074778474173,497.279493984415,1023.36843699092,526.088943006508,-760.32396548767,-14.4047245110465,774.728689998716
2.022909012319,492.092735902141,1012.55559228247,520.462856380329,-752.324164092306,-14.1850602390936,766.509224331399
2.02507023989626,495.163604341599,1020.31871652832,525.155112186721,-757.74116043496,-14.9957539225608,772.736914357521
2.02723146747353,497.508672259991,1027.77232174676,530.263649486772,-762.640497003377,-16.3774886133908,779.017985616767
2.02939269505079,493.330795673947,1022.09080930096,528.760013627012,-757.710802487453,-17.7146089765325,775.425411463986
2.03155392262805,488.398602768138,1015.22165858562,526.823055817486,-751.81013067688,-19.2122265246739,771.022357201554
2.03371515020532,490.805036200073,1018.77714643815,527.972110238074,-754.79109131911,-18.5835370190003,773.37462833811
2.03587637778258,493.017044738977,1025.94372180159,532.926677062608,-759.480383270281,-19.9548161618152,779.435199432096
2.03803760535984,487.855164339716,1025.47903729304,537.623872953328,-756.66710081638,-24.884354306806,781.551455123186
2.04019883293711,482.947381850671,1013.05099401675,530.10361216608,-747.999187933711,-23.5781151577049,771.577303091416
2.04236006051437,489.665310191324,1026.31784287,536.652532678677,-757.991576530663,-23.4936112436766,781.485187774339
2.04452128809164,497.557667471074,1028.96494134827,531.407273877196,-763.261304409673,-16.9248032030609,780.186107612734
2.0466825156689,491.758489574542,1018.07199810993,526.313508535387,-754.915243842235,-17.2775094804226,772.192753322658
2.04884374324616,489.366559204251,1013.39669237164,524.030133167394,-751.381625787948,-17.3317869815718,768.713412769519
2.05100497082343,491.195111066813,1022.73906202777,531.543950960955,-756.96708654729,-20.1744199470713,777.141506494361
2.05316619840069,489.828656697562,1026.39542498573,536.566768288171,-758.112040841648,-23.3690557953047,781.481096636952
2.05532742597796,483.605191147488,1020.53590360857,536.930712461078,-752.070547378027,-26.6627606567955,778.733308034822
2.05748865355522,480.492118607852,1017.9455330082,537.453414400345,-749.218825808024,-28.4806478962466,777.699473704271
2.05964988113248,484.009853440065,1024.16349932001,540.153645879947,-754.086676380038,-28.0718962199413,782.15857259998
2.06181110870975,486.881067231123,1024.79557685735,537.914509626224,-755.838322044235,-25.5167211975507,781.355043241786
2.06397233628701,486.413755303235,1019.43774503411,533.02398973088,-752.925750168675,-23.3051172138227,776.230867382497
2.06613356386428,491.037071769135,1016.90351536503,525.866443595899,-753.970293567084,-17.4146859133821,771.384979480466
2.06829479144154,500.342876929854,1025.2181057468,524.87522881695,-762.780491338329,-12.266175943548,775.046667281877
2.0704560190188,501.892591428207,1025.56024878262,523.667657354413,-763.726420105413,-10.8875329631032,774.613953068516
2.07261724659607,497.399403098056,1017.24267486795,519.843271769894,-757.321038983003,-11.221934335919,768.542973318922
2.07477847417333,498.50475263238,1017.04219224937,518.537439616985,-757.773472440872,-10.016343492303,767.789815933175
2.07693970175059,501.242469602276,1026.23441805041,524.991948448134,-763.738443826343,-11.874739422929,775.613183249272
2.07910092932786,496.004672288102,1024.47576573411,528.471093446005,-760.240219011104,-16.2332105789513,776.473429590056
2.08126215690512,488.625414395338,1014.64670179288,526.021287397546,-751.636058094111,-18.6979365011038,770.333994595215
2.08342338448239,486.183020520017,1018.40410767592,532.221087155901,-752.293564097967,-23.019033317942,775.312597415909
2.08558461205965,485.922602043155,1027.67510072068,541.752498677521,-756.798851381916,-27.9149483171827,784.713799699099
2.08774583963691,482.573849246414,1023.83168137277,541.257832126352,-753.20276530959,-29.3419914399694,782.544756749559
2.08990706721418,480.014538191925,1015.09225955594,535.077721364011,-747.553398873931,-27.5315915860432,775.084990459974
2.09206829479144,484.932165998037,1019.89999613387,534.967830135832,-752.416081065953,-25.0178320688975,777.43391313485
2.09422952236871,494.482745177327,1027.09793033136,532.615185154035,-760.790337754345,-19.066219988354,779.856557742699
2.09639074994597,493.350148496594,1019.55091396873,526.200765472136,-756.450531232662,-16.4253084877708,772.875839720433
2.09855197752323,492.211707265075,1013.17731128568,520.965604020602,-752.694509275376,-14.3769483777635,767.071457653139
2.1007132051005,494.593843567472,1022.35326504102,527.759421473547,-758.473554304246,-16.5827889530377,775.056343257283
2.10287443267776,496.140910439946,1030.7547629457,534.613852505755,-763.447836692823,-19.2364710329046,782.684307725728
2.10503566025502,492.285781974646,1019.75641347922,527.470631504577,-756.021097726934,-17.5924247649655,773.6135224919
2.10719688783229,489.188997221216,1014.32070350426,525.131706283049,-751.75485036274,-17.9713545309165,769.726204893656
2.10935811540955,494.408288353039,1022.9248015179,528.516513164864,-758.666544935471,-17.0541124059126,775.720657341384
2.11151934298682,498.222634554538,1025.59325293839,527.370618383852,-761.907943746465,-14.5739919146569,776.481935661121
2.11368057056408,494.894394653041,1017.686725528,522.792330874961,-756.290560090521,-13.9489681109599,770.239528201481
2.11584179814134,490.597435953011,1016.08322524794,525.48578929493,-753.340330600476,-17.4441766709596,770.784507271436
2.11800302571861,493.937536017714,1023.10275435146,529.165218333743,-758.520145184585,-17.6138411580145,776.133986342599
2.12016425329587,490.583373902698,1025.45877559447,534.875401691774,-758.021074748585,-22.1460138945378,780.167088643123
2.12232548087314,487.111687245968,1016.11566117028,529.003973924309,-751.613674208122,-20.9461433391706,772.559817547293
2.1244867084504,491.005677991387,1016.91872355776,525.913045566369,-753.962200774571,-17.4536837874913,771.415884562063
2.12664793602766,497.559204945682,1024.43786228357,526.878657337884,-760.998533614624,-14.6597261961008,775.658259810725
2.12880916360493,500.189591265711,1024.75392947274,524.564338207028,-762.471760369225,-12.1873734706587,774.659133839884
2.13097039118219,496.648755641733,1019.40375935306,522.75500371133,-758.026257497398,-13.0531240347984,771.079381532196
2.13313161875946,499.5745910813,1017.14414088434,517.569549803035,-758.359365982817,-8.99747936086777,767.356845343685
2.13529284633672,505.025996612167,1027.1058798253,522.079883213129,-766.065938218731,-8.5269433004807,774.592881519212
2.13745407391398,505.578195953167,1024.12159489623,518.543398943058,-764.849895424696,-6.4826014949453,771.332496919642
2.13961530149125,502.270121740712,1014.42538020064,512.155258459926,-758.347750970675,-4.94256835960732,763.290319330282
2.14177652906851,500.2478094659,1019.5052864855,519.257477019596,-759.876547975698,-9.50483377684805,769.381381752546
2.14393775664577,501.364263179209,1027.89894344384,526.534680264634,-764.631603311526,-12.5852085427128,777.216811854239
2.14609898422304,493.980832946816,1020.99697935007,527.016146403253,-757.488906148442,-16.5176567282188,774.006562876661
2.1482602118003,484.216615909882,1016.25441668138,532.037800771495,-750.235516295629,-23.9105924308065,774.146108726436
2.15042143937757,486.929854665387,1020.95223909033,534.022384424938,-753.941046877856,-23.5462648797758,777.487311757632
